Wavelength	Tablay400097.asd
350	 0.158627118082541 
351	 0.15161052612626 
352	 0.104816784504158 
353	 7.22733546767575E-02 
354	 0.148986288817334 
355	 0.171526590995715 
356	 0.187434452484062 
357	 0.237002502560156 
358	 0.160253985558134 
359	 0.11003742746478 
360	 0.120986019990649 
361	 0.161392145213298 
362	 0.139075149748687 
363	 0.110510074565909 
364	 0.103080706894136 
365	 6.33348334033396E-02 
366	 0.104759050786414 
367	 0.14350411504818 
368	 0.112524000152267 
369	 0.127320387986358 
370	 0.133629889582663 
371	 0.118285047548317 
372	 9.93687941279307E-02 
373	 0.125029141472902 
374	 0.138824155045847 
375	 0.112189201124129 
376	 7.12725143302531E-02 
377	 6.01725919141312E-02 
378	 8.91186847550238E-02 
379	 0.126560536160002 
380	 0.045550707296752 
381	 3.02370851461761E-02 
382	 9.14189316538755E-02 
383	 0.119907575477958 
384	 7.36054200374252E-02 
385	 3.78709006364913E-02 
386	 5.45042438793187E-02 
387	 7.52973211451777E-02 
388	 9.54064254013677E-02 
389	 9.62302867768432E-02 
390	 7.49130626780169E-02 
391	 8.46089730701327E-02 
392	 9.41725709133312E-02 
393	 8.76259059410688E-02 
394	 6.41150621100875E-02 
395	 6.17416207276984E-02 
396	 5.34923556255781E-02 
397	 4.09780448528298E-02 
398	 0.08859275366393 
399	 9.74814073815955E-02 
400	 0.082751337235444 
401	 8.36324909725285E-02 
402	 9.01658348249175E-02 
403	 8.38717283644211E-02 
404	 7.40814670721151E-02 
405	 8.69478843735163E-02 
406	 9.15447578738505E-02 
407	 8.41747948665375E-02 
408	 6.90698904963612E-02 
409	 5.69422166499432E-02 
410	 5.13201602837294E-02 
411	 5.54971152500411E-02 
412	 6.75781993593228E-02 
413	 6.88245987070959E-02 
414	 5.74015030591652E-02 
415	 4.83755298590625E-02 
416	 6.72983995086122E-02 
417	 0.0710996067567 
418	 6.33434643647098E-02 
419	 5.57374343311828E-02 
420	 5.92726594695505E-02 
421	 6.43418627719202E-02 
422	 6.60404853268066E-02 
423	 6.24935095698382E-02 
424	 5.62594697087313E-02 
425	 5.60352743099771E-02 
426	 5.95067404936754E-02 
427	 5.24832601779798E-02 
428	 5.71611800502988E-02 
429	 0.060813351444536 
430	 5.34554598691972E-02 
431	 5.45153009528902E-02 
432	 5.44273338224482E-02 
433	 5.42605790537983E-02 
434	 0.059253444884456 
435	 5.78077137148213E-02 
436	 5.48385135831094E-02 
437	 5.35403841873675E-02 
438	 5.16172503343425E-02 
439	 5.36518279942123E-02 
440	 5.55350724230704E-02 
441	 5.33012663641186E-02 
442	 5.35936427524702E-02 
443	 5.44821795227328E-02 
444	 0.054869714972479 
445	 5.44473731219947E-02 
446	 5.16578615268464E-02 
447	 5.11979891542874E-02 
448	 5.43946890697722E-02 
449	 5.37464991925753E-02 
450	 5.20246185368807E-02 
451	 5.24854451562893E-02 
452	 5.67123105099649E-02 
453	 5.50658581409312E-02 
454	 5.16851808255259E-02 
455	 5.03001156321786E-02 
456	 5.30241121714067E-02 
457	 0.053059364746433 
458	 5.14272516162185E-02 
459	 0.050607160293422 
460	 5.22120013882095E-02 
461	 5.18031152242293E-02 
462	 5.00809416096984E-02 
463	 5.04015503673332E-02 
464	 5.33098414534977E-02 
465	 5.36957982430481E-02 
466	 5.03420234592959E-02 
467	 0.04844220551648 
468	 4.96881532634009E-02 
469	 5.05321648337565E-02 
470	 4.82128659122239E-02 
471	 4.99659172140663E-02 
472	 5.11520261266674E-02 
473	 5.06604294431275E-02 
474	 5.03224069803676E-02 
475	 0.049824350872941 
476	 5.05033723690936E-02 
477	 5.20615017378389E-02 
478	 4.99928897875705E-02 
479	 0.049750597612857 
480	 5.02697459752478E-02 
481	 4.88235476101593E-02 
482	 4.84509799404634E-02 
483	 4.93826505096215E-02 
484	 0.050658237271367 
485	 5.03224228482518E-02 
486	 4.99428598538412E-02 
487	 4.98884262106555E-02 
488	 0.049922585506779 
489	 4.86757517813464E-02 
490	 4.86663074990218E-02 
491	 4.89381203573833E-02 
492	 0.047108816771997 
493	 4.73043880032985E-02 
494	 4.86550774215939E-02 
495	 0.04944622520664 
496	 4.73996713182787E-02 
497	 4.76760514282956E-02 
498	 4.84339634680074E-02 
499	 4.69783577388008E-02 
500	 0.046790899782811 
501	 4.77841309184683E-02 
502	 4.87876490476726E-02 
503	 4.80270632959718E-02 
504	 0.047558455808101 
505	 4.73044694305809E-02 
506	 4.70761738242277E-02 
507	 4.73950838815403E-02 
508	 4.76745035901809E-02 
509	 4.78566548414232E-02 
510	 4.80280763714591E-02 
511	 0.047570325605037 
512	 4.69299140167592E-02 
513	 4.66916075776391E-02 
514	 4.75154981171607E-02 
515	 4.73880128217008E-02 
516	 4.69140868042624E-02 
517	 4.69671813174748E-02 
518	 4.69657078524861E-02 
519	 0.046234345446294 
520	 4.53986019175116E-02 
521	 4.57952276273904E-02 
522	 4.62092063585975E-02 
523	 4.63207672791929E-02 
524	 4.62493576578544E-02 
525	 4.67732467946809E-02 
526	 4.66006079770131E-02 
527	 4.61578714338097E-02 
528	 4.62992288034458E-02 
529	 4.67007090884059E-02 
530	 4.65914425964911E-02 
531	 4.60844262116558E-02 
532	 4.61962512828405E-02 
533	 4.62976643815273E-02 
534	 4.63709900950415E-02 
535	 4.64130415660922E-02 
536	 4.60448443491973E-02 
537	 4.59764810060214E-02 
538	 4.61626032853117E-02 
539	 4.61473589715302E-02 
540	 4.58975811938429E-02 
541	 4.56032863959314E-02 
542	 0.0454414243563 
543	 4.55325448703177E-02 
544	 4.56626940676297E-02 
545	 4.58008853259894E-02 
546	 4.58693151592034E-02 
547	 4.52437807190576E-02 
548	 4.50455909047391E-02 
549	 4.54130951345073E-02 
550	 4.55744713064602E-02 
551	 4.54954277363702E-02 
552	 4.54033335089503E-02 
553	 4.54473053547214E-02 
554	 0.045443999692196 
555	 4.52640064260581E-02 
556	 4.50521856302516E-02 
557	 4.50518869505727E-02 
558	 4.51076822866305E-02 
559	 0.045213269906703 
560	 4.52800123977667E-02 
561	 4.50870492354425E-02 
562	 4.50533514579573E-02 
563	 4.52101135448979E-02 
564	 4.53928481168672E-02 
565	 4.51522732452504E-02 
566	 4.50033870956385E-02 
567	 4.50308961984089E-02 
568	 4.49998420955354E-02 
569	 4.50869927410668E-02 
570	 4.50436728227848E-02 
571	 4.47831977558103E-02 
572	 4.46481600235304E-02 
573	 4.47842324720408E-02 
574	 4.50972379056854E-02 
575	 4.53363154888945E-02 
576	 4.50954746480753E-02 
577	 4.47284754591166E-02 
578	 4.44895943920027E-02 
579	 4.44504554297994E-02 
580	 4.45664442932517E-02 
581	 4.46654193175513E-02 
582	 4.46439543696848E-02 
583	 4.46900606840646E-02 
584	 4.47640930521947E-02 
585	 4.48390961243866E-02 
586	 4.48953588122706E-02 
587	 4.49779485886633E-02 
588	 4.47157190371606E-02 
589	 4.42687219583824E-02 
590	 4.47465949573073E-02 
591	 4.48820643483422E-02 
592	 4.47379606886549E-02 
593	 4.46811661705487E-02 
594	 4.44465544635672E-02 
595	 4.45144952901771E-02 
596	 4.47533589250491E-02 
597	 4.45374958180128E-02 
598	 4.44563079755753E-02 
599	 4.44705901397297E-02 
600	 4.44909915221707E-02 
601	 4.46045793553005E-02 
602	 4.45281193834571E-02 
603	 0.044445178881987 
604	 4.46346587157863E-02 
605	 4.45107394770518E-02 
606	 4.43623209558507E-02 
607	 0.044382888272674 
608	 4.45556516158304E-02 
609	 4.46080725922446E-02 
610	 4.45339438036763E-02 
611	 4.44125086073978E-02 
612	 4.43164912303513E-02 
613	 4.43721022710743E-02 
614	 4.45361736106877E-02 
615	 4.46385231688941E-02 
616	 4.44258169037446E-02 
617	 4.43448073322144E-02 
618	 4.45275872478966E-02 
619	 4.43843243135809E-02 
620	 4.43179309833637E-02 
621	 4.42793239702681E-02 
622	 4.41660445130434E-02 
623	 4.43422897782086E-02 
624	 4.44626507473744E-02 
625	 4.44081955753411E-02 
626	 4.43093811517442E-02 
627	 4.43805130202119E-02 
628	 4.44538338015708E-02 
629	 4.44011206436102E-02 
630	 4.43810104458415E-02 
631	 4.43660430628242E-02 
632	 4.43229169134025E-02 
633	 4.42384056498405E-02 
634	 4.42719294005405E-02 
635	 4.43348471567772E-02 
636	 4.43649296611495E-02 
637	 4.43609514696074E-02 
638	 0.044282999483685 
639	 4.43198361748449E-02 
640	 4.45470000282817E-02 
641	 4.45061899025262E-02 
642	 4.44370903615178E-02 
643	 0.044412779905933 
644	 4.43987337806943E-02 
645	 4.43840688491642E-02 
646	 4.43591987736471E-02 
647	 4.43120564002887E-02 
648	 4.42144815877905E-02 
649	 4.43368628145961E-02 
650	 4.44190173652451E-02 
651	 4.42301422651205E-02 
652	 4.44038450031729E-02 
653	 4.45136366104274E-02 
654	 4.44659570934492E-02 
655	 4.44526081418203E-02 
656	 4.43485702239669E-02 
657	 4.43686924734108E-02 
658	 4.45663355716317E-02 
659	 4.45591026200958E-02 
660	 4.44881672863731E-02 
661	 4.44805528523291E-02 
662	 4.46019208971889E-02 
663	 4.45547630041719E-02 
664	 4.46361207249782E-02 
665	 4.48403890356474E-02 
666	 4.48391195511123E-02 
667	 4.47888413050386E-02 
668	 0.044757906945983 
669	 4.47679605506439E-02 
670	 4.47555981012697E-02 
671	 4.48164598971468E-02 
672	 4.48632066990994E-02 
673	 4.47802607068978E-02 
674	 4.48572808242731E-02 
675	 4.49546969830441E-02 
676	 0.04502073020169 
677	 4.51503283141475E-02 
678	 4.51279301974014E-02 
679	 4.50778426001052E-02 
680	 0.045133371358051 
681	 4.52047698546045E-02 
682	 4.52558980168301E-02 
683	 4.54056462457065E-02 
684	 4.57712528778124E-02 
685	 4.57341321402953E-02 
686	 4.57137825304749E-02 
687	 4.58841438750326E-02 
688	 4.59241895393246E-02 
689	 4.60011105771715E-02 
690	 0.046195814500545 
691	 4.64837469398397E-02 
692	 4.65559926321622E-02 
693	 4.66609909421564E-02 
694	 4.68781346955157E-02 
695	 4.71591142831337E-02 
696	 0.04738979193651 
697	 4.76522697919559E-02 
698	 4.79366212638093E-02 
699	 4.80460361998823E-02 
700	 4.83135872063742E-02 
701	 4.86965788443056E-02 
702	 4.90849480935307E-02 
703	 0.049568012732484 
704	 5.00428330320694E-02 
705	 5.05274329755843E-02 
706	 5.11049290150361E-02 
707	 5.15853865394836E-02 
708	 5.21602019419623E-02 
709	 5.28967680889908E-02 
710	 5.35739401633187E-02 
711	 5.43564328586946E-02 
712	 5.52479367607003E-02 
713	 5.61912367232069E-02 
714	 5.70681854799272E-02 
715	 5.81104998707766E-02 
716	 5.93167959741336E-02 
717	 6.05252785822405E-02 
718	 6.18265135490361E-02 
719	 6.32363498908309E-02 
720	 6.47432804086094E-02 
721	 6.63016511540012E-02 
722	 6.81209693767683E-02 
723	 7.00892742327257E-02 
724	 7.20735705570512E-02 
725	 7.42808777579644E-02 
726	 7.65371564792331E-02 
727	 7.88494569033071E-02 
728	 8.13478981158022E-02 
729	 8.40008443186797E-02 
730	 8.67476382329163E-02 
731	 8.95918881265275E-02 
732	 9.26494954364435E-02 
733	 9.57594637207988E-02 
734	 9.89518050416077E-02 
735	 0.102285214180652 
736	 0.105679137270815 
737	 0.109247139059369 
738	 0.112906220041851 
739	 0.116468355800171 
740	 0.120158696849115 
741	 0.123836463699978 
742	 0.127458060318659 
743	 0.131193475669034 
744	 0.134977639228966 
745	 0.138743716494687 
746	 0.142449335280474 
747	 0.146165554009867 
748	 0.14977351069772 
749	 0.153326163925237 
750	 0.156953083045392 
751	 0.160509338334357 
752	 0.163960686892158 
753	 0.167315195188843 
754	 0.170615252110236 
755	 0.17376453445365 
756	 0.176889276545021 
757	 0.180058590230525 
758	 0.183026032612665 
759	 0.185881419862559 
760	 0.188672905552344 
761	 0.191426298462467 
762	 0.194163069362877 
763	 0.196744292768955 
764	 0.199170697205844 
765	 0.201595409195995 
766	 0.203943460236743 
767	 0.20621684087648 
768	 0.208422114017721 
769	 0.210535733335715 
770	 0.21259039545943 
771	 0.214606006266401 
772	 0.216586087035794 
773	 0.218496464860149 
774	 0.220335926100341 
775	 0.222073522675993 
776	 0.223673894578659 
777	 0.225338729417272 
778	 0.227033996125837 
779	 0.228691214182263 
780	 0.230250414859033 
781	 0.231704521438256 
782	 0.233132102737983 
783	 0.234592745467519 
784	 0.235975844111655 
785	 0.237378732569072 
786	 0.238718867897161 
787	 0.239871524035768 
788	 0.241218104466151 
789	 0.242532176665036 
790	 0.243695922129708 
791	 0.244796452152192 
792	 0.245931184422661 
793	 0.247100938172667 
794	 0.248257065781987 
795	 0.249284588264535 
796	 0.250314503585203 
797	 0.251368701881395 
798	 0.252421422203833 
799	 0.253447221293431 
800	 0.254444308388913 
801	 0.255418696461645 
802	 0.256376364454792 
803	 0.257275408497419 
804	 0.258147381758711 
805	 0.259037599029127 
806	 0.25999281325112 
807	 0.260881064734906 
808	 0.261708065898567 
809	 0.262525299725215 
810	 0.263410085016175 
811	 0.264250410391144 
812	 0.265014640479053 
813	 0.265736657799459 
814	 0.266566914961378 
815	 0.267407226519287 
816	 0.268159047484699 
817	 0.268774335845943 
818	 0.26962039069604 
819	 0.270474963409575 
820	 0.271178737791992 
821	 0.271829602898264 
822	 0.272470244449283 
823	 0.273172095013979 
824	 0.273941866924686 
825	 0.274586654303542 
826	 0.275210865507586 
827	 0.275838625230913 
828	 0.276452463264056 
829	 0.277019898515546 
830	 0.277676353977614 
831	 0.278358404857627 
832	 0.278856272833492 
833	 0.279399250050958 
834	 0.280011781689924 
835	 0.280633801740942 
836	 0.281131635417466 
837	 0.28177270644486 
838	 0.282328591640304 
839	 0.282676302874761 
840	 0.283348034742521 
841	 0.283890530185565 
842	 0.284386969258968 
843	 0.285030760838028 
844	 0.285421232209156 
845	 0.28582075395672 
846	 0.286316788110889 
847	 0.286841757357626 
848	 0.287385179327368 
849	 0.287878671085978 
850	 0.288311081819299 
851	 0.288747280247551 
852	 0.289230770492781 
853	 0.289716398779113 
854	 0.290145604506593 
855	 0.290465721098659 
856	 0.290896484891213 
857	 0.291415159258221 
858	 0.291916195222607 
859	 0.292324794908991 
860	 0.29272743397475 
861	 0.293140448548329 
862	 0.293546174433033 
863	 0.293978041039198 
864	 0.29438833105126 
865	 0.294745715321835 
866	 0.295056752974338 
867	 0.295495929286418 
868	 0.295896341706908 
869	 0.296251795346478 
870	 0.296819459560622 
871	 0.296994425519364 
872	 0.297184985757423 
873	 0.297698809121109 
874	 0.298132607748725 
875	 0.298506403609653 
876	 0.29882878210738 
877	 0.299125706906445 
878	 0.299437490647629 
879	 0.299823960307158 
880	 0.300152576120288 
881	 0.300308354429149 
882	 0.300791636399534 
883	 0.301232825976156 
884	 0.30149199783727 
885	 0.301683804510826 
886	 0.302118501596806 
887	 0.302544871254866 
888	 0.302834801660733 
889	 0.303086310799696 
890	 0.303392131744016 
891	 0.303576082756704 
892	 0.303674207125598 
893	 0.304145721187213 
894	 0.304549685354364 
895	 0.304804049819106 
896	 0.304971110206223 
897	 0.305221987015316 
898	 0.305495197819006 
899	 0.305747902182594 
900	 0.305949675235464 
901	 0.306081730267559 
902	 0.306390410731713 
903	 0.306833166509175 
904	 0.307210326508001 
905	 0.307384202759552 
906	 0.307638442304432 
907	 0.307928370595193 
908	 0.308009742047476 
909	 0.308121941554765 
910	 0.308512159564599 
911	 0.309022956572227 
912	 0.309154324077027 
913	 0.309170884629082 
914	 0.309477537289263 
915	 0.310009967325912 
916	 0.310088708986229 
917	 0.310161118027892 
918	 0.310370548231837 
919	 0.310684027847248 
920	 0.310867340232049 
921	 0.311023458534771 
922	 0.311278309950053 
923	 0.311620049743072 
924	 0.311671278673349 
925	 0.311892442091322 
926	 0.312169477906428 
927	 0.312335603768495 
928	 0.312741581038722 
929	 0.312857803006106 
930	 0.31288739855805 
931	 0.313193953506417 
932	 0.313383556151048 
933	 0.313559109104787 
934	 0.313859468247534 
935	 0.314301901391264 
936	 0.314205776167149 
937	 0.314237293026718 
938	 0.314647483484072 
939	 0.315243738786492 
940	 0.315452426138575 
941	 0.315619942455277 
942	 0.315822628860265 
943	 0.315883048386504 
944	 0.316186383575578 
945	 0.316472083273708 
946	 0.316684482094635 
947	 0.317023450982164 
948	 0.317141622260263 
949	 0.31719214252124 
950	 0.317333166719081 
951	 0.317610171048663 
952	 0.317853232313026 
953	 0.318007518324376 
954	 0.318109383597308 
955	 0.318282812052895 
956	 0.318448181406328 
957	 0.318687523420393 
958	 0.318938682433824 
959	 0.31886833061368 
960	 0.318942149228232 
961	 0.319201269809305 
962	 0.319532822695322 
963	 0.319752388960715 
964	 0.319985445781145 
965	 0.320127069585607 
966	 0.320062954393253 
967	 0.319764054056212 
968	 0.319985089405744 
969	 0.320439554912129 
970	 0.320661891461701 
971	 0.320558200851463 
972	 0.320969903564877 
973	 0.321266373606102 
974	 0.32094299659124 
975	 0.321137556911274 
976	 0.321438740430133 
977	 0.321656771291511 
978	 0.321712613482415 
979	 0.321687560457198 
980	 0.321467726980449 
981	 0.32148705625744 
982	 0.32207573221187 
983	 0.322764740824297 
984	 0.322569793542357 
985	 0.322282877108645 
986	 0.322801107613532 
987	 0.323084821471704 
988	 0.323390555048392 
989	 0.323506404041901 
990	 0.323265038352919 
991	 0.323100296238963 
992	 0.32313986725251 
993	 0.32344275563873 
994	 0.323849002989241 
995	 0.323671720459408 
996	 0.323603628044803 
997	 0.323501665574446 
998	 0.323257009478552 
999	 0.32395120204945 
1000	 0.324159100767984 
1001	 0.323734091647047 
1002	 0.32349719412898 
1003	 0.323589666198813 
1004	 0.323760875888789 
1005	 0.324146589731483 
1006	 0.324266664814408 
1007	 0.324343984152348 
1008	 0.324486787228637 
1009	 0.324698436412476 
1010	 0.324702217418613 
1011	 0.324561977349513 
1012	 0.324622347363722 
1013	 0.324486364946017 
1014	 0.32450785724966 
1015	 0.324803802948058 
1016	 0.325163133486824 
1017	 0.325257462907833 
1018	 0.325462758682629 
1019	 0.32530995821821 
1020	 0.325207844628206 
1021	 0.325274348236542 
1022	 0.325319405836422 
1023	 0.325362816380997 
1024	 0.325646042929715 
1025	 0.325741514001266 
1026	 0.325660128285636 
1027	 0.325682341109215 
1028	 0.325765008702518 
1029	 0.325784838739957 
1030	 0.325743843531473 
1031	 0.325759489782876 
1032	 0.325830206379987 
1033	 0.325938684367282 
1034	 0.326211382549967 
1035	 0.326345127175499 
1036	 0.326452503111051 
1037	 0.326547759948474 
1038	 0.326639754514138 
1039	 0.326706657280714 
1040	 0.32675462886515 
1041	 0.326770037554851 
1042	 0.326779610096143 
1043	 0.326750112343336 
1044	 0.326674855913719 
1045	 0.326795264112838 
1046	 0.326900557235916 
1047	 0.327025626808755 
1048	 0.327225381108685 
1049	 0.327205676134624 
1050	 0.327330656628792 
1051	 0.327378599009398 
1052	 0.327317279377356 
1053	 0.327415985377167 
1054	 0.327624096724176 
1055	 0.327721436323358 
1056	 0.327891202078399 
1057	 0.328010847093232 
1058	 0.328051984908917 
1059	 0.32806773047689 
1060	 0.328248484192064 
1061	 0.328412730296325 
1062	 0.32838813434625 
1063	 0.328450641267351 
1064	 0.328446954794066 
1065	 0.328373966450095 
1066	 0.328557138066613 
1067	 0.328719177171235 
1068	 0.328825469461801 
1069	 0.328889597494644 
1070	 0.328899042944814 
1071	 0.328834062897404 
1072	 0.328749782354764 
1073	 0.328676797776887 
1074	 0.328664934060156 
1075	 0.328648478027433 
1076	 0.328856313182648 
1077	 0.329047087598621 
1078	 0.329080530028407 
1079	 0.329132187554541 
1080	 0.329042109047229 
1081	 0.328989074906812 
1082	 0.329024486247556 
1083	 0.329051676724441 
1084	 0.329164683828157 
1085	 0.329350980579514 
1086	 0.329446875699553 
1087	 0.329549621280553 
1088	 0.329591762248166 
1089	 0.329607015772068 
1090	 0.329620633282148 
1091	 0.329593373460847 
1092	 0.32974805029303 
1093	 0.329931396845718 
1094	 0.329908301966257 
1095	 0.329987867502555 
1096	 0.330052230263028 
1097	 0.330116317118649 
1098	 0.330177504340888 
1099	 0.330116761151 
1100	 0.330203215910958 
1101	 0.330273483207946 
1102	 0.330313812720737 
1103	 0.330391076197653 
1104	 0.330558382156978 
1105	 0.330611867006269 
1106	 0.330644369222318 
1107	 0.330682362854209 
1108	 0.330784697193348 
1109	 0.330873136904302 
1110	 0.330881129558703 
1111	 0.331018999681332 
1112	 0.331106338999514 
1113	 0.331128685311138 
1114	 0.331207320900401 
1115	 0.331280962243054 
1116	 0.331415895654756 
1117	 0.331582729798429 
1118	 0.331697873726325 
1119	 0.331851260193916 
1120	 0.331938140589871 
1121	 0.331963273055406 
1122	 0.33193089974437 
1123	 0.331966080285338 
1124	 0.332098630840957 
1125	 0.332198838296537 
1126	 0.332304757177478 
1127	 0.332443721574016 
1128	 0.332513320075685 
1129	 0.332572813944347 
1130	 0.332661291971545 
1131	 0.332708111036903 
1132	 0.332651418120123 
1133	 0.332593314497739 
1134	 0.332653614973051 
1135	 0.332706008928035 
1136	 0.332830656238259 
1137	 0.332901268682106 
1138	 0.332924403170089 
1139	 0.332979357758809 
1140	 0.333034050119329 
1141	 0.333111534928646 
1142	 0.333170133760183 
1143	 0.333297672122901 
1144	 0.333341246283864 
1145	 0.333350445084163 
1146	 0.333433936529184 
1147	 0.333474712615657 
1148	 0.33353347884068 
1149	 0.333603766952319 
1150	 0.333726660601411 
1151	 0.33391247808327 
1152	 0.333971735400102 
1153	 0.333952995545355 
1154	 0.334008922228797 
1155	 0.333993284356356 
1156	 0.334032550602137 
1157	 0.334228702987405 
1158	 0.334281870371461 
1159	 0.33425130090537 
1160	 0.334218069567706 
1161	 0.334194707048487 
1162	 0.334229314804696 
1163	 0.334283507562785 
1164	 0.334267620677983 
1165	 0.334221559422216 
1166	 0.334179376057957 
1167	 0.33416378128616 
1168	 0.33417533664248 
1169	 0.334157616073988 
1170	 0.334100584020464 
1171	 0.334095429628105 
1172	 0.334153285440435 
1173	 0.334116183976612 
1174	 0.334045411330169 
1175	 0.334000792807093 
1176	 0.333881255398653 
1177	 0.333806429062625 
1178	 0.33375929856311 
1179	 0.333778054038363 
1180	 0.333784632004826 
1181	 0.333744761981446 
1182	 0.333739047419805 
1183	 0.333755908088058 
1184	 0.333730882843727 
1185	 0.333739748471555 
1186	 0.333689062276414 
1187	 0.333581131712382 
1188	 0.333549383571792 
1189	 0.333482084487186 
1190	 0.333472898926442 
1191	 0.333577358314296 
1192	 0.333622565479193 
1193	 0.333662653161352 
1194	 0.333696000293082 
1195	 0.333689124470548 
1196	 0.333724124148359 
1197	 0.333781495402146 
1198	 0.333816934048854 
1199	 0.333869428535228 
1200	 0.333947767404356 
1201	 0.334045904646264 
1202	 0.334213317364223 
1203	 0.334430954082557 
1204	 0.334649842155878 
1205	 0.334811508131183 
1206	 0.334911568499047 
1207	 0.335074588504668 
1208	 0.335173100073514 
1209	 0.335415615833792 
1210	 0.335785085709677 
1211	 0.336085524237573 
1212	 0.336412768042871 
1213	 0.336784326395494 
1214	 0.337122743866639 
1215	 0.337530351079423 
1216	 0.338016203345248 
1217	 0.338522644304229 
1218	 0.339093462329043 
1219	 0.339615930789774 
1220	 0.340189786044101 
1221	 0.340745747422118 
1222	 0.341195268752256 
1223	 0.341715346107046 
1224	 0.342249907075976 
1225	 0.342803496598061 
1226	 0.34334161221284 
1227	 0.343917260257093 
1228	 0.344442663063478 
1229	 0.344927073518882 
1230	 0.345432218085833 
1231	 0.345989313131078 
1232	 0.346441115364134 
1233	 0.34679967044117 
1234	 0.347208207237149 
1235	 0.34756549898161 
1236	 0.347949812619239 
1237	 0.348411414224626 
1238	 0.348831502209726 
1239	 0.34921403513144 
1240	 0.349603325857356 
1241	 0.34997899450259 
1242	 0.350312589745836 
1243	 0.350661167056889 
1244	 0.351001400205992 
1245	 0.351308201761153 
1246	 0.35159423974673 
1247	 0.35190151915045 
1248	 0.352173841572237 
1249	 0.352493525762632 
1250	 0.352864848294983 
1251	 0.353200247102319 
1252	 0.353540439498735 
1253	 0.353862862611832 
1254	 0.354161100354995 
1255	 0.354472281859309 
1256	 0.354793191359362 
1257	 0.355091681471724 
1258	 0.355396205864623 
1259	 0.35567509220304 
1260	 0.355879068669453 
1261	 0.356147048451243 
1262	 0.35641608537168 
1263	 0.356748151922682 
1264	 0.357044972587289 
1265	 0.357389672130036 
1266	 0.357674110903728 
1267	 0.357909404606043 
1268	 0.358168563981518 
1269	 0.358418017767988 
1270	 0.358685452752936 
1271	 0.358963604636076 
1272	 0.359236015858258 
1273	 0.359509467574949 
1274	 0.359794334745215 
1275	 0.360095209338149 
1276	 0.360365102675847 
1277	 0.360597264128839 
1278	 0.360892575581888 
1279	 0.361212555613521 
1280	 0.361510546378849 
1281	 0.361875907759282 
1282	 0.362184023858024 
1283	 0.362444988971942 
1284	 0.362685091466964 
1285	 0.362901686313434 
1286	 0.363084829933015 
1287	 0.363299580033486 
1288	 0.363480682370082 
1289	 0.363721840057886 
1290	 0.364039106749249 
1291	 0.364257428771972 
1292	 0.364439177218901 
1293	 0.364650748272895 
1294	 0.364803666335001 
1295	 0.365026459861713 
1296	 0.365328544706685 
1297	 0.36557795157418 
1298	 0.365817722687138 
1299	 0.366060643238121 
1300	 0.366312945255064 
1301	 0.366526404983031 
1302	 0.366679189171205 
1303	 0.366905654356602 
1304	 0.36716070386818 
1305	 0.367389215381736 
1306	 0.367666807698453 
1307	 0.367920498067107 
1308	 0.368123730369033 
1309	 0.368342263770544 
1310	 0.368522266316854 
1311	 0.368691964072114 
1312	 0.368882336863817 
1313	 0.369022118581628 
1314	 0.369246466865347 
1315	 0.369567720682566 
1316	 0.369780902753561 
1317	 0.369966090451964 
1318	 0.370167701187503 
1319	 0.370305335505503 
1320	 0.370510752537198 
1321	 0.370792549087128 
1322	 0.371012076616171 
1323	 0.371217988814625 
1324	 0.371422033372171 
1325	 0.371568719882236 
1326	 0.371780173823393 
1327	 0.372074642533412 
1328	 0.372284641422455 
1329	 0.3724681921858 
1330	 0.372665852002738 
1331	 0.372836551047805 
1332	 0.372980851736962 
1333	 0.373092593628816 
1334	 0.373274259061998 
1335	 0.373417008492454 
1336	 0.373503715523801 
1337	 0.373655612675108 
1338	 0.373855097032035 
1339	 0.374025443911047 
1340	 0.374187940671831 
1341	 0.374371956964244 
1342	 0.374581856449924 
1343	 0.374750590961541 
1344	 0.374936503682739 
1345	 0.375060584970282 
1346	 0.375139098532382 
1347	 0.375203432001697 
1348	 0.375230162484701 
1349	 0.375261913381602 
1350	 0.375268281480585 
1351	 0.375283089057144 
1352	 0.375299835120081 
1353	 0.375306800305972 
1354	 0.375314069960809 
1355	 0.375315459835179 
1356	 0.375301885566502 
1357	 0.375296539909322 
1358	 0.375265761481443 
1359	 0.375272750267107 
1360	 0.3753016177225 
1361	 0.375348659449912 
1362	 0.375374958817126 
1363	 0.375458802926797 
1364	 0.375478228296152 
1365	 0.375490768250602 
1366	 0.375435701875693 
1367	 0.375336265558666 
1368	 0.375229213177882 
1369	 0.375064368714652 
1370	 0.374929935249536 
1371	 0.3748067245567 
1372	 0.374668916180128 
1373	 0.374539490741906 
1374	 0.374365002067588 
1375	 0.374146953105393 
1376	 0.373962028550661 
1377	 0.373765886299818 
1378	 0.373562292968007 
1379	 0.373393353048776 
1380	 0.373179037156021 
1381	 0.372912577523003 
1382	 0.372669785027695 
1383	 0.372432425126808 
1384	 0.372177488748759 
1385	 0.371925585989135 
1386	 0.37165461675801 
1387	 0.371348489851614 
1388	 0.371066363341768 
1389	 0.370764766704994 
1390	 0.370502543741046 
1391	 0.370270566267984 
1392	 0.37002447263049 
1393	 0.369899368715934 
1394	 0.369779695325614 
1395	 0.369661520475893 
1396	 0.369607604154091 
1397	 0.369485586814165 
1398	 0.369360994826664 
1399	 0.369144086596656 
1400	 0.368888937006582 
1401	 0.368587121716461 
1402	 0.368207829812813 
1403	 0.367804198850321 
1404	 0.367403573142953 
1405	 0.366904656540513 
1406	 0.366318136991975 
1407	 0.365713889988491 
1408	 0.365033293634171 
1409	 0.364362773805659 
1410	 0.363653203961429 
1411	 0.362967432679383 
1412	 0.362264693687685 
1413	 0.361595704668621 
1414	 0.360930653337541 
1415	 0.360305092951031 
1416	 0.359685838825583 
1417	 0.359127368946957 
1418	 0.358647434319118 
1419	 0.358143269898858 
1420	 0.357661221434309 
1421	 0.357195199513174 
1422	 0.356743674528522 
1423	 0.356271259270005 
1424	 0.355790271055201 
1425	 0.355335178962025 
1426	 0.354905602794643 
1427	 0.354483384324434 
1428	 0.354094134148716 
1429	 0.3537462843508 
1430	 0.353371238429962 
1431	 0.352978352062447 
1432	 0.352590399945787 
1433	 0.352208569892776 
1434	 0.351831760828902 
1435	 0.351456514365891 
1436	 0.351060891905784 
1437	 0.350659237625738 
1438	 0.350276893430704 
1439	 0.349860543814026 
1440	 0.349505324312808 
1441	 0.34918254698377 
1442	 0.348895688606289 
1443	 0.348623069934887 
1444	 0.348412837668785 
1445	 0.348220288488419 
1446	 0.348139455590449 
1447	 0.348069956589048 
1448	 0.348188228471629 
1449	 0.34845167862028 
1450	 0.348801849396084 
1451	 0.349311677831937 
1452	 0.349870160555216 
1453	 0.350561702012921 
1454	 0.35122002621547 
1455	 0.351949136488377 
1456	 0.352653205565184 
1457	 0.353336216621723 
1458	 0.354035594276427 
1459	 0.354785300096 
1460	 0.355479251459741 
1461	 0.356162399480313 
1462	 0.356808413582073 
1463	 0.357392966555537 
1464	 0.357983697116998 
1465	 0.358558594850743 
1466	 0.359118958842056 
1467	 0.359689682519552 
1468	 0.360262429790334 
1469	 0.360816749967909 
1470	 0.361343694360216 
1471	 0.361876224728501 
1472	 0.362386046730817 
1473	 0.362917847991277 
1474	 0.363480878814079 
1475	 0.363968972406135 
1476	 0.364443576068256 
1477	 0.364873828347522 
1478	 0.365248003122458 
1479	 0.36561042497403 
1480	 0.365946722773076 
1481	 0.366269876919693 
1482	 0.366578008881163 
1483	 0.366842451808562 
1484	 0.367064640482678 
1485	 0.367307291883781 
1486	 0.367495965246943 
1487	 0.367741389890178 
1488	 0.368028636069419 
1489	 0.3683091001144 
1490	 0.368580073122185 
1491	 0.368903229824982 
1492	 0.369247738956418 
1493	 0.369624505628414 
1494	 0.370049015053415 
1495	 0.370481032275691 
1496	 0.370927226082149 
1497	 0.371403942076375 
1498	 0.371921098783217 
1499	 0.372429148253687 
1500	 0.372963922154963 
1501	 0.373482441599184 
1502	 0.374002845740618 
1503	 0.374508767795926 
1504	 0.375004156071341 
1505	 0.375497184507399 
1506	 0.375999796837789 
1507	 0.376459379264803 
1508	 0.376898082857206 
1509	 0.377322332222255 
1510	 0.377719956109233 
1511	 0.37808977097305 
1512	 0.37842498744631 
1513	 0.378774347992405 
1514	 0.379125733205264 
1515	 0.379434846565564 
1516	 0.3797378972358 
1517	 0.380021083753625 
1518	 0.380235689120317 
1519	 0.380472225992157 
1520	 0.380733938542682 
1521	 0.380960594417682 
1522	 0.381210317108492 
1523	 0.381479434412121 
1524	 0.381678606911609 
1525	 0.381867831076974 
1526	 0.382008715444885 
1527	 0.382059274619077 
1528	 0.38221587121572 
1529	 0.382410810047005 
1530	 0.382541920319133 
1531	 0.382687360430866 
1532	 0.382824964845375 
1533	 0.382899922065796 
1534	 0.383033035093619 
1535	 0.383223742808351 
1536	 0.383369164504991 
1537	 0.383474453879264 
1538	 0.383647041666538 
1539	 0.383818761533956 
1540	 0.384069010174174 
1541	 0.384399071863766 
1542	 0.384693296478798 
1543	 0.385010936347768 
1544	 0.385345769949736 
1545	 0.385659430422464 
1546	 0.386039702558959 
1547	 0.386519132098162 
1548	 0.38689453413546 
1549	 0.387241418986913 
1550	 0.387608785791105 
1551	 0.38790738718563 
1552	 0.388295399196667 
1553	 0.38876962886113 
1554	 0.389186244021682 
1555	 0.389617319738096 
1556	 0.390016522114135 
1557	 0.390377470085949 
1558	 0.390755830081666 
1559	 0.391129181250496 
1560	 0.391504623025409 
1561	 0.391892787021984 
1562	 0.392255626194837 
1563	 0.392604310873379 
1564	 0.392953087432866 
1565	 0.393299654573734 
1566	 0.393620213247555 
1567	 0.393910015480739 
1568	 0.394233432755631 
1569	 0.394531640447146 
1570	 0.39487519374776 
1571	 0.395269058625753 
1572	 0.39565579578015 
1573	 0.396092496567558 
1574	 0.396456171116367 
1575	 0.396789109022817 
1576	 0.3971210434659 
1577	 0.397385656842193 
1578	 0.397699400357136 
1579	 0.398027436090612 
1580	 0.398384058763968 
1581	 0.398800898145259 
1582	 0.399154571777905 
1583	 0.399497430378032 
1584	 0.399842082305614 
1585	 0.400162655507892 
1586	 0.400459065025934 
1587	 0.400753691246204 
1588	 0.401042152820681 
1589	 0.401261023742163 
1590	 0.401541920333637 
1591	 0.401878800667982 
1592	 0.402192316444114 
1593	 0.402506419219238 
1594	 0.402837030418973 
1595	 0.403187916840845 
1596	 0.403504168090245 
1597	 0.403821133897985 
1598	 0.4041287383191 
1599	 0.404381961065438 
1600	 0.404679264257909 
1601	 0.40500720397867 
1602	 0.405330789173994 
1603	 0.405677345597567 
1604	 0.406003073984484 
1605	 0.406316251135117 
1606	 0.406636291265342 
1607	 0.406999728426656 
1608	 0.40727106687341 
1609	 0.407471019413639 
1610	 0.407705411244916 
1611	 0.407896059053524 
1612	 0.40808789793686 
1613	 0.408301936045368 
1614	 0.408519166033591 
1615	 0.408738402533711 
1616	 0.408911271455762 
1617	 0.409067038123938 
1618	 0.409244116930191 
1619	 0.409386060848538 
1620	 0.409532046646301 
1621	 0.409739955918261 
1622	 0.409879153610384 
1623	 0.40996571545177 
1624	 0.410039756445112 
1625	 0.410062287360038 
1626	 0.410119057191512 
1627	 0.410150282019321 
1628	 0.410216211298258 
1629	 0.410357451246603 
1630	 0.410430596586791 
1631	 0.410444533457241 
1632	 0.410532426083929 
1633	 0.410661188105119 
1634	 0.410726093261249 
1635	 0.410782924413579 
1636	 0.410872059111168 
1637	 0.410930835596057 
1638	 0.410986201078742 
1639	 0.411120792948026 
1640	 0.411189618261567 
1641	 0.411138663600095 
1642	 0.411163377089259 
1643	 0.411258673473675 
1644	 0.411289927331328 
1645	 0.411325310739197 
1646	 0.411332414694707 
1647	 0.41129302265333 
1648	 0.411221036509223 
1649	 0.411178065415063 
1650	 0.411026741095955 
1651	 0.410799999365054 
1652	 0.410523074526058 
1653	 0.410166184069331 
1654	 0.409757924633123 
1655	 0.409253015862023 
1656	 0.408770563553997 
1657	 0.408274705493336 
1658	 0.407733376765185 
1659	 0.407202798495307 
1660	 0.406595095217185 
1661	 0.405882367009037 
1662	 0.405202355986419 
1663	 0.404494683017896 
1664	 0.40377910636888 
1665	 0.403119880972989 
1666	 0.402327899400379 
1667	 0.401472615946684 
1668	 0.400568443603241 
1669	 0.39953715153282 
1670	 0.398533103669557 
1671	 0.39750216224688 
1672	 0.396478365402655 
1673	 0.395448479692971 
1674	 0.394409999596027 
1675	 0.393388317171568 
1676	 0.392334902821774 
1677	 0.391279414311038 
1678	 0.390180534942315 
1679	 0.389030257481466 
1680	 0.387861967027746 
1681	 0.386680520901551 
1682	 0.385442056275813 
1683	 0.384146825142745 
1684	 0.38289957461658 
1685	 0.381690899029207 
1686	 0.380332124721026 
1687	 0.37892339896422 
1688	 0.37746482490623 
1689	 0.375892984071944 
1690	 0.374278775082729 
1691	 0.37268536097075 
1692	 0.370980485857551 
1693	 0.369167524568669 
1694	 0.367271677194259 
1695	 0.36523416320218 
1696	 0.363282831054272 
1697	 0.361318601279896 
1698	 0.359246004933767 
1699	 0.357248132755557 
1700	 0.355100325035111 
1701	 0.352699021608569 
1702	 0.350486134768762 
1703	 0.348250083066691 
1704	 0.346137232352031 
1705	 0.344099707216795 
1706	 0.342053995791603 
1707	 0.340230297874489 
1708	 0.33853068241095 
1709	 0.337019128981201 
1710	 0.335745148972213 
1711	 0.334463046024754 
1712	 0.333232166070037 
1713	 0.332049078034005 
1714	 0.33081828838878 
1715	 0.329721352833675 
1716	 0.328662261875623 
1717	 0.327667362474127 
1718	 0.326804128838358 
1719	 0.325907154500784 
1720	 0.325013615114946 
1721	 0.324198790874596 
1722	 0.323474212219747 
1723	 0.322869743519648 
1724	 0.322393869997943 
1725	 0.322040014518137 
1726	 0.321890248846194 
1727	 0.32194305066892 
1728	 0.322122367212054 
1729	 0.322552128348927 
1730	 0.3231598895922 
1731	 0.323851560581601 
1732	 0.324832200284825 
1733	 0.325878667207676 
1734	 0.326979389376888 
1735	 0.328180875001988 
1736	 0.329251871123917 
1737	 0.330326852381443 
1738	 0.33124967033704 
1739	 0.332035409011254 
1740	 0.332814274835646 
1741	 0.333375918913935 
1742	 0.333728519446355 
1743	 0.334021616802481 
1744	 0.334190614066512 
1745	 0.334193914518404 
1746	 0.3339912483004 
1747	 0.33382640147757 
1748	 0.333515126185353 
1749	 0.333283000568529 
1750	 0.333071610177443 
1751	 0.332922431984139 
1752	 0.332719010724755 
1753	 0.332735955537433 
1754	 0.332891303873257 
1755	 0.333137060118366 
1756	 0.333544107788034 
1757	 0.333896001186024 
1758	 0.334421844108093 
1759	 0.335000278154244 
1760	 0.335635422046347 
1761	 0.336603946304481 
1762	 0.337658039892568 
1763	 0.338767879643289 
1764	 0.340043877007458 
1765	 0.341356728322025 
1766	 0.342762034636131 
1767	 0.344260734524059 
1768	 0.345868781427007 
1769	 0.347393849314105 
1770	 0.34876222594151 
1771	 0.350269101323158 
1772	 0.351738669540778 
1773	 0.353172262832044 
1774	 0.354713953680585 
1775	 0.355993730436144 
1776	 0.357200424864861 
1777	 0.358430781239417 
1778	 0.359379873834908 
1779	 0.36033894624405 
1780	 0.361258099063287 
1781	 0.36198159143638 
1782	 0.362777304333365 
1783	 0.363581209665035 
1784	 0.364320687965929 
1785	 0.364994103891464 
1786	 0.365583790970621 
1787	 0.366077075885183 
1788	 0.366502934917721 
1789	 0.366829636734191 
1790	 0.367212751046774 
1791	 0.36752638901195 
1792	 0.367890203981479 
1793	 0.368312420097073 
1794	 0.368739268596931 
1795	 0.369039992230046 
1796	 0.369309392964643 
1797	 0.369727239609536 
1798	 0.37000691383534 
1799	 0.370419562728661 
1800	 0.370899009878333 
1801	 0.371868870752599 
1802	 0.372297437350137 
1803	 0.372661984319107 
1804	 0.372934360643787 
1805	 0.373301120042485 
1806	 0.373644428547642 
1807	 0.373978290497432 
1808	 0.374296102688744 
1809	 0.374608085359618 
1810	 0.374953354749027 
1811	 0.375309246733471 
1812	 0.375632743143951 
1813	 0.375944354142571 
1814	 0.376333171339753 
1815	 0.376615289469472 
1816	 0.376927812371159 
1817	 0.377253336240552 
1818	 0.377559812759891 
1819	 0.377914834841457 
1820	 0.378355854519785 
1821	 0.378721714423933 
1822	 0.379047708414084 
1823	 0.379454396145169 
1824	 0.3798353974264 
1825	 0.380151292551468 
1826	 0.380552361684305 
1827	 0.381034512701529 
1828	 0.381470862615547 
1829	 0.381950276180489 
1830	 0.382346390280892 
1831	 0.382692507302672 
1832	 0.383054592707505 
1833	 0.383379660551309 
1834	 0.383682057804062 
1835	 0.384071784043712 
1836	 0.384472978117068 
1837	 0.384867706711515 
1838	 0.385293685666607 
1839	 0.385690023576043 
1840	 0.386103652098341 
1841	 0.386463743201109 
1842	 0.386791832543946 
1843	 0.3870958985922 
1844	 0.387411591169813 
1845	 0.387674534004979 
1846	 0.387966903075129 
1847	 0.388265061322201 
1848	 0.388496425960534 
1849	 0.388679212797319 
1850	 0.38885156620145 
1851	 0.388996971390152 
1852	 0.389095875188039 
1853	 0.389186607975742 
1854	 0.389313521396051 
1855	 0.38937776269416 
1856	 0.389395200062185 
1857	 0.389455900708957 
1858	 0.389381325028195 
1859	 0.389256986605136 
1860	 0.389093346324544 
1861	 0.388886732394727 
1862	 0.388589367117208 
1863	 0.388291213191876 
1864	 0.38797342455492 
1865	 0.38758570683888 
1866	 0.387128940582672 
1867	 0.386623539362393 
1868	 0.386193448254505 
1869	 0.38567519029326 
1870	 0.385063506333709 
1871	 0.384445394960223 
1872	 0.383745940010733 
1873	 0.382931212004873 
1874	 0.382051404291202 
1875	 0.381188230383793 
1876	 0.38018556103345 
1877	 0.379134604512842 
1878	 0.378016091097001 
1879	 0.376851570712948 
1880	 0.375624833128875 
1881	 0.374241778682023 
1882	 0.372702278952302 
1883	 0.371171658262668 
1884	 0.369526702233558 
1885	 0.367638776026831 
1886	 0.36571483542037 
1887	 0.363586251655022 
1888	 0.361271874258532 
1889	 0.359082152163272 
1890	 0.356810491525707 
1891	 0.354532073385953 
1892	 0.352218737180691 
1893	 0.349748467510051 
1894	 0.347093238365978 
1895	 0.34452062509493 
1896	 0.341858277747138 
1897	 0.33916853978047 
1898	 0.336813317725131 
1899	 0.334415520920564 
1900	 0.332091857174259 
1901	 0.329890294200408 
1902	 0.327456878682866 
1903	 0.325124726236414 
1904	 0.322891824134458 
1905	 0.320675874658457 
1906	 0.318535417123602 
1907	 0.316693812636721 
1908	 0.314869915869337 
1909	 0.313126932898696 
1910	 0.311513128105639 
1911	 0.309851336009545 
1912	 0.308289949243378 
1913	 0.306833395490001 
1914	 0.305436618738009 
1915	 0.304083868823743 
1916	 0.302832061153886 
1917	 0.301570631090462 
1918	 0.300357114024751 
1919	 0.299178453599307 
1920	 0.298008818364417 
1921	 0.296915976935671 
1922	 0.295762833295107 
1923	 0.294636443798837 
1924	 0.293622909330987 
1925	 0.292640798784188 
1926	 0.291734548094087 
1927	 0.290951505875728 
1928	 0.290132945930283 
1929	 0.289315873640121 
1930	 0.288584829260794 
1931	 0.287876218013839 
1932	 0.287230464473031 
1933	 0.28665073589659 
1934	 0.286152154813818 
1935	 0.285755761205591 
1936	 0.285353274749539 
1937	 0.285081331082651 
1938	 0.284941047702698 
1939	 0.284853928636617 
1940	 0.284817690563295 
1941	 0.284916352990046 
1942	 0.285083442895174 
1943	 0.285241148444461 
1944	 0.285433630133814 
1945	 0.285744448660015 
1946	 0.286192570459703 
1947	 0.286627644798214 
1948	 0.287161381023502 
1949	 0.287784326371895 
1950	 0.288482884342966 
1951	 0.28926297289332 
1952	 0.29010707226978 
1953	 0.291025712220455 
1954	 0.292040021847214 
1955	 0.293131926158758 
1956	 0.294130516176447 
1957	 0.295164793488767 
1958	 0.296194978117306 
1959	 0.297073736841963 
1960	 0.298012621289901 
1961	 0.298905701996864 
1962	 0.299792675843687 
1963	 0.300580763963111 
1964	 0.301325409822637 
1965	 0.301984935219826 
1966	 0.302527880611988 
1967	 0.303116572507832 
1968	 0.303640069678694 
1969	 0.304183584166054 
1970	 0.304732716847804 
1971	 0.305216882332072 
1972	 0.305749492865786 
1973	 0.306323266128727 
1974	 0.306898198773942 
1975	 0.307531397254485 
1976	 0.308122516773067 
1977	 0.308689756060087 
1978	 0.309268190079015 
1979	 0.309836858293631 
1980	 0.310390254173628 
1981	 0.311040849365193 
1982	 0.31169249781186 
1983	 0.312304908222193 
1984	 0.312998873810189 
1985	 0.313660984277889 
1986	 0.314253356842814 
1987	 0.314929930840423 
1988	 0.315627032014088 
1989	 0.31639976821275 
1990	 0.317196597025701 
1991	 0.318088763784849 
1992	 0.319097398054614 
1993	 0.320124740193931 
1994	 0.321073161800847 
1995	 0.322185103890744 
1996	 0.323275426031676 
1997	 0.324288044642081 
1998	 0.325319231293753 
1999	 0.326392728123256 
2000	 0.327371317149727 
2001	 0.328293115089994 
2002	 0.329216237181512 
2003	 0.330167370734829 
2004	 0.33100099661966 
2005	 0.331768073445508 
2006	 0.332500166170294 
2007	 0.333162837105991 
2008	 0.333735047602781 
2009	 0.334372111158345 
2010	 0.334922226319082 
2011	 0.335337507584082 
2012	 0.335757812167296 
2013	 0.336126809113441 
2014	 0.336446292839321 
2015	 0.336689197708353 
2016	 0.336898337191934 
2017	 0.337012940314099 
2018	 0.336989446430866 
2019	 0.336966675447989 
2020	 0.336868157832211 
2021	 0.336826038426719 
2022	 0.336727025006379 
2023	 0.336570445061506 
2024	 0.336399979614433 
2025	 0.336185381883165 
2026	 0.335878691325487 
2027	 0.335449657469901 
2028	 0.335093293631839 
2029	 0.334709381365653 
2030	 0.334304001529614 
2031	 0.333953583966512 
2032	 0.333519211500554 
2033	 0.332981095033376 
2034	 0.33245819969473 
2035	 0.331884941676823 
2036	 0.331362011207406 
2037	 0.330848604524386 
2038	 0.330309077828505 
2039	 0.32980614869461 
2040	 0.329325887527163 
2041	 0.328844519222843 
2042	 0.328372157861316 
2043	 0.327931523238588 
2044	 0.327478769044264 
2045	 0.327100802134092 
2046	 0.326801356426531 
2047	 0.32645400317688 
2048	 0.326119014065266 
2049	 0.325824821482611 
2050	 0.325548420231305 
2051	 0.325241653527275 
2052	 0.325011425355395 
2053	 0.324736772178513 
2054	 0.324462294756677 
2055	 0.324137220611404 
2056	 0.323904044119984 
2057	 0.323710671568426 
2058	 0.323508480803928 
2059	 0.323305937996549 
2060	 0.323181077606916 
2061	 0.323106798341968 
2062	 0.323021352860386 
2063	 0.322991746994637 
2064	 0.322969553923543 
2065	 0.322914750824248 
2066	 0.322907523843975 
2067	 0.322973079399856 
2068	 0.323002156764185 
2069	 0.323056285628021 
2070	 0.323128452043794 
2071	 0.323173814477202 
2072	 0.323209256366553 
2073	 0.32328771838216 
2074	 0.323365374703562 
2075	 0.323442326300329 
2076	 0.323615735415588 
2077	 0.323660580696822 
2078	 0.323608513105011 
2079	 0.323594821653249 
2080	 0.323544559942101 
2081	 0.323481721708699 
2082	 0.323437551840664 
2083	 0.323381943110485 
2084	 0.323232512836245 
2085	 0.323069918198711 
2086	 0.322904663057084 
2087	 0.322712542808215 
2088	 0.322513555246951 
2089	 0.322344561591789 
2090	 0.322083283430339 
2091	 0.321729290396229 
2092	 0.321439861324067 
2093	 0.321099412791992 
2094	 0.320814508257394 
2095	 0.320614337608855 
2096	 0.320371109978848 
2097	 0.320138962999963 
2098	 0.319876362439563 
2099	 0.31959055028421 
2100	 0.319250930414959 
2101	 0.318882198270571 
2102	 0.31848017272001 
2103	 0.318032996460172 
2104	 0.317505122298128 
2105	 0.317044236893039 
2106	 0.316577041965763 
2107	 0.316086641240494 
2108	 0.315627446300229 
2109	 0.315133917859744 
2110	 0.314555014367158 
2111	 0.314050916860707 
2112	 0.313645165207632 
2113	 0.313138444362662 
2114	 0.312644544594593 
2115	 0.312065087426669 
2116	 0.31138422123905 
2117	 0.310671373985955 
2118	 0.309943565089086 
2119	 0.309175764256642 
2120	 0.308411097045787 
2121	 0.307555282249146 
2122	 0.306864154733703 
2123	 0.30627146570383 
2124	 0.30559008178021 
2125	 0.305014915634166 
2126	 0.304317752156002 
2127	 0.303445631421638 
2128	 0.302692213768473 
2129	 0.301953368235659 
2130	 0.30123143267921 
2131	 0.30056817393011 
2132	 0.299883696169702 
2133	 0.299171135897352 
2134	 0.298542724781726 
2135	 0.29777682995955 
2136	 0.297044311677012 
2137	 0.296416585142888 
2138	 0.295782994115943 
2139	 0.295244627805584 
2140	 0.294852043421166 
2141	 0.294435751504539 
2142	 0.294002891910276 
2143	 0.293680858017819 
2144	 0.29344474504684 
2145	 0.293229089325466 
2146	 0.293107825930251 
2147	 0.292965323695368 
2148	 0.292836087754191 
2149	 0.292733637594365 
2150	 0.292666808292601 
2151	 0.292570797635464 
2152	 0.292464421981056 
2153	 0.292381952143643 
2154	 0.292303224165061 
2155	 0.292332456446883 
2156	 0.292412562923438 
2157	 0.292616320302718 
2158	 0.292761853197079 
2159	 0.292942092274829 
2160	 0.293079104872874 
2161	 0.293196559866273 
2162	 0.293328809199968 
2163	 0.293459953865346 
2164	 0.293587819146344 
2165	 0.293701564017712 
2166	 0.293847012715259 
2167	 0.293953737533312 
2168	 0.294154735269545 
2169	 0.29449586810403 
2170	 0.294732556813365 
2171	 0.294951084483244 
2172	 0.295183826386551 
2173	 0.295380890344451 
2174	 0.295546748103364 
2175	 0.295783218315275 
2176	 0.296024310239943 
2177	 0.296268581167677 
2178	 0.296515579975437 
2179	 0.296734641599357 
2180	 0.296966981856467 
2181	 0.297165835521753 
2182	 0.297317871636785 
2183	 0.297480642997445 
2184	 0.29764439053052 
2185	 0.297807717351811 
2186	 0.29802200689992 
2187	 0.298102035759365 
2188	 0.298094237722531 
2189	 0.298108922415332 
2190	 0.298036196643677 
2191	 0.29798036219496 
2192	 0.297974492949544 
2193	 0.297931733070886 
2194	 0.297853483126095 
2195	 0.297749586547626 
2196	 0.297676177150766 
2197	 0.297495935625653 
2198	 0.297271759672827 
2199	 0.297010863866695 
2200	 0.296719861748987 
2201	 0.296387800014374 
2202	 0.296026678625343 
2203	 0.295623708339424 
2204	 0.295195321595327 
2205	 0.294679998943505 
2206	 0.294264530652312 
2207	 0.2938034754751 
2208	 0.293519194538235 
2209	 0.293436268621766 
2210	 0.293199718172425 
2211	 0.293049403959981 
2212	 0.292766645203088 
2213	 0.292275075326394 
2214	 0.291925991887553 
2215	 0.291593553639444 
2216	 0.2912756626717 
2217	 0.291090997519013 
2218	 0.290776389375139 
2219	 0.290420667658227 
2220	 0.290028514574714 
2221	 0.289555902166613 
2222	 0.289015101187263 
2223	 0.28862684031329 
2224	 0.288190364293647 
2225	 0.287710064031045 
2226	 0.287174942007452 
2227	 0.286583693254756 
2228	 0.285889857326942 
2229	 0.285139754901147 
2230	 0.284384385277817 
2231	 0.283494473945382 
2232	 0.282447295734887 
2233	 0.281413722760427 
2234	 0.280399893275996 
2235	 0.279179780542127 
2236	 0.27783157490949 
2237	 0.276416750990208 
2238	 0.274799670398725 
2239	 0.273226424745439 
2240	 0.27174236187012 
2241	 0.270000723820576 
2242	 0.26811608810457 
2243	 0.266176100272362 
2244	 0.264056575251087 
2245	 0.261868397648483 
2246	 0.259597816820972 
2247	 0.257264269580615 
2248	 0.254770986805353 
2249	 0.252294502827695 
2250	 0.249793688952504 
2251	 0.247290131509597 
2252	 0.244678626789997 
2253	 0.242174423452142 
2254	 0.239682694464024 
2255	 0.237174315129252 
2256	 0.234783841359617 
2257	 0.23232093494115 
2258	 0.23003245693869 
2259	 0.227896489259444 
2260	 0.22563118368661 
2261	 0.223419606759106 
2262	 0.2212300472571 
2263	 0.218865936068361 
2264	 0.216776704294574 
2265	 0.21487730492253 
2266	 0.212962533671349 
2267	 0.211244931839849 
2268	 0.209380183120896 
2269	 0.207418311098937 
2270	 0.205611618155065 
2271	 0.203801135890809 
2272	 0.202036854216966 
2273	 0.200425124370065 
2274	 0.198779122058031 
2275	 0.197176593089775 
2276	 0.195497299249028 
2277	 0.193728577716131 
2278	 0.192078300852834 
2279	 0.190404460010275 
2280	 0.188766350746138 
2281	 0.187353515125544 
2282	 0.185769186592255 
2283	 0.18414453013049 
2284	 0.182380356529514 
2285	 0.180399668524149 
2286	 0.178563275974648 
2287	 0.176678938590691 
2288	 0.174554701412428 
2289	 0.17255764840618 
2290	 0.170498046267887 
2291	 0.168314925476198 
2292	 0.16626497147535 
2293	 0.164389791939821 
2294	 0.162596497821699 
2295	 0.160843027568391 
2296	 0.159139996582706 
2297	 0.15756158794182 
2298	 0.155896404443859 
2299	 0.154678076684332 
2300	 0.153725693314094 
2301	 0.153009615537696 
2302	 0.152582307678605 
2303	 0.152361314705153 
2304	 0.152398169017438 
2305	 0.152618320661278 
2306	 0.153123825010853 
2307	 0.153764831098482 
2308	 0.154582618892354 
2309	 0.155608867427397 
2310	 0.156760553904146 
2311	 0.158243414501644 
2312	 0.160172582818428 
2313	 0.161999682460102 
2314	 0.16411797985583 
2315	 0.166104470344553 
2316	 0.168080860882503 
2317	 0.169899602671894 
2318	 0.171753659998209 
2319	 0.17335259221467 
2320	 0.174761328252429 
2321	 0.175999238883882 
2322	 0.177124848335558 
2323	 0.177987442514818 
2324	 0.178611198714581 
2325	 0.179038348634474 
2326	 0.179083937557266 
2327	 0.179153251192891 
2328	 0.179128123802829 
2329	 0.178953044021035 
2330	 0.178605718772729 
2331	 0.178373075661456 
2332	 0.177882990475603 
2333	 0.177101620708154 
2334	 0.176131066461993 
2335	 0.174978569804787 
2336	 0.173598809870915 
2337	 0.17221891934858 
2338	 0.171098611544529 
2339	 0.169653162041749 
2340	 0.16822845913817 
2341	 0.167156592600117 
2342	 0.165936089254067 
2343	 0.16493883479839 
2344	 0.164292609507946 
2345	 0.163713302663856 
2346	 0.163453437064265 
2347	 0.163494104038504 
2348	 0.163516180814748 
2349	 0.16374478818268 
2350	 0.164023193133182 
2351	 0.164675996382476 
2352	 0.166080389420454 
2353	 0.167534252936786 
2354	 0.169061875867936 
2355	 0.170613229903686 
2356	 0.171721004534926 
2357	 0.172615209502736 
2358	 0.173538534617721 
2359	 0.174475842177802 
2360	 0.174975938655213 
2361	 0.175117726239048 
2362	 0.175205481626568 
2363	 0.175084287668006 
2364	 0.175226919037949 
2365	 0.175513540208442 
2366	 0.175657986645674 
2367	 0.175619648359692 
2368	 0.175199187082535 
2369	 0.174993916877386 
2370	 0.174914214765321 
2371	 0.174753858647966 
2372	 0.175019224429543 
2373	 0.175142764272661 
2374	 0.175044996021841 
2375	 0.17496286594691 
2376	 0.17462170813688 
2377	 0.174311058130619 
2378	 0.174079998905732 
2379	 0.174037903211119 
2380	 0.174264577259186 
2381	 0.174526960518389 
2382	 0.17470336770194 
2383	 0.174981451866692 
2384	 0.175184418892788 
2385	 0.175240214914433 
2386	 0.175247119263376 
2387	 0.175266066212221 
2388	 0.175275712439318 
2389	 0.175133857631549 
2390	 0.175139894771002 
2391	 0.175190806537955 
2392	 0.175322309935107 
2393	 0.175664115882702 
2394	 0.175677562153053 
2395	 0.175634477349225 
2396	 0.17557010071788 
2397	 0.175251803796868 
2398	 0.175126771880586 
2399	 0.175157854395438 
2400	 0.174949646926786 
2401	 0.174563925022842 
2402	 0.174190767866082 
2403	 0.17397645034444 
2404	 0.173968609388937 
2405	 0.173909936518889 
2406	 0.173971762123864 
2407	 0.174331626014257 
2408	 0.174414989315245 
2409	 0.174469522371952 
2410	 0.174602807162148 
2411	 0.174651487528843 
2412	 0.174976632655625 
2413	 0.17542754485129 
2414	 0.175731058330974 
2415	 0.176075669253775 
2416	 0.176184538135584 
2417	 0.175765829280974 
2418	 0.175780379451437 
2419	 0.176006996561582 
2420	 0.176051741781988 
2421	 0.176676628909444 
2422	 0.176795890493878 
2423	 0.176110464738972 
2424	 0.176095546560065 
2425	 0.17645958057134 
2426	 0.176490900274808 
2427	 0.176631751784193 
2428	 0.17640658004558 
2429	 0.175604897701586 
2430	 0.175412958742506 
2431	 0.17561706945099 
2432	 0.176198880112303 
2433	 0.176729596671701 
2434	 0.176836076857047 
2435	 0.177273973846672 
2436	 0.176650035052469 
2437	 0.175845124905269 
2438	 0.17555316767461 
2439	 0.174748658421867 
2440	 0.174715304993083 
2441	 0.174943511895584 
2442	 0.174749921149654 
2443	 0.174730986371001 
2444	 0.174796549150266 
2445	 0.174487173217961 
2446	 0.174304005466465 
2447	 0.174285369952814 
2448	 0.17357739757935 
2449	 0.173328156072779 
2450	 0.17317919047209 
2451	 0.172444325010338 
2452	 0.171935109556821 
2453	 0.171183921189589 
2454	 0.170723589875337 
2455	 0.170529476123595 
2456	 0.170358571975302 
2457	 0.170888771729447 
2458	 0.171173903010612 
2459	 0.171229588747649 
2460	 0.170991310738755 
2461	 0.170066937221148 
2462	 0.168995549758479 
2463	 0.16812677614083 
2464	 0.168187663761498 
2465	 0.168203899703406 
2466	 0.168028422667506 
2467	 0.167955003470384 
2468	 0.167175364803843 
2469	 0.166818448339645 
2470	 0.166513039863256 
2471	 0.166153796681937 
2472	 0.166516725635665 
2473	 0.166570057419875 
2474	 0.166837302485403 
2475	 0.16724663383286 
2476	 0.166797652734833 
2477	 0.166460754197875 
2478	 0.16694728391147 
2479	 0.166790076984242 
2480	 0.166761136802889 
2481	 0.166753720939296 
2482	 0.166072757459275 
2483	 0.166297217154443 
2484	 0.166449786592941 
2485	 0.165860495447189 
2486	 0.165514566912237 
2487	 0.166268698106415 
2488	 0.1660519480484 
2489	 0.16569494447592 
2490	 0.16606469250572 
2491	 0.166123294421205 
2492	 0.16620945922768 
2493	 0.166648108559036 
2494	 0.16659804147863 
2495	 0.166410480887792 
2496	 0.167100192237943 
2497	 0.168857057075181 
2498	 0.170823337479809 
2499	 0.171988209029719 
2500	 0.171959521959142 
