Wavelength	Tablay400107.asd
350	 9.79724669301901E-02 
351	 2.66145959715889E-02 
352	 3.05404176318421E-02 
353	 0.133658389637188 
354	 0.126457060352484 
355	 0.111689215370025 
356	 7.91910223846031E-02 
357	 3.00545078096343E-02 
358	 5.99566841552099E-02 
359	 9.88073063762609E-02 
360	 0.116660974268261 
361	 0.107605165304694 
362	 7.37256881905488E-02 
363	 4.25522657766072E-02 
364	 4.07627794880545E-02 
365	 6.15706181989716E-02 
366	 5.29993148070747E-02 
367	 5.15915567751486E-02 
368	 0.083215065475795 
369	 7.58244691832892E-02 
370	 4.11716180462799E-02 
371	 3.99914520609032E-02 
372	 0.136588190396244 
373	 0.108810118371977 
374	 6.96854041874749E-02 
375	 6.95125344395685E-02 
376	 4.12755634267232E-02 
377	 0.081374749967407 
378	 0.121737315400086 
379	 0.093286921123335 
380	 0.050100854736283 
381	 3.69603627813888E-02 
382	 4.59414167650234E-02 
383	 3.92403248816067E-02 
384	 6.77358430362954E-02 
385	 9.00217291016447E-02 
386	 9.02942615797429E-02 
387	 0.101927068449168 
388	 8.04917249551897E-02 
389	 6.87915851819111E-02 
390	 9.72590912666419E-02 
391	 7.03660490920991E-02 
392	 8.72846665583632E-02 
393	 0.119856056649538 
394	 7.46681876295202E-02 
395	 4.10829248468438E-02 
396	 3.88911304476961E-02 
397	 5.84098631172001E-02 
398	 6.66056783594515E-02 
399	 5.89535834274116E-02 
400	 6.03189628572493E-02 
401	 8.57392857906054E-02 
402	 8.03882742520941E-02 
403	 6.64778419779664E-02 
404	 5.75406670318611E-02 
405	 5.62389227104894E-02 
406	 7.14157169182649E-02 
407	 7.74727531478851E-02 
408	 6.54438917429158E-02 
409	 6.49501817243762E-02 
410	 6.98445788626385E-02 
411	 7.51168385191845E-02 
412	 7.53703730045112E-02 
413	 6.35196514717685E-02 
414	 5.85433248783115E-02 
415	 6.36958507685489E-02 
416	 6.71561937112942E-02 
417	 7.56317047691229E-02 
418	 7.74394338110745E-02 
419	 0.068090883066281 
420	 6.49623289197644E-02 
421	 0.064730783110627 
422	 6.64561329474825E-02 
423	 6.95110097828382E-02 
424	 0.071996069739354 
425	 7.61211677992579E-02 
426	 7.95137100889396E-02 
427	 7.51494533265591E-02 
428	 7.22089820701638E-02 
429	 7.19958158479659E-02 
430	 7.36680765478788E-02 
431	 7.67240331820431E-02 
432	 7.65687710381805E-02 
433	 7.40127723863657E-02 
434	 0.072828274656153 
435	 7.47463786233885E-02 
436	 7.69165187121185E-02 
437	 7.79280277339661E-02 
438	 7.92861484375269E-02 
439	 7.92680026117702E-02 
440	 7.93464391440957E-02 
441	 8.06197913145405E-02 
442	 7.90619574672058E-02 
443	 7.70359416153518E-02 
444	 0.076490200616451 
445	 7.84334775040467E-02 
446	 0.077322214825971 
447	 7.68824004080537E-02 
448	 7.90691805837499E-02 
449	 7.89914787152414E-02 
450	 7.90805441517868E-02 
451	 8.07077229060933E-02 
452	 8.40410167057428E-02 
453	 0.084975222369074 
454	 8.39442917190844E-02 
455	 8.32087134977005E-02 
456	 0.086376924099824 
457	 8.64365536975141E-02 
458	 8.55881771759913E-02 
459	 8.66514195959846E-02 
460	 8.84878183740062E-02 
461	 8.85694277456907E-02 
462	 8.78153035070559E-02 
463	 8.86246926597931E-02 
464	 8.84381445149391E-02 
465	 8.79546511647645E-02 
466	 8.86231355780146E-02 
467	 0.092693796010113 
468	 9.34449429525351E-02 
469	 9.27562035475477E-02 
470	 9.37420125004865E-02 
471	 9.35830439133205E-02 
472	 0.093720888924433 
473	 9.40949983128158E-02 
474	 9.36847534215925E-02 
475	 9.63127952205307E-02 
476	 9.90095456844074E-02 
477	 9.93509397727961E-02 
478	 9.79640839397125E-02 
479	 9.75939276284247E-02 
480	 0.098794321377144 
481	 0.100771365366859 
482	 0.101146088458795 
483	 0.101201852833689 
484	 0.10138684228996 
485	 0.100958147752334 
486	 0.10284682137496 
487	 0.104482779120268 
488	 0.103895075365835 
489	 0.10461593094012 
490	 0.105325164828838 
491	 0.105861693602038 
492	 0.106627049532448 
493	 0.106588840741944 
494	 0.107852114928641 
495	 0.11062763998552 
496	 0.111691301486524 
497	 0.111625252118817 
498	 0.11178235982085 
499	 0.11318449127378 
500	 0.1140788835916 
501	 0.114779051003804 
502	 0.115475094088295 
503	 0.116154178248458 
504	 0.115987635004262 
505	 0.116540696958406 
506	 0.118403999174373 
507	 0.119002980071389 
508	 0.119402869148913 
509	 0.120113085373329 
510	 0.121290528716244 
511	 0.122244587380282 
512	 0.12303107894799 
513	 0.123571908005902 
514	 0.12350819141312 
515	 0.124623764106573 
516	 0.126119467615224 
517	 0.126851996709685 
518	 0.126793235630521 
519	 0.127429076921987 
520	 0.128887330040416 
521	 0.130281328222391 
522	 0.130575826510614 
523	 0.131234586780576 
524	 0.132742647607492 
525	 0.132998952035221 
526	 0.13339216154038 
527	 0.133941974798398 
528	 0.134376834166563 
529	 0.135498904215769 
530	 0.136253697722059 
531	 0.136556988021168 
532	 0.137402132903796 
533	 0.138015831532226 
534	 0.138445997984294 
535	 0.138889495761779 
536	 0.13948299103315 
537	 0.139867280735614 
538	 0.140301018470819 
539	 0.141234136365051 
540	 0.141634938450947 
541	 0.141585024757199 
542	 0.141423728109078 
543	 0.141660013116647 
544	 0.142187148273673 
545	 0.142617012560612 
546	 0.142634614579866 
547	 0.142632775606089 
548	 0.14289371924845 
549	 0.143227419949541 
550	 0.143068880643172 
551	 0.142809630720909 
552	 0.142581188652775 
553	 0.142485693074821 
554	 0.142740095927968 
555	 0.142704018480722 
556	 0.142299989451023 
557	 0.14178816547153 
558	 0.141641088019775 
559	 0.141369985812832 
560	 0.140848432000786 
561	 0.140580224616493 
562	 0.139925614627983 
563	 0.139308026081743 
564	 0.139093644089746 
565	 0.138315034065412 
566	 0.137699104636681 
567	 0.137236278753187 
568	 0.136409031388936 
569	 0.135797394104687 
570	 0.135144877776672 
571	 0.134280065130297 
572	 0.133456028505701 
573	 0.132734774984182 
574	 0.132092397566775 
575	 0.131443441394304 
576	 0.130699220690308 
577	 0.129612854462386 
578	 0.128359644377763 
579	 0.127571544881776 
580	 0.126927520539102 
581	 0.126030241823016 
582	 0.12473786998064 
583	 0.123738425008929 
584	 0.122770196619891 
585	 0.121660208504093 
586	 0.120347649826997 
587	 0.119386367540237 
588	 0.118170382860093 
589	 0.116608898660936 
590	 0.115673668560515 
591	 0.114511679019231 
592	 0.113305596462288 
593	 0.112367505544627 
594	 0.111133941136637 
595	 0.110074788884184 
596	 0.109095669433181 
597	 0.107647899602573 
598	 0.106503050698508 
599	 0.105521872226951 
600	 0.104442192469013 
601	 0.103106848477875 
602	 0.101776521257943 
603	 0.10060589795975 
604	 9.96497323134388E-02 
605	 9.86570250799597E-02 
606	 9.75813061448207E-02 
607	 9.64539652964797E-02 
608	 9.53786083900791E-02 
609	 9.43300036606244E-02 
610	 0.093320560228378 
611	 9.23424769419758E-02 
612	 9.12819095948364E-02 
613	 9.04555152085476E-02 
614	 8.96928131578855E-02 
615	 8.85742999079886E-02 
616	 8.76286789405978E-02 
617	 0.086707219552341 
618	 0.085742530414739 
619	 8.49753739693381E-02 
620	 8.40751610494575E-02 
621	 8.31877613335497E-02 
622	 8.25150808531444E-02 
623	 8.17150004740132E-02 
624	 8.10026754736758E-02 
625	 8.03610841686517E-02 
626	 7.95511115528011E-02 
627	 7.86652622219274E-02 
628	 0.077899308087683 
629	 7.73451484262132E-02 
630	 0.076807054362614 
631	 7.62810008705732E-02 
632	 7.56713549565094E-02 
633	 7.49044513979345E-02 
634	 7.42521744758733E-02 
635	 7.36909084812769E-02 
636	 7.31688855888883E-02 
637	 0.072636027680375 
638	 7.19991759482346E-02 
639	 7.14516988284131E-02 
640	 7.11046912019903E-02 
641	 7.05723971811874E-02 
642	 7.00389175448625E-02 
643	 6.95832231767374E-02 
644	 6.91916386569346E-02 
645	 6.86387037497517E-02 
646	 6.82025692631468E-02 
647	 6.79080785271396E-02 
648	 6.72584565010054E-02 
649	 6.67764379352977E-02 
650	 0.066406693512375 
651	 6.59829217436713E-02 
652	 6.56677588467426E-02 
653	 6.53504761709858E-02 
654	 6.49688386563441E-02 
655	 0.064530866134948 
656	 6.43669513137916E-02 
657	 6.41028458940346E-02 
658	 6.35455278519946E-02 
659	 6.30910574411259E-02 
660	 6.28180539819341E-02 
661	 6.25932363831878E-02 
662	 6.22569323636906E-02 
663	 6.20828150611131E-02 
664	 6.18364627324703E-02 
665	 0.061481633444759 
666	 0.061201448861145 
667	 6.08650883453006E-02 
668	 6.06178720952533E-02 
669	 6.05013846880956E-02 
670	 6.01470422511007E-02 
671	 5.99107704582434E-02 
672	 5.97463018563721E-02 
673	 5.94568682224349E-02 
674	 5.91566452121975E-02 
675	 5.89442286354456E-02 
676	 5.88072977606348E-02 
677	 5.86061322808578E-02 
678	 5.83937961303836E-02 
679	 5.81839680699101E-02 
680	 5.79805720040674E-02 
681	 5.77740792072145E-02 
682	 5.76146462834122E-02 
683	 0.057480106034824 
684	 5.73137459087063E-02 
685	 5.71390508966695E-02 
686	 5.69379814199216E-02 
687	 5.67258046919515E-02 
688	 5.65652216323798E-02 
689	 5.65017395616114E-02 
690	 5.63520316078832E-02 
691	 5.60106818502167E-02 
692	 5.58475183458737E-02 
693	 5.56504792798438E-02 
694	 0.0554549968118 
695	 0.055425804508169 
696	 5.53984854101332E-02 
697	 5.52026570059496E-02 
698	 5.48683872680811E-02 
699	 0.054724031511858 
700	 5.46725298477255E-02 
701	 5.46115020184254E-02 
702	 5.44716576868761E-02 
703	 5.43274688183302E-02 
704	 5.42621944866645E-02 
705	 5.42161273064368E-02 
706	 5.40509518344639E-02 
707	 5.39023361688365E-02 
708	 5.37798977090869E-02 
709	 5.36626689521976E-02 
710	 5.35031596873646E-02 
711	 5.34453281248321E-02 
712	 5.34282809102522E-02 
713	 5.33398362996348E-02 
714	 5.31208599320971E-02 
715	 5.29770947228166E-02 
716	 5.29472307816943E-02 
717	 5.29315528963728E-02 
718	 5.27925565998089E-02 
719	 0.052692508785782 
720	 5.26866548688341E-02 
721	 5.25806204392969E-02 
722	 5.24505127659145E-02 
723	 5.23541440981607E-02 
724	 5.23177073195114E-02 
725	 5.22631138810172E-02 
726	 5.21769448265162E-02 
727	 5.20692135280491E-02 
728	 5.19714631685292E-02 
729	 5.19680015795206E-02 
730	 5.18908941460703E-02 
731	 5.17085199558335E-02 
732	 5.16602321500969E-02 
733	 5.16728753832981E-02 
734	 5.15957847131566E-02 
735	 0.051370174352833 
736	 5.13632189526872E-02 
737	 5.13887373501059E-02 
738	 5.13714813819344E-02 
739	 5.13203736676109E-02 
740	 5.12339843415972E-02 
741	 0.051207737200946 
742	 5.12320177076825E-02 
743	 5.11292313656542E-02 
744	 5.10298475674311E-02 
745	 5.10212658276853E-02 
746	 5.10931795476811E-02 
747	 5.09536655746648E-02 
748	 5.08382936011245E-02 
749	 5.08255879185233E-02 
750	 5.08744304919784E-02 
751	 0.05082629012182 
752	 5.07178022961742E-02 
753	 5.06313691868178E-02 
754	 5.06726728467019E-02 
755	 5.06909039048168E-02 
756	 5.06528166400107E-02 
757	 5.05765582716586E-02 
758	 5.05382234376307E-02 
759	 5.04657653615716E-02 
760	 5.03957127221655E-02 
761	 5.04025087588555E-02 
762	 5.04646663200643E-02 
763	 5.04514996285315E-02 
764	 5.03775061991808E-02 
765	 5.04067519757783E-02 
766	 5.03661075761035E-02 
767	 5.03160130488326E-02 
768	 5.03070339719068E-02 
769	 5.02652868483247E-02 
770	 5.01979339569155E-02 
771	 0.050167186471707 
772	 5.02176878672052E-02 
773	 5.02051739234897E-02 
774	 5.01822364850274E-02 
775	 5.01545443386068E-02 
776	 0.05009157225314 
777	 5.00789613582673E-02 
778	 5.00841577136011E-02 
779	 5.00815254571304E-02 
780	 5.00890620616951E-02 
781	 5.00663435603254E-02 
782	 5.00495897677921E-02 
783	 5.00675713009159E-02 
784	 5.00462555436504E-02 
785	 4.99954922948536E-02 
786	 4.99670845129079E-02 
787	 5.00112085837112E-02 
788	 4.99866425960827E-02 
789	 4.99484977186767E-02 
790	 4.99328785080313E-02 
791	 4.99284654861958E-02 
792	 4.98729294491298E-02 
793	 4.98471473183646E-02 
794	 4.98986333361084E-02 
795	 4.99324702475242E-02 
796	 4.98739287596614E-02 
797	 0.049847334105066 
798	 4.99684657910094E-02 
799	 4.99161613649978E-02 
800	 4.98859693242767E-02 
801	 0.049895927106498 
802	 0.049828918946618 
803	 4.98263209954969E-02 
804	 4.98260256777375E-02 
805	 4.98039918719809E-02 
806	 4.98318240904702E-02 
807	 4.97909443642925E-02 
808	 4.97823054224835E-02 
809	 4.98633167391176E-02 
810	 4.97929975737598E-02 
811	 4.97820408113595E-02 
812	 4.97907343515808E-02 
813	 4.97238312668319E-02 
814	 4.98698981993065E-02 
815	 4.98375175489124E-02 
816	 4.96639487868793E-02 
817	 4.97582038061975E-02 
818	 4.98165519941116E-02 
819	 4.98193136876362E-02 
820	 4.97916846111099E-02 
821	 4.97596214411934E-02 
822	 4.98733350368021E-02 
823	 4.99671043719983E-02 
824	 4.99068001253088E-02 
825	 0.049931789834377 
826	 4.99400582988763E-02 
827	 4.99221637129737E-02 
828	 4.99184139649469E-02 
829	 4.99955694290799E-02 
830	 5.00873167847729E-02 
831	 5.01294878288826E-02 
832	 5.00824454958263E-02 
833	 5.00352164616603E-02 
834	 5.00103387628556E-02 
835	 5.00302557474221E-02 
836	 0.050131837495946 
837	 5.02148639458453E-02 
838	 5.02427061332245E-02 
839	 5.02182472713258E-02 
840	 5.01708589725964E-02 
841	 5.03638772686061E-02 
842	 5.05324851456787E-02 
843	 5.03684851280497E-02 
844	 5.05008046555974E-02 
845	 5.05540775491303E-02 
846	 5.05047943384032E-02 
847	 0.050589886729453 
848	 5.06692740385878E-02 
849	 5.06693766857686E-02 
850	 5.06344260899974E-02 
851	 5.07313866941717E-02 
852	 0.050761219825282 
853	 5.07685874071277E-02 
854	 5.08111808895877E-02 
855	 5.08673453195982E-02 
856	 5.08896901555156E-02 
857	 5.09562511460466E-02 
858	 0.05111270212574 
859	 0.051147708360916 
860	 5.11492051738982E-02 
861	 5.12440226993783E-02 
862	 0.051485201910767 
863	 5.14009707488783E-02 
864	 5.14363005183701E-02 
865	 5.15933606072786E-02 
866	 5.14943198983599E-02 
867	 5.15075077027366E-02 
868	 5.15436763295396E-02 
869	 5.15809735795482E-02 
870	 5.17627572521114E-02 
871	 5.18597178049481E-02 
872	 5.19432361368428E-02 
873	 5.20798746822201E-02 
874	 5.21778825231976E-02 
875	 5.22325954815207E-02 
876	 5.23170420801475E-02 
877	 5.24594209123408E-02 
878	 0.052428844192165 
879	 5.24920995268601E-02 
880	 5.26544137041742E-02 
881	 5.27974291462961E-02 
882	 5.29236664959865E-02 
883	 5.30406189324353E-02 
884	 5.31561842352102E-02 
885	 0.053269847513733 
886	 5.33125982076176E-02 
887	 5.33939917708465E-02 
888	 5.35335895195788E-02 
889	 5.36332015071101E-02 
890	 5.38141898658132E-02 
891	 0.053872152060699 
892	 0.053764173459888 
893	 5.38026166684924E-02 
894	 5.39825429555398E-02 
895	 0.054128683640273 
896	 5.42030331766377E-02 
897	 5.46820465747609E-02 
898	 5.47802067181094E-02 
899	 5.47368950191335E-02 
900	 5.49654344053253E-02 
901	 5.51011342544242E-02 
902	 5.51222494357725E-02 
903	 5.51707655635596E-02 
904	 5.53837330866641E-02 
905	 5.53834820737642E-02 
906	 5.56382826115994E-02 
907	 5.59685512573019E-02 
908	 5.58494363142177E-02 
909	 0.056072589886941 
910	 5.63067234665889E-02 
911	 5.64248261305007E-02 
912	 5.66040386071945E-02 
913	 5.67274965456044E-02 
914	 5.68868555396489E-02 
915	 5.71347745805988E-02 
916	 5.74239925745288E-02 
917	 5.75809192904356E-02 
918	 5.76316177013002E-02 
919	 5.76818511112434E-02 
920	 5.78849347390497E-02 
921	 0.058041548331795 
922	 0.058195855731075 
923	 5.84094854498283E-02 
924	 5.86251037352501E-02 
925	 0.058804447699382 
926	 5.90317734840409E-02 
927	 5.93526022456582E-02 
928	 5.95556670418349E-02 
929	 5.96699972047195E-02 
930	 5.98160012413782E-02 
931	 6.00624175516549E-02 
932	 6.00689266145545E-02 
933	 6.02760858397649E-02 
934	 6.06137206682845E-02 
935	 6.07849939536007E-02 
936	 6.09852285100697E-02 
937	 6.11219880126756E-02 
938	 6.13222428331211E-02 
939	 6.17645623392502E-02 
940	 6.18739481867547E-02 
941	 6.21225687899822E-02 
942	 6.24296525986047E-02 
943	 6.23024778681974E-02 
944	 6.26148832979966E-02 
945	 6.28992120165832E-02 
946	 0.063036238489567 
947	 6.33994537471592E-02 
948	 6.38005304788916E-02 
949	 6.40915726612674E-02 
950	 6.42533713465257E-02 
951	 6.44152774098087E-02 
952	 6.45507850400561E-02 
953	 0.064603836635063 
954	 6.46785498698776E-02 
955	 0.065090808537933 
956	 6.57031978789037E-02 
957	 6.59125284010464E-02 
958	 6.56609281544583E-02 
959	 6.59229163031951E-02 
960	 6.64548860796354E-02 
961	 6.68513182427671E-02 
962	 6.69420419982628E-02 
963	 6.71105270235326E-02 
964	 6.73842509592507E-02 
965	 6.76069856188174E-02 
966	 6.77275216630691E-02 
967	 6.80502227599172E-02 
968	 6.83086046794111E-02 
969	 6.86207278501042E-02 
970	 6.90352741705166E-02 
971	 6.91523722663915E-02 
972	 6.94143151126253E-02 
973	 6.97262411595983E-02 
974	 6.98870816800946E-02 
975	 6.98777918502412E-02 
976	 6.99120360674931E-02 
977	 7.03033456016744E-02 
978	 7.10590988889777E-02 
979	 7.12755056987021E-02 
980	 7.13657542263358E-02 
981	 0.07143177584534 
982	 7.15519124370993E-02 
983	 7.20565468383149E-02 
984	 7.22390864687561E-02 
985	 7.23877516309805E-02 
986	 7.29118000482077E-02 
987	 7.33942511729908E-02 
988	 0.073604169161569 
989	 7.39883943880761E-02 
990	 7.47104111690608E-02 
991	 7.40911770711381E-02 
992	 7.41692118383293E-02 
993	 7.46121569538846E-02 
994	 7.46023191955133E-02 
995	 7.48927393598288E-02 
996	 7.50847045761643E-02 
997	 7.53902938661442E-02 
998	 7.59771611216154E-02 
999	 7.61839303751019E-02 
1000	 7.61101117775711E-02 
1001	 7.69226079603483E-02 
1002	 7.71768636395889E-02 
1003	 7.74188555186496E-02 
1004	 7.76907925818644E-02 
1005	 7.80128387924822E-02 
1006	 7.82864289341911E-02 
1007	 7.85669521353802E-02 
1008	 7.87503269344482E-02 
1009	 7.88478167240886E-02 
1010	 7.90423672321414E-02 
1011	 7.92445279340507E-02 
1012	 7.94141839884722E-02 
1013	 7.96042294113737E-02 
1014	 7.97999251321817E-02 
1015	 8.00351353392685E-02 
1016	 8.00579207258241E-02 
1017	 0.080173105190795 
1018	 8.04557210156542E-02 
1019	 8.06049820019507E-02 
1020	 8.09615866632688E-02 
1021	 8.12778522006755E-02 
1022	 8.16787273688408E-02 
1023	 8.20132817479728E-02 
1024	 8.24461562080703E-02 
1025	 8.26061390824927E-02 
1026	 8.25254500300738E-02 
1027	 8.25901606300208E-02 
1028	 8.24892369932558E-02 
1029	 8.26317891594141E-02 
1030	 8.28271467666133E-02 
1031	 8.30944115038924E-02 
1032	 8.35581307736325E-02 
1033	 8.37897036501467E-02 
1034	 8.39538559495975E-02 
1035	 8.42914466902504E-02 
1036	 0.084523278677705 
1037	 8.46716508648693E-02 
1038	 8.47644531787924E-02 
1039	 8.47373814561807E-02 
1040	 8.48754931798017E-02 
1041	 8.50670689163282E-02 
1042	 8.51789322555184E-02 
1043	 8.53056111171785E-02 
1044	 0.085590432751004 
1045	 8.57595298106574E-02 
1046	 8.57684144643034E-02 
1047	 8.60132774968839E-02 
1048	 8.61884377363376E-02 
1049	 8.61954137235566E-02 
1050	 8.63134494257208E-02 
1051	 8.62689748070348E-02 
1052	 8.61118351275191E-02 
1053	 8.61720757613933E-02 
1054	 8.63683847527971E-02 
1055	 8.64965264032565E-02 
1056	 0.086725981991445 
1057	 0.086931658814653 
1058	 8.71812315296223E-02 
1059	 8.71688877738516E-02 
1060	 8.72217604489786E-02 
1061	 8.74313736200795E-02 
1062	 8.74548248776378E-02 
1063	 8.74013724682993E-02 
1064	 8.74608923478599E-02 
1065	 8.76081992286896E-02 
1066	 8.77001593058756E-02 
1067	 8.78910927939668E-02 
1068	 8.80270582142602E-02 
1069	 8.80708546090769E-02 
1070	 8.81370278833002E-02 
1071	 8.82124175328266E-02 
1072	 0.08823948026268 
1073	 8.83718135662111E-02 
1074	 8.83798288172778E-02 
1075	 8.82493311380142E-02 
1076	 8.82829826453677E-02 
1077	 0.08834108781174 
1078	 8.84070980082129E-02 
1079	 8.85371703472466E-02 
1080	 8.86125857344904E-02 
1081	 8.86312192970739E-02 
1082	 8.86642364020168E-02 
1083	 8.87178169944962E-02 
1084	 8.87556077262328E-02 
1085	 8.87983523649748E-02 
1086	 8.88442157909786E-02 
1087	 8.88808151038517E-02 
1088	 8.88219490113063E-02 
1089	 8.88444496451866E-02 
1090	 8.89381447985626E-02 
1091	 8.88338443015526E-02 
1092	 8.89202422179793E-02 
1093	 8.91133023654422E-02 
1094	 8.90544353147018E-02 
1095	 8.90109432635911E-02 
1096	 8.90621502794804E-02 
1097	 8.91134352857895E-02 
1098	 8.91051996382553E-02 
1099	 8.91323466810663E-02 
1100	 0.089182082573021 
1101	 8.90690454612031E-02 
1102	 8.89786709732396E-02 
1103	 8.89680341467908E-02 
1104	 8.90401268887496E-02 
1105	 8.90278271047844E-02 
1106	 8.90166713309466E-02 
1107	 0.08907435920869 
1108	 8.90647576832368E-02 
1109	 8.90443327146766E-02 
1110	 8.91205788366165E-02 
1111	 8.91061527964669E-02 
1112	 8.90039322525277E-02 
1113	 8.89807750053881E-02 
1114	 8.89632389917303E-02 
1115	 8.89223727815455E-02 
1116	 8.90009689811428E-02 
1117	 8.90693149680069E-02 
1118	 8.91103110823611E-02 
1119	 8.91468598469561E-02 
1120	 8.91920031002086E-02 
1121	 8.92387853920842E-02 
1122	 8.92392569908881E-02 
1123	 0.089257617235109 
1124	 8.92538802064565E-02 
1125	 0.089204503835508 
1126	 8.91455296654041E-02 
1127	 8.91352298944005E-02 
1128	 8.91140345200402E-02 
1129	 8.90751511566236E-02 
1130	 8.91135348724981E-02 
1131	 8.91357533827266E-02 
1132	 0.089111221580696 
1133	 8.91145920087605E-02 
1134	 8.91178149339788E-02 
1135	 0.089110724311122 
1136	 0.089041465504208 
1137	 8.90451226282187E-02 
1138	 8.91272094391123E-02 
1139	 8.91658781676855E-02 
1140	 8.92240772719403E-02 
1141	 8.92295863658026E-02 
1142	 8.92077303225085E-02 
1143	 8.92129412797096E-02 
1144	 8.91867354192988E-02 
1145	 8.91652641563273E-02 
1146	 0.08922266760066 
1147	 8.91359910275157E-02 
1148	 8.90517178803246E-02 
1149	 8.90967917413912E-02 
1150	 8.91135079725599E-02 
1151	 8.91618673076243E-02 
1152	 0.089159935777126 
1153	 8.91300708123065E-02 
1154	 8.91307201538109E-02 
1155	 8.90995792306059E-02 
1156	 8.90671139572267E-02 
1157	 8.90264341427943E-02 
1158	 8.90576197478496E-02 
1159	 8.91034151622654E-02 
1160	 8.92119113747895E-02 
1161	 8.92802332485812E-02 
1162	 0.089322632383563 
1163	 8.93269597659835E-02 
1164	 8.92883201611587E-02 
1165	 8.93121426423227E-02 
1166	 8.93639868837034E-02 
1167	 8.93175152188218E-02 
1168	 8.93055805799952E-02 
1169	 8.93155889290984E-02 
1170	 8.93376633625581E-02 
1171	 0.089338153399695 
1172	 8.93550869083286E-02 
1173	 8.93748218420702E-02 
1174	 8.93825839619747E-02 
1175	 8.93989698149873E-02 
1176	 8.94277934780584E-02 
1177	 8.94466416963045E-02 
1178	 8.94213637213841E-02 
1179	 8.94913245426696E-02 
1180	 8.95463848171417E-02 
1181	 8.95338246550012E-02 
1182	 8.94970757509044E-02 
1183	 8.94281591287844E-02 
1184	 8.94018712090267E-02 
1185	 8.94902406548331E-02 
1186	 8.95487146127329E-02 
1187	 0.089701516147985 
1188	 8.97389070350386E-02 
1189	 0.08969755161011 
1190	 0.089699630709894 
1191	 8.96535232103548E-02 
1192	 8.96865527298149E-02 
1193	 8.98040955397541E-02 
1194	 8.98558164243569E-02 
1195	 0.089912074062935 
1196	 8.99586230852689E-02 
1197	 8.99843457395014E-02 
1198	 8.99879139456154E-02 
1199	 8.99197779622939E-02 
1200	 8.99294946172443E-02 
1201	 8.99363237400729E-02 
1202	 8.99539919197757E-02 
1203	 0.090084082494793 
1204	 9.01605671284252E-02 
1205	 9.02498201740495E-02 
1206	 9.03357635366272E-02 
1207	 9.03920213019152E-02 
1208	 9.04507781662606E-02 
1209	 0.090503506917945 
1210	 9.05129373282356E-02 
1211	 9.05466787292663E-02 
1212	 9.05891408254537E-02 
1213	 0.090639706191149 
1214	 9.06483465896953E-02 
1215	 9.07407940110249E-02 
1216	 9.09584193671959E-02 
1217	 9.10665590146124E-02 
1218	 9.11662108134516E-02 
1219	 9.12512183347185E-02 
1220	 9.12863980259729E-02 
1221	 9.12759203492247E-02 
1222	 0.091298411321078 
1223	 9.14022720018245E-02 
1224	 9.14923824955221E-02 
1225	 9.15894545095975E-02 
1226	 9.16826579225187E-02 
1227	 9.18029806586956E-02 
1228	 9.19021193441038E-02 
1229	 9.19886419436753E-02 
1230	 9.20705051828985E-02 
1231	 0.092164525317044 
1232	 9.22296940813599E-02 
1233	 0.092238485954618 
1234	 9.22988847173084E-02 
1235	 9.23677159086562E-02 
1236	 9.24570607544913E-02 
1237	 0.092588197277093 
1238	 9.27041415035459E-02 
1239	 9.28385734475653E-02 
1240	 9.29581500491533E-02 
1241	 9.29628300017922E-02 
1242	 9.30302720371179E-02 
1243	 9.31484855345285E-02 
1244	 9.32762394361612E-02 
1245	 9.33806705920419E-02 
1246	 9.35603347861555E-02 
1247	 9.36766377524258E-02 
1248	 9.37166710091173E-02 
1249	 9.37931349788004E-02 
1250	 0.093877635417025 
1251	 9.39875679229281E-02 
1252	 9.41049957347742E-02 
1253	 9.42145189819936E-02 
1254	 9.43514239522257E-02 
1255	 9.44825121990964E-02 
1256	 0.094601030915547 
1257	 9.47077259017683E-02 
1258	 9.48534865395421E-02 
1259	 9.49420959958156E-02 
1260	 9.49257786787635E-02 
1261	 9.49921584270644E-02 
1262	 9.50557632463475E-02 
1263	 9.51762712848293E-02 
1264	 0.095283499889189 
1265	 9.54323367596247E-02 
1266	 9.55951430914092E-02 
1267	 0.095776318159399 
1268	 9.59055651380066E-02 
1269	 9.60717172742606E-02 
1270	 9.61795403946482E-02 
1271	 9.61615199863773E-02 
1272	 9.62688136735618E-02 
1273	 9.64592704740386E-02 
1274	 9.65815820434358E-02 
1275	 9.67054183563859E-02 
1276	 9.68408177252284E-02 
1277	 9.69316943513961E-02 
1278	 9.70582297812016E-02 
1279	 9.72145886144212E-02 
1280	 9.73916190680773E-02 
1281	 9.76222261578026E-02 
1282	 0.097790353625598 
1283	 9.79710910154461E-02 
1284	 0.09811779462574 
1285	 9.82278138198658E-02 
1286	 9.82551084131609E-02 
1287	 9.83520691868677E-02 
1288	 9.84465002335447E-02 
1289	 9.85789208831656E-02 
1290	 9.87415030141365E-02 
1291	 9.88974798378076E-02 
1292	 9.90811868046646E-02 
1293	 9.92448255044911E-02 
1294	 9.93963309943144E-02 
1295	 9.95576679221671E-02 
1296	 9.97183579708694E-02 
1297	 9.98854185882132E-02 
1298	 0.100071670667597 
1299	 0.100231902235052 
1300	 0.100369382464728 
1301	 0.100530635228187 
1302	 0.100714206794091 
1303	 0.100854803416924 
1304	 0.100975776639451 
1305	 0.101113615504174 
1306	 0.101220065816687 
1307	 0.101337855341388 
1308	 0.101459327626473 
1309	 0.101623584722118 
1310	 0.101780888105275 
1311	 0.101923727901878 
1312	 0.102106042275325 
1313	 0.102333198383597 
1314	 0.102522417026282 
1315	 0.102719988305137 
1316	 0.102888003797803 
1317	 0.103011210929092 
1318	 0.103190187265328 
1319	 0.10337608611477 
1320	 0.103572422189935 
1321	 0.103815367620009 
1322	 0.104023143064445 
1323	 0.104217435700933 
1324	 0.104406241135905 
1325	 0.10457640347888 
1326	 0.104762663860611 
1327	 0.104932833991216 
1328	 0.105134634574618 
1329	 0.105399042425316 
1330	 0.105600495636035 
1331	 0.105758221409367 
1332	 0.105951006051689 
1333	 0.106101385008131 
1334	 0.106298748045632 
1335	 0.106517026940704 
1336	 0.106803399407763 
1337	 0.107017819375367 
1338	 0.107209760104999 
1339	 0.107420076941408 
1340	 0.107611054864214 
1341	 0.107820854750827 
1342	 0.10804192391062 
1343	 0.108278451015733 
1344	 0.108535526643469 
1345	 0.108765403776072 
1346	 0.109009139194523 
1347	 0.109232231868091 
1348	 0.109418080519344 
1349	 0.109618532171824 
1350	 0.109793036957705 
1351	 0.110030638160633 
1352	 0.110319191269362 
1353	 0.110572824950024 
1354	 0.110879043748241 
1355	 0.111128450506403 
1356	 0.11130842333326 
1357	 0.11150905567933 
1358	 0.111683409970654 
1359	 0.111892220547338 
1360	 0.112099651005987 
1361	 0.112345579412378 
1362	 0.112641225614246 
1363	 0.112920059190448 
1364	 0.113174850693725 
1365	 0.113430527411408 
1366	 0.113670073433688 
1367	 0.113874706745187 
1368	 0.114101111335972 
1369	 0.114326493735397 
1370	 0.114576143256603 
1371	 0.114849254437221 
1372	 0.115083618471395 
1373	 0.115312799854082 
1374	 0.115548935556653 
1375	 0.115755064899883 
1376	 0.115992470869411 
1377	 0.116279251137275 
1378	 0.116526142865235 
1379	 0.116734314689977 
1380	 0.116985938817066 
1381	 0.117273550502381 
1382	 0.117514585584309 
1383	 0.117745387846382 
1384	 0.117991271786647 
1385	 0.118211389290882 
1386	 0.118432874092349 
1387	 0.118671746294291 
1388	 0.11891455245079 
1389	 0.119140186160252 
1390	 0.119371822249206 
1391	 0.119612179155549 
1392	 0.119887575477427 
1393	 0.120096511163915 
1394	 0.120295641003723 
1395	 0.120547800836589 
1396	 0.120815146521543 
1397	 0.121067401241751 
1398	 0.121344572563061 
1399	 0.121629880025936 
1400	 0.121931865923844 
1401	 0.122160525078307 
1402	 0.122374169300944 
1403	 0.12259921788805 
1404	 0.122757083791041 
1405	 0.122952246285319 
1406	 0.123188874623997 
1407	 0.123427002958647 
1408	 0.123647479769642 
1409	 0.123878897792399 
1410	 0.124157492206712 
1411	 0.124408020282143 
1412	 0.124611932857378 
1413	 0.124864835917312 
1414	 0.125152564450596 
1415	 0.125414937333281 
1416	 0.125690216299977 
1417	 0.125958443201632 
1418	 0.126204496363858 
1419	 0.126468355429642 
1420	 0.126736466538542 
1421	 0.127011820866823 
1422	 0.127299981619307 
1423	 0.127582372747977 
1424	 0.12784965355014 
1425	 0.128158427718431 
1426	 0.128456251973649 
1427	 0.128775892853888 
1428	 0.129097220607057 
1429	 0.129383781875179 
1430	 0.129658179320153 
1431	 0.129874037732775 
1432	 0.130191287904277 
1433	 0.130548940381446 
1434	 0.130877122865055 
1435	 0.131262717672203 
1436	 0.131589282081513 
1437	 0.13184109739625 
1438	 0.132167910732219 
1439	 0.132537747378906 
1440	 0.132865731549409 
1441	 0.133206555302159 
1442	 0.133529985501316 
1443	 0.133793814373699 
1444	 0.134126953395854 
1445	 0.134501059642046 
1446	 0.134855952349976 
1447	 0.135225585775659 
1448	 0.135603670766574 
1449	 0.135992374171302 
1450	 0.136360995077458 
1451	 0.136714314557858 
1452	 0.137111814606077 
1453	 0.137523052657754 
1454	 0.137913913532493 
1455	 0.138338405540909 
1456	 0.138743735260792 
1457	 0.139107369871369 
1458	 0.13949244595687 
1459	 0.139910819746039 
1460	 0.140302254581105 
1461	 0.140653054120563 
1462	 0.141038317730394 
1463	 0.14145096360306 
1464	 0.141836715215383 
1465	 0.142200209305735 
1466	 0.142625322263702 
1467	 0.142990178827146 
1468	 0.143353022556229 
1469	 0.14376705753882 
1470	 0.144146641428686 
1471	 0.144561105569639 
1472	 0.144989798875055 
1473	 0.145418585661102 
1474	 0.145855876027351 
1475	 0.146308545558519 
1476	 0.146793719343928 
1477	 0.147206929533387 
1478	 0.147598194780279 
1479	 0.148004757026065 
1480	 0.148357788723483 
1481	 0.148752999148917 
1482	 0.149197445599799 
1483	 0.149617694160947 
1484	 0.150021948213327 
1485	 0.150437293625718 
1486	 0.150876259990261 
1487	 0.151274789798044 
1488	 0.151642657095477 
1489	 0.152033786692878 
1490	 0.152411995702029 
1491	 0.152809169536793 
1492	 0.15322509048952 
1493	 0.153644169117723 
1494	 0.154060332721416 
1495	 0.154491666888672 
1496	 0.154959215003311 
1497	 0.155386825721177 
1498	 0.155792600323464 
1499	 0.15621993369946 
1500	 0.156654391565996 
1501	 0.157063230149317 
1502	 0.157462282439782 
1503	 0.157874056903712 
1504	 0.158272305720703 
1505	 0.158664013181308 
1506	 0.159067004561855 
1507	 0.159475766454822 
1508	 0.15988745344348 
1509	 0.160265481417463 
1510	 0.160616059774699 
1511	 0.161003952909648 
1512	 0.161370067553286 
1513	 0.161758393477637 
1514	 0.162217905294679 
1515	 0.162641921704969 
1516	 0.163028902707164 
1517	 0.163440373911165 
1518	 0.163864826570567 
1519	 0.164275580586356 
1520	 0.164692114189269 
1521	 0.165112793064156 
1522	 0.165495647418325 
1523	 0.16588071790778 
1524	 0.166240715473695 
1525	 0.166565448011289 
1526	 0.166960738373081 
1527	 0.167371510548452 
1528	 0.167767747037334 
1529	 0.168194471938933 
1530	 0.168622097607958 
1531	 0.169025926429218 
1532	 0.169457422364572 
1533	 0.169939671751498 
1534	 0.170375577623915 
1535	 0.17076688193057 
1536	 0.17122352942415 
1537	 0.171712236028809 
1538	 0.17217225540378 
1539	 0.172673024147184 
1540	 0.173101073967403 
1541	 0.17342344204 
1542	 0.173905407417007 
1543	 0.174449613988952 
1544	 0.1749485942747 
1545	 0.17553207824729 
1546	 0.176042964330064 
1547	 0.176456948819581 
1548	 0.176947179092317 
1549	 0.177485985101012 
1550	 0.177993524600857 
1551	 0.178491811971644 
1552	 0.17900205534639 
1553	 0.179489188351948 
1554	 0.180035245502706 
1555	 0.180623955783768 
1556	 0.181198611962726 
1557	 0.181827444310864 
1558	 0.182390046288238 
1559	 0.182898986014085 
1560	 0.183445705362055 
1561	 0.183999360951579 
1562	 0.184523412781187 
1563	 0.185021302166623 
1564	 0.185576109476216 
1565	 0.186145150075006 
1566	 0.186691609500718 
1567	 0.187297925708557 
1568	 0.187844003552677 
1569	 0.188314612473916 
1570	 0.188817214992324 
1571	 0.189328402266206 
1572	 0.189832132828338 
1573	 0.190309265872586 
1574	 0.190826162051745 
1575	 0.191373553358439 
1576	 0.19190217467722 
1577	 0.192445751657123 
1578	 0.192983968698494 
1579	 0.193492767800605 
1580	 0.194030853263171 
1581	 0.194614629122712 
1582	 0.19515277138545 
1583	 0.195669026277337 
1584	 0.196198614037143 
1585	 0.196692423312414 
1586	 0.197224398246835 
1587	 0.197796304774702 
1588	 0.198354085439271 
1589	 0.198892199731769 
1590	 0.199480849644851 
1591	 0.200126255416177 
1592	 0.200719307927877 
1593	 0.201316391675708 
1594	 0.201914207554989 
1595	 0.202452504238954 
1596	 0.203039379002696 
1597	 0.20368282732336 
1598	 0.204300442542878 
1599	 0.204934170367849 
1600	 0.20553443960179 
1601	 0.206097015437236 
1602	 0.206684285775677 
1603	 0.207237663417221 
1604	 0.207839516846565 
1605	 0.208476636534227 
1606	 0.209131545841287 
1607	 0.209892986868187 
1608	 0.210525026801955 
1609	 0.211076231261215 
1610	 0.211665980671238 
1611	 0.212137526851366 
1612	 0.212722799456701 
1613	 0.213442645823534 
1614	 0.214097173857879 
1615	 0.214778003842946 
1616	 0.215424268643805 
1617	 0.216017952310747 
1618	 0.216628991090289 
1619	 0.217238272413915 
1620	 0.21783942501394 
1621	 0.218432751084834 
1622	 0.219036005625977 
1623	 0.219639668230317 
1624	 0.22024101146673 
1625	 0.220855745047119 
1626	 0.221456289365606 
1627	 0.222052251876476 
1628	 0.222630195275737 
1629	 0.223194345066514 
1630	 0.223754223119677 
1631	 0.224279454882058 
1632	 0.2248347217777 
1633	 0.225384535702675 
1634	 0.225971710931129 
1635	 0.226604518651159 
1636	 0.227226916435645 
1637	 0.227867369445775 
1638	 0.22850244577166 
1639	 0.229133928097983 
1640	 0.229768211023765 
1641	 0.230453437805151 
1642	 0.231062973382739 
1643	 0.231595519287821 
1644	 0.232168613780211 
1645	 0.232709368487531 
1646	 0.233267197198295 
1647	 0.233872860682295 
1648	 0.2344629492059 
1649	 0.235036582396189 
1650	 0.235612198009264 
1651	 0.236205467920697 
1652	 0.236775116873798 
1653	 0.237334885250354 
1654	 0.23786515030272 
1655	 0.238387675829195 
1656	 0.238879256248615 
1657	 0.239320765408594 
1658	 0.239787450425585 
1659	 0.240227187105887 
1660	 0.240688307167767 
1661	 0.241178170056263 
1662	 0.241643308566903 
1663	 0.242162886214342 
1664	 0.242582972482999 
1665	 0.242915305332921 
1666	 0.243280087917226 
1667	 0.243612004600797 
1668	 0.243907832392772 
1669	 0.244209568863151 
1670	 0.244485019365825 
1671	 0.244725446117031 
1672	 0.244925168883831 
1673	 0.245110759722971 
1674	 0.245263057814319 
1675	 0.245314872672427 
1676	 0.245421009202582 
1677	 0.245568414437683 
1678	 0.245671465113929 
1679	 0.245773006346391 
1680	 0.245844463245358 
1681	 0.245885601522354 
1682	 0.245885772562387 
1683	 0.245916088651599 
1684	 0.245814946687218 
1685	 0.245592129680636 
1686	 0.245394660783742 
1687	 0.245090970123332 
1688	 0.244859235082487 
1689	 0.244702939988964 
1690	 0.244452833525767 
1691	 0.244175962473435 
1692	 0.243884412234798 
1693	 0.243567728017315 
1694	 0.243185424857775 
1695	 0.242764696114902 
1696	 0.24232427854028 
1697	 0.241810333887975 
1698	 0.241290316055343 
1699	 0.240785348316145 
1700	 0.240245879209843 
1701	 0.239634939067797 
1702	 0.239069114351029 
1703	 0.238482250414763 
1704	 0.237950207488057 
1705	 0.237452123852465 
1706	 0.236941250666622 
1707	 0.236544708494895 
1708	 0.236286322941127 
1709	 0.235997649611307 
1710	 0.235841577397098 
1711	 0.235722973242185 
1712	 0.235561632716469 
1713	 0.235482763057722 
1714	 0.235428196288941 
1715	 0.235418537483036 
1716	 0.235425222545534 
1717	 0.235389668747557 
1718	 0.235383126332481 
1719	 0.235408902467348 
1720	 0.235533334126928 
1721	 0.235712075982899 
1722	 0.235824687330134 
1723	 0.236023538319348 
1724	 0.236272253313696 
1725	 0.236484299381254 
1726	 0.236867708543114 
1727	 0.237340296162562 
1728	 0.237797786083139 
1729	 0.238461679158267 
1730	 0.239249542548921 
1731	 0.24002933833301 
1732	 0.240934412853994 
1733	 0.241865274172497 
1734	 0.242790081880541 
1735	 0.243761871852051 
1736	 0.244645780301334 
1737	 0.245537269931695 
1738	 0.246495740307383 
1739	 0.247278012629219 
1740	 0.248028168167878 
1741	 0.248665815883899 
1742	 0.249127281107239 
1743	 0.249553153121454 
1744	 0.24992038188331 
1745	 0.25024686236538 
1746	 0.250429245743513 
1747	 0.250698113437368 
1748	 0.250990252527762 
1749	 0.251274572310162 
1750	 0.251568581764648 
1751	 0.251883287536003 
1752	 0.252165432035425 
1753	 0.25258423443204 
1754	 0.253067037867908 
1755	 0.253544483625833 
1756	 0.254095697794372 
1757	 0.254546530145361 
1758	 0.255207712895086 
1759	 0.255918426006357 
1760	 0.25669683161601 
1761	 0.257607264392323 
1762	 0.258398329344326 
1763	 0.259313906622659 
1764	 0.260337371456561 
1765	 0.261389329346914 
1766	 0.262632792835819 
1767	 0.263771458387197 
1768	 0.264852468251164 
1769	 0.26597918349695 
1770	 0.267012444556631 
1771	 0.26810348590828 
1772	 0.26916051493896 
1773	 0.270106828009726 
1774	 0.271129611313016 
1775	 0.272150215364361 
1776	 0.273135445382536 
1777	 0.274110375451156 
1778	 0.274951459727203 
1779	 0.275744346547105 
1780	 0.276525333318124 
1781	 0.277253115367288 
1782	 0.277960275449819 
1783	 0.278593770532253 
1784	 0.279296796992342 
1785	 0.279965263060037 
1786	 0.280607209578008 
1787	 0.281279158305281 
1788	 0.281827882701361 
1789	 0.282312753289203 
1790	 0.282821416693581 
1791	 0.283239460242794 
1792	 0.283721780828516 
1793	 0.28423256039422 
1794	 0.284781512181536 
1795	 0.285232130860633 
1796	 0.285648404202914 
1797	 0.286182420233117 
1798	 0.286619600697736 
1799	 0.287158944318524 
1800	 0.287712040606656 
1801	 0.285461899715177 
1802	 0.285908468293562 
1803	 0.286339582507869 
1804	 0.286739756079493 
1805	 0.287101009507829 
1806	 0.287544485112944 
1807	 0.2880501450912 
1808	 0.288469906083369 
1809	 0.288893376539429 
1810	 0.289325010007311 
1811	 0.289670148425899 
1812	 0.290077596969641 
1813	 0.290517525984606 
1814	 0.291051216791343 
1815	 0.29149277915028 
1816	 0.291906816584631 
1817	 0.292336109672003 
1818	 0.292741978918907 
1819	 0.293157653124923 
1820	 0.293547859519192 
1821	 0.294004116658646 
1822	 0.294508674568397 
1823	 0.295000675342261 
1824	 0.295468138873603 
1825	 0.295956369691012 
1826	 0.296378026246087 
1827	 0.296704108008726 
1828	 0.297078499400779 
1829	 0.297493946066342 
1830	 0.297824585924509 
1831	 0.298074987166846 
1832	 0.298407488249713 
1833	 0.298729567149293 
1834	 0.299072614523649 
1835	 0.299469941768191 
1836	 0.299894374304618 
1837	 0.300262618575376 
1838	 0.300568173140559 
1839	 0.300896086623544 
1840	 0.301179362650651 
1841	 0.301536354571434 
1842	 0.301900562701763 
1843	 0.302351920871815 
1844	 0.302816811630363 
1845	 0.303202010185498 
1846	 0.303505150753937 
1847	 0.303826333756538 
1848	 0.304217956598431 
1849	 0.304636959014429 
1850	 0.305098131588572 
1851	 0.305654371602282 
1852	 0.306140155779257 
1853	 0.306608315551827 
1854	 0.307070836765255 
1855	 0.307590453407373 
1856	 0.308094111365911 
1857	 0.308538503689498 
1858	 0.309049665395839 
1859	 0.309531316466689 
1860	 0.30999350408736 
1861	 0.310414500382324 
1862	 0.310851574380706 
1863	 0.311209340873546 
1864	 0.311550618681821 
1865	 0.311913582028333 
1866	 0.31235477060363 
1867	 0.312690859650034 
1868	 0.312926000589048 
1869	 0.313154224355582 
1870	 0.313312229043409 
1871	 0.313353396622012 
1872	 0.313472402169479 
1873	 0.313612977043332 
1874	 0.313667283983425 
1875	 0.31374879387679 
1876	 0.31376445773857 
1877	 0.313691050283146 
1878	 0.313500010511769 
1879	 0.313238274563087 
1880	 0.313050587869048 
1881	 0.312751261238657 
1882	 0.312393683608992 
1883	 0.311969738657132 
1884	 0.311538965333361 
1885	 0.310928855432111 
1886	 0.310233222538594 
1887	 0.309519372847205 
1888	 0.308686876456164 
1889	 0.30781844328949 
1890	 0.306902599959189 
1891	 0.305921469914773 
1892	 0.304907078805514 
1893	 0.30386528240782 
1894	 0.302751236938154 
1895	 0.301629476796552 
1896	 0.300515422740125 
1897	 0.299326337960716 
1898	 0.298100276099793 
1899	 0.296858867674561 
1900	 0.295662866119121 
1901	 0.29459774518867 
1902	 0.293584706338875 
1903	 0.292634471422976 
1904	 0.291696294011998 
1905	 0.290805274286405 
1906	 0.289885703197751 
1907	 0.289023619609736 
1908	 0.288232589654439 
1909	 0.28746804535557 
1910	 0.286819248907013 
1911	 0.286198045826998 
1912	 0.285557485926728 
1913	 0.285043074755761 
1914	 0.284558497726939 
1915	 0.284107567474805 
1916	 0.283685031964159 
1917	 0.283403394617753 
1918	 0.283151684696145 
1919	 0.282873202773978 
1920	 0.282678699326448 
1921	 0.282531395068579 
1922	 0.282380752463111 
1923	 0.282260169863006 
1924	 0.282195711393665 
1925	 0.282186285144517 
1926	 0.282146713400064 
1927	 0.282084060680614 
1928	 0.282075168806995 
1929	 0.282095719166417 
1930	 0.282074955419556 
1931	 0.282152331142631 
1932	 0.282308418187803 
1933	 0.282471454548132 
1934	 0.28267743786652 
1935	 0.282873733244188 
1936	 0.28309213850936 
1937	 0.28335024059573 
1938	 0.283639911242305 
1939	 0.28393054202173 
1940	 0.284237109180359 
1941	 0.284611705784666 
1942	 0.284963876823173 
1943	 0.285334678211207 
1944	 0.285680665124861 
1945	 0.286004541455883 
1946	 0.286380999772788 
1947	 0.286810296299731 
1948	 0.287334358493567 
1949	 0.287859553909181 
1950	 0.28835304676267 
1951	 0.288792537770658 
1952	 0.289314247561146 
1953	 0.289849304735938 
1954	 0.290421515654063 
1955	 0.291039893615684 
1956	 0.291645213260502 
1957	 0.292260493904102 
1958	 0.292841023582743 
1959	 0.293422894806222 
1960	 0.294070288823885 
1961	 0.294619055748063 
1962	 0.295101898750908 
1963	 0.295595901738616 
1964	 0.296034756210284 
1965	 0.296483313779189 
1966	 0.296899601631012 
1967	 0.297422770471129 
1968	 0.29789176537124 
1969	 0.298316729676637 
1970	 0.298841371422044 
1971	 0.29925142703791 
1972	 0.299673564947535 
1973	 0.300155141977452 
1974	 0.300561116511512 
1975	 0.300918047212606 
1976	 0.301274783610204 
1977	 0.3015496653019 
1978	 0.301927358092052 
1979	 0.302332245561078 
1980	 0.302776582603596 
1981	 0.303266844776718 
1982	 0.303646777909722 
1983	 0.303955048567694 
1984	 0.304265831899566 
1985	 0.304574091813994 
1986	 0.304889806382148 
1987	 0.305176659504494 
1988	 0.305448336184427 
1989	 0.305718499870885 
1990	 0.305938768508431 
1991	 0.306203964907869 
1992	 0.306508698901588 
1993	 0.306795894980793 
1994	 0.307046357658557 
1995	 0.307287893256331 
1996	 0.307490520890223 
1997	 0.307712158610065 
1998	 0.307951552953546 
1999	 0.308235512724438 
2000	 0.308457788645705 
2001	 0.308688977964628 
2002	 0.308863732085023 
2003	 0.309017490483728 
2004	 0.309094747378597 
2005	 0.309053379562122 
2006	 0.309072301821861 
2007	 0.309027623723641 
2008	 0.309063464391667 
2009	 0.309164406443056 
2010	 0.309252696586818 
2011	 0.309258645646682 
2012	 0.309168568066576 
2013	 0.309082954512354 
2014	 0.308952534523015 
2015	 0.308800182400893 
2016	 0.308627178296909 
2017	 0.30842107988056 
2018	 0.308140088731648 
2019	 0.307877169195688 
2020	 0.307587994059032 
2021	 0.30735214864789 
2022	 0.307119006370846 
2023	 0.306773134526938 
2024	 0.306394196142916 
2025	 0.306055711680258 
2026	 0.305705510609511 
2027	 0.305309260710321 
2028	 0.305001997926554 
2029	 0.304726740925349 
2030	 0.304463331976234 
2031	 0.304252094383997 
2032	 0.304032313940282 
2033	 0.303819268822795 
2034	 0.303631511649957 
2035	 0.303444050670308 
2036	 0.303296646045239 
2037	 0.303168261899303 
2038	 0.303083335947577 
2039	 0.303049783880799 
2040	 0.303089093084114 
2041	 0.303083171967804 
2042	 0.303153117378729 
2043	 0.303119572153354 
2044	 0.303004892071751 
2045	 0.302923396384774 
2046	 0.302792706926458 
2047	 0.302697666972327 
2048	 0.302649558369908 
2049	 0.302576395518929 
2050	 0.302519012395391 
2051	 0.302431057592219 
2052	 0.302259309984151 
2053	 0.30210128403409 
2054	 0.301959715954983 
2055	 0.301771402563394 
2056	 0.301649922613531 
2057	 0.301610909392581 
2058	 0.30149326832161 
2059	 0.301365818187654 
2060	 0.301231616004085 
2061	 0.301021214702456 
2062	 0.300899726781871 
2063	 0.300843812824754 
2064	 0.300755114189172 
2065	 0.300719984754131 
2066	 0.30061084135923 
2067	 0.300534639884777 
2068	 0.300426205113651 
2069	 0.300340301871916 
2070	 0.300301666780202 
2071	 0.300207658343008 
2072	 0.300072548906296 
2073	 0.29996056734913 
2074	 0.299835967391137 
2075	 0.299712697627635 
2076	 0.299596959379281 
2077	 0.299485976267279 
2078	 0.299371659823737 
2079	 0.2992508503869 
2080	 0.299168268326433 
2081	 0.299035462312899 
2082	 0.298871991108175 
2083	 0.298662720190411 
2084	 0.298515097971228 
2085	 0.298372811065102 
2086	 0.298217264739988 
2087	 0.298082863808747 
2088	 0.297959115329969 
2089	 0.297823170584023 
2090	 0.297678902938888 
2091	 0.29757329274374 
2092	 0.297444659220702 
2093	 0.297295725493947 
2094	 0.29711667673638 
2095	 0.296918287786995 
2096	 0.296716335370725 
2097	 0.296494354963582 
2098	 0.29624435578792 
2099	 0.296000427639446 
2100	 0.29575257427135 
2101	 0.295550612233942 
2102	 0.295358344854458 
2103	 0.295170591920665 
2104	 0.295046807040087 
2105	 0.294862502296473 
2106	 0.294667506762449 
2107	 0.294407390217797 
2108	 0.29402979452694 
2109	 0.29379961844776 
2110	 0.293611615623876 
2111	 0.293395478654689 
2112	 0.293317904224713 
2113	 0.2931237075756 
2114	 0.292756959993972 
2115	 0.292494272323052 
2116	 0.292247241554302 
2117	 0.292015562931159 
2118	 0.291844092487366 
2119	 0.291757064772763 
2120	 0.291605623909162 
2121	 0.291471461459077 
2122	 0.291318979304308 
2123	 0.291141820496415 
2124	 0.290973081314148 
2125	 0.290806298808046 
2126	 0.290640812565823 
2127	 0.290447577646943 
2128	 0.290297670705723 
2129	 0.290155723625884 
2130	 0.29005492939785 
2131	 0.290013010868637 
2132	 0.289950650206905 
2133	 0.28996184576061 
2134	 0.289869711169125 
2135	 0.289714883033508 
2136	 0.289605203976475 
2137	 0.289573133256883 
2138	 0.28960035522522 
2139	 0.289546731662884 
2140	 0.289577544445227 
2141	 0.289483474237616 
2142	 0.289207963103288 
2143	 0.289070612772227 
2144	 0.288938546046064 
2145	 0.288867258295298 
2146	 0.288914931602682 
2147	 0.288872815121177 
2148	 0.288792766125883 
2149	 0.28875987082429 
2150	 0.288713344184183 
2151	 0.288672445595287 
2152	 0.288696630996516 
2153	 0.28872570930511 
2154	 0.28856642149516 
2155	 0.288348405123349 
2156	 0.288171140347211 
2157	 0.287891307216788 
2158	 0.287731143114212 
2159	 0.287695070565162 
2160	 0.287522899519834 
2161	 0.287316166964539 
2162	 0.28711302988118 
2163	 0.286839920695328 
2164	 0.2866046619316 
2165	 0.286420340416818 
2166	 0.286176205405016 
2167	 0.285889731521305 
2168	 0.285630785464248 
2169	 0.285379298496919 
2170	 0.285082666829977 
2171	 0.284814620868783 
2172	 0.284461969455489 
2173	 0.283949646956117 
2174	 0.28355959116844 
2175	 0.283185864262813 
2176	 0.28284297341005 
2177	 0.28251853735202 
2178	 0.282312127778555 
2179	 0.281926086521683 
2180	 0.281476843512587 
2181	 0.281007638700186 
2182	 0.280405559306002 
2183	 0.279958730154051 
2184	 0.279585892705147 
2185	 0.279138961787857 
2186	 0.278846645059192 
2187	 0.278271244899062 
2188	 0.277462728847686 
2189	 0.27672971217419 
2190	 0.27583949130877 
2191	 0.275043598618004 
2192	 0.27446247711955 
2193	 0.273610472505141 
2194	 0.272631357071012 
2195	 0.271604055817669 
2196	 0.270430523766374 
2197	 0.26914430917122 
2198	 0.267952122455471 
2199	 0.266651269504206 
2200	 0.265232154592115 
2201	 0.263766755552755 
2202	 0.262060285978689 
2203	 0.260133935942737 
2204	 0.2582621820738 
2205	 0.256181036945825 
2206	 0.254253207975378 
2207	 0.252414452322899 
2208	 0.250489927756453 
2209	 0.248537733904038 
2210	 0.246613046346024 
2211	 0.244589831043984 
2212	 0.242761272267865 
2213	 0.240886600456828 
2214	 0.239334809342312 
2215	 0.237998035057171 
2216	 0.236810755750142 
2217	 0.235885992708537 
2218	 0.235070958898453 
2219	 0.23443926452179 
2220	 0.233868845885934 
2221	 0.233392195944452 
2222	 0.233122156707356 
2223	 0.232883696591031 
2224	 0.232608534129958 
2225	 0.232346512761234 
2226	 0.232038134740043 
2227	 0.231637749383973 
2228	 0.231163262750134 
2229	 0.23060421544697 
2230	 0.230028820458141 
2231	 0.229213039067625 
2232	 0.22825272223057 
2233	 0.227177174491691 
2234	 0.225886247677137 
2235	 0.22457480838345 
2236	 0.223142940959514 
2237	 0.221705252281589 
2238	 0.220212011200477 
2239	 0.218642315800174 
2240	 0.217090844842611 
2241	 0.215355903394331 
2242	 0.213467756213855 
2243	 0.211517003357269 
2244	 0.209461457224192 
2245	 0.207289295737008 
2246	 0.204951119215767 
2247	 0.202623545954772 
2248	 0.200312346125258 
2249	 0.197778421620379 
2250	 0.195116793234449 
2251	 0.192435997533664 
2252	 0.189424042292028 
2253	 0.186328267253809 
2254	 0.183165823681986 
2255	 0.17993280026359 
2256	 0.177117974049839 
2257	 0.174288308931194 
2258	 0.171478979002691 
2259	 0.168879081438868 
2260	 0.166252194278105 
2261	 0.1633922554741 
2262	 0.161002960308256 
2263	 0.158867361854609 
2264	 0.156904444209734 
2265	 0.155229220248062 
2266	 0.153608103283121 
2267	 0.152097540258707 
2268	 0.150855876402386 
2269	 0.149801485304094 
2270	 0.148909232091313 
2271	 0.148350453614134 
2272	 0.147773961297106 
2273	 0.147297557024432 
2274	 0.146894510474289 
2275	 0.146625220757622 
2276	 0.146351801629975 
2277	 0.146103121697595 
2278	 0.145947536471266 
2279	 0.145945424708617 
2280	 0.145819709456103 
2281	 0.145791844634091 
2282	 0.145610026326077 
2283	 0.145258978012633 
2284	 0.144902920928965 
2285	 0.144458629123492 
2286	 0.144037054458438 
2287	 0.143712264514363 
2288	 0.14322426031812 
2289	 0.142735119420302 
2290	 0.142235758068869 
2291	 0.141681681734145 
2292	 0.141045632402589 
2293	 0.140527879460415 
2294	 0.140113016181123 
2295	 0.139514810609128 
2296	 0.139154741626309 
2297	 0.138790849443079 
2298	 0.138375020585479 
2299	 0.138166806154919 
2300	 0.138048554410423 
2301	 0.1381714135037 
2302	 0.138418046211247 
2303	 0.138940191411928 
2304	 0.139934166060896 
2305	 0.140632537235674 
2306	 0.141297539440977 
2307	 0.142234693819811 
2308	 0.142954592070659 
2309	 0.144246675353073 
2310	 0.146167895575114 
2311	 0.147894294540362 
2312	 0.150002811770108 
2313	 0.151708695572949 
2314	 0.15324002997043 
2315	 0.154688141485102 
2316	 0.155895225248097 
2317	 0.157197389556176 
2318	 0.158593133976016 
2319	 0.159704099544794 
2320	 0.160756863939859 
2321	 0.161533930396705 
2322	 0.16195986480151 
2323	 0.162384065095326 
2324	 0.162802644203298 
2325	 0.162917230476544 
2326	 0.162748692571347 
2327	 0.16254930908214 
2328	 0.162094528572904 
2329	 0.161575342196366 
2330	 0.161012180691292 
2331	 0.160402157717797 
2332	 0.159550794276548 
2333	 0.158453110825857 
2334	 0.156981881098567 
2335	 0.155552695041281 
2336	 0.154118652811237 
2337	 0.152502659195711 
2338	 0.151107569767726 
2339	 0.149628831098411 
2340	 0.147760601533786 
2341	 0.145792701366981 
2342	 0.143959140484988 
2343	 0.142291881136439 
2344	 0.140962654172529 
2345	 0.139804015568442 
2346	 0.138542116405906 
2347	 0.13724802486741 
2348	 0.136157746662956 
2349	 0.135608102037452 
2350	 0.135273874925186 
2351	 0.135145705555596 
2352	 0.135103644591059 
2353	 0.135017973424634 
2354	 0.135213548021145 
2355	 0.135522430584356 
2356	 0.135957699210874 
2357	 0.136644579657128 
2358	 0.13722443607851 
2359	 0.137540949448813 
2360	 0.137805661270935 
2361	 0.138052667872158 
2362	 0.138334044470646 
2363	 0.1388603905228 
2364	 0.139587375635927 
2365	 0.140066570150005 
2366	 0.140394975028486 
2367	 0.140896393987391 
2368	 0.141402134261857 
2369	 0.14192227698448 
2370	 0.142318506579114 
2371	 0.142544651222662 
2372	 0.142585586482686 
2373	 0.142266479526761 
2374	 0.142261710814795 
2375	 0.142617902907412 
2376	 0.142776911209162 
2377	 0.142933355091183 
2378	 0.143010078409041 
2379	 0.142833662389666 
2380	 0.142412833307495 
2381	 0.142396927038087 
2382	 0.142502209265345 
2383	 0.14281580268899 
2384	 0.142666070564691 
2385	 0.142555739551231 
2386	 0.142255394050482 
2387	 0.141345768262824 
2388	 0.141190930953648 
2389	 0.141483015973334 
2390	 0.141651019445569 
2391	 0.14211102276054 
2392	 0.142159922811119 
2393	 0.141990763786839 
2394	 0.141929653683692 
2395	 0.141719672055865 
2396	 0.14163837760802 
2397	 0.141724452384302 
2398	 0.141610129429765 
2399	 0.141321209519708 
2400	 0.141336827273911 
2401	 0.141403063366581 
2402	 0.14156082328408 
2403	 0.1418653796081 
2404	 0.141917577930691 
2405	 0.141811610801666 
2406	 0.141802451038687 
2407	 0.141745301775873 
2408	 0.141645876549553 
2409	 0.141834576522378 
2410	 0.142353411098896 
2411	 0.142640179649077 
2412	 0.142793623267997 
2413	 0.143391710018666 
2414	 0.143938064152629 
2415	 0.144165156615314 
2416	 0.144543938665028 
2417	 0.144473929613935 
2418	 0.143970805254718 
2419	 0.144228532500259 
2420	 0.144604534023883 
2421	 0.144755549201716 
2422	 0.14551804989767 
2423	 0.145807224278195 
2424	 0.145635627439926 
2425	 0.145653638255098 
2426	 0.145738824446684 
2427	 0.146236815015126 
2428	 0.146582528542698 
2429	 0.147006056570622 
2430	 0.147376341923148 
2431	 0.147469780942297 
2432	 0.147628662686747 
2433	 0.147745559802241 
2434	 0.14817518049404 
2435	 0.14855264906937 
2436	 0.148876039493081 
2437	 0.14936381328647 
2438	 0.149434216419423 
2439	 0.149762375575827 
2440	 0.150600048479823 
2441	 0.151016307201546 
2442	 0.15125052389882 
2443	 0.151346112373078 
2444	 0.151293299830109 
2445	 0.151421510645833 
2446	 0.152082473922557 
2447	 0.152764845565081 
2448	 0.15264923034333 
2449	 0.153084634562677 
2450	 0.153744682385727 
2451	 0.153326718052618 
2452	 0.153252441639133 
2453	 0.153453044432379 
2454	 0.153362295064609 
2455	 0.154075390247964 
2456	 0.154703015539792 
2457	 0.154634779871924 
2458	 0.155056689476436 
2459	 0.155763367710153 
2460	 0.156679958075295 
2461	 0.157699659484334 
2462	 0.15742049152147 
2463	 0.156833655076133 
2464	 0.156340223988189 
2465	 0.155577653246869 
2466	 0.156025871807791 
2467	 0.156724962183423 
2468	 0.157067912620244 
2469	 0.157642247744364 
2470	 0.158117777240337 
2471	 0.158149740489418 
2472	 0.157899351196867 
2473	 0.158068366090701 
2474	 0.158111858101959 
2475	 0.157873902701521 
2476	 0.157917204059757 
2477	 0.158337615880508 
2478	 0.158826829481074 
2479	 0.15961555185289 
2480	 0.161305936728938 
2481	 0.161523130007332 
2482	 0.160974017672444 
2483	 0.160850778917021 
2484	 0.1607739331776 
2485	 0.162199563009678 
2486	 0.163367895448246 
2487	 0.163277211590299 
2488	 0.163497203814928 
2489	 0.163111500202887 
2490	 0.162395150923546 
2491	 0.163127204293017 
2492	 0.163387069482799 
2493	 0.163381040426077 
2494	 0.164830031055753 
2495	 0.165518033087713 
2496	 0.165836498020424 
2497	 0.166098019425577 
2498	 0.165408586936997 
2499	 0.166788587637936 
2500	 0.168638291954411 
