Wavelength	Tablay400005.asd
350	 0.186140638022911 
351	 0.173945829951511 
352	 0.166929840514077 
353	 0.185802845969297 
354	 0.162623111971233 
355	 0.157717505146192 
356	 0.166236915313929 
357	 0.167032696723896 
358	 0.140021051230744 
359	 0.118955728949573 
360	 0.128711617602894 
361	 0.174377343939339 
362	 0.156880348971182 
363	 0.131423511356968 
364	 0.130925945315112 
365	 0.134884006807445 
366	 0.128841015333133 
367	 0.121042521986301 
368	 0.120500791411874 
369	 0.119390745777805 
370	 0.124997895850238 
371	 0.128207077716015 
372	 0.115234043956019 
373	 0.114728923721366 
374	 0.118889640768681 
375	 0.11845743440597 
376	 0.107063479584374 
377	 0.109784276030639 
378	 0.113531960693459 
379	 0.10464254122572 
380	 0.099841199079599 
381	 9.41095645101995E-02 
382	 8.97526903384038E-02 
383	 9.17047131996357E-02 
384	 9.54087754878497E-02 
385	 9.33191137553866E-02 
386	 8.73910137044745E-02 
387	 9.38776517131872E-02 
388	 9.39647441038311E-02 
389	 9.24608046833858E-02 
390	 9.52690365277496E-02 
391	 0.087902317985754 
392	 8.30933430998151E-02 
393	 8.42967215182603E-02 
394	 8.73905611609105E-02 
395	 7.89659223120175E-02 
396	 7.18563458769332E-02 
397	 7.32087483865589E-02 
398	 0.076289719080195 
399	 8.17774772588483E-02 
400	 8.33772015997695E-02 
401	 7.72638367179439E-02 
402	 7.50696442795898E-02 
403	 0.072238952490575 
404	 6.85735160536729E-02 
405	 0.067457556023886 
406	 0.072866553603198 
407	 7.56491928588228E-02 
408	 7.19342213671791E-02 
409	 7.06346000243569E-02 
410	 6.89916234248625E-02 
411	 0.068464445535821 
412	 7.01277798575556E-02 
413	 6.78447458735482E-02 
414	 6.58550649265208E-02 
415	 6.57953882129295E-02 
416	 6.63441674787132E-02 
417	 6.22077720443575E-02 
418	 5.80785390137971E-02 
419	 5.82577516348507E-02 
420	 6.36730874174528E-02 
421	 6.15087550621832E-02 
422	 0.056726045167148 
423	 5.90991687219878E-02 
424	 0.05909665896316 
425	 0.059671291728468 
426	 6.08339583989241E-02 
427	 5.84938873829302E-02 
428	 5.79219757199833E-02 
429	 0.058008327397903 
430	 5.73871976772333E-02 
431	 5.83538770250704E-02 
432	 5.85826074794317E-02 
433	 5.80074516261851E-02 
434	 5.76973452063043E-02 
435	 5.66926709237264E-02 
436	 5.67271810006238E-02 
437	 5.78248495440463E-02 
438	 0.057084978882521 
439	 5.71267199142286E-02 
440	 5.74259869907662E-02 
441	 5.71236409619846E-02 
442	 5.78217157687479E-02 
443	 5.75028302607433E-02 
444	 5.62953976961851E-02 
445	 5.59559760701738E-02 
446	 5.57694164607854E-02 
447	 0.056049832508906 
448	 5.67936194356861E-02 
449	 0.057139271086077 
450	 5.66753340838128E-02 
451	 5.61251702214481E-02 
452	 5.63464853822562E-02 
453	 5.61163748770151E-02 
454	 5.55046183235182E-02 
455	 5.51076357025867E-02 
456	 5.59077011178965E-02 
457	 5.51628815218826E-02 
458	 0.054767048778445 
459	 5.59090939494109E-02 
460	 5.46639023379971E-02 
461	 5.47998691028971E-02 
462	 5.55869137077627E-02 
463	 5.43865701351247E-02 
464	 5.44327402622904E-02 
465	 5.44627724616508E-02 
466	 5.39251260859207E-02 
467	 5.40298652898098E-02 
468	 5.42246543544313E-02 
469	 5.42786099962926E-02 
470	 0.05404521094551 
471	 5.32628828158732E-02 
472	 5.32008979947021E-02 
473	 5.36793840515851E-02 
474	 0.053455372008413 
475	 5.32199337533997E-02 
476	 5.30961516598553E-02 
477	 5.31745072561784E-02 
478	 0.053806619841879 
479	 5.34385663729722E-02 
480	 5.28697976960127E-02 
481	 5.34054418105136E-02 
482	 0.053443674498352 
483	 5.34899377046366E-02 
484	 5.36706268609518E-02 
485	 5.35478571088074E-02 
486	 5.32909582544745E-02 
487	 5.32436106222863E-02 
488	 5.35826559382479E-02 
489	 5.39629745199574E-02 
490	 0.053937327587495 
491	 5.37369738607942E-02 
492	 5.39043537749212E-02 
493	 5.38534316269295E-02 
494	 5.40456813849752E-02 
495	 5.45752021866763E-02 
496	 5.47757868864326E-02 
497	 5.49844897809293E-02 
498	 5.50590904554437E-02 
499	 5.49105911559542E-02 
500	 5.51988513453388E-02 
501	 5.59682211961247E-02 
502	 0.056774086101251 
503	 5.68577008982533E-02 
504	 5.69703605643924E-02 
505	 5.73135358135233E-02 
506	 5.78712021806155E-02 
507	 5.84310038736634E-02 
508	 5.86421113321088E-02 
509	 5.87307330293792E-02 
510	 5.91339969224239E-02 
511	 5.97685919406203E-02 
512	 6.03796376275002E-02 
513	 6.09308719640237E-02 
514	 6.16815542671599E-02 
515	 6.21128551281034E-02 
516	 6.26185865324179E-02 
517	 6.34986065997866E-02 
518	 6.39089475011782E-02 
519	 6.43810288703623E-02 
520	 6.51166153432989E-02 
521	 6.60542016022221E-02 
522	 0.067039668540535 
523	 6.80005337563992E-02 
524	 6.89219097309074E-02 
525	 6.98707968180958E-02 
526	 7.07450840448748E-02 
527	 7.17267402225468E-02 
528	 7.29799343574526E-02 
529	 7.40032027924158E-02 
530	 7.51120866977059E-02 
531	 7.64018645937155E-02 
532	 7.76880484102247E-02 
533	 7.92108457987225E-02 
534	 0.080670576207426 
535	 8.19123635055584E-02 
536	 8.34948880214393E-02 
537	 8.52523110739538E-02 
538	 8.70169028397796E-02 
539	 8.86576109754122E-02 
540	 9.04106171621077E-02 
541	 9.20780884241164E-02 
542	 9.37097789300018E-02 
543	 9.58261667526813E-02 
544	 9.79745598577474E-02 
545	 9.99670655565959E-02 
546	 0.101802083762735 
547	 0.103903474016139 
548	 0.106042077404734 
549	 0.108140073664004 
550	 0.110279012286688 
551	 0.112568869686016 
552	 0.114853026597518 
553	 0.117029328052651 
554	 0.119243625838715 
555	 0.121492860286302 
556	 0.12373770305766 
557	 0.125933280948408 
558	 0.128197020666426 
559	 0.130362652488432 
560	 0.13241675322933 
561	 0.13459212044099 
562	 0.136563246155998 
563	 0.138400623236268 
564	 0.140254265296862 
565	 0.142122051475453 
566	 0.143990838345754 
567	 0.145839571430015 
568	 0.14764384666306 
569	 0.149386836426678 
570	 0.151148836395882 
571	 0.152935700910514 
572	 0.154568017335134 
573	 0.15612321327361 
574	 0.157589569729097 
575	 0.158936176988606 
576	 0.160181890095525 
577	 0.161307863807567 
578	 0.162387708361117 
579	 0.163588788037913 
580	 0.164490410882093 
581	 0.165292094785114 
582	 0.166216226649691 
583	 0.167097016658689 
584	 0.167927283755035 
585	 0.168665669909786 
586	 0.169259387578623 
587	 0.169682984818227 
588	 0.170147588260898 
589	 0.170701100327981 
590	 0.171081723804815 
591	 0.171577078413756 
592	 0.17211834779912 
593	 0.172561125329354 
594	 0.172950244726807 
595	 0.173248848736212 
596	 0.173478525875823 
597	 0.17371026948363 
598	 0.173943347336338 
599	 0.174021555307423 
600	 0.173911965470054 
601	 0.173946213481356 
602	 0.173852733313966 
603	 0.173681284982687 
604	 0.173586343605493 
605	 0.173431112309586 
606	 0.173269747837988 
607	 0.173125288056297 
608	 0.172964957637517 
609	 0.17272972747144 
610	 0.172423422118749 
611	 0.172093541143326 
612	 0.171858156108863 
613	 0.171700190783885 
614	 0.171518826124213 
615	 0.17118573085106 
616	 0.170863453458827 
617	 0.170635785108026 
618	 0.170478589136889 
619	 0.170199767138466 
620	 0.169910940383435 
621	 0.169680647163185 
622	 0.169528157417872 
623	 0.169313166826828 
624	 0.169040882402623 
625	 0.168773467889859 
626	 0.168607567896592 
627	 0.168391257471276 
628	 0.168126257051143 
629	 0.1678770582843 
630	 0.167810102926947 
631	 0.167606932135502 
632	 0.167326775948081 
633	 0.167167103341246 
634	 0.166977526803712 
635	 0.166828370673492 
636	 0.16671903571864 
637	 0.166543050438646 
638	 0.166429099291587 
639	 0.166314713408441 
640	 0.166152804219532 
641	 0.166105014530666 
642	 0.166043244494959 
643	 0.165968024714421 
644	 0.165946682711595 
645	 0.165862598800606 
646	 0.165827975944243 
647	 0.16586420950051 
648	 0.165798713834137 
649	 0.165788954678866 
650	 0.165816816629865 
651	 0.165829776623618 
652	 0.16586283746703 
653	 0.165942634945199 
654	 0.16605965774681 
655	 0.166172739855299 
656	 0.16622085425909 
657	 0.166300628518419 
658	 0.166458794025724 
659	 0.166586356729312 
660	 0.166700261493355 
661	 0.166851036185355 
662	 0.167074953294421 
663	 0.16724684085278 
664	 0.167416004545193 
665	 0.167634830573153 
666	 0.167940674547308 
667	 0.168207746309325 
668	 0.168455160805118 
669	 0.168729014383182 
670	 0.169068173039024 
671	 0.169397773124751 
672	 0.169712235076427 
673	 0.170042657401429 
674	 0.170424014610396 
675	 0.170797020315633 
676	 0.171173439684474 
677	 0.171656568987474 
678	 0.172089283945395 
679	 0.172475359976234 
680	 0.172864254119509 
681	 0.173313359142704 
682	 0.173788382942404 
683	 0.17430625711159 
684	 0.174893574973368 
685	 0.175424397543883 
686	 0.175949320738586 
687	 0.176518668101356 
688	 0.177155007059492 
689	 0.177787523935001 
690	 0.178404578144154 
691	 0.179018604850986 
692	 0.179659532796936 
693	 0.18028865230593 
694	 0.18095280620117 
695	 0.181726331798151 
696	 0.182408956584837 
697	 0.183079316130925 
698	 0.183817347994938 
699	 0.184652885172066 
700	 0.185479607043853 
701	 0.186270577215071 
702	 0.18703655135152 
703	 0.187814143951768 
704	 0.188629480032378 
705	 0.189492318465534 
706	 0.190390203796524 
707	 0.191236321158774 
708	 0.192063436270169 
709	 0.192906087621011 
710	 0.193768425174171 
711	 0.194664496781071 
712	 0.195586151322058 
713	 0.196508540110686 
714	 0.197368921296205 
715	 0.198278540307842 
716	 0.19924094872908 
717	 0.200178540386497 
718	 0.201077062317197 
719	 0.201961987020858 
720	 0.202863117220137 
721	 0.203804529812426 
722	 0.204789163170712 
723	 0.205751629016515 
724	 0.206641159533167 
725	 0.207550573450334 
726	 0.208463728938612 
727	 0.20936239260935 
728	 0.210237677239151 
729	 0.211194615928737 
730	 0.212069074522291 
731	 0.212821766232415 
732	 0.213671200009484 
733	 0.214557986769408 
734	 0.215430058830989 
735	 0.216251789190979 
736	 0.217064879520703 
737	 0.217792405051208 
738	 0.218445154248007 
739	 0.219095251707022 
740	 0.219805001175951 
741	 0.220480446193697 
742	 0.221075482814305 
743	 0.221645796760108 
744	 0.222187308013877 
745	 0.2227260501382 
746	 0.223263805856522 
747	 0.223700346914723 
748	 0.224120770673145 
749	 0.224547024539817 
750	 0.224958747311329 
751	 0.225325862651524 
752	 0.225679027961537 
753	 0.226011963810584 
754	 0.226265491433493 
755	 0.226573392957462 
756	 0.226846526311172 
757	 0.227009442917442 
758	 0.227176699235336 
759	 0.22732502059324 
760	 0.227423774102366 
761	 0.227456433770859 
762	 0.227527841423096 
763	 0.227565644669649 
764	 0.227534688123742 
765	 0.227456589891136 
766	 0.227372493507884 
767	 0.227272308919901 
768	 0.227134171245421 
769	 0.226934353350844 
770	 0.226705265673688 
771	 0.226466336381329 
772	 0.226225541822377 
773	 0.225970201376994 
774	 0.225646256017274 
775	 0.225261382675544 
776	 0.224876484697023 
777	 0.224542114185744 
778	 0.224163326497053 
779	 0.223702427677211 
780	 0.223254108656168 
781	 0.222810561429226 
782	 0.222346569774453 
783	 0.221833429279367 
784	 0.22125573496915 
785	 0.220673535441933 
786	 0.220099331099827 
787	 0.21951525302785 
788	 0.218908588504769 
789	 0.218270302516939 
790	 0.217609724330664 
791	 0.216954440096636 
792	 0.216304709259399 
793	 0.215646093264743 
794	 0.214976877440367 
795	 0.214342455803833 
796	 0.213656857589296 
797	 0.212957582151208 
798	 0.212299819203238 
799	 0.211580427351211 
800	 0.210863545910528 
801	 0.210167460171259 
802	 0.20947054068297 
803	 0.208782204218277 
804	 0.208102667745342 
805	 0.207411920064579 
806	 0.206662753208638 
807	 0.205956724781002 
808	 0.205257105844252 
809	 0.204525639993294 
810	 0.203830099015026 
811	 0.203137578975567 
812	 0.202424290621332 
813	 0.201684774476013 
814	 0.200992465651375 
815	 0.200264900657037 
816	 0.199529658212887 
817	 0.198899974435082 
818	 0.198209282113414 
819	 0.197454009479441 
820	 0.196690923849476 
821	 0.196028022910125 
822	 0.195324977239053 
823	 0.194624722658923 
824	 0.193975503605857 
825	 0.193284917580437 
826	 0.192602325011818 
827	 0.191916830183281 
828	 0.191203046812704 
829	 0.190509021746956 
830	 0.189852160058645 
831	 0.189215924404115 
832	 0.188561594877409 
833	 0.187934143436768 
834	 0.187286454589151 
835	 0.186620209640833 
836	 0.186026727429957 
837	 0.185424726907395 
838	 0.184812244535685 
839	 0.184208545105246 
840	 0.183637307109156 
841	 0.183040001763454 
842	 0.182448618892797 
843	 0.181915931240474 
844	 0.181403130119822 
845	 0.180879600638803 
846	 0.180342520335887 
847	 0.179816521860494 
848	 0.179371988327799 
849	 0.178916923949033 
850	 0.178414508479944 
851	 0.177923678041844 
852	 0.17750647420672 
853	 0.177096136020205 
854	 0.176650448660071 
855	 0.176237409051076 
856	 0.175880962016317 
857	 0.17552773231053 
858	 0.175125893250203 
859	 0.174728511033041 
860	 0.174315383514562 
861	 0.173927939069266 
862	 0.173611297733935 
863	 0.173240198272883 
864	 0.172876722148816 
865	 0.1725510304607 
866	 0.172246159966108 
867	 0.171882921721549 
868	 0.17152426948027 
869	 0.171238174122197 
870	 0.171061404969974 
871	 0.170769685445182 
872	 0.170453937988061 
873	 0.170194735095839 
874	 0.169882351327684 
875	 0.169628916229569 
876	 0.169392201174008 
877	 0.169115147507257 
878	 0.168864697619588 
879	 0.168665322519615 
880	 0.168484707124137 
881	 0.168270262229869 
882	 0.1680282133748 
883	 0.167810677150003 
884	 0.167616988965053 
885	 0.167410992155786 
886	 0.167241382591792 
887	 0.167117642236842 
888	 0.167011971225358 
889	 0.166867284699586 
890	 0.166756897759022 
891	 0.166577154259478 
892	 0.166344863136075 
893	 0.166321415679756 
894	 0.166270031267449 
895	 0.166169972911299 
896	 0.166070101457596 
897	 0.16605457748833 
898	 0.165978860065098 
899	 0.165920871829943 
900	 0.165964325916068 
901	 0.165912445125854 
902	 0.16587674307803 
903	 0.165863951183489 
904	 0.165841085325339 
905	 0.165867667637911 
906	 0.16594087578323 
907	 0.166045102884537 
908	 0.166145544250335 
909	 0.16611441913067 
910	 0.16615902541852 
911	 0.166301277054989 
912	 0.166358286248183 
913	 0.166423221150145 
914	 0.16654672688861 
915	 0.16668812371663 
916	 0.166705862019061 
917	 0.166807394133866 
918	 0.166886466374986 
919	 0.166905036723928 
920	 0.167063885330558 
921	 0.16718995418242 
922	 0.167303378804348 
923	 0.167451251765395 
924	 0.167621275877634 
925	 0.167760421821258 
926	 0.167868174455789 
927	 0.167974808621402 
928	 0.168137483006019 
929	 0.168321837039411 
930	 0.168545333347215 
931	 0.168790921984673 
932	 0.168798504816277 
933	 0.168931361033408 
934	 0.169167840903598 
935	 0.16930682478695 
936	 0.169485950007604 
937	 0.1696713674779 
938	 0.169839708349603 
939	 0.170000024126438 
940	 0.17028801037719 
941	 0.170536706010728 
942	 0.170682296810108 
943	 0.170798880755248 
944	 0.171099747717916 
945	 0.171366034817563 
946	 0.171535911016608 
947	 0.171759310442566 
948	 0.171994462850526 
949	 0.172237712608059 
950	 0.172507391952428 
951	 0.172828566090034 
952	 0.172942880342361 
953	 0.173137564268077 
954	 0.173532043681304 
955	 0.173857132708544 
956	 0.173997422805649 
957	 0.174273663795535 
958	 0.174743238036339 
959	 0.174878709282887 
960	 0.175241278896245 
961	 0.175649565991362 
962	 0.175930315450055 
963	 0.176277695238289 
964	 0.176562573500278 
965	 0.176872726084056 
966	 0.177250677489176 
967	 0.17751063140286 
968	 0.178004298174183 
969	 0.17859659143182 
970	 0.179061409628511 
971	 0.17932683644096 
972	 0.179616226994306 
973	 0.179996141332141 
974	 0.180440287370275 
975	 0.180832832319144 
976	 0.181254316628498 
977	 0.181624648656118 
978	 0.181916509680306 
979	 0.182407355209939 
980	 0.18287684829657 
981	 0.183359026976175 
982	 0.183896074153507 
983	 0.18428802832362 
984	 0.184588532077427 
985	 0.185022247916767 
986	 0.1856910928472 
987	 0.186125177039402 
988	 0.186460381447549 
989	 0.186856698338896 
990	 0.187406962544497 
991	 0.187957400928878 
992	 0.188350154207723 
993	 0.188702853702273 
994	 0.189161980274239 
995	 0.189584054024399 
996	 0.189994252318629 
997	 0.190489737121871 
998	 0.191077790604056 
999	 0.191380027008087 
1000	 0.191873214840534 
1001	 0.182648251553244 
1002	 0.183107082381444 
1003	 0.183501098685638 
1004	 0.183920397651185 
1005	 0.184321846343974 
1006	 0.184734566013638 
1007	 0.185130388725517 
1008	 0.18557385954732 
1009	 0.186017668295773 
1010	 0.186481378161304 
1011	 0.187030966140459 
1012	 0.187497745512874 
1013	 0.187906019465053 
1014	 0.18837427520107 
1015	 0.188877484667503 
1016	 0.189263513132648 
1017	 0.18977449790877 
1018	 0.190296228320463 
1019	 0.190686500883048 
1020	 0.191172088501369 
1021	 0.19167693718853 
1022	 0.192153217752378 
1023	 0.19270391853653 
1024	 0.19335376006714 
1025	 0.193967859684695 
1026	 0.19461857627001 
1027	 0.195228761544228 
1028	 0.195826109165916 
1029	 0.196418243586649 
1030	 0.196953666542329 
1031	 0.197548011420254 
1032	 0.19821296902473 
1033	 0.19886392511915 
1034	 0.199630291488534 
1035	 0.200316028220414 
1036	 0.20099139330873 
1037	 0.201660190566196 
1038	 0.202349464224646 
1039	 0.20302639103358 
1040	 0.20372248162667 
1041	 0.204419953806747 
1042	 0.205116748459627 
1043	 0.20582256603225 
1044	 0.206496667114641 
1045	 0.207210363784042 
1046	 0.207989625294088 
1047	 0.208663679631435 
1048	 0.209359170935864 
1049	 0.210075131567162 
1050	 0.210698939481234 
1051	 0.211320749604682 
1052	 0.212026632908278 
1053	 0.212755497469565 
1054	 0.213520310998098 
1055	 0.214241550536113 
1056	 0.215034842526864 
1057	 0.215714575833967 
1058	 0.216278091668621 
1059	 0.216898969362224 
1060	 0.217558741911748 
1061	 0.21822907688226 
1062	 0.218989084162688 
1063	 0.219734811316894 
1064	 0.220386634125831 
1065	 0.221055246751513 
1066	 0.221724351026731 
1067	 0.222371270415892 
1068	 0.223097503313413 
1069	 0.223809484888407 
1070	 0.224489532741055 
1071	 0.225128458660888 
1072	 0.225810414760949 
1073	 0.226504536124238 
1074	 0.227193619077238 
1075	 0.227857138921491 
1076	 0.228557662317031 
1077	 0.229330451403618 
1078	 0.230081267874279 
1079	 0.230871651688214 
1080	 0.231645856246291 
1081	 0.232316520871541 
1082	 0.233019532707089 
1083	 0.233740735071147 
1084	 0.234452478305829 
1085	 0.235211658268784 
1086	 0.235969065516583 
1087	 0.236703630665519 
1088	 0.237495213920029 
1089	 0.238368517931278 
1090	 0.239193212094559 
1091	 0.240028125481726 
1092	 0.240854096716778 
1093	 0.241621049030654 
1094	 0.242429731706338 
1095	 0.243253065594629 
1096	 0.244074053578466 
1097	 0.244962312215908 
1098	 0.245817577796307 
1099	 0.246635147409977 
1100	 0.247494975605202 
1101	 0.24833883521331 
1102	 0.249210857234862 
1103	 0.250106853652512 
1104	 0.251048043313582 
1105	 0.251992212365632 
1106	 0.252931893410686 
1107	 0.25382256297317 
1108	 0.254758872723906 
1109	 0.255704056586074 
1110	 0.256622225610039 
1111	 0.257632892757923 
1112	 0.258621328558236 
1113	 0.259630295670079 
1114	 0.260676921026741 
1115	 0.261621309491709 
1116	 0.262591037572908 
1117	 0.263537871083054 
1118	 0.264512877669836 
1119	 0.265536717929741 
1120	 0.266538104992706 
1121	 0.267532795774856 
1122	 0.268533649823449 
1123	 0.269538652433948 
1124	 0.270464864512466 
1125	 0.271506346190622 
1126	 0.2725429837217 
1127	 0.273525869669458 
1128	 0.274590745825364 
1129	 0.275577192470122 
1130	 0.276601141540307 
1131	 0.277702318746001 
1132	 0.278686612474955 
1133	 0.27968335467114 
1134	 0.280677627372852 
1135	 0.28165740059294 
1136	 0.28261426182178 
1137	 0.28359449765486 
1138	 0.284590189515164 
1139	 0.285564432112099 
1140	 0.286542495242924 
1141	 0.287462889735746 
1142	 0.288410687468502 
1143	 0.289313284717233 
1144	 0.290217142484778 
1145	 0.291197080263915 
1146	 0.292156837892657 
1147	 0.293126104583259 
1148	 0.294060736239761 
1149	 0.294913482505793 
1150	 0.295793203640595 
1151	 0.296666138981865 
1152	 0.297535805242231 
1153	 0.298437699142976 
1154	 0.299303523723308 
1155	 0.300134000508976 
1156	 0.300974819397697 
1157	 0.301815412514538 
1158	 0.302625872671584 
1159	 0.303427376524363 
1160	 0.304214198338096 
1161	 0.304978227989153 
1162	 0.305775793268437 
1163	 0.306565386888347 
1164	 0.307338924839674 
1165	 0.308108887896902 
1166	 0.308818022001672 
1167	 0.309518720103829 
1168	 0.310223011090764 
1169	 0.310921674479286 
1170	 0.311635034630722 
1171	 0.312299220142325 
1172	 0.312939046907591 
1173	 0.313569353035991 
1174	 0.314148028594546 
1175	 0.314744990655034 
1176	 0.315362576276571 
1177	 0.315955166260978 
1178	 0.31652928564052 
1179	 0.317106843806531 
1180	 0.31766974357158 
1181	 0.318236983682989 
1182	 0.318805553048179 
1183	 0.319331692019068 
1184	 0.31986040852293 
1185	 0.320359552198936 
1186	 0.320861732770215 
1187	 0.321361296287124 
1188	 0.321850986444782 
1189	 0.322336288230831 
1190	 0.322813024334852 
1191	 0.323261329537655 
1192	 0.323723649219691 
1193	 0.324204111986616 
1194	 0.324651154854836 
1195	 0.325073766756201 
1196	 0.325530317614152 
1197	 0.325988823490683 
1198	 0.326435658570427 
1199	 0.326912969886554 
1200	 0.327373126904232 
1201	 0.327808125900614 
1202	 0.328204463064103 
1203	 0.328645684510972 
1204	 0.329123951604102 
1205	 0.329583526123791 
1206	 0.330059828486605 
1207	 0.330545276940724 
1208	 0.331019995861463 
1209	 0.331503704131904 
1210	 0.331995022407883 
1211	 0.332508387145259 
1212	 0.333020447935188 
1213	 0.333570958350764 
1214	 0.334174681958061 
1215	 0.334763310892135 
1216	 0.335345002417116 
1217	 0.335950888328675 
1218	 0.336571247646695 
1219	 0.337209751041148 
1220	 0.337825911236604 
1221	 0.338471454403199 
1222	 0.339060378988301 
1223	 0.339643189709043 
1224	 0.340247257268053 
1225	 0.340871013465551 
1226	 0.341449220930809 
1227	 0.342017447377962 
1228	 0.342586217452723 
1229	 0.343143066963131 
1230	 0.343681875148377 
1231	 0.344238029983527 
1232	 0.344742707412601 
1233	 0.345185364062843 
1234	 0.345638640819693 
1235	 0.346082408739284 
1236	 0.34651188256887 
1237	 0.346934581332314 
1238	 0.347344984903394 
1239	 0.347730598942351 
1240	 0.34811594701976 
1241	 0.348518710273539 
1242	 0.348865285787605 
1243	 0.349231035365073 
1244	 0.34958151798669 
1245	 0.349959829142147 
1246	 0.350352943096308 
1247	 0.350734451177864 
1248	 0.351129253327565 
1249	 0.351517013074418 
1250	 0.351882846830574 
1251	 0.352265706048196 
1252	 0.352660712562072 
1253	 0.353059680527023 
1254	 0.353454742694114 
1255	 0.353870787543208 
1256	 0.354324109362196 
1257	 0.354746176581468 
1258	 0.355162163218794 
1259	 0.355578450697237 
1260	 0.355963872263594 
1261	 0.356373903799959 
1262	 0.356803874950617 
1263	 0.357250952721193 
1264	 0.357652232213195 
1265	 0.358044145138637 
1266	 0.358431791787902 
1267	 0.358806036866188 
1268	 0.3591389947674 
1269	 0.359462395325951 
1270	 0.359763119340004 
1271	 0.360005256159805 
1272	 0.360270138697146 
1273	 0.36055457151557 
1274	 0.360800874976449 
1275	 0.36104955214912 
1276	 0.36123422975881 
1277	 0.361367208976274 
1278	 0.361494940084708 
1279	 0.36157872478544 
1280	 0.361649871790998 
1281	 0.361708260077232 
1282	 0.361756078406153 
1283	 0.361765652327207 
1284	 0.361784274428013 
1285	 0.361802489766519 
1286	 0.361827787228058 
1287	 0.361829926171865 
1288	 0.361829517521442 
1289	 0.361804225076697 
1290	 0.361758374967787 
1291	 0.361707254124057 
1292	 0.361624529254192 
1293	 0.361576356360173 
1294	 0.361542860198316 
1295	 0.361491849041435 
1296	 0.361448364968903 
1297	 0.361401021347129 
1298	 0.36132545909024 
1299	 0.361279105714441 
1300	 0.361263100222208 
1301	 0.361227893712124 
1302	 0.361167062485369 
1303	 0.361150904975051 
1304	 0.361161597799799 
1305	 0.361159895783518 
1306	 0.361191750376717 
1307	 0.361207535487109 
1308	 0.361198442669897 
1309	 0.361184356842991 
1310	 0.361204997764835 
1311	 0.361230390920057 
1312	 0.361298596487775 
1313	 0.361400882709557 
1314	 0.361500650961219 
1315	 0.361633829683522 
1316	 0.361745778900453 
1317	 0.361842774419115 
1318	 0.361968104999296 
1319	 0.362102383180048 
1320	 0.362244192728146 
1321	 0.362410991985525 
1322	 0.362564012947566 
1323	 0.362706748217023 
1324	 0.362864712963244 
1325	 0.363014579491033 
1326	 0.363192628131306 
1327	 0.363394942401352 
1328	 0.363598462310123 
1329	 0.363839589280033 
1330	 0.364046575453554 
1331	 0.364215520061817 
1332	 0.364419064351239 
1333	 0.364636840163564 
1334	 0.364841936350114 
1335	 0.365040740269115 
1336	 0.365255042485106 
1337	 0.365468796820207 
1338	 0.365661720646321 
1339	 0.365865877647565 
1340	 0.366104046836808 
1341	 0.366297957886479 
1342	 0.366453235239082 
1343	 0.366639984986988 
1344	 0.366831604878789 
1345	 0.367016874487106 
1346	 0.367240313658343 
1347	 0.367389866333632 
1348	 0.367506757018975 
1349	 0.367604100469684 
1350	 0.367633699620529 
1351	 0.367701071392805 
1352	 0.367774456329487 
1353	 0.367842910822446 
1354	 0.367929930250751 
1355	 0.367993189844284 
1356	 0.368026736085104 
1357	 0.36807894836654 
1358	 0.368129059684319 
1359	 0.368181556023791 
1360	 0.368235713789394 
1361	 0.368303293994655 
1362	 0.368387399580613 
1363	 0.368477743985012 
1364	 0.368578128436741 
1365	 0.368708056755368 
1366	 0.368816321458527 
1367	 0.368922275250018 
1368	 0.369013096867644 
1369	 0.36910654441498 
1370	 0.369172258955089 
1371	 0.369213131272522 
1372	 0.369257728225556 
1373	 0.369310507997543 
1374	 0.369312429981067 
1375	 0.369300657251176 
1376	 0.369255131799332 
1377	 0.369180267068384 
1378	 0.369057426982087 
1379	 0.368879971049945 
1380	 0.368716258827547 
1381	 0.36849038869941 
1382	 0.368310958137271 
1383	 0.36816959849183 
1384	 0.368013419846007 
1385	 0.367864001122462 
1386	 0.367708679863787 
1387	 0.367574028590842 
1388	 0.367398612275906 
1389	 0.367198867782365 
1390	 0.366994313830981 
1391	 0.366776132208815 
1392	 0.366515058738067 
1393	 0.366268623767064 
1394	 0.36603152871905 
1395	 0.365796319083775 
1396	 0.365554323467702 
1397	 0.365328435576505 
1398	 0.36511865198411 
1399	 0.364897653932772 
1400	 0.364681555785815 
1401	 0.364453514895224 
1402	 0.364244525552162 
1403	 0.363967770245475 
1404	 0.363683920850709 
1405	 0.363326649997636 
1406	 0.362940996829848 
1407	 0.362448605273447 
1408	 0.361872892416536 
1409	 0.361256411499861 
1410	 0.360524647194353 
1411	 0.359814571030164 
1412	 0.35906260827057 
1413	 0.358339429529946 
1414	 0.357553030754733 
1415	 0.356883154141954 
1416	 0.356244765112479 
1417	 0.355685113929586 
1418	 0.355219765847442 
1419	 0.354791425425873 
1420	 0.354421842371468 
1421	 0.354095555526502 
1422	 0.353868269329932 
1423	 0.353604174396202 
1424	 0.353368051017814 
1425	 0.353120534522654 
1426	 0.352848375395446 
1427	 0.352529245579887 
1428	 0.352181279494827 
1429	 0.351834280475821 
1430	 0.351409353502051 
1431	 0.350930612418099 
1432	 0.350426830738152 
1433	 0.349854840655161 
1434	 0.349313792573648 
1435	 0.348750146490143 
1436	 0.348209071722333 
1437	 0.34766268316489 
1438	 0.3471569093045 
1439	 0.346665383245048 
1440	 0.346196668102626 
1441	 0.34575785301008 
1442	 0.345331718337907 
1443	 0.344894475321622 
1444	 0.344534952404682 
1445	 0.344167611003375 
1446	 0.34395123207492 
1447	 0.343780938062807 
1448	 0.343780247531227 
1449	 0.343899702298819 
1450	 0.344169678456499 
1451	 0.344638813838178 
1452	 0.345137961631812 
1453	 0.345820303322182 
1454	 0.346443059373019 
1455	 0.347110589878936 
1456	 0.347746772627376 
1457	 0.348390305105376 
1458	 0.348998714820282 
1459	 0.349562780427323 
1460	 0.350148027864336 
1461	 0.350702394618695 
1462	 0.351284301449223 
1463	 0.351879963918999 
1464	 0.352501118016055 
1465	 0.353134692219054 
1466	 0.353812875437282 
1467	 0.354464839830062 
1468	 0.355138954748351 
1469	 0.355796393818692 
1470	 0.356355181560176 
1471	 0.35690190069097 
1472	 0.357418786042263 
1473	 0.357897688161254 
1474	 0.358322875018387 
1475	 0.358753212531805 
1476	 0.359168628445127 
1477	 0.359547787883352 
1478	 0.359914269778758 
1479	 0.360226158796041 
1480	 0.36049160787658 
1481	 0.360736526341836 
1482	 0.360931038694906 
1483	 0.361139130067364 
1484	 0.361335118610311 
1485	 0.361512720310218 
1486	 0.361672649153914 
1487	 0.361837864992809 
1488	 0.361962154173737 
1489	 0.362145791200244 
1490	 0.362341864326786 
1491	 0.362585035932422 
1492	 0.362872954893134 
1493	 0.363176721015093 
1494	 0.363515875021507 
1495	 0.363870767821002 
1496	 0.364242884403225 
1497	 0.364640381839767 
1498	 0.365071000207897 
1499	 0.365509198431296 
1500	 0.365985851552412 
1501	 0.366439433357524 
1502	 0.366907263318229 
1503	 0.367345238073742 
1504	 0.367760529088997 
1505	 0.368169006552555 
1506	 0.368576810604532 
1507	 0.368948198894083 
1508	 0.369304151786611 
1509	 0.369630558143781 
1510	 0.369917799515792 
1511	 0.370189010791642 
1512	 0.370429088734865 
1513	 0.370665641102495 
1514	 0.370902922826205 
1515	 0.371099652208157 
1516	 0.371253334963313 
1517	 0.371421813295829 
1518	 0.371541774033123 
1519	 0.371698036080539 
1520	 0.371885934890168 
1521	 0.372088829685593 
1522	 0.372283811283382 
1523	 0.372480990422352 
1524	 0.372659439567376 
1525	 0.372832871852901 
1526	 0.372975680861917 
1527	 0.373101476947127 
1528	 0.373213001363189 
1529	 0.373298083073393 
1530	 0.373378580294799 
1531	 0.373449989322195 
1532	 0.373512667407258 
1533	 0.373547288378078 
1534	 0.373618310473907 
1535	 0.373700415250064 
1536	 0.373777148248361 
1537	 0.373856405355029 
1538	 0.37396372017588 
1539	 0.374061688235775 
1540	 0.374213041785322 
1541	 0.374409234642549 
1542	 0.374615620987171 
1543	 0.374846699503928 
1544	 0.375093371501872 
1545	 0.37535570442246 
1546	 0.375651090722041 
1547	 0.375983998050972 
1548	 0.376304866800935 
1549	 0.376642087619126 
1550	 0.376991837114113 
1551	 0.377345956832653 
1552	 0.377701313923377 
1553	 0.378067953825137 
1554	 0.37845334813214 
1555	 0.378838374194798 
1556	 0.379238597235049 
1557	 0.379678220224317 
1558	 0.380094939405762 
1559	 0.380509485736634 
1560	 0.380910613942558 
1561	 0.381315794071223 
1562	 0.381693810700575 
1563	 0.382040724193017 
1564	 0.382399291822456 
1565	 0.382746610439125 
1566	 0.38309709964869 
1567	 0.38345467259848 
1568	 0.383803188959503 
1569	 0.384156858744212 
1570	 0.384483003020493 
1571	 0.384791305409072 
1572	 0.38509736045737 
1573	 0.385377688028017 
1574	 0.385669109677929 
1575	 0.385964392226133 
1576	 0.386259848437041 
1577	 0.386572254546982 
1578	 0.386847321770693 
1579	 0.387097593535134 
1580	 0.387358388365708 
1581	 0.38758742580198 
1582	 0.387842600297892 
1583	 0.388133127611161 
1584	 0.388398287958085 
1585	 0.388661216255687 
1586	 0.388912730927361 
1587	 0.389144639173714 
1588	 0.389382018164287 
1589	 0.389601459563508 
1590	 0.389847860429278 
1591	 0.390125087336727 
1592	 0.39037363011922 
1593	 0.390625644235448 
1594	 0.39086794919967 
1595	 0.391083175855108 
1596	 0.391304777896755 
1597	 0.391530666616971 
1598	 0.391754518816391 
1599	 0.391964371113867 
1600	 0.392188784026996 
1601	 0.392436277115777 
1602	 0.392660147191648 
1603	 0.392865830231697 
1604	 0.393089224317948 
1605	 0.39330794393811 
1606	 0.393532951693203 
1607	 0.39380287563665 
1608	 0.394021054372243 
1609	 0.394213890422943 
1610	 0.394389414279861 
1611	 0.394515916163797 
1612	 0.394662160464951 
1613	 0.394801089755787 
1614	 0.39495057036558 
1615	 0.395118769351598 
1616	 0.395268756551569 
1617	 0.395417921940555 
1618	 0.395557209645515 
1619	 0.395688001410967 
1620	 0.395807457597032 
1621	 0.395912021986209 
1622	 0.39601778712616 
1623	 0.396126815647957 
1624	 0.396209425681227 
1625	 0.396270874974397 
1626	 0.396340916559583 
1627	 0.396395545068517 
1628	 0.396445416028302 
1629	 0.396489653108757 
1630	 0.396553121883689 
1631	 0.396615288713763 
1632	 0.396683363061112 
1633	 0.396779780618871 
1634	 0.396865638381238 
1635	 0.396939273124451 
1636	 0.397014543981 
1637	 0.397082153507193 
1638	 0.397168601870625 
1639	 0.397283456058185 
1640	 0.397365896004175 
1641	 0.397433428726157 
1642	 0.397518568672643 
1643	 0.397617726036581 
1644	 0.397667198770436 
1645	 0.397704143249911 
1646	 0.397736975271885 
1647	 0.397717829233588 
1648	 0.39770970225909 
1649	 0.397753299260776 
1650	 0.397726849996018 
1651	 0.397621673754917 
1652	 0.397560788073348 
1653	 0.397487156283503 
1654	 0.397418027418325 
1655	 0.397407746184813 
1656	 0.397324126585499 
1657	 0.397193219770127 
1658	 0.397049400236693 
1659	 0.39687854410895 
1660	 0.396680478457197 
1661	 0.396469189798692 
1662	 0.396224155789989 
1663	 0.395930733371328 
1664	 0.3956221622605 
1665	 0.395306370523315 
1666	 0.394933646797189 
1667	 0.39453886003665 
1668	 0.394089991624727 
1669	 0.39358138831187 
1670	 0.393036043609231 
1671	 0.392441382204525 
1672	 0.391808706007677 
1673	 0.391145320351122 
1674	 0.390420094348984 
1675	 0.389642609124028 
1676	 0.388836533474656 
1677	 0.387991074740832 
1678	 0.387085653551812 
1679	 0.386122943112824 
1680	 0.385134012863236 
1681	 0.38407786130448 
1682	 0.38300732507962 
1683	 0.381947996989022 
1684	 0.380811140132283 
1685	 0.379619411051595 
1686	 0.37838863207351 
1687	 0.377084030693363 
1688	 0.375760224206313 
1689	 0.374409237173461 
1690	 0.372995247961037 
1691	 0.371527857093776 
1692	 0.370071217683 
1693	 0.368599029804982 
1694	 0.367068818173395 
1695	 0.36550234441689 
1696	 0.363915515756708 
1697	 0.362262263679191 
1698	 0.360596336698015 
1699	 0.35894837469199 
1700	 0.357265584839743 
1701	 0.355509606871694 
1702	 0.353815845953325 
1703	 0.352072834889909 
1704	 0.350473579173381 
1705	 0.348927206583635 
1706	 0.347423344456128 
1707	 0.346154655442884 
1708	 0.344965402119737 
1709	 0.343800615340599 
1710	 0.342791254627931 
1711	 0.341831225876072 
1712	 0.340925578564877 
1713	 0.340078715959167 
1714	 0.339242936882598 
1715	 0.33843849225806 
1716	 0.337635195779833 
1717	 0.336873796867727 
1718	 0.336138228057658 
1719	 0.335438135419554 
1720	 0.334812384549148 
1721	 0.334197147089977 
1722	 0.333644324629676 
1723	 0.333198144231024 
1724	 0.332791254191484 
1725	 0.332473074621853 
1726	 0.332273245335663 
1727	 0.332172038099924 
1728	 0.33219733348772 
1729	 0.332384099900097 
1730	 0.332755083376861 
1731	 0.333222625490056 
1732	 0.333789171153407 
1733	 0.334425525689528 
1734	 0.335097245285777 
1735	 0.335821839578376 
1736	 0.336548699539585 
1737	 0.337240135016206 
1738	 0.337851398376162 
1739	 0.338318944458424 
1740	 0.338681061038309 
1741	 0.338931422317348 
1742	 0.339034637409604 
1743	 0.33910603861127 
1744	 0.339067505831261 
1745	 0.338998803815791 
1746	 0.338850508642523 
1747	 0.338732680848249 
1748	 0.338554328795333 
1749	 0.338450875749404 
1750	 0.338370308160027 
1751	 0.338336514402317 
1752	 0.338323954860035 
1753	 0.338417207048253 
1754	 0.338572398339151 
1755	 0.338802017718773 
1756	 0.339117877789163 
1757	 0.339474796362962 
1758	 0.339928753831033 
1759	 0.340490779534647 
1760	 0.341162367242846 
1761	 0.341902222989715 
1762	 0.342685793441147 
1763	 0.343544640651599 
1764	 0.3444562781589 
1765	 0.345467256160371 
1766	 0.346617445274468 
1767	 0.347788554587021 
1768	 0.34898414103403 
1769	 0.350172571295691 
1770	 0.351251994488971 
1771	 0.352352849823679 
1772	 0.35343671848644 
1773	 0.354459543975907 
1774	 0.355476121162035 
1775	 0.356375344262625 
1776	 0.357230845713236 
1777	 0.358058655619896 
1778	 0.358812513948857 
1779	 0.359545399171707 
1780	 0.360224647394855 
1781	 0.360858657409465 
1782	 0.361480833967241 
1783	 0.362081521539731 
1784	 0.36268384368935 
1785	 0.363225603078262 
1786	 0.363709192241242 
1787	 0.364153435408153 
1788	 0.364573142022259 
1789	 0.364916931955489 
1790	 0.365311566104935 
1791	 0.365719130459289 
1792	 0.366117510353821 
1793	 0.366527142419689 
1794	 0.36694002747601 
1795	 0.367279954553229 
1796	 0.36755231622641 
1797	 0.367908789778586 
1798	 0.368256828498904 
1799	 0.368538845905224 
1800	 0.368911730892719 
1801	 0.375024952260153 
1802	 0.375507444359572 
1803	 0.375952805602926 
1804	 0.376368023850898 
1805	 0.376856929946396 
1806	 0.377278779827356 
1807	 0.377691451469656 
1808	 0.378063367964093 
1809	 0.378421391381999 
1810	 0.378730193852117 
1811	 0.378963946163523 
1812	 0.379221979815263 
1813	 0.379430139034468 
1814	 0.379697345382323 
1815	 0.379996549736132 
1816	 0.380293151138257 
1817	 0.380568335980152 
1818	 0.380844622507439 
1819	 0.381119776764973 
1820	 0.381336124497011 
1821	 0.381626196796141 
1822	 0.38196487826041 
1823	 0.382312211386596 
1824	 0.382643291513335 
1825	 0.382990166537437 
1826	 0.383320219139451 
1827	 0.383654427280286 
1828	 0.38393554699964 
1829	 0.384195464676283 
1830	 0.384453537264223 
1831	 0.384686267633118 
1832	 0.384879832303532 
1833	 0.385099189070312 
1834	 0.385347866618852 
1835	 0.385569594296326 
1836	 0.385776888157201 
1837	 0.386018436684544 
1838	 0.386264263964482 
1839	 0.386529017469916 
1840	 0.386830492685948 
1841	 0.387135481027579 
1842	 0.387467909966169 
1843	 0.387779148751585 
1844	 0.388070082422701 
1845	 0.388304638435448 
1846	 0.388552901500853 
1847	 0.388783923645434 
1848	 0.388986366978647 
1849	 0.389209157394845 
1850	 0.389370629248894 
1851	 0.389474128311969 
1852	 0.38956713206041 
1853	 0.389663129808415 
1854	 0.389704955926608 
1855	 0.389722951667249 
1856	 0.389717303550208 
1857	 0.389651163795071 
1858	 0.389528997772556 
1859	 0.38938851857888 
1860	 0.389227127583446 
1861	 0.388996039909034 
1862	 0.388727062810752 
1863	 0.38842286653377 
1864	 0.388024655963146 
1865	 0.387575642586924 
1866	 0.38701146043757 
1867	 0.38637939800038 
1868	 0.385732572528571 
1869	 0.385005140255592 
1870	 0.384315294719186 
1871	 0.383661707047497 
1872	 0.38298175120783 
1873	 0.38229127079011 
1874	 0.381585447625789 
1875	 0.380912648956039 
1876	 0.380133159127767 
1877	 0.379346952134619 
1878	 0.37851131785464 
1879	 0.377529272928994 
1880	 0.376532810537501 
1881	 0.375434278370492 
1882	 0.374229654550387 
1883	 0.372982563681597 
1884	 0.371663557741799 
1885	 0.370152208764333 
1886	 0.36857197868598 
1887	 0.366863408296589 
1888	 0.365061730626851 
1889	 0.363342995147201 
1890	 0.361542110425182 
1891	 0.359715429174815 
1892	 0.357901242269304 
1893	 0.35598564648975 
1894	 0.353951117685434 
1895	 0.351950950894412 
1896	 0.349928794149995 
1897	 0.34784203739881 
1898	 0.345884812475171 
1899	 0.343877618865717 
1900	 0.341906894312352 
1901	 0.340040897137452 
1902	 0.338112832264802 
1903	 0.336319016553004 
1904	 0.334578379885587 
1905	 0.332882184984475 
1906	 0.331251612505905 
1907	 0.329792381916991 
1908	 0.328328651783613 
1909	 0.326975938616108 
1910	 0.325693952463893 
1911	 0.324340211090688 
1912	 0.323079357880415 
1913	 0.321819766774186 
1914	 0.320543462237277 
1915	 0.319371179923006 
1916	 0.318297495608885 
1917	 0.317193586423903 
1918	 0.316150476579548 
1919	 0.315203919219 
1920	 0.314155441076196 
1921	 0.313167027646267 
1922	 0.312210664923367 
1923	 0.311183300981815 
1924	 0.310255803242714 
1925	 0.309361551736455 
1926	 0.30847406713844 
1927	 0.307633162584373 
1928	 0.306765892627511 
1929	 0.305878166509146 
1930	 0.305030712556365 
1931	 0.304210033299959 
1932	 0.303416875204006 
1933	 0.302727385404173 
1934	 0.302086810149595 
1935	 0.301513269585239 
1936	 0.301017861096215 
1937	 0.300613873479491 
1938	 0.300315776706714 
1939	 0.30007733031251 
1940	 0.299900543403948 
1941	 0.299827825345793 
1942	 0.29984688807188 
1943	 0.299901170865197 
1944	 0.300008596061401 
1945	 0.300176496601129 
1946	 0.300410297798507 
1947	 0.300675470732094 
1948	 0.301047410081752 
1949	 0.301505406731055 
1950	 0.302020253753557 
1951	 0.302602337486116 
1952	 0.303269570410572 
1953	 0.304006117876368 
1954	 0.304812044637134 
1955	 0.305749046240284 
1956	 0.306685416161123 
1957	 0.307649311550768 
1958	 0.308664546930334 
1959	 0.309571389082155 
1960	 0.310448399833715 
1961	 0.311274356577163 
1962	 0.312057579072995 
1963	 0.312764339466757 
1964	 0.313421394541506 
1965	 0.31399695059863 
1966	 0.314489181149098 
1967	 0.314947479131872 
1968	 0.315321983059472 
1969	 0.315713715049173 
1970	 0.316100555440768 
1971	 0.31646718085612 
1972	 0.316867674653441 
1973	 0.317264458938082 
1974	 0.317695801178352 
1975	 0.318154972339041 
1976	 0.318620633360704 
1977	 0.319112845723439 
1978	 0.319617745882852 
1979	 0.320137609692258 
1980	 0.320643590912955 
1981	 0.321198191179297 
1982	 0.321738898371571 
1983	 0.32232064932596 
1984	 0.322952113222117 
1985	 0.323543652628219 
1986	 0.324187990775971 
1987	 0.32486051371789 
1988	 0.325494822056838 
1989	 0.326256403820781 
1990	 0.327097218144568 
1991	 0.327983508391427 
1992	 0.328925132200294 
1993	 0.32999254084211 
1994	 0.331035021882622 
1995	 0.332167445536417 
1996	 0.333341029836336 
1997	 0.334505540437898 
1998	 0.335693652724854 
1999	 0.336919136442111 
2000	 0.338108357307113 
2001	 0.339362664313662 
2002	 0.340490428780853 
2003	 0.341561414457151 
2004	 0.342601045910383 
2005	 0.343555996020563 
2006	 0.344488221530676 
2007	 0.345413412329234 
2008	 0.346280441970969 
2009	 0.347073685713888 
2010	 0.347803694446945 
2011	 0.348448007778569 
2012	 0.349095476482823 
2013	 0.349696300703359 
2014	 0.350266338928622 
2015	 0.350776700018993 
2016	 0.351234589924271 
2017	 0.351662856137463 
2018	 0.35205787195576 
2019	 0.352399870632435 
2020	 0.352702004854291 
2021	 0.352958853764472 
2022	 0.353163967333046 
2023	 0.353299060546982 
2024	 0.353426100411775 
2025	 0.353526038280807 
2026	 0.353610173615529 
2027	 0.353672720047805 
2028	 0.353712112206014 
2029	 0.353723166357769 
2030	 0.35372629561568 
2031	 0.353707710636445 
2032	 0.353671969120264 
2033	 0.353632026464469 
2034	 0.35356401388355 
2035	 0.35345980525297 
2036	 0.353348648145767 
2037	 0.353224462611265 
2038	 0.353096649537761 
2039	 0.353003159704804 
2040	 0.352922998494651 
2041	 0.352851286543987 
2042	 0.352823867555524 
2043	 0.352753338293261 
2044	 0.352645400401964 
2045	 0.352587725505441 
2046	 0.352520132108215 
2047	 0.352489317553858 
2048	 0.352543228443402 
2049	 0.352540200594822 
2050	 0.352530378617365 
2051	 0.3525005652527 
2052	 0.352439756711792 
2053	 0.352405171828604 
2054	 0.35237536101184 
2055	 0.352356627291166 
2056	 0.352335980031931 
2057	 0.352343790593941 
2058	 0.352293675145159 
2059	 0.352197551514567 
2060	 0.35214902011574 
2061	 0.352074958962865 
2062	 0.352027812740917 
2063	 0.35205999285594 
2064	 0.352033734970603 
2065	 0.351951557171227 
2066	 0.351916841337476 
2067	 0.351894018715219 
2068	 0.351836779424365 
2069	 0.35180385795853 
2070	 0.351807193085075 
2071	 0.35177067393458 
2072	 0.351718616405008 
2073	 0.351655889529063 
2074	 0.351574344556391 
2075	 0.351504656787233 
2076	 0.351410123310385 
2077	 0.351349815948944 
2078	 0.351325615978621 
2079	 0.351276357719262 
2080	 0.351250378509308 
2081	 0.351185956939078 
2082	 0.351085426453353 
2083	 0.350985280666342 
2084	 0.350866687162331 
2085	 0.350760365986673 
2086	 0.350649627886368 
2087	 0.350547238464304 
2088	 0.350428344102048 
2089	 0.350304326666348 
2090	 0.350168504131826 
2091	 0.35002715436601 
2092	 0.349874851697536 
2093	 0.349709735516014 
2094	 0.349535186031684 
2095	 0.349366884841275 
2096	 0.34916063679563 
2097	 0.348928271464437 
2098	 0.34867872467087 
2099	 0.348414352086559 
2100	 0.348145130896344 
2101	 0.34788780951401 
2102	 0.347648457335178 
2103	 0.347378876371846 
2104	 0.347102369756739 
2105	 0.346811688040414 
2106	 0.346489338596433 
2107	 0.346188142678122 
2108	 0.345913701004183 
2109	 0.345586315214452 
2110	 0.345254523654985 
2111	 0.344887978948313 
2112	 0.344444804997611 
2113	 0.344038386361501 
2114	 0.343630090338829 
2115	 0.343222168518252 
2116	 0.342810453433851 
2117	 0.342437066807258 
2118	 0.342032206382886 
2119	 0.341632583904269 
2120	 0.341192388643193 
2121	 0.340698914114243 
2122	 0.340271361864607 
2123	 0.339845620023813 
2124	 0.339432224088046 
2125	 0.33907101176007 
2126	 0.338684026671501 
2127	 0.338264834937647 
2128	 0.337879951572195 
2129	 0.337496266389849 
2130	 0.337155031809468 
2131	 0.336861673029717 
2132	 0.336547444316189 
2133	 0.336226273472296 
2134	 0.335971277115676 
2135	 0.335671012807067 
2136	 0.335363325592164 
2137	 0.335084113956431 
2138	 0.334838731397768 
2139	 0.334547458387066 
2140	 0.334242103260781 
2141	 0.333952909951428 
2142	 0.333619220274091 
2143	 0.333361341397076 
2144	 0.333170866979517 
2145	 0.332947863909902 
2146	 0.33273130149479 
2147	 0.332534253273743 
2148	 0.332351833549946 
2149	 0.332145403690623 
2150	 0.331945229698517 
2151	 0.331758223701715 
2152	 0.331534573550488 
2153	 0.331346941642329 
2154	 0.331238448561583 
2155	 0.331085663221774 
2156	 0.33091777213882 
2157	 0.330759638954598 
2158	 0.330552500926074 
2159	 0.330304432052489 
2160	 0.330048846612643 
2161	 0.329769032447702 
2162	 0.32948431144794 
2163	 0.329159925336592 
2164	 0.32887619139665 
2165	 0.328603927737406 
2166	 0.328325194180248 
2167	 0.328083795770534 
2168	 0.327798800034372 
2169	 0.327487709958095 
2170	 0.327171004030136 
2171	 0.326764766227178 
2172	 0.326468256680303 
2173	 0.326207740470053 
2174	 0.325993443268719 
2175	 0.325876315072588 
2176	 0.325741322257987 
2177	 0.32552524406613 
2178	 0.325245687578415 
2179	 0.325036689988755 
2180	 0.324778459770223 
2181	 0.324608800797437 
2182	 0.32454176502484 
2183	 0.324417525418056 
2184	 0.32429551164505 
2185	 0.324165437347798 
2186	 0.324033228963327 
2187	 0.323887656921703 
2188	 0.323732989114365 
2189	 0.323574545699671 
2190	 0.323404846848198 
2191	 0.323233401710573 
2192	 0.323080663650081 
2193	 0.322885406784699 
2194	 0.322681030808064 
2195	 0.322439554152686 
2196	 0.322151865808798 
2197	 0.321844746486778 
2198	 0.321538748452491 
2199	 0.321185551116235 
2200	 0.320824777839383 
2201	 0.320468089596218 
2202	 0.320020072156269 
2203	 0.319510266896743 
2204	 0.319010805389251 
2205	 0.318411749472735 
2206	 0.317933618480944 
2207	 0.317499752440723 
2208	 0.317086427038972 
2209	 0.316719413636928 
2210	 0.316371974439008 
2211	 0.316051178662571 
2212	 0.315753434170776 
2213	 0.315529661071217 
2214	 0.31525411376923 
2215	 0.314958496410365 
2216	 0.314671936064983 
2217	 0.314370353749058 
2218	 0.314067594312776 
2219	 0.313764735266486 
2220	 0.313493865190887 
2221	 0.313254205760934 
2222	 0.312969028342552 
2223	 0.312730703828138 
2224	 0.312447886082924 
2225	 0.312083389182575 
2226	 0.31169564387218 
2227	 0.311279388169556 
2228	 0.310836909528002 
2229	 0.310326826878381 
2230	 0.309811111749821 
2231	 0.309155699843372 
2232	 0.308388839827994 
2233	 0.307584420422382 
2234	 0.306739121500613 
2235	 0.305733610505355 
2236	 0.304676385122211 
2237	 0.303433969010534 
2238	 0.301964015530218 
2239	 0.300466779551257 
2240	 0.298890734301567 
2241	 0.297174287277946 
2242	 0.295393008919574 
2243	 0.2934289047323 
2244	 0.291206178502385 
2245	 0.289021917795598 
2246	 0.286649842975612 
2247	 0.284366285381216 
2248	 0.282137035882833 
2249	 0.27985071860497 
2250	 0.277527750817906 
2251	 0.275288801998402 
2252	 0.272833105696497 
2253	 0.270549166834902 
2254	 0.268260610746874 
2255	 0.265909331205625 
2256	 0.263805389070677 
2257	 0.26172884531757 
2258	 0.259676630348809 
2259	 0.257759026069535 
2260	 0.255701919520324 
2261	 0.253592955473758 
2262	 0.251511294375881 
2263	 0.249315293553887 
2264	 0.247318859098407 
2265	 0.245427443081247 
2266	 0.243533886089154 
2267	 0.24175038969643 
2268	 0.239966642991452 
2269	 0.238108097458468 
2270	 0.236471476370389 
2271	 0.234888768048556 
2272	 0.233526481264751 
2273	 0.232463696458133 
2274	 0.231322292163873 
2275	 0.230391252764099 
2276	 0.229288932245524 
2277	 0.228095577814437 
2278	 0.226901269589909 
2279	 0.225641059452751 
2280	 0.224374208230446 
2281	 0.223146758572319 
2282	 0.221807292395671 
2283	 0.220395454240715 
2284	 0.218956901584595 
2285	 0.217406695061659 
2286	 0.215776799905322 
2287	 0.214044494014406 
2288	 0.212247241621524 
2289	 0.210528070813699 
2290	 0.208763692577451 
2291	 0.207056898918648 
2292	 0.205422231959063 
2293	 0.20367120457718 
2294	 0.201974540453031 
2295	 0.200314714929101 
2296	 0.19862924879018 
2297	 0.197196176188117 
2298	 0.195863805305591 
2299	 0.194772685856337 
2300	 0.193902117047474 
2301	 0.193213734775716 
2302	 0.192700859450292 
2303	 0.192449443097388 
2304	 0.192445692350891 
2305	 0.192620024894946 
2306	 0.193043175134552 
2307	 0.193620147216725 
2308	 0.194399524412091 
2309	 0.195354821189086 
2310	 0.196583963944236 
2311	 0.19783323520167 
2312	 0.199274786783422 
2313	 0.200701879893582 
2314	 0.202218052300137 
2315	 0.203721794455735 
2316	 0.205304905671793 
2317	 0.206795019844177 
2318	 0.208335343552676 
2319	 0.209655417350228 
2320	 0.210901904720847 
2321	 0.211948263105874 
2322	 0.212803477398249 
2323	 0.213541499081432 
2324	 0.214171881795078 
2325	 0.214558740064709 
2326	 0.214665947261353 
2327	 0.214744187725028 
2328	 0.214645430566655 
2329	 0.214458453553185 
2330	 0.214224461130326 
2331	 0.213850193126044 
2332	 0.213267181233432 
2333	 0.212513011013721 
2334	 0.211539644689785 
2335	 0.210484675512639 
2336	 0.209317053703456 
2337	 0.208126866302823 
2338	 0.207107399921955 
2339	 0.20602168157867 
2340	 0.204945641834826 
2341	 0.203891469899337 
2342	 0.20279235936765 
2343	 0.201809807810439 
2344	 0.201021548176982 
2345	 0.200419116285297 
2346	 0.199962243764404 
2347	 0.199718558240304 
2348	 0.199669208666836 
2349	 0.199898106362095 
2350	 0.200462489090118 
2351	 0.201275674731856 
2352	 0.202192410579588 
2353	 0.203294228968627 
2354	 0.204362474598132 
2355	 0.205311664054838 
2356	 0.206346599759773 
2357	 0.207264089137474 
2358	 0.207997239286194 
2359	 0.208635559889337 
2360	 0.209106156405266 
2361	 0.209303938112889 
2362	 0.209432843695443 
2363	 0.209530763497305 
2364	 0.209511508191982 
2365	 0.209451736303556 
2366	 0.209370462220385 
2367	 0.209272189446639 
2368	 0.209164970103493 
2369	 0.209051566798567 
2370	 0.208890740892794 
2371	 0.208750887254305 
2372	 0.208712894883057 
2373	 0.208602760173689 
2374	 0.208521043167155 
2375	 0.208511722581127 
2376	 0.208412756312036 
2377	 0.208434701436223 
2378	 0.208380104468923 
2379	 0.208221131414238 
2380	 0.208194103182742 
2381	 0.207982186559364 
2382	 0.20783656703756 
2383	 0.207746783087286 
2384	 0.20771623683259 
2385	 0.207673844956918 
2386	 0.207696569168089 
2387	 0.207849598871607 
2388	 0.207941081035461 
2389	 0.208051807497079 
2390	 0.208024313014146 
2391	 0.207940316712303 
2392	 0.207851404083474 
2393	 0.20757439070816 
2394	 0.207463594342864 
2395	 0.207519074459908 
2396	 0.207441786021127 
2397	 0.207338995403534 
2398	 0.207304787025191 
2399	 0.207204071884973 
2400	 0.207149169719845 
2401	 0.207201930492368 
2402	 0.207133497780153 
2403	 0.207139528456962 
2404	 0.20717567742575 
2405	 0.207088876720116 
2406	 0.207055829389083 
2407	 0.206928597273938 
2408	 0.206867484745744 
2409	 0.206872491958145 
2410	 0.206823940821654 
2411	 0.206853267146605 
2412	 0.206816157118535 
2413	 0.206802787651147 
2414	 0.206825584699501 
2415	 0.206987144698448 
2416	 0.20730165909216 
2417	 0.207374876484807 
2418	 0.207426194194371 
2419	 0.207507805037746 
2420	 0.20731689811523 
2421	 0.207253758997973 
2422	 0.207175363718039 
2423	 0.206976746646655 
2424	 0.207172474663946 
2425	 0.207324448291592 
2426	 0.207424653900901 
2427	 0.207779804987625 
2428	 0.207872075066645 
2429	 0.207795074259839 
2430	 0.207788838990395 
2431	 0.207788434809981 
2432	 0.207802362215389 
2433	 0.207761724404282 
2434	 0.207640459642807 
2435	 0.207602309836706 
2436	 0.207584660185494 
2437	 0.20756227076489 
2438	 0.2077450507788 
2439	 0.207702260765406 
2440	 0.207292051049329 
2441	 0.206917526725673 
2442	 0.206838159847522 
2443	 0.206906176690849 
2444	 0.206948735982349 
2445	 0.207187281552559 
2446	 0.207179793349026 
2447	 0.20685229694975 
2448	 0.206664501289256 
2449	 0.206413512409189 
2450	 0.206188896890899 
2451	 0.206065973683522 
2452	 0.205964455433593 
2453	 0.205871693585435 
2454	 0.205586831049479 
2455	 0.205073826270527 
2456	 0.204807288284998 
2457	 0.204615166471491 
2458	 0.204429776476702 
2459	 0.204591236820081 
2460	 0.204191245294746 
2461	 0.203813170743939 
2462	 0.203732564945204 
2463	 0.203268845449204 
2464	 0.203152414003815 
2465	 0.202877970240122 
2466	 0.202358703964909 
2467	 0.202194028730505 
2468	 0.201958396452641 
2469	 0.201799807536127 
2470	 0.201618051255546 
2471	 0.201152839622343 
2472	 0.200719214539564 
2473	 0.200281037568279 
2474	 0.20000327505961 
2475	 0.200063595799637 
2476	 0.200201667687451 
2477	 0.200278576720112 
2478	 0.200227677180305 
2479	 0.199899444064196 
2480	 0.199935564679206 
2481	 0.19991414552264 
2482	 0.199872217070828 
2483	 0.199858427425546 
2484	 0.199410636661064 
2485	 0.199441087203131 
2486	 0.199934511696576 
2487	 0.200112880356936 
2488	 0.200367387601739 
2489	 0.200385005962965 
2490	 0.199952973067968 
2491	 0.20002025204626 
2492	 0.200429856808065 
2493	 0.200717191724727 
2494	 0.201182219505843 
2495	 0.202409716046097 
2496	 0.203742496425224 
2497	 0.204344144080758 
2498	 0.205021664926862 
2499	 0.204893614172158 
2500	 0.204130584493659 
