Wavelength	Tablay400070.asd
350	 0.1588272089783 
351	 0.113513357117865 
352	 9.93208301755337E-02 
353	 0.141357322583105 
354	 0.149866992283967 
355	 0.161743843473544 
356	 0.16799713019384 
357	 0.164649204999406 
358	 0.194639602784085 
359	 0.218554583302843 
360	 0.19435248287072 
361	 0.118029842854195 
362	 0.150336399126687 
363	 0.140898146501432 
364	 6.46361259667617E-02 
365	 0.106711084778992 
366	 0.116808157470096 
367	 0.119583770570939 
368	 0.150742277688169 
369	 0.129539348576074 
370	 0.106714709620688 
371	 0.1078797788401 
372	 0.137724290679337 
373	 0.148531830813521 
374	 0.122759351538123 
375	 0.071058607122734 
376	 4.51501682018002E-02 
377	 7.51495052184461E-02 
378	 0.121670127247111 
379	 0.137893283663621 
380	 9.84823228578753E-02 
381	 9.57460382055681E-02 
382	 0.118132873333154 
383	 0.100329941932826 
384	 0.106605806460584 
385	 0.134864814788293 
386	 0.158356501629333 
387	 0.12186483497943 
388	 0.101657859031822 
389	 9.74195365588313E-02 
390	 9.46228339107573E-02 
391	 8.76768135746241E-02 
392	 9.33281410594099E-02 
393	 9.71289422762884E-02 
394	 7.08132686768992E-02 
395	 6.84664197671621E-02 
396	 6.47367352132457E-02 
397	 5.03312631260996E-02 
398	 5.78593918515292E-02 
399	 7.19643725085328E-02 
400	 8.81437982491272E-02 
401	 9.87375774665464E-02 
402	 6.62946388794702E-02 
403	 5.62504691775078E-02 
404	 0.069366842474486 
405	 5.95024591877647E-02 
406	 8.36307424262441E-02 
407	 9.16456200249462E-02 
408	 6.45155442619391E-02 
409	 6.04969117879017E-02 
410	 6.61696305860438E-02 
411	 7.58829303305016E-02 
412	 0.08336999341846 
413	 7.10407981136372E-02 
414	 6.25576628876439E-02 
415	 6.47644626933034E-02 
416	 6.90627616845759E-02 
417	 7.50371415847496E-02 
418	 7.33720336368583E-02 
419	 6.34843666401934E-02 
420	 6.71069033357155E-02 
421	 6.89011943720953E-02 
422	 6.93578703747458E-02 
423	 7.25116735217224E-02 
424	 6.20717221261414E-02 
425	 0.060214034627079 
426	 6.76352496074086E-02 
427	 5.96013286186429E-02 
428	 5.87713258536341E-02 
429	 6.03288730891802E-02 
430	 5.81017559184239E-02 
431	 6.00286791257668E-02 
432	 5.79443071363625E-02 
433	 5.50913569042624E-02 
434	 5.90176164140537E-02 
435	 5.73480703724437E-02 
436	 5.71904055022089E-02 
437	 6.14592136945094E-02 
438	 6.42837903233834E-02 
439	 6.06208811938634E-02 
440	 5.64892064767816E-02 
441	 5.80595265126157E-02 
442	 5.77134329761816E-02 
443	 6.02037075109143E-02 
444	 6.21945591184324E-02 
445	 5.52478374023764E-02 
446	 5.33987858702798E-02 
447	 5.53707615081816E-02 
448	 5.81342602100375E-02 
449	 6.11088275157552E-02 
450	 5.88831144407634E-02 
451	 5.54070680767742E-02 
452	 5.66443435495664E-02 
453	 5.68352536807699E-02 
454	 5.74495916052268E-02 
455	 5.81182576693445E-02 
456	 0.056137418972558 
457	 5.27914491686991E-02 
458	 5.24060347890194E-02 
459	 5.62079719535317E-02 
460	 5.51565211594411E-02 
461	 5.30792389250763E-02 
462	 5.24127081630586E-02 
463	 5.43021068893353E-02 
464	 0.055799552861177 
465	 5.54413724587771E-02 
466	 5.33407393075037E-02 
467	 5.13958434130165E-02 
468	 5.33274735033188E-02 
469	 5.46565306602908E-02 
470	 5.15089799162754E-02 
471	 0.052512034749349 
472	 5.25503886410327E-02 
473	 5.11039142662284E-02 
474	 0.051275297500985 
475	 5.12974445219297E-02 
476	 5.14003950045423E-02 
477	 5.17920591387934E-02 
478	 5.21324529013342E-02 
479	 5.13872559610723E-02 
480	 5.02651811566737E-02 
481	 5.00331556757795E-02 
482	 5.05837523349654E-02 
483	 5.16844230509592E-02 
484	 5.24907526621717E-02 
485	 5.15886511884015E-02 
486	 5.00707985969132E-02 
487	 4.95643547530375E-02 
488	 5.07116960149098E-02 
489	 5.13039060933313E-02 
490	 5.00806188756118E-02 
491	 4.87986664462107E-02 
492	 5.02472894375221E-02 
493	 4.92044190837586E-02 
494	 4.93475903418688E-02 
495	 5.14482961691073E-02 
496	 4.99605999266167E-02 
497	 4.95668607851747E-02 
498	 4.97775480603682E-02 
499	 4.90699050578522E-02 
500	 4.84307463453883E-02 
501	 4.84288426760559E-02 
502	 4.88152844664005E-02 
503	 4.87003493048691E-02 
504	 4.82290129789468E-02 
505	 4.79518388907387E-02 
506	 4.83413472041272E-02 
507	 4.98201864206874E-02 
508	 4.94894342890159E-02 
509	 4.83266138243573E-02 
510	 0.048628638761595 
511	 4.88753512139307E-02 
512	 4.84703177317625E-02 
513	 4.78416046133563E-02 
514	 0.048583190945118 
515	 4.87473546139161E-02 
516	 4.86497847966287E-02 
517	 4.87026563942185E-02 
518	 4.74213937850855E-02 
519	 0.047031699295462 
520	 4.76302804668443E-02 
521	 4.78397226742045E-02 
522	 4.74327657495684E-02 
523	 4.74230839676276E-02 
524	 4.81074900630665E-02 
525	 4.80977177467758E-02 
526	 4.77538676469466E-02 
527	 4.74123587514355E-02 
528	 4.74003297732979E-02 
529	 4.79055728784968E-02 
530	 4.78752994011813E-02 
531	 4.73322012800936E-02 
532	 4.74440375476447E-02 
533	 4.73386064264484E-02 
534	 4.71470199522323E-02 
535	 4.71222986857364E-02 
536	 4.72853765528165E-02 
537	 4.73575386839069E-02 
538	 4.73535210026244E-02 
539	 4.74218932252103E-02 
540	 4.72904394821161E-02 
541	 4.72330070776575E-02 
542	 0.047313066470811 
543	 4.71828122627792E-02 
544	 4.67789422182874E-02 
545	 4.66353224567427E-02 
546	 4.70918225815438E-02 
547	 4.67952211511245E-02 
548	 4.65995031333316E-02 
549	 4.67217441987951E-02 
550	 0.04675243763288 
551	 4.67600693984026E-02 
552	 4.66983303374953E-02 
553	 4.65721414896238E-02 
554	 4.65471192075725E-02 
555	 4.64942984543452E-02 
556	 4.64763022724037E-02 
557	 4.66034473834777E-02 
558	 4.66867799403361E-02 
559	 4.64563550179147E-02 
560	 4.61052434715208E-02 
561	 4.64627186740686E-02 
562	 4.65502719744802E-02 
563	 4.64327632357624E-02 
564	 0.046380642520214 
565	 4.62639940881762E-02 
566	 4.63450379992711E-02 
567	 4.64857478873045E-02 
568	 4.63143790302809E-02 
569	 4.65816529476736E-02 
570	 0.046729698504245 
571	 4.64388202547438E-02 
572	 4.62579669978282E-02 
573	 0.046286222561366 
574	 4.65433194761519E-02 
575	 4.69034653276344E-02 
576	 4.68025318706077E-02 
577	 4.65880189822407E-02 
578	 4.65678762567199E-02 
579	 4.69133757871907E-02 
580	 4.70666475643281E-02 
581	 4.70863910544355E-02 
582	 4.71463751842129E-02 
583	 0.047294992897934 
584	 4.73675832479703E-02 
585	 4.74057413454529E-02 
586	 4.75462712344328E-02 
587	 4.75658902032829E-02 
588	 0.047619554690605 
589	 4.77992577027929E-02 
590	 4.80367948993222E-02 
591	 4.80696414856985E-02 
592	 0.048229088786977 
593	 4.87793704005379E-02 
594	 4.88330621151531E-02 
595	 4.91047514501306E-02 
596	 4.96237270151836E-02 
597	 4.98245321151948E-02 
598	 5.02558010875887E-02 
599	 5.07085966540389E-02 
600	 5.10247642748478E-02 
601	 5.14572376026873E-02 
602	 5.21119037907437E-02 
603	 5.28654431147775E-02 
604	 5.35137002967728E-02 
605	 5.41311678479272E-02 
606	 5.49371317869464E-02 
607	 5.59210614849087E-02 
608	 5.67793095880788E-02 
609	 5.78030384200448E-02 
610	 5.89526417024349E-02 
611	 6.01235389976426E-02 
612	 6.12235015681722E-02 
613	 6.26867757506183E-02 
614	 6.43321300507241E-02 
615	 6.56561314299277E-02 
616	 6.72186724338614E-02 
617	 0.068895664351608 
618	 7.05707472570369E-02 
619	 7.23026264184468E-02 
620	 0.074136080890218 
621	 7.59978778140724E-02 
622	 7.78255269988916E-02 
623	 7.97602307519096E-02 
624	 8.20511728283048E-02 
625	 8.45063838694137E-02 
626	 8.65687552093577E-02 
627	 8.87887850624254E-02 
628	 0.090967474244845 
629	 9.30243442835233E-02 
630	 9.55389083479812E-02 
631	 9.79685511312733E-02 
632	 0.100233341507509 
633	 0.10248627930104 
634	 0.105004720129551 
635	 0.107463840764133 
636	 0.109810197734134 
637	 0.11237409057849 
638	 0.114613701026985 
639	 0.116845770724886 
640	 0.119357304121203 
641	 0.121645625047482 
642	 0.123866303890522 
643	 0.126212145405296 
644	 0.128815946632716 
645	 0.130979568668882 
646	 0.133099621394759 
647	 0.13539415680298 
648	 0.137573945457663 
649	 0.139713031910303 
650	 0.141847625984694 
651	 0.144008428858169 
652	 0.146241436865998 
653	 0.148298533754636 
654	 0.150234032675589 
655	 0.152321620512266 
656	 0.154292452596047 
657	 0.156225162852066 
658	 0.158182282333777 
659	 0.160074319756396 
660	 0.161973832869813 
661	 0.163845931842833 
662	 0.165637481699037 
663	 0.167419247799357 
664	 0.169148759687437 
665	 0.170893316843711 
666	 0.172811598260777 
667	 0.174459353434641 
668	 0.175918812940998 
669	 0.177385137001652 
670	 0.179058310324295 
671	 0.180686637435087 
672	 0.182235656739729 
673	 0.183769918472593 
674	 0.185269150202637 
675	 0.186764848808881 
676	 0.18824820746199 
677	 0.189665566632421 
678	 0.191068398032627 
679	 0.19239029716925 
680	 0.193620927826045 
681	 0.194995755289566 
682	 0.196385161951971 
683	 0.197745554694861 
684	 0.199079883448845 
685	 0.20035851304243 
686	 0.201556358641146 
687	 0.202710065500244 
688	 0.203944927150647 
689	 0.20516998564061 
690	 0.206464575536348 
691	 0.2078237487935 
692	 0.208782004084022 
693	 0.209805567346074 
694	 0.211007460053799 
695	 0.212238763436449 
696	 0.213238860578835 
697	 0.2142697189152 
698	 0.215419441639088 
699	 0.216399074049122 
700	 0.217540872758414 
701	 0.218651731769487 
702	 0.219530079010459 
703	 0.220517102665723 
704	 0.221523611763159 
705	 0.222494363930485 
706	 0.223404315865087 
707	 0.224204228511103 
708	 0.225071459099878 
709	 0.226040589757835 
710	 0.226860501897785 
711	 0.227681614931146 
712	 0.228591878386272 
713	 0.229595331834948 
714	 0.230451611678403 
715	 0.231260601007759 
716	 0.232045379695403 
717	 0.232774510417518 
718	 0.233487530359505 
719	 0.234309518434597 
720	 0.235196127437928 
721	 0.235795214661341 
722	 0.236579500837762 
723	 0.237373523573924 
724	 0.237972303156947 
725	 0.238886821968636 
726	 0.23966984107682 
727	 0.240276185024441 
728	 0.240952608224498 
729	 0.241658924536574 
730	 0.242319550851357 
731	 0.242935798625443 
732	 0.24363966740914 
733	 0.244451700478472 
734	 0.245192272812065 
735	 0.245735422418905 
736	 0.246371513418875 
737	 0.247003611791656 
738	 0.247636797234339 
739	 0.24832035976502 
740	 0.24883739230009 
741	 0.249468924732885 
742	 0.250272995287832 
743	 0.250898647712867 
744	 0.251415520899849 
745	 0.251915191686497 
746	 0.252473090759448 
747	 0.253059034742487 
748	 0.253704614782718 
749	 0.25438484976426 
750	 0.255033406133354 
751	 0.255540123357893 
752	 0.256092697622567 
753	 0.256740474367894 
754	 0.257319629085223 
755	 0.257900643329344 
756	 0.258486772306354 
757	 0.259084651027004 
758	 0.259762242799302 
759	 0.260307720130537 
760	 0.260792952148485 
761	 0.261397375060518 
762	 0.262030346207993 
763	 0.262638690928219 
764	 0.263196042803668 
765	 0.263707512685462 
766	 0.264194144954614 
767	 0.26473538158094 
768	 0.265358723577919 
769	 0.265952234628272 
770	 0.266586839867922 
771	 0.26714033689671 
772	 0.267503290884992 
773	 0.267941962084588 
774	 0.268565068899728 
775	 0.269230295110968 
776	 0.269639385293635 
777	 0.270064931669296 
778	 0.270620924053374 
779	 0.27126306318163 
780	 0.271726834816581 
781	 0.272238997169149 
782	 0.272787113420932 
783	 0.273315307060538 
784	 0.273877453428072 
785	 0.274308323853633 
786	 0.274744101000239 
787	 0.275410541040748 
788	 0.275817146974645 
789	 0.276304526812645 
790	 0.276884668921015 
791	 0.277124802565237 
792	 0.277658672101677 
793	 0.278272597583421 
794	 0.278752418211605 
795	 0.279338769566767 
796	 0.27978671951405 
797	 0.280116102225088 
798	 0.280464439503437 
799	 0.280997274914582 
800	 0.281586816756336 
801	 0.2821174465996 
802	 0.282517612159029 
803	 0.28290026255121 
804	 0.283350847283226 
805	 0.283857691594907 
806	 0.28427932641981 
807	 0.284626264108596 
808	 0.285078323853836 
809	 0.285692952769338 
810	 0.286041094817783 
811	 0.286445821468591 
812	 0.286846315314772 
813	 0.287092046964838 
814	 0.287549521267735 
815	 0.287957696340371 
816	 0.288269892186857 
817	 0.288659001972365 
818	 0.289160771881046 
819	 0.289577932008322 
820	 0.289872426400732 
821	 0.290321708124281 
822	 0.290625056594225 
823	 0.290947956793451 
824	 0.29143252689254 
825	 0.291766852347234 
826	 0.292051470377368 
827	 0.292321158161474 
828	 0.29259184154875 
829	 0.292927022778742 
830	 0.293284914870969 
831	 0.293584404960074 
832	 0.293750975282274 
833	 0.294078503643897 
834	 0.29438804184441 
835	 0.294613408028947 
836	 0.294966649809887 
837	 0.295343856040747 
838	 0.295621227967366 
839	 0.295785842161593 
840	 0.296143047472835 
841	 0.296460303793607 
842	 0.296696963846176 
843	 0.296911750482301 
844	 0.297229252607683 
845	 0.297556173676132 
846	 0.297749410422901 
847	 0.29771745906798 
848	 0.298023586415537 
849	 0.298289771601735 
850	 0.298400624485318 
851	 0.298693117053805 
852	 0.299022077275789 
853	 0.299240275942103 
854	 0.299360925553373 
855	 0.299745527113455 
856	 0.299904740179559 
857	 0.30000881539837 
858	 0.300297497223662 
859	 0.300469484557059 
860	 0.300617016973474 
861	 0.300762443676861 
862	 0.300896178314714 
863	 0.30103768348043 
864	 0.301223506392759 
865	 0.30142186247788 
866	 0.301554045524986 
867	 0.301685505578384 
868	 0.30179314938567 
869	 0.30191170090181 
870	 0.30215897175225 
871	 0.302336281608212 
872	 0.302465819150838 
873	 0.302557009650222 
874	 0.30245423797564 
875	 0.302672020441453 
876	 0.303016605239419 
877	 0.303157514256921 
878	 0.303152561974693 
879	 0.303209242824817 
880	 0.30333136105822 
881	 0.303437563358656 
882	 0.303622703612577 
883	 0.303765691651834 
884	 0.303857963822168 
885	 0.303977837990512 
886	 0.304076566839106 
887	 0.304193232490534 
888	 0.304304039828637 
889	 0.304319506052914 
890	 0.304449142207135 
891	 0.304555312557753 
892	 0.304551188734467 
893	 0.304542483432537 
894	 0.304608475669828 
895	 0.304780917879599 
896	 0.304995874038277 
897	 0.305000508506636 
898	 0.304952742401771 
899	 0.305028270118229 
900	 0.305300859778212 
901	 0.305467811079045 
902	 0.305569337530442 
903	 0.305623846670063 
904	 0.305654342996907 
905	 0.305723140165835 
906	 0.305977695893963 
907	 0.306207252391956 
908	 0.306062913994152 
909	 0.30617217653255 
910	 0.306221737929633 
911	 0.306226563929808 
912	 0.306559828424515 
913	 0.306761276053774 
914	 0.306822214220803 
915	 0.306873637238745 
916	 0.307108690722366 
917	 0.307026720411747 
918	 0.306976090979617 
919	 0.307167385537934 
920	 0.307236718768428 
921	 0.307377255660422 
922	 0.307491688815875 
923	 0.307559059158159 
924	 0.307942549354525 
925	 0.30814074726198 
926	 0.30807036430682 
927	 0.30791155497367 
928	 0.308181716819039 
929	 0.308372293451607 
930	 0.308437743230149 
931	 0.308550883634356 
932	 0.308901848669694 
933	 0.308995679409941 
934	 0.308867891550012 
935	 0.308842885474134 
936	 0.308964920894784 
937	 0.309186252788036 
938	 0.309487796644803 
939	 0.309858518060939 
940	 0.310202633324345 
941	 0.3103174379175 
942	 0.31032395714222 
943	 0.310549246522774 
944	 0.310549969876689 
945	 0.310630671022756 
946	 0.310871058417874 
947	 0.311034643742794 
948	 0.31112280860496 
949	 0.311140275671811 
950	 0.311169857110192 
951	 0.311347847486843 
952	 0.311242848951203 
953	 0.31128824533023 
954	 0.311623852914492 
955	 0.311753009787719 
956	 0.311725796365252 
957	 0.311781983819232 
958	 0.312011229378258 
959	 0.312174514836664 
960	 0.312537115248654 
961	 0.312793793624142 
962	 0.312753390717863 
963	 0.312701262910259 
964	 0.312749359184165 
965	 0.312847940661376 
966	 0.312932934418203 
967	 0.313029229238237 
968	 0.313281442886237 
969	 0.313467912347445 
970	 0.313404491781433 
971	 0.313257654333555 
972	 0.31325903471755 
973	 0.313302761269937 
974	 0.31332995206528 
975	 0.313748570424849 
976	 0.314091923517564 
977	 0.314040800430997 
978	 0.313721863285048 
979	 0.314400905916707 
980	 0.314525669723845 
981	 0.314346077848584 
982	 0.314466039367996 
983	 0.314500924543519 
984	 0.314666785820649 
985	 0.31478601268547 
986	 0.314720763780275 
987	 0.314885148159044 
988	 0.315354622355792 
989	 0.315607204760295 
990	 0.315299258153436 
991	 0.315412601321976 
992	 0.315389463792564 
993	 0.315297753225637 
994	 0.315337568369816 
995	 0.315366457757837 
996	 0.315346875979928 
997	 0.315530700429909 
998	 0.315931701081479 
999	 0.315408778407539 
1000	 0.315624285684583 
1001	 0.317846023025996 
1002	 0.317880592481792 
1003	 0.317904878819463 
1004	 0.317952870775742 
1005	 0.318016601202025 
1006	 0.318135544793373 
1007	 0.31832678210491 
1008	 0.318394652022578 
1009	 0.318511615671411 
1010	 0.318550491985806 
1011	 0.318357599462114 
1012	 0.318349484359716 
1013	 0.318467294687615 
1014	 0.318490850189516 
1015	 0.318606613751341 
1016	 0.318589785341361 
1017	 0.318323760636529 
1018	 0.318280077870818 
1019	 0.318257257152397 
1020	 0.31819489214879 
1021	 0.318326177535786 
1022	 0.318721054338752 
1023	 0.318873559622917 
1024	 0.31913128925699 
1025	 0.319164988220663 
1026	 0.318821149344253 
1027	 0.318773342478812 
1028	 0.318744400430564 
1029	 0.318777066727859 
1030	 0.319019614858209 
1031	 0.319425530224218 
1032	 0.31955716340924 
1033	 0.319611524365564 
1034	 0.319638849553709 
1035	 0.319469808016512 
1036	 0.319425030812919 
1037	 0.319413060853539 
1038	 0.31946833916772 
1039	 0.319559563924783 
1040	 0.319649211906867 
1041	 0.319827551958477 
1042	 0.319902672689152 
1043	 0.31982111875749 
1044	 0.319993183234723 
1045	 0.320230367374305 
1046	 0.320409907917662 
1047	 0.320701017035586 
1048	 0.320800109561383 
1049	 0.320732777098965 
1050	 0.320537654808823 
1051	 0.320303496383851 
1052	 0.32039010116184 
1053	 0.320478678541881 
1054	 0.320738383065073 
1055	 0.320857659532945 
1056	 0.320994253843617 
1057	 0.321056796995734 
1058	 0.321019668534221 
1059	 0.320979144511888 
1060	 0.321052697979634 
1061	 0.321065503263033 
1062	 0.321095453759685 
1063	 0.321224270561535 
1064	 0.321227730510434 
1065	 0.321021685464075 
1066	 0.320804159306686 
1067	 0.320779006195229 
1068	 0.320816712642796 
1069	 0.320868740882662 
1070	 0.320849506197097 
1071	 0.320812752972156 
1072	 0.320684151694924 
1073	 0.320591490179388 
1074	 0.320553310602468 
1075	 0.320646716363904 
1076	 0.320580826183825 
1077	 0.320400074509129 
1078	 0.320424756273413 
1079	 0.320365891898975 
1080	 0.320225847334416 
1081	 0.320216063722532 
1082	 0.32014199797318 
1083	 0.320022244457918 
1084	 0.3199517964136 
1085	 0.31991804981907 
1086	 0.3199035486137 
1087	 0.319880222988782 
1088	 0.319883683748049 
1089	 0.319914306222555 
1090	 0.319827955554873 
1091	 0.319710301748457 
1092	 0.319686919066964 
1093	 0.319742276495063 
1094	 0.319843878863345 
1095	 0.319917721109116 
1096	 0.32007647866708 
1097	 0.320151850171748 
1098	 0.320127029617979 
1099	 0.320267386961925 
1100	 0.320213070603588 
1101	 0.320005464505707 
1102	 0.320021874001786 
1103	 0.320073598988823 
1104	 0.320149409662612 
1105	 0.320213068776767 
1106	 0.320338282299751 
1107	 0.320423510577518 
1108	 0.320414313294478 
1109	 0.320470265492788 
1110	 0.320648091009311 
1111	 0.320754460199455 
1112	 0.320787333962155 
1113	 0.320861178365904 
1114	 0.320982665731469 
1115	 0.321146986932627 
1116	 0.321286494945166 
1117	 0.321436308610467 
1118	 0.321614364257501 
1119	 0.32177061954472 
1120	 0.321915585374953 
1121	 0.322093018672202 
1122	 0.32230525777178 
1123	 0.322406487956099 
1124	 0.322499505596981 
1125	 0.322688586840013 
1126	 0.322829743788295 
1127	 0.32295493612238 
1128	 0.32318094279037 
1129	 0.323351782840652 
1130	 0.323578779767555 
1131	 0.323838117509323 
1132	 0.323973763956232 
1133	 0.324159250821684 
1134	 0.324228504964637 
1135	 0.324328262731544 
1136	 0.324448327316021 
1137	 0.324535335644458 
1138	 0.324618830101342 
1139	 0.324679358292301 
1140	 0.324679154077138 
1141	 0.324689043532617 
1142	 0.324775591449535 
1143	 0.324787492663735 
1144	 0.324972423632067 
1145	 0.325155171308977 
1146	 0.325227085660648 
1147	 0.325363316662162 
1148	 0.325416628145343 
1149	 0.325417365626153 
1150	 0.325448997808019 
1151	 0.325504584652877 
1152	 0.325529697592386 
1153	 0.325542334234032 
1154	 0.325515342281872 
1155	 0.325438317806522 
1156	 0.325421458797499 
1157	 0.325392624006523 
1158	 0.32538095496211 
1159	 0.325435306196603 
1160	 0.325433423339074 
1161	 0.325400561039485 
1162	 0.325421673010908 
1163	 0.325448890501902 
1164	 0.325494155587883 
1165	 0.325468522540344 
1166	 0.325431969417081 
1167	 0.325392588560694 
1168	 0.325335749060048 
1169	 0.325309118585337 
1170	 0.325312638129233 
1171	 0.32531820974089 
1172	 0.325357527013122 
1173	 0.325330587068817 
1174	 0.325300674980881 
1175	 0.325250115039621 
1176	 0.325127081570479 
1177	 0.325049909885658 
1178	 0.325016790876965 
1179	 0.324911256402957 
1180	 0.324832606322471 
1181	 0.324754862385871 
1182	 0.324611967522457 
1183	 0.324590120890644 
1184	 0.324599324472521 
1185	 0.324527162143541 
1186	 0.324475757459653 
1187	 0.32443799907741 
1188	 0.324383539465719 
1189	 0.324297135544338 
1190	 0.324249372156909 
1191	 0.3242265626929 
1192	 0.324193912625909 
1193	 0.324150589131449 
1194	 0.324135587321283 
1195	 0.324122309202987 
1196	 0.32413158656274 
1197	 0.324175959717386 
1198	 0.324234325826443 
1199	 0.324198611778594 
1200	 0.324196478775496 
1201	 0.324256995026136 
1202	 0.324275609391887 
1203	 0.32437505332504 
1204	 0.324568850847906 
1205	 0.324736644691577 
1206	 0.324910175651954 
1207	 0.325084192355872 
1208	 0.32526671481143 
1209	 0.325476134137449 
1210	 0.32564069595754 
1211	 0.325915406917945 
1212	 0.326271072146004 
1213	 0.326651971380216 
1214	 0.327123948501635 
1215	 0.327560088198824 
1216	 0.327994918559682 
1217	 0.328452713866269 
1218	 0.328900365060714 
1219	 0.329392705615602 
1220	 0.329894205229822 
1221	 0.330417320033985 
1222	 0.33096802677986 
1223	 0.331507699290729 
1224	 0.332038295615014 
1225	 0.332607444147769 
1226	 0.333099133540576 
1227	 0.333545968324542 
1228	 0.333978692707385 
1229	 0.334357293594642 
1230	 0.334767184382074 
1231	 0.335140273529017 
1232	 0.335579756068156 
1233	 0.33611723151627 
1234	 0.33654710274036 
1235	 0.336972464578244 
1236	 0.337359017113178 
1237	 0.33761088112054 
1238	 0.337941026785999 
1239	 0.338316943265675 
1240	 0.338696096739486 
1241	 0.338994246470736 
1242	 0.339320277315445 
1243	 0.339614557250589 
1244	 0.3398388738074 
1245	 0.34011363656277 
1246	 0.340433534464275 
1247	 0.340701274149884 
1248	 0.340919291631778 
1249	 0.341201164414387 
1250	 0.341475966196921 
1251	 0.341792716076425 
1252	 0.342205546559307 
1253	 0.342527716286304 
1254	 0.342835888120315 
1255	 0.343129400145765 
1256	 0.343369769685286 
1257	 0.343621375496855 
1258	 0.343843007952926 
1259	 0.344101415591112 
1260	 0.344377610514889 
1261	 0.344650109946903 
1262	 0.344937430622367 
1263	 0.345269893144372 
1264	 0.345536979813781 
1265	 0.345757527065644 
1266	 0.346029796962223 
1267	 0.34629806024154 
1268	 0.346578152538659 
1269	 0.346877280032638 
1270	 0.347194442438955 
1271	 0.347556967110323 
1272	 0.347836937045125 
1273	 0.34810560940838 
1274	 0.348359592921129 
1275	 0.34850212961332 
1276	 0.348742351944345 
1277	 0.349084615494604 
1278	 0.349341104994745 
1279	 0.349626486019651 
1280	 0.349829922836441 
1281	 0.349880646985908 
1282	 0.350030806511327 
1283	 0.350199987961067 
1284	 0.350361748036944 
1285	 0.350541904370529 
1286	 0.35079056914555 
1287	 0.350969898336683 
1288	 0.351107872758802 
1289	 0.351265281018115 
1290	 0.351439043503817 
1291	 0.351563240420835 
1292	 0.351649864142174 
1293	 0.351762017645006 
1294	 0.351856301726914 
1295	 0.351958361463433 
1296	 0.35207523131073 
1297	 0.352190773661693 
1298	 0.352295879348185 
1299	 0.352406114345141 
1300	 0.352560956200384 
1301	 0.352652102320685 
1302	 0.352670530964172 
1303	 0.352748946385847 
1304	 0.35280207706865 
1305	 0.352899942476948 
1306	 0.353099494741264 
1307	 0.353236327238278 
1308	 0.353366294809378 
1309	 0.353464099798937 
1310	 0.353567754874962 
1311	 0.35362366995206 
1312	 0.353751063218342 
1313	 0.353899156643458 
1314	 0.354072995317548 
1315	 0.354329993985394 
1316	 0.354459035094238 
1317	 0.354512765533293 
1318	 0.35466070972467 
1319	 0.35474977832547 
1320	 0.35493694250981 
1321	 0.355279185069894 
1322	 0.355512884241035 
1323	 0.355705223229626 
1324	 0.355923535646866 
1325	 0.356118898858174 
1326	 0.356337245320653 
1327	 0.356582011671239 
1328	 0.356823115658882 
1329	 0.357091622312258 
1330	 0.357318876754764 
1331	 0.357519565118544 
1332	 0.357730058563923 
1333	 0.357880064890121 
1334	 0.358093914170844 
1335	 0.358328772250768 
1336	 0.358603431879182 
1337	 0.358847114984559 
1338	 0.35911551865823 
1339	 0.359342770677392 
1340	 0.359534928775805 
1341	 0.359754402096194 
1342	 0.359990271863681 
1343	 0.36018470647405 
1344	 0.360365063800969 
1345	 0.360547649079358 
1346	 0.360680653375336 
1347	 0.360870136717661 
1348	 0.361120680981014 
1349	 0.361310564178231 
1350	 0.361505300617392 
1351	 0.361667591926728 
1352	 0.361775552445706 
1353	 0.361898576699092 
1354	 0.362029702363387 
1355	 0.362134801705236 
1356	 0.362206897889291 
1357	 0.362306980504802 
1358	 0.362401844132095 
1359	 0.362503171913179 
1360	 0.36265206330576 
1361	 0.362753391915282 
1362	 0.362806309407727 
1363	 0.362904088146005 
1364	 0.362999207592462 
1365	 0.363106555458196 
1366	 0.363149532712238 
1367	 0.363184891169258 
1368	 0.363209187413257 
1369	 0.36319322293584 
1370	 0.363159284549962 
1371	 0.363161381840354 
1372	 0.363062457666441 
1373	 0.362851078286563 
1374	 0.362709053911678 
1375	 0.362543481301142 
1376	 0.362402410443077 
1377	 0.362329981667843 
1378	 0.362169492190589 
1379	 0.361957000302198 
1380	 0.361760853014094 
1381	 0.361540687430485 
1382	 0.361307206702548 
1383	 0.361082102814268 
1384	 0.360830824288941 
1385	 0.360532733060064 
1386	 0.360248407897927 
1387	 0.359951675531704 
1388	 0.359682410670017 
1389	 0.359408505963708 
1390	 0.359165813581673 
1391	 0.358941854328588 
1392	 0.358747913330265 
1393	 0.358583620636878 
1394	 0.358456501914169 
1395	 0.358330211755028 
1396	 0.358245685740116 
1397	 0.358113615071972 
1398	 0.358021455260098 
1399	 0.357771551235725 
1400	 0.357467337315694 
1401	 0.357090101969136 
1402	 0.356587907313713 
1403	 0.356091404802418 
1404	 0.355564715008323 
1405	 0.35499240110847 
1406	 0.354366119038881 
1407	 0.353728941028118 
1408	 0.353059723458199 
1409	 0.352364303278327 
1410	 0.351623392168134 
1411	 0.350898740571579 
1412	 0.350133977949825 
1413	 0.349417176737389 
1414	 0.348697340878343 
1415	 0.348039467526506 
1416	 0.347422329209202 
1417	 0.346830079215503 
1418	 0.346317089402133 
1419	 0.345765839689569 
1420	 0.345202356969755 
1421	 0.344665039771751 
1422	 0.344137358728901 
1423	 0.343603867945852 
1424	 0.343089629503526 
1425	 0.342553246396183 
1426	 0.342067499506706 
1427	 0.341570838231098 
1428	 0.341105294930594 
1429	 0.340732977154552 
1430	 0.340358467873097 
1431	 0.340001799626165 
1432	 0.33966898556589 
1433	 0.339384928531143 
1434	 0.339073060276413 
1435	 0.338758501862029 
1436	 0.33846760621596 
1437	 0.338163728293696 
1438	 0.337925017194694 
1439	 0.337731610406071 
1440	 0.33752772744835 
1441	 0.337347948959799 
1442	 0.33719508249929 
1443	 0.337016816667972 
1444	 0.336933930990863 
1445	 0.336890888813256 
1446	 0.336931335531282 
1447	 0.33701419215228 
1448	 0.337212504557501 
1449	 0.337537670969672 
1450	 0.337876282953174 
1451	 0.338287533843222 
1452	 0.338753804557034 
1453	 0.339286228749026 
1454	 0.339814397704152 
1455	 0.340406776390311 
1456	 0.340993809465212 
1457	 0.341572733695913 
1458	 0.342173256730936 
1459	 0.342815860376853 
1460	 0.343448674154296 
1461	 0.344122923301612 
1462	 0.344720648283897 
1463	 0.345244570256432 
1464	 0.345812289966936 
1465	 0.346334760492388 
1466	 0.346903496281004 
1467	 0.347505683239732 
1468	 0.348099621747121 
1469	 0.348590774332457 
1470	 0.34907413483367 
1471	 0.349593212829826 
1472	 0.35010486478942 
1473	 0.350608998129342 
1474	 0.351133872710936 
1475	 0.351659540884121 
1476	 0.352162841005261 
1477	 0.352683456652884 
1478	 0.353263181236994 
1479	 0.353746934965858 
1480	 0.35418785960207 
1481	 0.354606733757898 
1482	 0.354972583112209 
1483	 0.355353866807974 
1484	 0.355721858038182 
1485	 0.356075027601044 
1486	 0.356412049031747 
1487	 0.356754945074526 
1488	 0.357056879725563 
1489	 0.35743340473898 
1490	 0.357866250073038 
1491	 0.358259987987587 
1492	 0.358656874799371 
1493	 0.359081287763707 
1494	 0.359481975645638 
1495	 0.359929082046353 
1496	 0.36043410232765 
1497	 0.360938241176272 
1498	 0.361472508024984 
1499	 0.36197686071764 
1500	 0.362506289379403 
1501	 0.362992395707591 
1502	 0.363413290710888 
1503	 0.363870226168049 
1504	 0.364329637415474 
1505	 0.364787192236961 
1506	 0.365273726851109 
1507	 0.36573030817625 
1508	 0.366167985494705 
1509	 0.366597756068346 
1510	 0.367016287829521 
1511	 0.367417162654124 
1512	 0.367805437580236 
1513	 0.368179910974155 
1514	 0.3685221328634 
1515	 0.36887810776072 
1516	 0.369253786895584 
1517	 0.369591626700697 
1518	 0.369935964445797 
1519	 0.370234874723894 
1520	 0.370455975306734 
1521	 0.370703738321812 
1522	 0.370955628743062 
1523	 0.371190290028319 
1524	 0.371418548780976 
1525	 0.371655577931234 
1526	 0.37188107672974 
1527	 0.372091510356859 
1528	 0.372281798036214 
1529	 0.372474367946068 
1530	 0.372644906771666 
1531	 0.372774690220597 
1532	 0.372924662371569 
1533	 0.373076160316845 
1534	 0.3732401857873 
1535	 0.373396167404505 
1536	 0.373575766085739 
1537	 0.373790584457201 
1538	 0.3739649873367 
1539	 0.374110293938635 
1540	 0.374314866026068 
1541	 0.374536011058934 
1542	 0.374743914576235 
1543	 0.374970313082409 
1544	 0.375226201319647 
1545	 0.375455727089006 
1546	 0.375750139239257 
1547	 0.376136250772416 
1548	 0.376464819249812 
1549	 0.376793293695515 
1550	 0.377108990772875 
1551	 0.377414426288584 
1552	 0.377708978706881 
1553	 0.377972055793093 
1554	 0.378281175557326 
1555	 0.378629252563331 
1556	 0.378915947809281 
1557	 0.379176946929997 
1558	 0.379483430928771 
1559	 0.379759810436755 
1560	 0.380067223063625 
1561	 0.380471956889253 
1562	 0.380782305791114 
1563	 0.381032718366704 
1564	 0.381298048544965 
1565	 0.381488288338472 
1566	 0.381794658625908 
1567	 0.382178718173515 
1568	 0.38252079620018 
1569	 0.382946478842663 
1570	 0.383278921749101 
1571	 0.383525743521062 
1572	 0.3837974294777 
1573	 0.384038350811874 
1574	 0.384306440454491 
1575	 0.384554308573658 
1576	 0.384864087465847 
1577	 0.385247469086296 
1578	 0.385574115232535 
1579	 0.385908122616563 
1580	 0.386240091377638 
1581	 0.386553493443144 
1582	 0.386842941703988 
1583	 0.387120941381595 
1584	 0.387418784215878 
1585	 0.387705392979367 
1586	 0.387971217243359 
1587	 0.388225449631089 
1588	 0.388526079816122 
1589	 0.388813427797563 
1590	 0.389120679703546 
1591	 0.389539075602872 
1592	 0.389850014418263 
1593	 0.390069561782573 
1594	 0.390336727292447 
1595	 0.390582029241344 
1596	 0.390836325357425 
1597	 0.391113504669113 
1598	 0.391394208562687 
1599	 0.391640885015473 
1600	 0.391940994321532 
1601	 0.392338269906757 
1602	 0.392644021248844 
1603	 0.392891776154998 
1604	 0.393192871413965 
1605	 0.393487141536827 
1606	 0.393759735010509 
1607	 0.394078047643282 
1608	 0.394369123380921 
1609	 0.394615318257333 
1610	 0.39484046961326 
1611	 0.395066873984793 
1612	 0.395276386804733 
1613	 0.395417236890205 
1614	 0.395604902953786 
1615	 0.395855691488428 
1616	 0.396033083835749 
1617	 0.396144208529996 
1618	 0.396322032057965 
1619	 0.396495382061809 
1620	 0.396672627725719 
1621	 0.39695165296508 
1622	 0.397138149775396 
1623	 0.397237019895817 
1624	 0.39736438760944 
1625	 0.397472106310631 
1626	 0.397575611780919 
1627	 0.397678372188521 
1628	 0.397782199293192 
1629	 0.397850816389842 
1630	 0.39796417200686 
1631	 0.398135436042815 
1632	 0.398268626038496 
1633	 0.398408323820849 
1634	 0.398534910086032 
1635	 0.398598480991356 
1636	 0.398727091570289 
1637	 0.398912955017039 
1638	 0.399056772838842 
1639	 0.399244943860516 
1640	 0.399361798296799 
1641	 0.399410745452651 
1642	 0.399468775221501 
1643	 0.399468211032638 
1644	 0.399512146594385 
1645	 0.399581219389354 
1646	 0.399640748884337 
1647	 0.399738550550236 
1648	 0.399796022720305 
1649	 0.399828304229558 
1650	 0.399839527079503 
1651	 0.399861578701827 
1652	 0.399801657566872 
1653	 0.399719855631201 
1654	 0.399556767680031 
1655	 0.399237819363258 
1656	 0.39900786257154 
1657	 0.398762014131708 
1658	 0.398532453190539 
1659	 0.398411684232827 
1660	 0.398165256819838 
1661	 0.397837662757093 
1662	 0.397502092627848 
1663	 0.397110636523174 
1664	 0.396706807684162 
1665	 0.396336301442666 
1666	 0.395848417295566 
1667	 0.395310513303666 
1668	 0.39467308419261 
1669	 0.393928374917048 
1670	 0.393142364984171 
1671	 0.392242892898668 
1672	 0.391341193131967 
1673	 0.390466196626589 
1674	 0.389431140369895 
1675	 0.388298420382911 
1676	 0.387148755488409 
1677	 0.385883344389161 
1678	 0.384594640274823 
1679	 0.383304164525172 
1680	 0.381926089826255 
1681	 0.380497924634759 
1682	 0.378933544421125 
1683	 0.377261954694412 
1684	 0.375588971284376 
1685	 0.37383466656273 
1686	 0.371998338623693 
1687	 0.370115983294865 
1688	 0.368181501183842 
1689	 0.366095972176589 
1690	 0.36404992548159 
1691	 0.36202884303223 
1692	 0.359983209889583 
1693	 0.357962999569607 
1694	 0.355820405569998 
1695	 0.353593383891719 
1696	 0.351371935257703 
1697	 0.349030730022443 
1698	 0.34673388708442 
1699	 0.344527384426868 
1700	 0.342227363262188 
1701	 0.339828779167261 
1702	 0.337549183430546 
1703	 0.335229305554202 
1704	 0.333022770083288 
1705	 0.330873486817485 
1706	 0.328770651037609 
1707	 0.326902276298899 
1708	 0.325239924347683 
1709	 0.32376146838287 
1710	 0.322398778073763 
1711	 0.321059906930395 
1712	 0.319790082184901 
1713	 0.318533533708072 
1714	 0.317351607759503 
1715	 0.316348236597362 
1716	 0.315374715660608 
1717	 0.31444333345975 
1718	 0.313678969425966 
1719	 0.312895547734292 
1720	 0.312086222533451 
1721	 0.311388958457655 
1722	 0.310686394997345 
1723	 0.310115873109812 
1724	 0.309706664417465 
1725	 0.309452896260848 
1726	 0.309450416946194 
1727	 0.309586291220134 
1728	 0.309891484256169 
1729	 0.310435059846959 
1730	 0.311153901748498 
1731	 0.311922819100099 
1732	 0.312893393908252 
1733	 0.3140086272815 
1734	 0.315201810384224 
1735	 0.31656046852167 
1736	 0.317915964563201 
1737	 0.319199010654991 
1738	 0.320262509481357 
1739	 0.321098525908515 
1740	 0.321680999720574 
1741	 0.322188136858964 
1742	 0.322579971976773 
1743	 0.322805393396662 
1744	 0.322854621067719 
1745	 0.322895967646677 
1746	 0.322720355452571 
1747	 0.322604360121441 
1748	 0.322540047446362 
1749	 0.322402529373642 
1750	 0.322140381560961 
1751	 0.322038472719412 
1752	 0.321963301265864 
1753	 0.321939843154921 
1754	 0.322003608294521 
1755	 0.322102745226993 
1756	 0.322135196349876 
1757	 0.322502549744822 
1758	 0.32304519399061 
1759	 0.323637197302939 
1760	 0.324485115399732 
1761	 0.325428465319952 
1762	 0.32638210206486 
1763	 0.327617851131709 
1764	 0.328812297663099 
1765	 0.330039944526145 
1766	 0.331562079749859 
1767	 0.333065937714712 
1768	 0.334716718485511 
1769	 0.336433181367173 
1770	 0.337938677802939 
1771	 0.339502047048708 
1772	 0.340922829998436 
1773	 0.34225354866659 
1774	 0.343738972481157 
1775	 0.345061284166808 
1776	 0.346369222030489 
1777	 0.347582868593457 
1778	 0.34847460005619 
1779	 0.349355336769225 
1780	 0.350221573183257 
1781	 0.350924127022708 
1782	 0.351653976464015 
1783	 0.352390641572615 
1784	 0.35299686119655 
1785	 0.353788809613963 
1786	 0.354414144042169 
1787	 0.354878697920792 
1788	 0.355345391344486 
1789	 0.35570082477964 
1790	 0.356091673986566 
1791	 0.356500446286248 
1792	 0.356903763032755 
1793	 0.357328812042784 
1794	 0.357668164152194 
1795	 0.357946513836317 
1796	 0.358279255309979 
1797	 0.358677171603662 
1798	 0.359037485404193 
1799	 0.359495090873727 
1800	 0.359928334239291 
1801	 0.352724004182843 
1802	 0.353138751521909 
1803	 0.353492393034877 
1804	 0.353782669969844 
1805	 0.354107439475877 
1806	 0.354424911809798 
1807	 0.354720739750186 
1808	 0.355025412988955 
1809	 0.355370907904951 
1810	 0.355658272330281 
1811	 0.355861930779967 
1812	 0.356146429941905 
1813	 0.356420840570058 
1814	 0.356769247594291 
1815	 0.357132424978659 
1816	 0.357509457117598 
1817	 0.357882871044064 
1818	 0.358229784072916 
1819	 0.358619593933935 
1820	 0.359040136122109 
1821	 0.359466041378031 
1822	 0.359915033907032 
1823	 0.36038467702267 
1824	 0.360832044478075 
1825	 0.361258971677093 
1826	 0.361651880374451 
1827	 0.362011196304822 
1828	 0.362369383444654 
1829	 0.362677231144132 
1830	 0.363023783942596 
1831	 0.363348124110431 
1832	 0.36377059925967 
1833	 0.36417411522356 
1834	 0.36460551996372 
1835	 0.365048807936163 
1836	 0.365382335853543 
1837	 0.365725406882569 
1838	 0.365987292833483 
1839	 0.366319922949331 
1840	 0.366678387336874 
1841	 0.367054560317157 
1842	 0.367432328698943 
1843	 0.367877339428403 
1844	 0.368348377743661 
1845	 0.368713833521225 
1846	 0.3690523642228 
1847	 0.369361257597104 
1848	 0.369678553826202 
1849	 0.369975869171925 
1850	 0.370249949013598 
1851	 0.370535084519901 
1852	 0.370805217523745 
1853	 0.370927893090075 
1854	 0.370985978633576 
1855	 0.371044176611624 
1856	 0.37112954040738 
1857	 0.37127885657684 
1858	 0.371349092485478 
1859	 0.371322663359013 
1860	 0.371180997764827 
1861	 0.371063587868565 
1862	 0.370865867469833 
1863	 0.370735070747094 
1864	 0.370530837359081 
1865	 0.370262239664915 
1866	 0.370024495811579 
1867	 0.36972546845319 
1868	 0.369419279920616 
1869	 0.369107644746918 
1870	 0.368663100175124 
1871	 0.368037425795584 
1872	 0.367438338574983 
1873	 0.36678730427594 
1874	 0.366177585190475 
1875	 0.365482058006969 
1876	 0.364672150984076 
1877	 0.363706426154306 
1878	 0.362485849982182 
1879	 0.361237952079966 
1880	 0.360102092287993 
1881	 0.358843534518524 
1882	 0.357547953866414 
1883	 0.356228863937461 
1884	 0.354760603830263 
1885	 0.352953113891376 
1886	 0.351084178881331 
1887	 0.349111210695146 
1888	 0.346936395427483 
1889	 0.34483283089882 
1890	 0.342585389910534 
1891	 0.340245468158365 
1892	 0.337930014284617 
1893	 0.335505684407601 
1894	 0.332947935889048 
1895	 0.330423563793459 
1896	 0.327821313243885 
1897	 0.325107233673504 
1898	 0.322541137391387 
1899	 0.319953905845834 
1900	 0.317479327385828 
1901	 0.315158515996105 
1902	 0.312710066919736 
1903	 0.310322245619146 
1904	 0.308006402475284 
1905	 0.305683946351162 
1906	 0.303454746142663 
1907	 0.301528424389026 
1908	 0.299679392333555 
1909	 0.297940758070954 
1910	 0.296314030751526 
1911	 0.294598175760734 
1912	 0.293032305278145 
1913	 0.291579449532364 
1914	 0.290149206633778 
1915	 0.288845437741825 
1916	 0.287687353621842 
1917	 0.286514444295818 
1918	 0.285483941391706 
1919	 0.284578716704748 
1920	 0.283615812007402 
1921	 0.282783371653019 
1922	 0.281913718346648 
1923	 0.280982120804878 
1924	 0.280246769604169 
1925	 0.279608581998679 
1926	 0.279019347853803 
1927	 0.278549543941229 
1928	 0.278085678237449 
1929	 0.277666895396284 
1930	 0.277277732626723 
1931	 0.27689122030949 
1932	 0.276588349562185 
1933	 0.276398430432744 
1934	 0.276215826804656 
1935	 0.276122826888084 
1936	 0.276154761747258 
1937	 0.276224499252463 
1938	 0.276342748944533 
1939	 0.276549468016809 
1940	 0.276861040493259 
1941	 0.277165453591952 
1942	 0.27749944630965 
1943	 0.277906585607397 
1944	 0.278277396356162 
1945	 0.278728015710479 
1946	 0.279306476346555 
1947	 0.279790726735629 
1948	 0.280326203619245 
1949	 0.280999546415778 
1950	 0.28166308689731 
1951	 0.28233889468463 
1952	 0.283097756993469 
1953	 0.283957562058101 
1954	 0.284720757618216 
1955	 0.285588584748875 
1956	 0.286503102326261 
1957	 0.287356019970289 
1958	 0.288219294883079 
1959	 0.28907252563809 
1960	 0.289925140052611 
1961	 0.290720110629208 
1962	 0.291491718399685 
1963	 0.292254110325018 
1964	 0.292925551587838 
1965	 0.293659823836219 
1966	 0.294429608091778 
1967	 0.295226254505063 
1968	 0.295959809562161 
1969	 0.29663323099178 
1970	 0.297260311838365 
1971	 0.297888875044503 
1972	 0.298548165973307 
1973	 0.299175260636439 
1974	 0.299812101086686 
1975	 0.300450407854293 
1976	 0.301089611329524 
1977	 0.301703464769618 
1978	 0.302381075459042 
1979	 0.30312730932614 
1980	 0.303782738946864 
1981	 0.304463886524348 
1982	 0.305126562494467 
1983	 0.305747360131481 
1984	 0.306413399019423 
1985	 0.307102799597319 
1986	 0.307779027543745 
1987	 0.308462692373279 
1988	 0.309117052029332 
1989	 0.309835499914689 
1990	 0.310585903388633 
1991	 0.311353357233916 
1992	 0.312176767320055 
1993	 0.312986905858939 
1994	 0.31375545182678 
1995	 0.314560050754829 
1996	 0.315345055398462 
1997	 0.316141948577367 
1998	 0.316978373210628 
1999	 0.317902492675017 
2000	 0.318674998607922 
2001	 0.319429151718386 
2002	 0.320130350403761 
2003	 0.320728644104135 
2004	 0.321329593228088 
2005	 0.321927093194493 
2006	 0.322473398938014 
2007	 0.322996770654247 
2008	 0.323424727190948 
2009	 0.32380001553958 
2010	 0.324183745947951 
2011	 0.324487229413975 
2012	 0.32477241574354 
2013	 0.325050064442267 
2014	 0.325351358099873 
2015	 0.325549256913497 
2016	 0.325733104521303 
2017	 0.325803984761838 
2018	 0.325764902079988 
2019	 0.325699766580152 
2020	 0.325545669587669 
2021	 0.325365105545772 
2022	 0.32520844886881 
2023	 0.325001469354203 
2024	 0.324778643319999 
2025	 0.32451693401526 
2026	 0.324211028144756 
2027	 0.323833444731753 
2028	 0.323460882770268 
2029	 0.323044772663101 
2030	 0.322652417578594 
2031	 0.32226762300251 
2032	 0.321848208084064 
2033	 0.321433285387296 
2034	 0.320992472036582 
2035	 0.320487548787923 
2036	 0.320005189725776 
2037	 0.319587285323906 
2038	 0.319126185902624 
2039	 0.318671074424158 
2040	 0.318231045904057 
2041	 0.317788586343103 
2042	 0.317321044094283 
2043	 0.316887682792421 
2044	 0.316469559549135 
2045	 0.316063073234022 
2046	 0.315648562889912 
2047	 0.315280180408978 
2048	 0.314963899469491 
2049	 0.314648630760009 
2050	 0.314369573884522 
2051	 0.314101312841945 
2052	 0.31375024073186 
2053	 0.313364243476997 
2054	 0.313009344104056 
2055	 0.3125886893805 
2056	 0.312245195927917 
2057	 0.311978058354553 
2058	 0.311678369174481 
2059	 0.311372000795432 
2060	 0.311113903922844 
2061	 0.310885762601959 
2062	 0.310636416244827 
2063	 0.310416027056997 
2064	 0.310179376774767 
2065	 0.30994196072363 
2066	 0.309661227872032 
2067	 0.309402985150167 
2068	 0.309162555580058 
2069	 0.30886219950491 
2070	 0.308475396916606 
2071	 0.308243005209231 
2072	 0.308042707170594 
2073	 0.30784967233065 
2074	 0.30779648432243 
2075	 0.307616943983026 
2076	 0.307374566761121 
2077	 0.307127086685965 
2078	 0.306825226340414 
2079	 0.306556026685726 
2080	 0.306250685326106 
2081	 0.305997858638778 
2082	 0.305786529549758 
2083	 0.305594163216033 
2084	 0.305422030967618 
2085	 0.305209088936976 
2086	 0.304992300018675 
2087	 0.304727699987223 
2088	 0.304536607538366 
2089	 0.304389645233049 
2090	 0.304198650845232 
2091	 0.304014880603692 
2092	 0.303844885988685 
2093	 0.303674416270935 
2094	 0.303468938652531 
2095	 0.303285811094397 
2096	 0.303071717219241 
2097	 0.302811987058314 
2098	 0.302517111109764 
2099	 0.302235650102529 
2100	 0.301995359834354 
2101	 0.301745380108024 
2102	 0.301508922625876 
2103	 0.301218597032068 
2104	 0.300904143539201 
2105	 0.300611318608656 
2106	 0.300296275783179 
2107	 0.299974888196517 
2108	 0.299671880047313 
2109	 0.299365000058296 
2110	 0.299038648544874 
2111	 0.298698454592603 
2112	 0.298359994845112 
2113	 0.298026417876041 
2114	 0.297662993464562 
2115	 0.297308115613165 
2116	 0.29698886050328 
2117	 0.296650558765465 
2118	 0.296291198944338 
2119	 0.295924693092787 
2120	 0.295512902355687 
2121	 0.295045388132638 
2122	 0.294638613640226 
2123	 0.294178970304979 
2124	 0.293822683555328 
2125	 0.293583897127888 
2126	 0.293271556193708 
2127	 0.292970732989168 
2128	 0.29267384192285 
2129	 0.292311650540481 
2130	 0.292025843203884 
2131	 0.291808710020827 
2132	 0.291575218689284 
2133	 0.291336588327795 
2134	 0.29114101824686 
2135	 0.291010994100815 
2136	 0.290961760244943 
2137	 0.290876264331292 
2138	 0.290868427991993 
2139	 0.290798777360588 
2140	 0.290656577486445 
2141	 0.290591739881575 
2142	 0.29051301093148 
2143	 0.290564430328677 
2144	 0.290743808186687 
2145	 0.290837139842055 
2146	 0.290994367931514 
2147	 0.291116575764096 
2148	 0.291176641350756 
2149	 0.29123450414712 
2150	 0.291253910952902 
2151	 0.291360834403379 
2152	 0.29145290922954 
2153	 0.291600674940079 
2154	 0.291954763598286 
2155	 0.292256281679789 
2156	 0.292469414974186 
2157	 0.292663389448361 
2158	 0.292853932495297 
2159	 0.29297004914725 
2160	 0.293095468072809 
2161	 0.293279716269306 
2162	 0.293331437085398 
2163	 0.29322036685056 
2164	 0.29327022085918 
2165	 0.293349175621355 
2166	 0.293422118125193 
2167	 0.293637144495704 
2168	 0.293685865153489 
2169	 0.293565638415655 
2170	 0.293547503325679 
2171	 0.293524004025431 
2172	 0.293504732595588 
2173	 0.293503410357843 
2174	 0.293551594647925 
2175	 0.293645616036638 
2176	 0.293639924281355 
2177	 0.293689345808057 
2178	 0.29379778241296 
2179	 0.29386350356784 
2180	 0.293872833480972 
2181	 0.293967936398514 
2182	 0.294152015774772 
2183	 0.294213377832651 
2184	 0.294225721083515 
2185	 0.294290116605564 
2186	 0.29432317376314 
2187	 0.294355941053059 
2188	 0.294477406568182 
2189	 0.294496862124776 
2190	 0.294389381912675 
2191	 0.294348095018522 
2192	 0.294300210366036 
2193	 0.294270679635515 
2194	 0.294351883683404 
2195	 0.294292238904085 
2196	 0.294136121839942 
2197	 0.293994594180817 
2198	 0.293811222913511 
2199	 0.29365246205712 
2200	 0.293529972879944 
2201	 0.293503804086974 
2202	 0.293363236837674 
2203	 0.293186843348885 
2204	 0.292984885385236 
2205	 0.292735605626394 
2206	 0.292510802465208 
2207	 0.292270070194354 
2208	 0.292035214416332 
2209	 0.291842215835061 
2210	 0.291546326682282 
2211	 0.291157818067794 
2212	 0.29085951733106 
2213	 0.290564888326074 
2214	 0.290243400619403 
2215	 0.289952993217035 
2216	 0.289649952638621 
2217	 0.289321694601576 
2218	 0.2889600793725 
2219	 0.288651967483529 
2220	 0.288272831476476 
2221	 0.287823669775727 
2222	 0.287302277359653 
2223	 0.286795511359095 
2224	 0.286232949529484 
2225	 0.285761852451542 
2226	 0.285242107485549 
2227	 0.284660279198789 
2228	 0.284140132630948 
2229	 0.283401373039587 
2230	 0.282493901631924 
2231	 0.281578614408661 
2232	 0.280586285296379 
2233	 0.279496604451231 
2234	 0.278378097544717 
2235	 0.277079226599845 
2236	 0.275631902096005 
2237	 0.274087274425899 
2238	 0.27240132967521 
2239	 0.270643264302256 
2240	 0.268733045986505 
2241	 0.26681526480525 
2242	 0.264876467792936 
2243	 0.262787755240369 
2244	 0.260654463945421 
2245	 0.258370469916827 
2246	 0.255900812285204 
2247	 0.25334050862964 
2248	 0.250596544993238 
2249	 0.247874222942924 
2250	 0.245066468097064 
2251	 0.242243190500597 
2252	 0.239369328648508 
2253	 0.236617447945435 
2254	 0.233765485009435 
2255	 0.230922050445546 
2256	 0.228409412217257 
2257	 0.225783212351019 
2258	 0.22322246982433 
2259	 0.220801790871534 
2260	 0.218333507543605 
2261	 0.215762416582459 
2262	 0.213412447949674 
2263	 0.211181499716272 
2264	 0.208984492556721 
2265	 0.206868732865497 
2266	 0.204822923068271 
2267	 0.202889295703032 
2268	 0.200946160288509 
2269	 0.199104688987741 
2270	 0.197232386400045 
2271	 0.195307538256972 
2272	 0.193465140004301 
2273	 0.191681152268127 
2274	 0.189900627524727 
2275	 0.188221772302032 
2276	 0.186442033212855 
2277	 0.184573915500913 
2278	 0.182799961284758 
2279	 0.181013887977741 
2280	 0.179236299377747 
2281	 0.17755460233395 
2282	 0.175827549962384 
2283	 0.174036380946056 
2284	 0.172334783457422 
2285	 0.170576398386099 
2286	 0.168542168397183 
2287	 0.16628211170109 
2288	 0.164028913184553 
2289	 0.161805390450516 
2290	 0.159596615782537 
2291	 0.157810152927561 
2292	 0.155940714377999 
2293	 0.153787405557302 
2294	 0.151822737903224 
2295	 0.149722504660814 
2296	 0.147657537728033 
2297	 0.146049688674371 
2298	 0.14491029363476 
2299	 0.143589660293793 
2300	 0.142292045991902 
2301	 0.141476741806204 
2302	 0.140720579757777 
2303	 0.140460997305519 
2304	 0.140868602885307 
2305	 0.141187923043681 
2306	 0.141688146587915 
2307	 0.142380299047246 
2308	 0.143208646697003 
2309	 0.144321698638997 
2310	 0.145731128879594 
2311	 0.147168616973094 
2312	 0.14893727465024 
2313	 0.150638576942603 
2314	 0.152382605157446 
2315	 0.154143675342045 
2316	 0.156018284548669 
2317	 0.157676353067859 
2318	 0.159397923028857 
2319	 0.160819792620906 
2320	 0.162057494893757 
2321	 0.163094039171786 
2322	 0.163857019564079 
2323	 0.164477391611836 
2324	 0.16480300310124 
2325	 0.165180870749236 
2326	 0.165658733653933 
2327	 0.165713057187444 
2328	 0.165491802609564 
2329	 0.165221677851201 
2330	 0.164630778840603 
2331	 0.163949191450603 
2332	 0.163359990832624 
2333	 0.162603352451756 
2334	 0.161883269154562 
2335	 0.161030190967975 
2336	 0.15986633298319 
2337	 0.158808430823838 
2338	 0.157595557504387 
2339	 0.156181585739141 
2340	 0.15487949231844 
2341	 0.153622027405507 
2342	 0.152282483961082 
2343	 0.151012591589709 
2344	 0.149904183260981 
2345	 0.1491971065585 
2346	 0.149036526832959 
2347	 0.148970849697129 
2348	 0.149138312728445 
2349	 0.14967220262963 
2350	 0.150262108030555 
2351	 0.151316475427588 
2352	 0.152840767358311 
2353	 0.154313172024041 
2354	 0.155656324839825 
2355	 0.156733025591314 
2356	 0.157655705354376 
2357	 0.158717473779329 
2358	 0.159652814103746 
2359	 0.160459369358956 
2360	 0.161012408517297 
2361	 0.161323781982661 
2362	 0.161693295655849 
2363	 0.161758457279118 
2364	 0.161978053084935 
2365	 0.162275837079892 
2366	 0.162030826900167 
2367	 0.16173323470398 
2368	 0.161444343240859 
2369	 0.161196285709544 
2370	 0.161059833733114 
2371	 0.161074362211437 
2372	 0.16126373529206 
2373	 0.161253393569389 
2374	 0.161404534750391 
2375	 0.161745911390593 
2376	 0.161747868173604 
2377	 0.16176936087816 
2378	 0.1617411919036 
2379	 0.161472279620597 
2380	 0.161577530096113 
2381	 0.161701017546152 
2382	 0.161704923037915 
2383	 0.161654858921126 
2384	 0.161833525980611 
2385	 0.162014771229948 
2386	 0.162278582895031 
2387	 0.162912149095928 
2388	 0.163223645000203 
2389	 0.163251457634309 
2390	 0.163379443669082 
2391	 0.163466391913308 
2392	 0.163590103693936 
2393	 0.1637836651332 
2394	 0.164006574772679 
2395	 0.164310431638925 
2396	 0.164329170746937 
2397	 0.164098896390913 
2398	 0.16426325302039 
2399	 0.164493322078408 
2400	 0.164632977765708 
2401	 0.165047587578046 
2402	 0.165164148667925 
2403	 0.165088901630883 
2404	 0.16524788549828 
2405	 0.165395808946341 
2406	 0.165271627127852 
2407	 0.165409716965911 
2408	 0.165540448937988 
2409	 0.165533170299621 
2410	 0.165525563974609 
2411	 0.165350440666093 
2412	 0.165155261623706 
2413	 0.165225679565698 
2414	 0.165570945038347 
2415	 0.165960888883411 
2416	 0.166275921110873 
2417	 0.166343656003625 
2418	 0.166210332043844 
2419	 0.165929133226066 
2420	 0.165567445652503 
2421	 0.165670789713215 
2422	 0.165987941967398 
2423	 0.166054258134564 
2424	 0.166370396551602 
2425	 0.166238368276361 
2426	 0.165652471750133 
2427	 0.165348656256748 
2428	 0.164877790145554 
2429	 0.164311005272847 
2430	 0.164112451937684 
2431	 0.164378367490585 
2432	 0.164497454236202 
2433	 0.164820450612099 
2434	 0.165116115751363 
2435	 0.164767318789203 
2436	 0.164630256642176 
2437	 0.16481798090158 
2438	 0.164957591343711 
2439	 0.164926298778203 
2440	 0.164578519450165 
2441	 0.164003988084504 
2442	 0.163354388229016 
2443	 0.162908231087994 
2444	 0.162984970157583 
2445	 0.162622398513655 
2446	 0.162050958488699 
2447	 0.161846930557149 
2448	 0.161275411661545 
2449	 0.161096461143576 
2450	 0.16114501508358 
2451	 0.160904513147999 
2452	 0.160768487752402 
2453	 0.160573237384348 
2454	 0.160372494809029 
2455	 0.160127083869718 
2456	 0.159218283475437 
2457	 0.157895889618951 
2458	 0.156737901021575 
2459	 0.156054019756641 
2460	 0.156549263465145 
2461	 0.156956290998389 
2462	 0.157070186865059 
2463	 0.157098505952098 
2464	 0.156026825721921 
2465	 0.155175983796343 
2466	 0.154809988074443 
2467	 0.154531591322105 
2468	 0.154697831976144 
2469	 0.154643653596697 
2470	 0.154319512902129 
2471	 0.154213084609584 
2472	 0.153915642570822 
2473	 0.153860283077282 
2474	 0.154217238279663 
2475	 0.153637777862406 
2476	 0.152925677701449 
2477	 0.152900531884153 
2478	 0.153171071219933 
2479	 0.153709923048654 
2480	 0.153291277725746 
2481	 0.153290569211863 
2482	 0.153034459939387 
2483	 0.153026235108098 
2484	 0.15343917009108 
2485	 0.153382813287422 
2486	 0.153948649879021 
2487	 0.154982481364209 
2488	 0.155770142174422 
2489	 0.15629399967334 
2490	 0.15604651732509 
2491	 0.155214131356591 
2492	 0.154156975505705 
2493	 0.15385591283874 
2494	 0.154413833353648 
2495	 0.155025783314308 
2496	 0.155454555498095 
2497	 0.1557773709753 
2498	 0.155993547567686 
2499	 0.156192628787129 
2500	 0.157292813924142 
