Wavelength	Tablay400045.asd
350	 0.119036772189382 
351	 0.109090146114611 
352	 6.09521788218863E-02 
353	-2.60244390787063E-02 
354	 0.136524788301342 
355	 0.235138702833623 
356	 0.214840494877855 
357	 0.124340572187515 
358	 0.147877088097888 
359	 0.120554547273158 
360	 0.104868821652239 
361	 0.22975043155414 
362	 0.103295439532843 
363	 4.58188282654917E-02 
364	 0.163207264548768 
365	 0.13059501582531 
366	 9.81201162511238E-02 
367	 9.55391117462445E-02 
368	 0.115692597027348 
369	 0.104831701262337 
370	 8.64643015258064E-02 
371	 0.102324283849655 
372	 0.182403019690629 
373	 0.182785428647995 
374	 0.151235255481685 
375	 0.122199679814766 
376	 8.45995321200554E-02 
377	 0.117259285196832 
378	 0.145703818965771 
379	 0.107923493674051 
380	 8.40468946950113E-02 
381	 0.106506549416679 
382	 0.132710540863847 
383	 9.17909174253107E-02 
384	 7.94775230340385E-02 
385	 0.10253511863914 
386	 0.132872051176015 
387	 0.100349728808018 
388	 0.109870940374551 
389	 0.130685840839971 
390	 0.119799495932438 
391	 0.117411653859798 
392	 9.85150470421692E-02 
393	 7.75899167835487E-02 
394	 8.76511743108517E-02 
395	 9.53808321643217E-02 
396	 8.00615655462311E-02 
397	 5.49404072753758E-02 
398	 7.92964793477797E-02 
399	 9.21394061605727E-02 
400	 9.61745350014939E-02 
401	 0.105061300026913 
402	 9.80189712838221E-02 
403	 9.07742058034254E-02 
404	 0.088635948971065 
405	 0.088713838278168 
406	 9.47019788269846E-02 
407	 9.73355826986774E-02 
408	 9.23778192073315E-02 
409	 0.08630313429401 
410	 8.24268279888383E-02 
411	 8.09791107701889E-02 
412	 0.080889537155714 
413	 8.40901908035888E-02 
414	 7.99835876922437E-02 
415	 7.59164058032591E-02 
416	 9.30299127429223E-02 
417	 0.10255280593859 
418	 9.39135319030575E-02 
419	 7.38125991246199E-02 
420	 7.97152606491785E-02 
421	 8.12808975084818E-02 
422	 7.53492323603776E-02 
423	 7.05808090422982E-02 
424	 7.35118363056868E-02 
425	 7.62994542295933E-02 
426	 7.58069998041494E-02 
427	 7.52331213807383E-02 
428	 7.56129041300299E-02 
429	 0.077259922624965 
430	 7.88185073026324E-02 
431	 7.42717157535036E-02 
432	 7.35673948487481E-02 
433	 7.59052279252513E-02 
434	 7.50177716464169E-02 
435	 7.15873004909402E-02 
436	 6.99871848785274E-02 
437	 7.18009499073734E-02 
438	 7.43431017943295E-02 
439	 7.17398505863144E-02 
440	 6.85954990322503E-02 
441	 6.99158793877117E-02 
442	 6.91031313781521E-02 
443	 6.85930527284057E-02 
444	 6.90487685227145E-02 
445	 6.93622776003018E-02 
446	 6.54642511730127E-02 
447	 6.38655827834882E-02 
448	 0.067858013930181 
449	 7.10615505815059E-02 
450	 7.24596186871816E-02 
451	 7.24900891848051E-02 
452	 7.20044872621244E-02 
453	 6.87065834798293E-02 
454	 6.74081793125191E-02 
455	 6.85477140013006E-02 
456	 6.75631568048583E-02 
457	 6.72548015043506E-02 
458	 6.71936667717513E-02 
459	 6.68004298195744E-02 
460	 6.70162739397059E-02 
461	 6.71386732910074E-02 
462	 6.63876681518681E-02 
463	 6.46526827288918E-02 
464	 6.81730570184889E-02 
465	 6.78057484004642E-02 
466	 6.23142154807501E-02 
467	 6.44007679802715E-02 
468	 0.066653708511999 
469	 6.63210199487466E-02 
470	 6.35099781378612E-02 
471	 6.43585905612211E-02 
472	 6.47936948648642E-02 
473	 6.44167260410031E-02 
474	 6.55927866631054E-02 
475	 6.45729020301677E-02 
476	 6.48609785339936E-02 
477	 6.74466528426134E-02 
478	 6.55039709489325E-02 
479	 6.37319991505412E-02 
480	 6.37202396180464E-02 
481	 6.54108280907847E-02 
482	 6.65784225134627E-02 
483	 6.58035184984087E-02 
484	 6.40913204045293E-02 
485	 6.48688662340609E-02 
486	 6.49720540277829E-02 
487	 6.40304683117041E-02 
488	 6.27371186403747E-02 
489	 0.062962932946945 
490	 6.33395522656119E-02 
491	 6.36164913628645E-02 
492	 6.40681889963254E-02 
493	 6.32916326453914E-02 
494	 6.36096143118831E-02 
495	 6.51626522732025E-02 
496	 6.38551923917168E-02 
497	 6.42567247289958E-02 
498	 6.48122288333298E-02 
499	 6.32213462294294E-02 
500	 0.062173339848761 
501	 6.25440027955452E-02 
502	 6.34679795084878E-02 
503	 6.28381753565967E-02 
504	 6.23064805825088E-02 
505	 6.21978009597525E-02 
506	 6.25804365460584E-02 
507	 6.37249452690854E-02 
508	 6.35294949527358E-02 
509	 0.062830821059289 
510	 0.063376051400126 
511	 6.34516970746772E-02 
512	 0.062865312541902 
513	 6.22372416041188E-02 
514	 6.30205369755827E-02 
515	 6.29182180273383E-02 
516	 6.26350935336282E-02 
517	 6.29585411144388E-02 
518	 0.062102188029672 
519	 6.20090429380266E-02 
520	 6.26188294014118E-02 
521	 6.25622510057471E-02 
522	 6.24266087899196E-02 
523	 0.062399077880762 
524	 6.25485237256898E-02 
525	 0.062875748064268 
526	 6.28229957487189E-02 
527	 6.24001735088564E-02 
528	 6.19802989787382E-02 
529	 0.062665523242031 
530	 6.27421726701747E-02 
531	 0.062127377046373 
532	 6.25450766767742E-02 
533	 6.31054156389557E-02 
534	 6.32646348700629E-02 
535	 6.29103480026086E-02 
536	 6.28791586466165E-02 
537	 6.31421752792435E-02 
538	 6.35790678478595E-02 
539	 6.39709850874276E-02 
540	 6.38345187824705E-02 
541	 0.063735065608387 
542	 6.39259110158206E-02 
543	 6.39852652092372E-02 
544	 6.40695049765942E-02 
545	 6.42916727975626E-02 
546	 6.46354014764931E-02 
547	 6.45052035321212E-02 
548	 6.48254886084447E-02 
549	 6.54061877427189E-02 
550	 6.51376315008399E-02 
551	 6.55834402235014E-02 
552	 6.59588083420689E-02 
553	 6.57604097379567E-02 
554	 0.066272589858307 
555	 6.67532573526443E-02 
556	 6.70666739765201E-02 
557	 6.73743918547848E-02 
558	 6.78971090134338E-02 
559	 0.068316515444379 
560	 6.86578412806796E-02 
561	 6.94965688176264E-02 
562	 0.069854658564399 
563	 7.01688381889215E-02 
564	 7.09423599415106E-02 
565	 7.14176050294306E-02 
566	 7.17011402553547E-02 
567	 7.19399007294918E-02 
568	 7.22954590760672E-02 
569	 7.28085531678947E-02 
570	 7.32528079147447E-02 
571	 7.35781421995644E-02 
572	 7.41698243501957E-02 
573	 7.49627793919425E-02 
574	 7.57416428202387E-02 
575	 7.63061643579819E-02 
576	 7.69953737454002E-02 
577	 7.75191934989923E-02 
578	 7.79783291379214E-02 
579	 0.078931935379784 
580	 7.96603630265679E-02 
581	 0.080307083696835 
582	 0.081034734740627 
583	 8.13798142756488E-02 
584	 8.18971643910547E-02 
585	 8.27855315459986E-02 
586	 8.39324525853541E-02 
587	 8.45729122775641E-02 
588	 0.085236976970551 
589	 8.61273819357736E-02 
590	 8.66301387629403E-02 
591	 8.75400597938237E-02 
592	 8.85382477797056E-02 
593	 0.089161429881578 
594	 8.98508589611709E-02 
595	 9.08037001260535E-02 
596	 9.18271502613566E-02 
597	 0.092432538840802 
598	 9.29147135829233E-02 
599	 9.35254183129663E-02 
600	 9.43808335976147E-02 
601	 9.53347710537366E-02 
602	 9.60886359296107E-02 
603	 9.67031172686966E-02 
604	 9.74052813593651E-02 
605	 9.82684343685022E-02 
606	 9.92110567555335E-02 
607	 0.100112617122275 
608	 0.100827264392628 
609	 0.101502275536742 
610	 0.102090284666971 
611	 0.10260461661732 
612	 0.103395768970049 
613	 0.104350659215454 
614	 0.105137699601815 
615	 0.105405548468844 
616	 0.10604448899465 
617	 0.106759013742473 
618	 0.10734853924929 
619	 0.108076729335792 
620	 0.1087256674959 
621	 0.109264805965658 
622	 0.109771924013731 
623	 0.110520069372461 
624	 0.111140549707482 
625	 0.111675122223822 
626	 0.112530234418504 
627	 0.113084158379207 
628	 0.113426171210108 
629	 0.113814739816239 
630	 0.114622121336305 
631	 0.115159239396345 
632	 0.115463003092802 
633	 0.115890021010748 
634	 0.116495822570716 
635	 0.117151154572383 
636	 0.117731311412805 
637	 0.118143723832093 
638	 0.118635395401212 
639	 0.119136985543399 
640	 0.119577374854368 
641	 0.120159333177475 
642	 0.120709826850401 
643	 0.121239147261717 
644	 0.12183545985 
645	 0.122131340403398 
646	 0.122565936951274 
647	 0.123263052887699 
648	 0.123686648732294 
649	 0.123971526484968 
650	 0.124363321934866 
651	 0.125011633084793 
652	 0.125473412525607 
653	 0.125991211962899 
654	 0.126594125750229 
655	 0.127120528523985 
656	 0.12744190600362 
657	 0.127869449269593 
658	 0.128520569936994 
659	 0.128951348365012 
660	 0.129485640971797 
661	 0.130083799909702 
662	 0.130597075812264 
663	 0.131028388594618 
664	 0.131526022908866 
665	 0.132141212898435 
666	 0.132809624448667 
667	 0.133287388890724 
668	 0.133737826205411 
669	 0.134282369777989 
670	 0.134701911684273 
671	 0.135156020821884 
672	 0.13570277624438 
673	 0.136335051355123 
674	 0.136964962445212 
675	 0.137462914904721 
676	 0.137927531723411 
677	 0.138716123277735 
678	 0.13928719530531 
679	 0.139767263354642 
680	 0.14034138117145 
681	 0.140857346532957 
682	 0.141470032444104 
683	 0.142160142260648 
684	 0.142815967804462 
685	 0.143432504099477 
686	 0.144047043060042 
687	 0.144684602514327 
688	 0.145348724394288 
689	 0.145916133764438 
690	 0.146478947550935 
691	 0.147135948329846 
692	 0.147803319692433 
693	 0.148406132790312 
694	 0.149022710964003 
695	 0.149792871408702 
696	 0.150490602470183 
697	 0.151058860301284 
698	 0.151566526259238 
699	 0.152235423284426 
700	 0.153014307824795 
701	 0.153698711269742 
702	 0.15419462001642 
703	 0.155014838307686 
704	 0.15563170580776 
705	 0.156108056524706 
706	 0.156864659292634 
707	 0.157410677607265 
708	 0.157989116023316 
709	 0.15868203519336 
710	 0.159138887771474 
711	 0.159782255613994 
712	 0.160477061635278 
713	 0.161024733006745 
714	 0.161675904775418 
715	 0.162306643666035 
716	 0.162837821523876 
717	 0.163256048573127 
718	 0.163797573441194 
719	 0.164379991741427 
720	 0.164911554244536 
721	 0.165354926468001 
722	 0.16596820308048 
723	 0.166588521810708 
724	 0.167017280906587 
725	 0.167464565457246 
726	 0.167884989975619 
727	 0.168291205045188 
728	 0.168727255006598 
729	 0.169100023975497 
730	 0.169440610277866 
731	 0.169805128420078 
732	 0.170266121603034 
733	 0.170630790866632 
734	 0.170909598286005 
735	 0.171163087854761 
736	 0.171371506375185 
737	 0.171639021746567 
738	 0.171957039508754 
739	 0.17223110543954 
740	 0.17235282509346 
741	 0.172452956389298 
742	 0.172627432656488 
743	 0.172875918599841 
744	 0.173021300441929 
745	 0.17310414663883 
746	 0.173196350981316 
747	 0.173248742970419 
748	 0.173289542618757 
749	 0.173340095969581 
750	 0.173412100334661 
751	 0.173493483844407 
752	 0.173513511701648 
753	 0.173445648513654 
754	 0.173327531751817 
755	 0.173289459307932 
756	 0.173227603375529 
757	 0.173052985037653 
758	 0.172879522362897 
759	 0.172731976614008 
760	 0.172596856104026 
761	 0.172444729008167 
762	 0.172299499707733 
763	 0.172113251899582 
764	 0.171876887635446 
765	 0.171630387453787 
766	 0.171494802906419 
767	 0.171328585013072 
768	 0.171038729886909 
769	 0.170759849471087 
770	 0.170473441178726 
771	 0.170216304009209 
772	 0.170002053147391 
773	 0.169666022171217 
774	 0.169275695150744 
775	 0.168925244983106 
776	 0.168693765769251 
777	 0.168344939152112 
778	 0.167960268729023 
779	 0.167612114241381 
780	 0.167274062633262 
781	 0.166982739499506 
782	 0.166579633468029 
783	 0.166008047207221 
784	 0.165760209499305 
785	 0.165422467288176 
786	 0.164978864253984 
787	 0.164630946529986 
788	 0.1643198567393 
789	 0.163954218893617 
790	 0.163548128191186 
791	 0.163233451286889 
792	 0.162814202556523 
793	 0.162383905749369 
794	 0.162026762327108 
795	 0.161670251049851 
796	 0.161190579666514 
797	 0.160749806656743 
798	 0.16050649766431 
799	 0.16004105269696 
800	 0.15961054745644 
801	 0.159245408400996 
802	 0.15880733887533 
803	 0.158552532909327 
804	 0.158234661689165 
805	 0.157761721442332 
806	 0.15736486166235 
807	 0.15698798272226 
808	 0.156629126131561 
809	 0.156278985625261 
810	 0.155873196618039 
811	 0.155546010946868 
812	 0.155232527850257 
813	 0.154824699270824 
814	 0.154526751488973 
815	 0.154192305019924 
816	 0.153815818079571 
817	 0.153521311442351 
818	 0.153202121825186 
819	 0.152894941968798 
820	 0.152597580110248 
821	 0.152209203018671 
822	 0.151985813677928 
823	 0.15179073373801 
824	 0.151477942199954 
825	 0.151227383143706 
826	 0.150875506292003 
827	 0.150524841638011 
828	 0.150332237952261 
829	 0.150006549524629 
830	 0.149804051925233 
831	 0.149686044269023 
832	 0.149367854604472 
833	 0.149117329749123 
834	 0.148907981935898 
835	 0.148708210707911 
836	 0.148543111031511 
837	 0.148472162946747 
838	 0.148338777488971 
839	 0.148052535573104 
840	 0.147836320631652 
841	 0.147785530084917 
842	 0.147698008622336 
843	 0.147365096046974 
844	 0.147203373297742 
845	 0.147056196870414 
846	 0.146922529118825 
847	 0.146907075483599 
848	 0.14687743338222 
849	 0.146679710005554 
850	 0.146415805038374 
851	 0.146472015787988 
852	 0.14643678457271 
853	 0.146278916930197 
854	 0.146105268984488 
855	 0.14614019760681 
856	 0.146138851403552 
857	 0.146056092794544 
858	 0.14594468853495 
859	 0.145947691175161 
860	 0.146002112091069 
861	 0.14602945216022 
862	 0.145965237479348 
863	 0.145851198197006 
864	 0.145815854445664 
865	 0.145899334529748 
866	 0.146039903014118 
867	 0.146038192608368 
868	 0.146069832704137 
869	 0.146147709863666 
870	 0.146009649972918 
871	 0.146158529765737 
872	 0.146362100703833 
873	 0.146390358714162 
874	 0.146375877872713 
875	 0.14651233489371 
876	 0.146717631184047 
877	 0.146851634349619 
878	 0.146932678424095 
879	 0.14702273146668 
880	 0.147117477555017 
881	 0.147185519388585 
882	 0.147230781877844 
883	 0.147423913876828 
884	 0.147683208506803 
885	 0.147779484084051 
886	 0.14800589441088 
887	 0.148251832709652 
888	 0.148462538197574 
889	 0.148700211517972 
890	 0.1490220742103 
891	 0.149175272040175 
892	 0.14915630026316 
893	 0.149455342067766 
894	 0.149764334374201 
895	 0.150024461792196 
896	 0.150262075150761 
897	 0.150566232837149 
898	 0.15081594036418 
899	 0.151024988294914 
900	 0.151270000634506 
901	 0.151674823336069 
902	 0.152012610619392 
903	 0.152289260649854 
904	 0.152620416114739 
905	 0.152997399433398 
906	 0.153336322933644 
907	 0.153637943358943 
908	 0.153966463167512 
909	 0.154329839177492 
910	 0.154712068137386 
911	 0.155100313894505 
912	 0.155485285608299 
913	 0.155784669703002 
914	 0.15620435487885 
915	 0.156761930297603 
916	 0.15718611058606 
917	 0.157892095237168 
918	 0.158383193488564 
919	 0.158488384811436 
920	 0.158944050458361 
921	 0.159510019481495 
922	 0.160046733801315 
923	 0.160490999524422 
924	 0.160928234431678 
925	 0.161384428515723 
926	 0.161903676164299 
927	 0.16249271976966 
928	 0.163025200733487 
929	 0.163694778089155 
930	 0.164331692202995 
931	 0.16474914929685 
932	 0.165363973613152 
933	 0.166027419010775 
934	 0.166575385555289 
935	 0.166954794729568 
936	 0.167664556674949 
937	 0.168247992083114 
938	 0.168764222770008 
939	 0.169573577361629 
940	 0.170263880654246 
941	 0.171018068767201 
942	 0.171725063824463 
943	 0.172092348560463 
944	 0.172825467865614 
945	 0.173582000765537 
946	 0.174184472686676 
947	 0.174779180232708 
948	 0.175600371570508 
949	 0.176419819725219 
950	 0.177117987492886 
951	 0.17779749423571 
952	 0.178347584458431 
953	 0.178915269214895 
954	 0.179581866181457 
955	 0.180274997894673 
956	 0.181349566366941 
957	 0.182272761478812 
958	 0.182831981156555 
959	 0.183654685648832 
960	 0.184477036030883 
961	 0.185211729222063 
962	 0.18589058657029 
963	 0.186705752261364 
964	 0.187485798781599 
965	 0.188100801191316 
966	 0.188616968028054 
967	 0.189467588161502 
968	 0.190705762749912 
969	 0.19167071843108 
970	 0.192043889887024 
971	 0.192827789795536 
972	 0.193983962311777 
973	 0.1949680509835 
974	 0.195414189256706 
975	 0.195888751916705 
976	 0.196828232051383 
977	 0.197711741872308 
978	 0.198157202237839 
979	 0.199233250992817 
980	 0.200169097811366 
981	 0.201026268345122 
982	 0.202019567070509 
983	 0.20296768860283 
984	 0.203479238016007 
985	 0.204198693363951 
986	 0.205561345444174 
987	 0.206080701968067 
988	 0.206744123614724 
989	 0.207728477320037 
990	 0.208784342340331 
991	 0.209322687571099 
992	 0.209891545842288 
993	 0.210821174399331 
994	 0.21201353682802 
995	 0.212280223200122 
996	 0.213285115935322 
997	 0.214338028234141 
998	 0.214546381781342 
999	 0.215319285086354 
1000	 0.216346003427955 
1001	 0.218072195303382 
1002	 0.219034336825776 
1003	 0.220021778305027 
1004	 0.220714947059949 
1005	 0.221098602298606 
1006	 0.22176845722739 
1007	 0.222360834743413 
1008	 0.223093871347392 
1009	 0.22404953088826 
1010	 0.224863518374643 
1011	 0.225626598384081 
1012	 0.226428878518019 
1013	 0.227262211117702 
1014	 0.228056531404664 
1015	 0.228954363327257 
1016	 0.229610638414575 
1017	 0.230127260508304 
1018	 0.230781887664701 
1019	 0.231621981493016 
1020	 0.232402093450628 
1021	 0.233134371446035 
1022	 0.234010825003239 
1023	 0.234739947463332 
1024	 0.235258796027534 
1025	 0.235896503801788 
1026	 0.236550895873005 
1027	 0.237213606798139 
1028	 0.237800760606601 
1029	 0.23859427113046 
1030	 0.239447039965271 
1031	 0.240200183048578 
1032	 0.240949417329116 
1033	 0.241587216015979 
1034	 0.242044350457803 
1035	 0.24250769984819 
1036	 0.243163405881767 
1037	 0.24393300574097 
1038	 0.244583288115989 
1039	 0.245438391864225 
1040	 0.246098683731247 
1041	 0.246476041445823 
1042	 0.247036777459535 
1043	 0.247705253482179 
1044	 0.248174596766892 
1045	 0.248792314676729 
1046	 0.249455523377442 
1047	 0.249903699387031 
1048	 0.250423649178544 
1049	 0.250869137079886 
1050	 0.251183633943433 
1051	 0.25160364344467 
1052	 0.252195907881136 
1053	 0.252830130835104 
1054	 0.253611066475033 
1055	 0.254239676229103 
1056	 0.2549105431891 
1057	 0.255518605431447 
1058	 0.255958275983957 
1059	 0.256574814777056 
1060	 0.257308476515915 
1061	 0.257711198899607 
1062	 0.258221087434845 
1063	 0.258848394333607 
1064	 0.259343357156479 
1065	 0.260093444458233 
1066	 0.260758319911294 
1067	 0.26115926255314 
1068	 0.261731230978296 
1069	 0.2622859498708 
1070	 0.262834620347142 
1071	 0.263406609053027 
1072	 0.264049972691243 
1073	 0.264476398520481 
1074	 0.264947817684558 
1075	 0.265558651761314 
1076	 0.266187502385166 
1077	 0.266913268429301 
1078	 0.267557180031042 
1079	 0.268112857981742 
1080	 0.268688524509521 
1081	 0.269173103778795 
1082	 0.26969946061851 
1083	 0.270282323811953 
1084	 0.270782752549278 
1085	 0.2712886098838 
1086	 0.271869872912469 
1087	 0.272547465668553 
1088	 0.273048878834133 
1089	 0.273503105578366 
1090	 0.27416793057943 
1091	 0.274625302653881 
1092	 0.275041497097281 
1093	 0.275600976332945 
1094	 0.276010193839841 
1095	 0.276382662749461 
1096	 0.276896471709533 
1097	 0.277514696495084 
1098	 0.278036481467682 
1099	 0.278474675001889 
1100	 0.279000762340164 
1101	 0.279494440142503 
1102	 0.279887752346236 
1103	 0.280329045207969 
1104	 0.280868484611503 
1105	 0.281330766249696 
1106	 0.281608724931859 
1107	 0.282002860300844 
1108	 0.282435428007087 
1109	 0.282822458424622 
1110	 0.283277479617847 
1111	 0.283691044686935 
1112	 0.28405823326612 
1113	 0.28443360175554 
1114	 0.284807852671126 
1115	 0.285204984859739 
1116	 0.285711953428468 
1117	 0.286143569155516 
1118	 0.286528769736436 
1119	 0.28693249905558 
1120	 0.287293401876775 
1121	 0.287529281022346 
1122	 0.287882171459455 
1123	 0.288347223591891 
1124	 0.288656587949644 
1125	 0.28915450536947 
1126	 0.289549407409396 
1127	 0.289766347127924 
1128	 0.290171376400335 
1129	 0.290475755928779 
1130	 0.290695664190212 
1131	 0.29109336366692 
1132	 0.291485680802032 
1133	 0.291806182325619 
1134	 0.292229726436149 
1135	 0.29256417758959 
1136	 0.292783702445893 
1137	 0.293063789658238 
1138	 0.293345969115075 
1139	 0.293647348540503 
1140	 0.293958945580119 
1141	 0.294352469938859 
1142	 0.29469045832205 
1143	 0.294913804741955 
1144	 0.295179830817301 
1145	 0.295413472916477 
1146	 0.295576448297061 
1147	 0.295885718075991 
1148	 0.296240009686264 
1149	 0.296546469737529 
1150	 0.296841145395457 
1151	 0.297032766814422 
1152	 0.297294357454035 
1153	 0.297518283598534 
1154	 0.297775531219053 
1155	 0.29811721612683 
1156	 0.298421696713585 
1157	 0.298699465039631 
1158	 0.298915693030031 
1159	 0.299083289001528 
1160	 0.299321243352554 
1161	 0.299515908377009 
1162	 0.299696236195804 
1163	 0.300026176492935 
1164	 0.300301504831404 
1165	 0.30047740707167 
1166	 0.300715125578419 
1167	 0.300893406953986 
1168	 0.301045584701603 
1169	 0.301241864582948 
1170	 0.301448200429255 
1171	 0.301688667624947 
1172	 0.301988592298389 
1173	 0.302234177140885 
1174	 0.302529094920345 
1175	 0.302749757688364 
1176	 0.302841787797011 
1177	 0.303024085454183 
1178	 0.303217807119308 
1179	 0.303428902540153 
1180	 0.303664982726369 
1181	 0.303965653334979 
1182	 0.304232109985677 
1183	 0.30434704531554 
1184	 0.304437202390117 
1185	 0.304582240332214 
1186	 0.304760305112873 
1187	 0.304951548386878 
1188	 0.305160940047023 
1189	 0.305459019892093 
1190	 0.305662119091491 
1191	 0.305772734398053 
1192	 0.30598553462844 
1193	 0.306243833303475 
1194	 0.30645498365956 
1195	 0.306709691444673 
1196	 0.306935540072 
1197	 0.307092220937406 
1198	 0.307268861220223 
1199	 0.307533432669816 
1200	 0.307785388974437 
1201	 0.308105428628613 
1202	 0.308357692746861 
1203	 0.308566893048419 
1204	 0.308840468737591 
1205	 0.309080226118185 
1206	 0.309279649942629 
1207	 0.30956325615739 
1208	 0.309878758732265 
1209	 0.310184844123634 
1210	 0.310536867400645 
1211	 0.310871625798044 
1212	 0.31117873176004 
1213	 0.311534305968025 
1214	 0.31193937949121 
1215	 0.312314745437177 
1216	 0.312669909883946 
1217	 0.313055259784227 
1218	 0.313430195890726 
1219	 0.313841139289748 
1220	 0.314317804596182 
1221	 0.314840999152528 
1222	 0.315246279861631 
1223	 0.31563515660263 
1224	 0.316058588589511 
1225	 0.316429009456321 
1226	 0.316834947503378 
1227	 0.317306849680344 
1228	 0.317748154962571 
1229	 0.318172326687129 
1230	 0.318582712986024 
1231	 0.318994915877965 
1232	 0.319413856077166 
1233	 0.319848989732952 
1234	 0.320198961408291 
1235	 0.320520267943548 
1236	 0.320842025581196 
1237	 0.321072768855727 
1238	 0.321337724422692 
1239	 0.321603492776833 
1240	 0.321941836077855 
1241	 0.322221913446078 
1242	 0.322486040727696 
1243	 0.322835839967503 
1244	 0.32327270622449 
1245	 0.323582065621407 
1246	 0.323887499960753 
1247	 0.324190188250837 
1248	 0.324411830666193 
1249	 0.324670939281712 
1250	 0.324960505900425 
1251	 0.325251629582022 
1252	 0.325526288867499 
1253	 0.325807849886885 
1254	 0.326180559267408 
1255	 0.326434865501202 
1256	 0.326592780721352 
1257	 0.326779919983646 
1258	 0.326902151815622 
1259	 0.327058827329947 
1260	 0.327254558944942 
1261	 0.327434998951687 
1262	 0.327575500885853 
1263	 0.32778549669177 
1264	 0.327977425891033 
1265	 0.328176047132162 
1266	 0.328372260103326 
1267	 0.328579129156701 
1268	 0.328772894816193 
1269	 0.328959616838956 
1270	 0.329145675223002 
1271	 0.329323604330517 
1272	 0.329520555773452 
1273	 0.32972246055623 
1274	 0.329922492154571 
1275	 0.330115170009658 
1276	 0.330341027768527 
1277	 0.330598802747572 
1278	 0.330829664481346 
1279	 0.331077274125068 
1280	 0.331313307221668 
1281	 0.331486656928253 
1282	 0.331718022181386 
1283	 0.332000118019483 
1284	 0.332268123471483 
1285	 0.332544055195001 
1286	 0.332848210533125 
1287	 0.333126766848408 
1288	 0.333378635525284 
1289	 0.333674702881204 
1290	 0.334004576938739 
1291	 0.334284943203681 
1292	 0.334542263247421 
1293	 0.334847705251355 
1294	 0.335154117238589 
1295	 0.335450740441968 
1296	 0.335778710483209 
1297	 0.336104684053119 
1298	 0.336420097125529 
1299	 0.33671265866138 
1300	 0.337022828198264 
1301	 0.337315075400842 
1302	 0.337565267259999 
1303	 0.33781504053818 
1304	 0.338072452637347 
1305	 0.338321447557615 
1306	 0.338509397829206 
1307	 0.338756177539784 
1308	 0.339066774992911 
1309	 0.339353146034679 
1310	 0.339587823457902 
1311	 0.339809948130141 
1312	 0.340053664739592 
1313	 0.340248341178728 
1314	 0.34047791535146 
1315	 0.340783454610986 
1316	 0.340995842716532 
1317	 0.341125033398188 
1318	 0.341330573020908 
1319	 0.341577526147074 
1320	 0.341747256777347 
1321	 0.341894208688828 
1322	 0.342065641532294 
1323	 0.342191391002222 
1324	 0.342331787837131 
1325	 0.342511026384038 
1326	 0.34268654901646 
1327	 0.342844416875105 
1328	 0.342994564573962 
1329	 0.343177486854671 
1330	 0.343326311706122 
1331	 0.343433958746262 
1332	 0.343544961684357 
1333	 0.343636526456876 
1334	 0.343752095267454 
1335	 0.343851324640858 
1336	 0.343942258620535 
1337	 0.344021809336188 
1338	 0.344098568612084 
1339	 0.344175890291987 
1340	 0.34424275995149 
1341	 0.344306345326718 
1342	 0.344358329893795 
1343	 0.344436093656518 
1344	 0.344521531402095 
1345	 0.344601109812414 
1346	 0.344714536096943 
1347	 0.344787897423035 
1348	 0.344846748365398 
1349	 0.344874042578815 
1350	 0.344861269496413 
1351	 0.344871713154013 
1352	 0.344859925480922 
1353	 0.34486219455662 
1354	 0.34491011465975 
1355	 0.344909594586218 
1356	 0.344843815844098 
1357	 0.344839488369477 
1358	 0.34487732674432 
1359	 0.344870399883785 
1360	 0.344868541245805 
1361	 0.344878975488351 
1362	 0.344852539604636 
1363	 0.344766655045394 
1364	 0.344721675411126 
1365	 0.344701935939453 
1366	 0.344648245903786 
1367	 0.344578852771539 
1368	 0.344514393372252 
1369	 0.344460342506455 
1370	 0.344353302561982 
1371	 0.344209886583717 
1372	 0.344091459622199 
1373	 0.343961641683496 
1374	 0.343811475716385 
1375	 0.343683792435207 
1376	 0.343514102655329 
1377	 0.343285962745921 
1378	 0.343076383367741 
1379	 0.342848857881852 
1380	 0.342643713491079 
1381	 0.34244574404441 
1382	 0.342247779756702 
1383	 0.342066029131137 
1384	 0.341881065679773 
1385	 0.341699441090313 
1386	 0.341503514142146 
1387	 0.341284537320964 
1388	 0.341103250298579 
1389	 0.340940818610363 
1390	 0.34076403856949 
1391	 0.340601389643482 
1392	 0.340430318591648 
1393	 0.340282047503305 
1394	 0.340172707369597 
1395	 0.340099171443769 
1396	 0.340120134371977 
1397	 0.340032745768607 
1398	 0.339949266418143 
1399	 0.339784605820312 
1400	 0.339534521296813 
1401	 0.339319578533209 
1402	 0.339092943041787 
1403	 0.338820475321622 
1404	 0.338532557628069 
1405	 0.338235776995559 
1406	 0.337911610096395 
1407	 0.337549641436461 
1408	 0.337153162675881 
1409	 0.336776061228464 
1410	 0.336357875208717 
1411	 0.335961099702792 
1412	 0.33557039869938 
1413	 0.335232575959968 
1414	 0.334876340184661 
1415	 0.334592276401733 
1416	 0.334431139386942 
1417	 0.334201320079933 
1418	 0.333958474249595 
1419	 0.333739112256938 
1420	 0.333511182822917 
1421	 0.333287405379547 
1422	 0.333060578643156 
1423	 0.332875969233618 
1424	 0.332706148224979 
1425	 0.332546031657899 
1426	 0.332406556555842 
1427	 0.332303518100891 
1428	 0.332224755371741 
1429	 0.332132373634367 
1430	 0.332007919561902 
1431	 0.331900885817483 
1432	 0.331771487444588 
1433	 0.331565636023526 
1434	 0.331451057182039 
1435	 0.331398544051587 
1436	 0.331296846699377 
1437	 0.331204713258797 
1438	 0.33109846248639 
1439	 0.330942723238699 
1440	 0.330862687400879 
1441	 0.330833075138742 
1442	 0.330763174233833 
1443	 0.330690126706088 
1444	 0.330658454729085 
1445	 0.330599909742814 
1446	 0.330604127356949 
1447	 0.330623174483275 
1448	 0.33076185830807 
1449	 0.330976951937464 
1450	 0.331219607495452 
1451	 0.331582173090177 
1452	 0.331933893989646 
1453	 0.332295026774508 
1454	 0.332669525858554 
1455	 0.333083279264255 
1456	 0.333501443562224 
1457	 0.333933211927412 
1458	 0.33435310941236 
1459	 0.334801797126651 
1460	 0.335221635404472 
1461	 0.33559363275734 
1462	 0.335993402204415 
1463	 0.336428910101609 
1464	 0.336815915266362 
1465	 0.337157571914272 
1466	 0.337563603514701 
1467	 0.337890832768159 
1468	 0.338171679459618 
1469	 0.338520637321336 
1470	 0.338832440248436 
1471	 0.33916299191443 
1472	 0.339505888455312 
1473	 0.339842882712237 
1474	 0.340173513140746 
1475	 0.340511410056315 
1476	 0.340878098347619 
1477	 0.341173843874042 
1478	 0.341438224137392 
1479	 0.34170500310873 
1480	 0.341909622596428 
1481	 0.342181503164478 
1482	 0.342497711540615 
1483	 0.342783382129362 
1484	 0.343092617487468 
1485	 0.343356223924791 
1486	 0.343580499720049 
1487	 0.343819056336254 
1488	 0.34402490365644 
1489	 0.344278568686831 
1490	 0.344567215724245 
1491	 0.344837612335383 
1492	 0.345114772533267 
1493	 0.345399830286698 
1494	 0.34567475929788 
1495	 0.345963684795511 
1496	 0.346255779182165 
1497	 0.346584108722341 
1498	 0.346971918580876 
1499	 0.347292080388479 
1500	 0.347586699565134 
1501	 0.34791290781506 
1502	 0.348215734393322 
1503	 0.348510531543925 
1504	 0.348849584604541 
1505	 0.349163685658477 
1506	 0.349413039159791 
1507	 0.349701820098346 
1508	 0.350074699132481 
1509	 0.350347092786217 
1510	 0.350578688515343 
1511	 0.35078855534916 
1512	 0.350869620069523 
1513	 0.351038325740459 
1514	 0.35128160145284 
1515	 0.351472820516207 
1516	 0.351673241240048 
1517	 0.351869420660042 
1518	 0.352025066475579 
1519	 0.352181273647511 
1520	 0.352368326353573 
1521	 0.352515784393656 
1522	 0.352653329008374 
1523	 0.352804860709155 
1524	 0.352936553663657 
1525	 0.353071705420052 
1526	 0.353185670877078 
1527	 0.353276402259291 
1528	 0.353373648575071 
1529	 0.353459465306106 
1530	 0.353565345793846 
1531	 0.353681100097416 
1532	 0.353777182776391 
1533	 0.353883381119255 
1534	 0.353966377940769 
1535	 0.35401850920123 
1536	 0.354092683831792 
1537	 0.354154852503322 
1538	 0.354259349268335 
1539	 0.354380860356236 
1540	 0.354519686925136 
1541	 0.354692495801505 
1542	 0.354859945314041 
1543	 0.355043175838358 
1544	 0.355208923900851 
1545	 0.355378611960263 
1546	 0.355539032030468 
1547	 0.355669395480207 
1548	 0.355843864695692 
1549	 0.356030285379201 
1550	 0.356237414744713 
1551	 0.356484823287131 
1552	 0.356706123809055 
1553	 0.356923318573266 
1554	 0.357153162759537 
1555	 0.357423703441115 
1556	 0.357599240845454 
1557	 0.357714565599017 
1558	 0.357881448144453 
1559	 0.357995923602671 
1560	 0.358153119177999 
1561	 0.358399502099898 
1562	 0.358574375909475 
1563	 0.358685959421389 
1564	 0.358847752629999 
1565	 0.359029386102489 
1566	 0.359192046325791 
1567	 0.359342336788005 
1568	 0.359535146144363 
1569	 0.359761395240256 
1570	 0.359939151747397 
1571	 0.360132943630253 
1572	 0.360307304957094 
1573	 0.360403438969867 
1574	 0.36056224019405 
1575	 0.360774044734801 
1576	 0.360959408340629 
1577	 0.361158164962518 
1578	 0.36133246968345 
1579	 0.361477832804446 
1580	 0.361641756627521 
1581	 0.361806140461977 
1582	 0.361965210106669 
1583	 0.362112575240241 
1584	 0.362294988072536 
1585	 0.362505299775007 
1586	 0.362685921745305 
1587	 0.362898214310088 
1588	 0.363064951826479 
1589	 0.363147928999885 
1590	 0.36329885468951 
1591	 0.363470086030605 
1592	 0.363648344902487 
1593	 0.363883532594824 
1594	 0.364072934215531 
1595	 0.364245919929855 
1596	 0.364403123562775 
1597	 0.364501690019698 
1598	 0.364661027430224 
1599	 0.364852956464148 
1600	 0.365024744014049 
1601	 0.365266240151135 
1602	 0.365421158091114 
1603	 0.365480531128349 
1604	 0.365590451057752 
1605	 0.365656320763748 
1606	 0.365779875297963 
1607	 0.365969906771461 
1608	 0.366141511815799 
1609	 0.366374482696011 
1610	 0.366520998672531 
1611	 0.366607923750616 
1612	 0.3667091688291 
1613	 0.366744788435701 
1614	 0.366820663873141 
1615	 0.366943545943154 
1616	 0.367037219310789 
1617	 0.367133371423394 
1618	 0.36720945370354 
1619	 0.367245907049453 
1620	 0.367310851757722 
1621	 0.367379291274165 
1622	 0.367447025571189 
1623	 0.36755130020713 
1624	 0.367617163933798 
1625	 0.367640084286705 
1626	 0.367691723556956 
1627	 0.367764202569853 
1628	 0.367799814301438 
1629	 0.367842488960524 
1630	 0.367853739294436 
1631	 0.367794851971582 
1632	 0.367767527127717 
1633	 0.367724551252496 
1634	 0.367729410439621 
1635	 0.367755519466465 
1636	 0.367814950361336 
1637	 0.367962922892626 
1638	 0.368031253246776 
1639	 0.368086821006894 
1640	 0.368121354584292 
1641	 0.368077776088102 
1642	 0.368089176511465 
1643	 0.36813023760265 
1644	 0.368162685111076 
1645	 0.368232440126544 
1646	 0.368243397096502 
1647	 0.368212201547619 
1648	 0.368200237960935 
1649	 0.368148726378569 
1650	 0.368135039165351 
1651	 0.3681756464562 
1652	 0.36816038182268 
1653	 0.368167397333285 
1654	 0.368086577172319 
1655	 0.367920691426748 
1656	 0.367774598527934 
1657	 0.367541753423268 
1658	 0.367393120616203 
1659	 0.36737744447468 
1660	 0.367199990730354 
1661	 0.366964169990184 
1662	 0.36671870918882 
1663	 0.366349733235602 
1664	 0.366022728713633 
1665	 0.365807062676757 
1666	 0.365412011379357 
1667	 0.364886699715838 
1668	 0.364395511945922 
1669	 0.363830116496589 
1670	 0.363252116439713 
1671	 0.362729217690816 
1672	 0.362079671710825 
1673	 0.361293478157489 
1674	 0.360551426130882 
1675	 0.359833233226701 
1676	 0.359007418847456 
1677	 0.358146873420661 
1678	 0.35721400518693 
1679	 0.356117190772002 
1680	 0.355105998757801 
1681	 0.354133752902396 
1682	 0.35307954281828 
1683	 0.352033981737211 
1684	 0.350925196811299 
1685	 0.3497449147812 
1686	 0.348534948971322 
1687	 0.347271269554525 
1688	 0.345983257139306 
1689	 0.344667921887095 
1690	 0.34325129552808 
1691	 0.341778474191043 
1692	 0.340341592140457 
1693	 0.338832643972727 
1694	 0.337343892896288 
1695	 0.335901551725015 
1696	 0.334365302696688 
1697	 0.332785575179751 
1698	 0.331115346319604 
1699	 0.329355563795988 
1700	 0.327706213244582 
1701	 0.325996078807899 
1702	 0.324377766762753 
1703	 0.322853177797028 
1704	 0.321330873479565 
1705	 0.319755301667793 
1706	 0.318392448151424 
1707	 0.317176943557749 
1708	 0.31598853772259 
1709	 0.314911138880482 
1710	 0.313921795651184 
1711	 0.312910427542575 
1712	 0.311983942087993 
1713	 0.311077947381044 
1714	 0.310208550114058 
1715	 0.309472627598936 
1716	 0.308774492362404 
1717	 0.308185278859976 
1718	 0.307607075696756 
1719	 0.306979011320364 
1720	 0.306529184787904 
1721	 0.306104785796816 
1722	 0.305666867583558 
1723	 0.305355088902411 
1724	 0.304947739365581 
1725	 0.30461554549402 
1726	 0.304542352517102 
1727	 0.304532393329579 
1728	 0.304690151644849 
1729	 0.305044270520766 
1730	 0.305421431868049 
1731	 0.305926473537337 
1732	 0.306601097102452 
1733	 0.307240970496481 
1734	 0.307923145247686 
1735	 0.308695734834505 
1736	 0.309489864311941 
1737	 0.310261139277929 
1738	 0.310953007153228 
1739	 0.311501829843454 
1740	 0.311875156925014 
1741	 0.312221830593403 
1742	 0.312571345449247 
1743	 0.312717835252483 
1744	 0.312661490807729 
1745	 0.31260738834641 
1746	 0.312428402665679 
1747	 0.312249381185181 
1748	 0.312016690393282 
1749	 0.31187087252209 
1750	 0.31167816574141 
1751	 0.311549825620901 
1752	 0.311485482536725 
1753	 0.311505829245653 
1754	 0.311585566615501 
1755	 0.311713700279264 
1756	 0.311924937101077 
1757	 0.312186933952134 
1758	 0.312456381452269 
1759	 0.31287687280284 
1760	 0.313440556488803 
1761	 0.313996450074303 
1762	 0.314613394385309 
1763	 0.315329874169255 
1764	 0.316083528643205 
1765	 0.316967005183686 
1766	 0.317976216828263 
1767	 0.319004365830455 
1768	 0.320152335572034 
1769	 0.321359748992572 
1770	 0.32243668275046 
1771	 0.323410999235453 
1772	 0.324336823610873 
1773	 0.325276180225845 
1774	 0.326204824250139 
1775	 0.327086257380637 
1776	 0.327927308579844 
1777	 0.328574460489663 
1778	 0.329071786345849 
1779	 0.329632117469868 
1780	 0.330212165537087 
1781	 0.330770959110391 
1782	 0.331406150187773 
1783	 0.331927364804371 
1784	 0.332320168990666 
1785	 0.332620636763451 
1786	 0.332943148730505 
1787	 0.333286230346531 
1788	 0.333604936923335 
1789	 0.333914473372381 
1790	 0.334178861957582 
1791	 0.334379616750527 
1792	 0.334633344326619 
1793	 0.334906258859407 
1794	 0.33516185866691 
1795	 0.335393153669493 
1796	 0.335642362468264 
1797	 0.335723460555334 
1798	 0.335840037464514 
1799	 0.336090232388751 
1800	 0.336260126974428 
1801	 0.336802868283688 
1802	 0.336967914432206 
1803	 0.337204841778077 
1804	 0.337429134551324 
1805	 0.337664614457612 
1806	 0.337876950983959 
1807	 0.338146913142875 
1808	 0.338366725191762 
1809	 0.338507538597579 
1810	 0.338689271369462 
1811	 0.338911985898296 
1812	 0.339116126867061 
1813	 0.339311097130287 
1814	 0.339481248176707 
1815	 0.339681426795747 
1816	 0.339906606602482 
1817	 0.340134334739883 
1818	 0.340380050698094 
1819	 0.340631812950394 
1820	 0.340861011542077 
1821	 0.341135713425867 
1822	 0.341461388173643 
1823	 0.341788914390586 
1824	 0.34200575336037 
1825	 0.342216036471054 
1826	 0.342455317481756 
1827	 0.342616435006744 
1828	 0.342848278072373 
1829	 0.343204184252199 
1830	 0.343464964166524 
1831	 0.343690993559223 
1832	 0.343865446044339 
1833	 0.344107472401893 
1834	 0.344368086026142 
1835	 0.344625380501929 
1836	 0.344883991763266 
1837	 0.345125779878683 
1838	 0.345317444611631 
1839	 0.345560710719043 
1840	 0.345840889381755 
1841	 0.346086096793635 
1842	 0.346343214672759 
1843	 0.346592264735887 
1844	 0.346772190046508 
1845	 0.346933682066402 
1846	 0.347093526649606 
1847	 0.347222673919406 
1848	 0.347367516353488 
1849	 0.34751713634153 
1850	 0.34766207840031 
1851	 0.34780980696649 
1852	 0.347959068013316 
1853	 0.34808109764832 
1854	 0.348179238358222 
1855	 0.348272823456346 
1856	 0.348312827118862 
1857	 0.348318861957372 
1858	 0.34831223803652 
1859	 0.348283183752115 
1860	 0.348215105148315 
1861	 0.348150368571747 
1862	 0.348066063070565 
1863	 0.347995640507734 
1864	 0.347931119522128 
1865	 0.347826247747333 
1866	 0.347662794615679 
1867	 0.347488480295102 
1868	 0.347209068196204 
1869	 0.346829299937065 
1870	 0.346492450834494 
1871	 0.346159995212808 
1872	 0.345754564263388 
1873	 0.345321663776412 
1874	 0.344920648878893 
1875	 0.344402595305849 
1876	 0.343798658441641 
1877	 0.343211577197905 
1878	 0.342535239151541 
1879	 0.341751692990913 
1880	 0.340964742266951 
1881	 0.340100172563768 
1882	 0.339146951556204 
1883	 0.338143361556043 
1884	 0.337083722637269 
1885	 0.335895796603149 
1886	 0.33469626691312 
1887	 0.333420290078302 
1888	 0.332016950663244 
1889	 0.330569968250584 
1890	 0.328909454455807 
1891	 0.327267618158989 
1892	 0.325668200662239 
1893	 0.323995027417324 
1894	 0.322264860379345 
1895	 0.320661117955325 
1896	 0.318914562915205 
1897	 0.317162200768252 
1898	 0.315582401261127 
1899	 0.313887322115889 
1900	 0.312250943575349 
1901	 0.310647483478309 
1902	 0.308958419561507 
1903	 0.307398643804588 
1904	 0.305904006768157 
1905	 0.304456828610312 
1906	 0.303072089037314 
1907	 0.301875359170532 
1908	 0.300690358290756 
1909	 0.299556738202874 
1910	 0.298524201574884 
1911	 0.297476743787457 
1912	 0.296536689166596 
1913	 0.295670013108268 
1914	 0.294803700282008 
1915	 0.293993159097329 
1916	 0.293237046756144 
1917	 0.292500142210119 
1918	 0.291820425323747 
1919	 0.291189941575208 
1920	 0.29053013001228 
1921	 0.289944085077565 
1922	 0.289419781689213 
1923	 0.288925085712832 
1924	 0.288514995526926 
1925	 0.288137787548406 
1926	 0.287776722925694 
1927	 0.287438432036671 
1928	 0.287084133144054 
1929	 0.28674767613848 
1930	 0.286421117350118 
1931	 0.286097331610404 
1932	 0.285824233307013 
1933	 0.285637196323964 
1934	 0.28554233232393 
1935	 0.285466042514289 
1936	 0.285470756380451 
1937	 0.285498886591806 
1938	 0.285566032303896 
1939	 0.285675150106185 
1940	 0.285838542660008 
1941	 0.286012461354446 
1942	 0.286187999297316 
1943	 0.286385781977909 
1944	 0.28660827488395 
1945	 0.286881731129206 
1946	 0.287249076245826 
1947	 0.287655597030525 
1948	 0.288065204879101 
1949	 0.288497411669444 
1950	 0.288968495308531 
1951	 0.289465623312393 
1952	 0.290002948878403 
1953	 0.290588737212789 
1954	 0.291197918681173 
1955	 0.291828978413827 
1956	 0.292424306830399 
1957	 0.293013847028117 
1958	 0.293643791428558 
1959	 0.294229872306787 
1960	 0.294765872029519 
1961	 0.295302928658948 
1962	 0.29584197812633 
1963	 0.296320240313215 
1964	 0.296748509075657 
1965	 0.29718935911415 
1966	 0.29759814190979 
1967	 0.298012569733057 
1968	 0.29842459714899 
1969	 0.298880991829474 
1970	 0.29933596596643 
1971	 0.299724724686145 
1972	 0.30015049763296 
1973	 0.300565761825478 
1974	 0.300950970895743 
1975	 0.301297074276119 
1976	 0.301703320628896 
1977	 0.302095094235388 
1978	 0.302518521225968 
1979	 0.30300957683318 
1980	 0.303479481357239 
1981	 0.303891726490956 
1982	 0.304289798133854 
1983	 0.30471076399793 
1984	 0.305180461812948 
1985	 0.305682703696325 
1986	 0.306203659844547 
1987	 0.306719493123173 
1988	 0.307226837914071 
1989	 0.307756845598421 
1990	 0.308277238994329 
1991	 0.308846397728526 
1992	 0.30943036318551 
1993	 0.310091199801292 
1994	 0.310749468093482 
1995	 0.31143996564387 
1996	 0.312100294592685 
1997	 0.312692929641828 
1998	 0.313317308048599 
1999	 0.313924272462568 
2000	 0.314527624177827 
2001	 0.315183690983946 
2002	 0.315745919934842 
2003	 0.316244684345695 
2004	 0.316754592148751 
2005	 0.317212250964421 
2006	 0.317671467828065 
2007	 0.318156550304389 
2008	 0.318583974778185 
2009	 0.31897397876211 
2010	 0.319393349346172 
2011	 0.319696532386788 
2012	 0.319914004640724 
2013	 0.320130369192288 
2014	 0.320240261639892 
2015	 0.320428942534618 
2016	 0.320674726572549 
2017	 0.320861595256059 
2018	 0.321085997687013 
2019	 0.321195572497103 
2020	 0.321237541196176 
2021	 0.321203902222158 
2022	 0.321122054708089 
2023	 0.321086624758157 
2024	 0.321097397901239 
2025	 0.321095656454195 
2026	 0.321020685616387 
2027	 0.320909113385936 
2028	 0.320806535391929 
2029	 0.320647485055518 
2030	 0.320491719968001 
2031	 0.320359362260209 
2032	 0.320202867749401 
2033	 0.319977976906928 
2034	 0.319791055272474 
2035	 0.319619520206939 
2036	 0.319473733939863 
2037	 0.319310826306123 
2038	 0.319148580217089 
2039	 0.318958342655412 
2040	 0.31873609844111 
2041	 0.318554548187988 
2042	 0.31834099001758 
2043	 0.318199682804642 
2044	 0.318156195812239 
2045	 0.318025614894501 
2046	 0.3178964543549 
2047	 0.317755140182547 
2048	 0.317525281644169 
2049	 0.317368804643171 
2050	 0.317275195964592 
2051	 0.317145484198449 
2052	 0.317007180304851 
2053	 0.316901582203109 
2054	 0.316760400324613 
2055	 0.316540111973399 
2056	 0.316443207633363 
2057	 0.316436524058862 
2058	 0.31632918600846 
2059	 0.316252506067628 
2060	 0.316153061517545 
2061	 0.315942143054059 
2062	 0.315810312788747 
2063	 0.315762894473114 
2064	 0.315642819665796 
2065	 0.315453742173692 
2066	 0.315352697505039 
2067	 0.315253321384633 
2068	 0.315152015743619 
2069	 0.315071814035379 
2070	 0.315053829728818 
2071	 0.3149797972423 
2072	 0.314873133149553 
2073	 0.314801433204325 
2074	 0.314734477177572 
2075	 0.314670679055967 
2076	 0.314600957726406 
2077	 0.314560436103127 
2078	 0.314586137790151 
2079	 0.314529434483817 
2080	 0.314462641872796 
2081	 0.314375200987439 
2082	 0.314210392581735 
2083	 0.314072111163797 
2084	 0.313893282042167 
2085	 0.313690510895505 
2086	 0.313542867508566 
2087	 0.313364517132752 
2088	 0.313256902030133 
2089	 0.313263239018809 
2090	 0.31317101909151 
2091	 0.313057920672838 
2092	 0.312934461410149 
2093	 0.312760700789806 
2094	 0.312632683180326 
2095	 0.312532718331733 
2096	 0.312406984348681 
2097	 0.312330633062588 
2098	 0.312140887102374 
2099	 0.311941183420905 
2100	 0.311833113962995 
2101	 0.311647325697632 
2102	 0.311448055914275 
2103	 0.311239793948808 
2104	 0.31097328937656 
2105	 0.310752336905574 
2106	 0.310534863773987 
2107	 0.310349839291282 
2108	 0.310251173626562 
2109	 0.310041732447694 
2110	 0.309810988191637 
2111	 0.309550818193873 
2112	 0.30917385907822 
2113	 0.308854895884381 
2114	 0.30857204475323 
2115	 0.308261386941175 
2116	 0.307941858413836 
2117	 0.307641851835579 
2118	 0.307291784855747 
2119	 0.306896484438698 
2120	 0.306561651983641 
2121	 0.306226377774002 
2122	 0.305890732460098 
2123	 0.305608038614872 
2124	 0.305264309273122 
2125	 0.304843805801385 
2126	 0.304503307108941 
2127	 0.304136579510636 
2128	 0.303863096100141 
2129	 0.303700091280971 
2130	 0.303503643428868 
2131	 0.303346898928851 
2132	 0.303189723543806 
2133	 0.303033960294465 
2134	 0.302849394179665 
2135	 0.30271356511754 
2136	 0.302652586499708 
2137	 0.302594994909926 
2138	 0.302614816251816 
2139	 0.30251463317905 
2140	 0.302389268016705 
2141	 0.302256894875751 
2142	 0.30200507133348 
2143	 0.301891323605103 
2144	 0.301845982226939 
2145	 0.301803161736241 
2146	 0.301804158975097 
2147	 0.30181698405688 
2148	 0.301844106586267 
2149	 0.301897222994799 
2150	 0.30199206039167 
2151	 0.302094334431361 
2152	 0.302267289583212 
2153	 0.302358971867083 
2154	 0.302397963287046 
2155	 0.302445505988078 
2156	 0.302463105198363 
2157	 0.302393984277806 
2158	 0.30241198609025 
2159	 0.302493068548317 
2160	 0.302493060396418 
2161	 0.302504987015567 
2162	 0.302444224931376 
2163	 0.302303306885738 
2164	 0.302175323238299 
2165	 0.301997086756536 
2166	 0.301859744601521 
2167	 0.301737144371054 
2168	 0.301603194883256 
2169	 0.301444512519005 
2170	 0.301336196590835 
2171	 0.301277657247127 
2172	 0.301177398723512 
2173	 0.301091212415518 
2174	 0.301018222629908 
2175	 0.300822620357829 
2176	 0.300652734036425 
2177	 0.300544015944317 
2178	 0.300467509230696 
2179	 0.300369029847137 
2180	 0.300319351531554 
2181	 0.300221975602806 
2182	 0.300060986195708 
2183	 0.299965304066662 
2184	 0.299946120479725 
2185	 0.299816943569035 
2186	 0.299654358336452 
2187	 0.299487734813563 
2188	 0.299216752975303 
2189	 0.299027550645733 
2190	 0.298908921653777 
2191	 0.298744833117464 
2192	 0.298589385998572 
2193	 0.298414436593812 
2194	 0.298233714867849 
2195	 0.298017667293591 
2196	 0.297793172283905 
2197	 0.297514162873038 
2198	 0.297240308239847 
2199	 0.296901131457618 
2200	 0.29660668802985 
2201	 0.296331438012696 
2202	 0.296011323341865 
2203	 0.295678586893764 
2204	 0.29535873606913 
2205	 0.295015835466583 
2206	 0.29467535631794 
2207	 0.29432200182989 
2208	 0.294011227182679 
2209	 0.293738865722934 
2210	 0.293411263707692 
2211	 0.29316030807366 
2212	 0.29276699157751 
2213	 0.292137710896297 
2214	 0.291733086971883 
2215	 0.291390112099997 
2216	 0.291049036221929 
2217	 0.290914372289138 
2218	 0.290605259088993 
2219	 0.290150237896939 
2220	 0.289739421517942 
2221	 0.28927072546809 
2222	 0.288863272889144 
2223	 0.288405940128296 
2224	 0.287871208126599 
2225	 0.287401432742129 
2226	 0.286890916141841 
2227	 0.286396266673404 
2228	 0.286006795139387 
2229	 0.285434497197161 
2230	 0.284747443491091 
2231	 0.284073778813788 
2232	 0.283355721721963 
2233	 0.282577505262259 
2234	 0.281864713943519 
2235	 0.280875153721871 
2236	 0.279733441250044 
2237	 0.278463398316887 
2238	 0.276921883571113 
2239	 0.275447987434144 
2240	 0.273917745345428 
2241	 0.272329007564848 
2242	 0.270738553122945 
2243	 0.269031166620688 
2244	 0.267168447179054 
2245	 0.265342509773966 
2246	 0.263482847630698 
2247	 0.261554632706756 
2248	 0.259627203470474 
2249	 0.257613637284251 
2250	 0.255527033051469 
2251	 0.253365776002596 
2252	 0.25098656026617 
2253	 0.248759643663155 
2254	 0.24646645422224 
2255	 0.244174727335305 
2256	 0.242101593384814 
2257	 0.239991733464667 
2258	 0.237902223523502 
2259	 0.235870278110043 
2260	 0.233733260208889 
2261	 0.231465577983386 
2262	 0.229484838318481 
2263	 0.227529645492664 
2264	 0.225739207937358 
2265	 0.224262603462038 
2266	 0.222614699469337 
2267	 0.220962903235865 
2268	 0.219308297465995 
2269	 0.217589424431389 
2270	 0.216032642563631 
2271	 0.214545401776901 
2272	 0.213070652852051 
2273	 0.211723206553189 
2274	 0.21033215262186 
2275	 0.20896038239905 
2276	 0.207548765709472 
2277	 0.206110405701657 
2278	 0.204720220680963 
2279	 0.2033838401756 
2280	 0.201907095937478 
2281	 0.200358249438899 
2282	 0.198843813565946 
2283	 0.197276488748868 
2284	 0.195652745965936 
2285	 0.193985482357464 
2286	 0.192347090339202 
2287	 0.190555473102157 
2288	 0.188695039024668 
2289	 0.187020350494935 
2290	 0.185326915002239 
2291	 0.183641604298093 
2292	 0.181914036496182 
2293	 0.179946407716797 
2294	 0.178120372757739 
2295	 0.176467427860386 
2296	 0.174842214515291 
2297	 0.17348506914156 
2298	 0.172459329630299 
2299	 0.171401007542837 
2300	 0.170368588695058 
2301	 0.169665933830137 
2302	 0.169115339465714 
2303	 0.168862306829504 
2304	 0.168938082170857 
2305	 0.169165816503428 
2306	 0.169605560640403 
2307	 0.170248713273435 
2308	 0.171176099751733 
2309	 0.172140250484702 
2310	 0.173279367568966 
2311	 0.174593915064834 
2312	 0.176152850700308 
2313	 0.177619307522471 
2314	 0.179219016940409 
2315	 0.180794694544535 
2316	 0.182398849165714 
2317	 0.183805958391109 
2318	 0.185288018462635 
2319	 0.186483475697398 
2320	 0.187428926114214 
2321	 0.188250706382659 
2322	 0.188863608597645 
2323	 0.189454340838318 
2324	 0.189924641531483 
2325	 0.190219695636681 
2326	 0.190497130070748 
2327	 0.190544855304136 
2328	 0.190178183548329 
2329	 0.189947652657805 
2330	 0.189793839536527 
2331	 0.189340903974587 
2332	 0.188632357946629 
2333	 0.188085216452077 
2334	 0.187273111967204 
2335	 0.186137467918808 
2336	 0.185054484985165 
2337	 0.183881282190265 
2338	 0.182819492685304 
2339	 0.181897864024281 
2340	 0.181179636451354 
2341	 0.180365662989819 
2342	 0.179092203432125 
2343	 0.178001337069091 
2344	 0.17694346674831 
2345	 0.176214148081439 
2346	 0.176197583547602 
2347	 0.176195548671078 
2348	 0.176320804996191 
2349	 0.176831635624834 
2350	 0.177393173533892 
2351	 0.178205673725628 
2352	 0.179350693803528 
2353	 0.180524591114487 
2354	 0.181635775423421 
2355	 0.182593128167506 
2356	 0.183707916193033 
2357	 0.184777495002644 
2358	 0.18553814320904 
2359	 0.186330484656828 
2360	 0.186792517481456 
2361	 0.187010265874138 
2362	 0.187391231486445 
2363	 0.187510901925404 
2364	 0.187265299499294 
2365	 0.18708598054155 
2366	 0.187026826884447 
2367	 0.186783939961428 
2368	 0.18665656927743 
2369	 0.186831045523043 
2370	 0.186723282394894 
2371	 0.186612885955318 
2372	 0.186730461238109 
2373	 0.186479403508904 
2374	 0.186336091797867 
2375	 0.186446630404966 
2376	 0.186228747768637 
2377	 0.186277223071232 
2378	 0.186299082218376 
2379	 0.185979629055365 
2380	 0.186081066448631 
2381	 0.186055033855682 
2382	 0.186129228205763 
2383	 0.186355108595035 
2384	 0.186588681669098 
2385	 0.186829963662233 
2386	 0.187101101205397 
2387	 0.187412974349331 
2388	 0.187506848355901 
2389	 0.187632367659739 
2390	 0.187736874608914 
2391	 0.18761511314988 
2392	 0.187570529763359 
2393	 0.18759053396187 
2394	 0.187528691378984 
2395	 0.187397944925563 
2396	 0.187476095421151 
2397	 0.187657481390411 
2398	 0.187549859451883 
2399	 0.18732648907007 
2400	 0.187209956343108 
2401	 0.18693575210803 
2402	 0.187158566930591 
2403	 0.187373844379116 
2404	 0.187522235095126 
2405	 0.187763937186549 
2406	 0.187584807722543 
2407	 0.187409679814868 
2408	 0.187147393195561 
2409	 0.18673911484847 
2410	 0.187035592544004 
2411	 0.187466905783521 
2412	 0.187865896071623 
2413	 0.18819625470671 
2414	 0.18820434440598 
2415	 0.188046361617032 
2416	 0.187601455716779 
2417	 0.18722838907484 
2418	 0.187098870608556 
2419	 0.187065800397006 
2420	 0.18707051039172 
2421	 0.187106145703955 
2422	 0.187169691829957 
2423	 0.187406507105996 
2424	 0.187875596151368 
2425	 0.18834898180547 
2426	 0.188648881451867 
2427	 0.188331963424891 
2428	 0.187910087359797 
2429	 0.18770485795507 
2430	 0.187272571230375 
2431	 0.187175544876301 
2432	 0.187009364000868 
2433	 0.186617057264141 
2434	 0.186517392010664 
2435	 0.186421648927872 
2436	 0.18664138752704 
2437	 0.186907576493607 
2438	 0.186853061277643 
2439	 0.18659629267595 
2440	 0.186135398700468 
2441	 0.185971383332436 
2442	 0.186249642831059 
2443	 0.186418914240021 
2444	 0.185770518180179 
2445	 0.184501560873333 
2446	 0.183597318742511 
2447	 0.183127493793653 
2448	 0.183207045682157 
2449	 0.183803872133244 
2450	 0.184483909881943 
2451	 0.184830999491582 
2452	 0.184772090190537 
2453	 0.184677020121138 
2454	 0.183662586833265 
2455	 0.182156419836133 
2456	 0.181332377345176 
2457	 0.180999299429206 
2458	 0.180775351497763 
2459	 0.180432048744198 
2460	 0.180182057024865 
2461	 0.180153245102744 
2462	 0.180022818247663 
2463	 0.179933997529522 
2464	 0.180147057282112 
2465	 0.179918975772621 
2466	 0.179411180594816 
2467	 0.179121375595342 
2468	 0.178525036743659 
2469	 0.177389347934968 
2470	 0.176776892147835 
2471	 0.177274821568259 
2472	 0.178192414540409 
2473	 0.179066381171235 
2474	 0.179648478462767 
2475	 0.180265975940042 
2476	 0.180302620587425 
2477	 0.179844099247627 
2478	 0.179965854321284 
2479	 0.17940912582223 
2480	 0.178525747291376 
2481	 0.178383264335893 
2482	 0.178721092121104 
2483	 0.178211541225838 
2484	 0.17766265739093 
2485	 0.177074460052316 
2486	 0.177172429441922 
2487	 0.17768829203709 
2488	 0.178360237815572 
2489	 0.179241660890847 
2490	 0.179057009534276 
2491	 0.179080860290692 
2492	 0.179994243923352 
2493	 0.180169718667935 
2494	 0.180041141219694 
2495	 0.181071696983662 
2496	 0.181932857259613 
2497	 0.181702166285434 
2498	 0.182253541263778 
2499	 0.182069970399138 
2500	 0.180614432879666 
