Wavelength	Tablay400071.asd
350	 0.183104883273182 
351	 0.254719352683918 
352	 0.259208214663061 
353	 0.141974211209494 
354	 0.126661507547746 
355	 0.189898849581834 
356	 0.228368351863589 
357	 0.179934634781676 
358	 0.100549211223783 
359	 0.117339951871981 
360	 0.192812088006813 
361	 0.208259386697594 
362	 0.172442191903149 
363	 0.129264101850284 
364	 0.113742219459058 
365	 0.114319770551644 
366	 0.105751611751957 
367	 8.21619938798441E-02 
368	 6.62368188701593E-02 
369	 0.167888988299838 
370	 0.163528717196724 
371	 0.100798031724864 
372	 0.154954988205781 
373	 0.115418736210811 
374	 0.094953310179084 
375	 0.134593541702825 
376	 0.123197716707669 
377	 8.84588569705775E-02 
378	 7.39606587952342E-02 
379	 9.90044554319864E-02 
380	 0.118040948815202 
381	 0.121480222501674 
382	 0.10339459583299 
383	 0.066565703378374 
384	 0.054844740308215 
385	 7.17760434350813E-02 
386	 9.96178997959456E-02 
387	 0.107340310494355 
388	 9.79871860046285E-02 
389	 9.51320902917826E-02 
390	 0.10725539680575 
391	 6.70779847599933E-02 
392	 7.22407615137085E-02 
393	 0.100731886321592 
394	 0.061851923994998 
395	 5.83989281145407E-02 
396	 6.57780120622998E-02 
397	 6.41600972512005E-02 
398	 6.91601818939319E-02 
399	 7.17567573957965E-02 
400	 7.44485530745442E-02 
401	 0.078464696332662 
402	 6.41839030965326E-02 
403	 0.058719920769142 
404	 0.064186339603713 
405	 6.46508024502475E-02 
406	 6.89646229990489E-02 
407	 7.06389737267655E-02 
408	 0.065829860822529 
409	 5.89450819459387E-02 
410	 5.07178294657726E-02 
411	 5.06944400080816E-02 
412	 6.26930992170199E-02 
413	 5.21864903377669E-02 
414	 4.80256343865295E-02 
415	 0.054684389254901 
416	 5.31425592026398E-02 
417	 5.73975370307196E-02 
418	 5.53257143403927E-02 
419	 4.27099057550418E-02 
420	 4.25100245834338E-02 
421	 4.11362082145619E-02 
422	 3.95382650433354E-02 
423	 4.26704134588798E-02 
424	 4.25952747078543E-02 
425	 4.75375837804788E-02 
426	 0.055114633563718 
427	 5.04868301965342E-02 
428	 0.048721295993443 
429	 4.68524402403943E-02 
430	 4.24863303717002E-02 
431	 4.73118412118186E-02 
432	 4.86515398278556E-02 
433	 4.52443931895181E-02 
434	 4.22117723258885E-02 
435	 3.98212800548525E-02 
436	 4.10646368313183E-02 
437	 4.41723765735625E-02 
438	 4.00604015204667E-02 
439	 3.82635404135471E-02 
440	 4.01284641074412E-02 
441	 4.33514125265113E-02 
442	 4.13556715510649E-02 
443	 3.98745703485474E-02 
444	 4.07644254692996E-02 
445	 0.042274565455952 
446	 3.97773357510907E-02 
447	 3.79417274840554E-02 
448	 3.94465153306348E-02 
449	 3.98150601797231E-02 
450	 3.94885755029974E-02 
451	 3.89769162312664E-02 
452	 3.87969366618622E-02 
453	 3.84806412582289E-02 
454	 3.73269755586165E-02 
455	 3.67211384560043E-02 
456	 4.00231844920155E-02 
457	 3.73258094632275E-02 
458	 3.42509816295356E-02 
459	 3.59571918353735E-02 
460	 3.62043656587426E-02 
461	 0.03793256662553 
462	 3.93375195935497E-02 
463	 3.70096413538897E-02 
464	 3.58834506426335E-02 
465	 3.65707127953481E-02 
466	 3.77326262832014E-02 
467	 3.58330504953219E-02 
468	 3.66717129259193E-02 
469	 3.77974958166535E-02 
470	 3.62703169103395E-02 
471	 3.71483286722863E-02 
472	 3.74942501797346E-02 
473	 3.62655585625491E-02 
474	 3.42893653107589E-02 
475	 3.49750272489755E-02 
476	 3.55797546508725E-02 
477	 3.45223486695472E-02 
478	 3.48825187654806E-02 
479	 3.43305779356632E-02 
480	 3.36318440123976E-02 
481	 3.42516721371555E-02 
482	 3.45491658931599E-02 
483	 3.50298772646371E-02 
484	 3.53944648540205E-02 
485	 3.43609489372734E-02 
486	 3.42847168051365E-02 
487	 0.034738270377853 
488	 0.034940040429415 
489	 3.51573314459481E-02 
490	 3.46582644535127E-02 
491	 3.40295980172512E-02 
492	 3.44528870550488E-02 
493	 3.52628025971773E-02 
494	 3.50047194261039E-02 
495	 0.033694784430822 
496	 3.37750612642264E-02 
497	 3.38327405899599E-02 
498	 3.39693760907334E-02 
499	 3.43851772154722E-02 
500	 3.37746050569193E-02 
501	 3.32393145198449E-02 
502	 0.033231941055553 
503	 0.033504023900222 
504	 3.27515378795156E-02 
505	 0.032628376435654 
506	 3.37906413633235E-02 
507	 3.32782051280078E-02 
508	 0.033452228361832 
509	 3.39394129106658E-02 
510	 3.34279570884364E-02 
511	 3.27404554248597E-02 
512	 3.22004635847751E-02 
513	 0.032052951966782 
514	 3.25135566963452E-02 
515	 3.25900462221903E-02 
516	 3.22081948891052E-02 
517	 3.16645431537084E-02 
518	 0.031545251830692 
519	 3.15519409333893E-02 
520	 3.15461036763291E-02 
521	 3.15322850412838E-02 
522	 3.17557971804181E-02 
523	 3.19875967071791E-02 
524	 3.21144851718273E-02 
525	 3.24181200563427E-02 
526	 3.22695765772027E-02 
527	 0.032060881564291 
528	 0.032329913144512 
529	 3.23374722400943E-02 
530	 3.19887856146467E-02 
531	 3.15712849394532E-02 
532	 0.03169665210356 
533	 3.19337317961799E-02 
534	 3.18603078862144E-02 
535	 3.14100653085056E-02 
536	 3.14569132869607E-02 
537	 3.17799352359086E-02 
538	 3.19812612181294E-02 
539	 3.16894446823072E-02 
540	 3.16900297016418E-02 
541	 0.031894737186676 
542	 3.20493645219554E-02 
543	 3.18036837529088E-02 
544	 3.14241424948638E-02 
545	 3.12130922056582E-02 
546	 3.13588437320482E-02 
547	 0.031533260876751 
548	 3.17201304414036E-02 
549	 3.17152267736535E-02 
550	 3.12106309730503E-02 
551	 0.031430112181682 
552	 3.17249938165383E-02 
553	 3.15321575492141E-02 
554	 3.13585672623171E-02 
555	 3.13200024032035E-02 
556	 3.13936570037566E-02 
557	 3.14854824103302E-02 
558	 3.16690326632509E-02 
559	 3.18163393866586E-02 
560	 3.18981932167157E-02 
561	 3.20459767596965E-02 
562	 3.20172018652368E-02 
563	 3.20509425112891E-02 
564	 3.23327751487572E-02 
565	 3.23286833186674E-02 
566	 3.24940552111891E-02 
567	 3.27644178043695E-02 
568	 3.27321283425921E-02 
569	 3.29636040077771E-02 
570	 3.32545720650278E-02 
571	 3.33879940763748E-02 
572	 3.33353820851734E-02 
573	 0.033436161347473 
574	 3.37116779629651E-02 
575	 3.40391896158012E-02 
576	 3.42891228785382E-02 
577	 3.45761021035842E-02 
578	 3.49317187818724E-02 
579	 3.52741597071129E-02 
580	 3.55110707187426E-02 
581	 3.58666156007488E-02 
582	 3.64454917322619E-02 
583	 3.67176831274284E-02 
584	 3.73085154486302E-02 
585	 3.81125269955433E-02 
586	 3.86351771722084E-02 
587	 3.91098256865506E-02 
588	 3.96962180691382E-02 
589	 4.04394391388795E-02 
590	 4.12070273616478E-02 
591	 4.21646077183227E-02 
592	 4.31129884596611E-02 
593	 4.38713632850012E-02 
594	 4.48035505510164E-02 
595	 4.58469093821326E-02 
596	 4.69914367484497E-02 
597	 4.82762563228219E-02 
598	 4.96266828793443E-02 
599	 5.09084159797582E-02 
600	 5.21639720468223E-02 
601	 5.38555301907165E-02 
602	 0.055699926627351 
603	 5.76336626800052E-02 
604	 5.96909522761466E-02 
605	 6.19517102748175E-02 
606	 6.43980035965761E-02 
607	 6.71398660244716E-02 
608	 7.04412933445487E-02 
609	 7.35605375855894E-02 
610	 7.68202697762389E-02 
611	 8.06484418049049E-02 
612	 8.48422432179884E-02 
613	 8.92396247594478E-02 
614	 9.38605763603457E-02 
615	 9.88401288490524E-02 
616	 0.10397787819216 
617	 0.109400442367771 
618	 0.115143309878017 
619	 0.121000778064853 
620	 0.127225059221218 
621	 0.133631034233028 
622	 0.139985350373722 
623	 0.14653632313224 
624	 0.153245391756417 
625	 0.159934929272982 
626	 0.166340066718422 
627	 0.172844267187278 
628	 0.179389071167087 
629	 0.18584326948301 
630	 0.19210986403016 
631	 0.198258860402439 
632	 0.204078330613364 
633	 0.209359627075445 
634	 0.214893861153173 
635	 0.220285905876142 
636	 0.225340350585306 
637	 0.23021221408741 
638	 0.234585044565301 
639	 0.238837093168393 
640	 0.243215418014105 
641	 0.246991257609591 
642	 0.250515764371941 
643	 0.253913561403243 
644	 0.257154799907579 
645	 0.260052782153371 
646	 0.262811810889581 
647	 0.265534520112699 
648	 0.268089579900701 
649	 0.270514991314535 
650	 0.272757744698841 
651	 0.274798987515316 
652	 0.276870709262357 
653	 0.278730110905406 
654	 0.280376648940922 
655	 0.282013611067794 
656	 0.283679872076017 
657	 0.285257183749871 
658	 0.286666198210936 
659	 0.287971346397052 
660	 0.289090364981787 
661	 0.29019510625557 
662	 0.291455473170143 
663	 0.292485011007503 
664	 0.293541013667662 
665	 0.294650229794315 
666	 0.295581275266465 
667	 0.296401372496719 
668	 0.297273910346739 
669	 0.298246307052305 
670	 0.299021018255651 
671	 0.299747658197222 
672	 0.300455591773234 
673	 0.301133961734452 
674	 0.301841417481113 
675	 0.302555674376793 
676	 0.303250987580482 
677	 0.303909015058542 
678	 0.304412206364464 
679	 0.30487254922654 
680	 0.305422390377728 
681	 0.306110314494916 
682	 0.306593811821038 
683	 0.307029239667587 
684	 0.307765374038876 
685	 0.308281372246339 
686	 0.308702318442233 
687	 0.309167678122809 
688	 0.309739610385967 
689	 0.310287698464696 
690	 0.31072557991791 
691	 0.311049644999543 
692	 0.311478126497269 
693	 0.311834235617084 
694	 0.312164669103348 
695	 0.312633006195174 
696	 0.313077050184695 
697	 0.31353229577318 
698	 0.313938434414262 
699	 0.314038815513659 
700	 0.314411277679328 
701	 0.314974684090008 
702	 0.315467926709501 
703	 0.315749218194133 
704	 0.316042541522963 
705	 0.316377147515956 
706	 0.316658899939292 
707	 0.317076193389307 
708	 0.317470018588843 
709	 0.317737754230246 
710	 0.317936124926711 
711	 0.318223200169843 
712	 0.318590189439119 
713	 0.318965780659494 
714	 0.319278208208429 
715	 0.319603913068097 
716	 0.319913556077686 
717	 0.3201312073532 
718	 0.320571408791619 
719	 0.320933153324997 
720	 0.32109935984466 
721	 0.321397217709097 
722	 0.321756770667586 
723	 0.3220336445672 
724	 0.322184999020196 
725	 0.322688229434678 
726	 0.323123709126811 
727	 0.323358225353136 
728	 0.323506727010207 
729	 0.323834626529981 
730	 0.324082042643481 
731	 0.324207474553686 
732	 0.324643491803599 
733	 0.325009586796748 
734	 0.325270347195828 
735	 0.325506577167166 
736	 0.325831444255052 
737	 0.326135528734349 
738	 0.326429433635323 
739	 0.326786681845503 
740	 0.327065100106228 
741	 0.327338465827745 
742	 0.327646079743616 
743	 0.327937553754818 
744	 0.328190530829714 
745	 0.328454167917674 
746	 0.328772385258069 
747	 0.329108087271651 
748	 0.329402130696413 
749	 0.329720141802469 
750	 0.330153307459978 
751	 0.330383471504805 
752	 0.330651738388121 
753	 0.33104027362135 
754	 0.331357111742245 
755	 0.331742298936781 
756	 0.332070188471121 
757	 0.332283362965667 
758	 0.332696663314132 
759	 0.333000415205404 
760	 0.333252051881796 
761	 0.333650374676148 
762	 0.334118779617261 
763	 0.334430009461574 
764	 0.334657000011718 
765	 0.335173409286625 
766	 0.335619079479373 
767	 0.336007605132156 
768	 0.33638601076521 
769	 0.336703089890489 
770	 0.336997997290462 
771	 0.337342433805082 
772	 0.337787773838847 
773	 0.338252668098766 
774	 0.33858076889896 
775	 0.338864098895384 
776	 0.339359123566535 
777	 0.339740523582505 
778	 0.340108175428174 
779	 0.340525064633219 
780	 0.340883828189495 
781	 0.341295645159009 
782	 0.341724185881629 
783	 0.342121285302155 
784	 0.342564168449241 
785	 0.342922847751394 
786	 0.343214988737108 
787	 0.343540827668368 
788	 0.343905520944243 
789	 0.344293525118971 
790	 0.344701776121064 
791	 0.34514086297324 
792	 0.345424375410839 
793	 0.345774960117237 
794	 0.346299264179799 
795	 0.346609707695034 
796	 0.34698191529366 
797	 0.347391274441365 
798	 0.347740722428832 
799	 0.348147472411959 
800	 0.348469345888442 
801	 0.348734408900754 
802	 0.349096650211512 
803	 0.349501782937017 
804	 0.349849755225601 
805	 0.350155479562418 
806	 0.35061007830562 
807	 0.350933620242262 
808	 0.351257182861923 
809	 0.351700370590696 
810	 0.352045806489371 
811	 0.352279051687775 
812	 0.352546535015543 
813	 0.35299293372884 
814	 0.353302916970504 
815	 0.353570209360678 
816	 0.353848407070386 
817	 0.354137864321468 
818	 0.354532289011925 
819	 0.354887226930638 
820	 0.355140066315627 
821	 0.35541910525657 
822	 0.355696755485692 
823	 0.355948763835714 
824	 0.356161575785662 
825	 0.356347704907587 
826	 0.356621410939492 
827	 0.356930670463779 
828	 0.357154974784358 
829	 0.357273245695097 
830	 0.357495615575733 
831	 0.357803708751591 
832	 0.357984847307454 
833	 0.358131160596929 
834	 0.358311659250242 
835	 0.358546012870869 
836	 0.358782078877793 
837	 0.35905130583743 
838	 0.359253448157525 
839	 0.359344350747559 
840	 0.359517315230317 
841	 0.35965934843208 
842	 0.359796959529978 
843	 0.360013938681132 
844	 0.360419879118995 
845	 0.360552668953088 
846	 0.360502960251996 
847	 0.360722467134675 
848	 0.360875427629774 
849	 0.36095978305983 
850	 0.361028650401802 
851	 0.361151832027353 
852	 0.361270024673138 
853	 0.361376424167678 
854	 0.361521713908505 
855	 0.361869979666564 
856	 0.361995880014364 
857	 0.361998784612484 
858	 0.362085906781513 
859	 0.362180638027114 
860	 0.362287076195386 
861	 0.362407831222918 
862	 0.362534119008443 
863	 0.3626081046853 
864	 0.362598445600464 
865	 0.36259460926453 
866	 0.362750466268227 
867	 0.362806712741994 
868	 0.362955905204113 
869	 0.36315862816565 
870	 0.363007848508593 
871	 0.363092893183914 
872	 0.363215684779688 
873	 0.363191518806043 
874	 0.363251451688455 
875	 0.363371279575652 
876	 0.363485483298481 
877	 0.363533083992072 
878	 0.363536599822542 
879	 0.363535185097066 
880	 0.363466356146514 
881	 0.363306335357028 
882	 0.363489303526684 
883	 0.363774365056775 
884	 0.363915864780348 
885	 0.363769518493727 
886	 0.363702898564986 
887	 0.363778115731054 
888	 0.363851177349721 
889	 0.363637735026409 
890	 0.363701578777617 
891	 0.363835294135935 
892	 0.363874139285263 
893	 0.363971292219861 
894	 0.364010618273878 
895	 0.363905551960606 
896	 0.363757996552403 
897	 0.364163966297913 
898	 0.364099278009467 
899	 0.363858905860755 
900	 0.363972279496034 
901	 0.363977481787522 
902	 0.36408328375879 
903	 0.364302554924205 
904	 0.364496945215514 
905	 0.364323983087593 
906	 0.364210560533986 
907	 0.364261266893114 
908	 0.364320441800218 
909	 0.364447400101764 
910	 0.364514278056476 
911	 0.364525414065908 
912	 0.364617996445633 
913	 0.364667099277861 
914	 0.364825335671796 
915	 0.365064963624369 
916	 0.365085218495004 
917	 0.365122851229748 
918	 0.365124849731405 
919	 0.365088274459836 
920	 0.365201222488574 
921	 0.365180013846143 
922	 0.36523332448549 
923	 0.365515103008446 
924	 0.365735801415657 
925	 0.365768796656173 
926	 0.365752861708849 
927	 0.365871340893016 
928	 0.366127599788305 
929	 0.36618383849446 
930	 0.366112833517721 
931	 0.366150246540796 
932	 0.366357069562915 
933	 0.366658222012817 
934	 0.36683206008044 
935	 0.36672475126023 
936	 0.366895179762598 
937	 0.36708760013708 
938	 0.367154899550899 
939	 0.367133490511223 
940	 0.367483056417071 
941	 0.367806943635736 
942	 0.367949223124069 
943	 0.368022525654193 
944	 0.367906114262154 
945	 0.367837096166124 
946	 0.368023419891629 
947	 0.368525352150192 
948	 0.368734408738479 
949	 0.368948337960045 
950	 0.369145365705594 
951	 0.368817159795169 
952	 0.368861553845543 
953	 0.369132957696914 
954	 0.369367287077137 
955	 0.369437132344985 
956	 0.369379243906093 
957	 0.369251032564003 
958	 0.369232584424356 
959	 0.369662902231694 
960	 0.370107234160001 
961	 0.370344100702538 
962	 0.370353731226347 
963	 0.370384933752826 
964	 0.37030583455627 
965	 0.370267497071346 
966	 0.370354436231153 
967	 0.37033711208379 
968	 0.370832527044305 
969	 0.371119315735996 
970	 0.370752203761571 
971	 0.37091614484226 
972	 0.371188884212177 
973	 0.371391898136109 
974	 0.37149504183429 
975	 0.371729128503385 
976	 0.371641623028088 
977	 0.371550143161998 
978	 0.371761864014747 
979	 0.371766271989907 
980	 0.371826357848285 
981	 0.371861158342895 
982	 0.371840564135546 
983	 0.372269784043775 
984	 0.372426063676124 
985	 0.372446535052839 
986	 0.372689480608398 
987	 0.373214699517434 
988	 0.372900268048156 
989	 0.372484313615679 
990	 0.372811106988118 
991	 0.372599187301008 
992	 0.372791216438885 
993	 0.373246052395284 
994	 0.37354541011096 
995	 0.373826916184719 
996	 0.373515017183022 
997	 0.373500629699786 
998	 0.374391296288345 
999	 0.374091484350743 
1000	 0.374088064016542 
1001	 0.369994157169198 
1002	 0.369977744804424 
1003	 0.370196576983117 
1004	 0.370364777248116 
1005	 0.370578762228251 
1006	 0.370738899006802 
1007	 0.370936371352597 
1008	 0.371055585379048 
1009	 0.371138390768033 
1010	 0.371187096344635 
1011	 0.371120342410522 
1012	 0.371183661581284 
1013	 0.371222176367292 
1014	 0.371338366846419 
1015	 0.371480654162662 
1016	 0.371934558829978 
1017	 0.372250651811029 
1018	 0.372195486113771 
1019	 0.372090737205153 
1020	 0.371920855134004 
1021	 0.371975119424664 
1022	 0.372125594648251 
1023	 0.372258098288527 
1024	 0.37257002563874 
1025	 0.372736189875494 
1026	 0.372788185200904 
1027	 0.372848608544224 
1028	 0.372907941453516 
1029	 0.372992946265265 
1030	 0.373009862432339 
1031	 0.372939009042986 
1032	 0.373036690125659 
1033	 0.373341481426526 
1034	 0.373418006990541 
1035	 0.37326918336829 
1036	 0.373309227728894 
1037	 0.373245021938363 
1038	 0.37335631304875 
1039	 0.373732530470285 
1040	 0.373970664471022 
1041	 0.374203190715597 
1042	 0.374341914457401 
1043	 0.374384243441503 
1044	 0.374509685853699 
1045	 0.374482098713367 
1046	 0.374473053685286 
1047	 0.374633866790971 
1048	 0.374736947022042 
1049	 0.374997676921143 
1050	 0.375243392066279 
1051	 0.375108500448654 
1052	 0.375078154380956 
1053	 0.375157477308659 
1054	 0.37522900548817 
1055	 0.375336942343461 
1056	 0.375651137227825 
1057	 0.375757192227619 
1058	 0.37576015327135 
1059	 0.375786299138424 
1060	 0.37569206101994 
1061	 0.375752568069989 
1062	 0.375766175874071 
1063	 0.375589352397789 
1064	 0.375650062044975 
1065	 0.375836358097098 
1066	 0.375624125396574 
1067	 0.375586147623493 
1068	 0.375812674294784 
1069	 0.37566735950453 
1070	 0.375630444063442 
1071	 0.375785203478421 
1072	 0.37592718630199 
1073	 0.375619866985029 
1074	 0.37538666086622 
1075	 0.375277270096512 
1076	 0.375318446476064 
1077	 0.375455817322861 
1078	 0.375596743180718 
1079	 0.375732353252487 
1080	 0.375624108284039 
1081	 0.375511858734792 
1082	 0.375655361734673 
1083	 0.375739271206478 
1084	 0.37584032288551 
1085	 0.375986614119106 
1086	 0.375994153559733 
1087	 0.375832376114125 
1088	 0.375752553652357 
1089	 0.375757130031331 
1090	 0.375718561877017 
1091	 0.375857120687526 
1092	 0.376024272450852 
1093	 0.376198158559976 
1094	 0.376377856193392 
1095	 0.376371603678895 
1096	 0.376348841108545 
1097	 0.376346144456413 
1098	 0.376292577103563 
1099	 0.376359624763632 
1100	 0.376496056238697 
1101	 0.376607553194098 
1102	 0.37670647922554 
1103	 0.376750489515863 
1104	 0.376737347732154 
1105	 0.376769704620483 
1106	 0.376923351057572 
1107	 0.377115515744112 
1108	 0.377387208586477 
1109	 0.377710605726347 
1110	 0.377916915626754 
1111	 0.378029885731964 
1112	 0.378190907806204 
1113	 0.378381517541322 
1114	 0.378534017379946 
1115	 0.378614034056305 
1116	 0.378759413184629 
1117	 0.378899879324535 
1118	 0.379025962997588 
1119	 0.379149300627267 
1120	 0.379323008890074 
1121	 0.379533686695684 
1122	 0.379638688974846 
1123	 0.379816418625813 
1124	 0.380040127158822 
1125	 0.380315214583536 
1126	 0.380627378681203 
1127	 0.380824717696613 
1128	 0.380985940703604 
1129	 0.381190610110348 
1130	 0.381359478945019 
1131	 0.381590295195468 
1132	 0.381828045350796 
1133	 0.381924830608434 
1134	 0.38202949505941 
1135	 0.382163457208178 
1136	 0.382302594397363 
1137	 0.382446781912329 
1138	 0.382631812993284 
1139	 0.382780489928695 
1140	 0.382888790798069 
1141	 0.383076668372836 
1142	 0.383265589618848 
1143	 0.38341943501575 
1144	 0.383539921876907 
1145	 0.383585751528499 
1146	 0.383653509015006 
1147	 0.383681221397188 
1148	 0.383706341271364 
1149	 0.383787438401658 
1150	 0.383737189906022 
1151	 0.383675838894897 
1152	 0.383695407303442 
1153	 0.383761919052118 
1154	 0.383785505189215 
1155	 0.383895006892417 
1156	 0.383891765417843 
1157	 0.383796399229627 
1158	 0.38373114261048 
1159	 0.383630071006705 
1160	 0.383538039867446 
1161	 0.383497906741573 
1162	 0.383427308236362 
1163	 0.383386449398312 
1164	 0.383371472873338 
1165	 0.383233328284204 
1166	 0.383030302678731 
1167	 0.382854908594209 
1168	 0.382649013387292 
1169	 0.382517077561461 
1170	 0.382499153187842 
1171	 0.382386934751792 
1172	 0.38222438959868 
1173	 0.382141348184463 
1174	 0.382088923120961 
1175	 0.381972316148736 
1176	 0.381903970935494 
1177	 0.381783400805046 
1178	 0.381541166564536 
1179	 0.381390280943325 
1180	 0.381268661311903 
1181	 0.381067671828358 
1182	 0.380900060850792 
1183	 0.380745360376634 
1184	 0.380612313804896 
1185	 0.38051924947645 
1186	 0.380480963318694 
1187	 0.380520149636098 
1188	 0.380493256301068 
1189	 0.38048702689989 
1190	 0.380476642186747 
1191	 0.38041553588559 
1192	 0.380399427728368 
1193	 0.380413106183151 
1194	 0.380448586536591 
1195	 0.380504606994925 
1196	 0.380561107985642 
1197	 0.380650734905334 
1198	 0.380730723962744 
1199	 0.380774738909901 
1200	 0.380814908614397 
1201	 0.380875223883482 
1202	 0.380952922837356 
1203	 0.381076645373481 
1204	 0.381213218165381 
1205	 0.381423733801863 
1206	 0.381679776238615 
1207	 0.381988472156418 
1208	 0.382382737002462 
1209	 0.382765811911323 
1210	 0.383133169941796 
1211	 0.383597802831398 
1212	 0.384114786381764 
1213	 0.384672843669295 
1214	 0.385320626300122 
1215	 0.385984941128456 
1216	 0.386664731573815 
1217	 0.387380770422211 
1218	 0.388150391188733 
1219	 0.388957255355256 
1220	 0.389704294270674 
1221	 0.390486784729724 
1222	 0.391301749231524 
1223	 0.392059800356575 
1224	 0.392867322945562 
1225	 0.393770158898005 
1226	 0.394528524519808 
1227	 0.395240620266434 
1228	 0.395922011924454 
1229	 0.396495602016172 
1230	 0.397133004138919 
1231	 0.397779416166794 
1232	 0.39841570811264 
1233	 0.399060284533848 
1234	 0.399687479247509 
1235	 0.400333944888006 
1236	 0.400924310278544 
1237	 0.401501412191219 
1238	 0.4020417860005 
1239	 0.402558189753833 
1240	 0.402957779853957 
1241	 0.403432050181518 
1242	 0.403923933175147 
1243	 0.404432001357036 
1244	 0.404977428132309 
1245	 0.405498251662133 
1246	 0.406046581649544 
1247	 0.406504934660001 
1248	 0.406937662600747 
1249	 0.407347025098581 
1250	 0.407656758731622 
1251	 0.408045253291842 
1252	 0.408442270769063 
1253	 0.408850975038667 
1254	 0.409306394562406 
1255	 0.409743295742854 
1256	 0.410168779573768 
1257	 0.410617966733855 
1258	 0.41109644506251 
1259	 0.411534555284754 
1260	 0.412010580494163 
1261	 0.412414220793159 
1262	 0.412702174577671 
1263	 0.41305208107086 
1264	 0.413423511162649 
1265	 0.413778646942092 
1266	 0.414171484771066 
1267	 0.414648050606247 
1268	 0.415025730462658 
1269	 0.415359989987312 
1270	 0.415703726406923 
1271	 0.415991315323761 
1272	 0.416354753452385 
1273	 0.416780832133379 
1274	 0.417141506719033 
1275	 0.417546504771809 
1276	 0.417857890902649 
1277	 0.418033946593172 
1278	 0.418300608819854 
1279	 0.418581041163029 
1280	 0.418847116327048 
1281	 0.419182047532138 
1282	 0.419449975306813 
1283	 0.419606751168199 
1284	 0.419836574062582 
1285	 0.420085072289648 
1286	 0.42034723839934 
1287	 0.420580034626914 
1288	 0.42086624826931 
1289	 0.421055446102906 
1290	 0.421169543816539 
1291	 0.421305322877195 
1292	 0.421393840929137 
1293	 0.421541779064337 
1294	 0.421731186474285 
1295	 0.421862895344056 
1296	 0.42197526545707 
1297	 0.422124100527086 
1298	 0.422258324869059 
1299	 0.422388260683752 
1300	 0.422538220936469 
1301	 0.422709301985176 
1302	 0.422905139810463 
1303	 0.423037930300978 
1304	 0.423174189093205 
1305	 0.423300032588026 
1306	 0.423317416919635 
1307	 0.423405221274107 
1308	 0.423530045878005 
1309	 0.423710899246131 
1310	 0.423831455164714 
1311	 0.423940851538533 
1312	 0.42408169687176 
1313	 0.424185794253743 
1314	 0.424381201778547 
1315	 0.424689108165679 
1316	 0.424863377307132 
1317	 0.42500592933325 
1318	 0.425172510165848 
1319	 0.425270614921782 
1320	 0.425421754630285 
1321	 0.425621297761805 
1322	 0.425821888379468 
1323	 0.426030720857126 
1324	 0.426221882341804 
1325	 0.42641444023359 
1326	 0.426633132074245 
1327	 0.426848123491998 
1328	 0.427059963250476 
1329	 0.427347364036609 
1330	 0.427551672012356 
1331	 0.427670522421783 
1332	 0.427824205060373 
1333	 0.427971063135798 
1334	 0.428083570051837 
1335	 0.428249781107062 
1336	 0.428468105853057 
1337	 0.428609186544408 
1338	 0.428735258741234 
1339	 0.428855597089346 
1340	 0.428951874164774 
1341	 0.429019507818875 
1342	 0.429088425023057 
1343	 0.429124251656953 
1344	 0.429091153796618 
1345	 0.429109174878817 
1346	 0.429114790609015 
1347	 0.429170300802971 
1348	 0.429298798352603 
1349	 0.429350390381829 
1350	 0.429420383142023 
1351	 0.429436148277633 
1352	 0.429373418923474 
1353	 0.429326738973578 
1354	 0.429284554684724 
1355	 0.429209639191211 
1356	 0.429076724238327 
1357	 0.42898809862157 
1358	 0.428894072383897 
1359	 0.428817274027288 
1360	 0.428763744355378 
1361	 0.428742356135971 
1362	 0.428706326309883 
1363	 0.428679862915997 
1364	 0.428628714040322 
1365	 0.428597611640993 
1366	 0.428497182241679 
1367	 0.428357105054729 
1368	 0.428200491410228 
1369	 0.428017780604983 
1370	 0.427795106656052 
1371	 0.427518563119974 
1372	 0.427284788864565 
1373	 0.427066108460356 
1374	 0.426782021179284 
1375	 0.426498208582932 
1376	 0.426176769165454 
1377	 0.425765625540627 
1378	 0.425385434008416 
1379	 0.424991608414769 
1380	 0.424638738935767 
1381	 0.424302614494154 
1382	 0.423955472575024 
1383	 0.423658149341527 
1384	 0.423315787858759 
1385	 0.422925264487667 
1386	 0.422549316892606 
1387	 0.422177117001018 
1388	 0.421794734022798 
1389	 0.421369523336766 
1390	 0.421004803359125 
1391	 0.420658797137047 
1392	 0.420330753080783 
1393	 0.420039636913132 
1394	 0.419780585918346 
1395	 0.419535559007728 
1396	 0.419334399227812 
1397	 0.41904223561059 
1398	 0.418810862497002 
1399	 0.41836195863333 
1400	 0.417798262619512 
1401	 0.417142555705815 
1402	 0.416360893221686 
1403	 0.415512102230462 
1404	 0.414571425559856 
1405	 0.413576533904597 
1406	 0.412461974018509 
1407	 0.411373743837778 
1408	 0.410259877200151 
1409	 0.409087173557362 
1410	 0.407885846212733 
1411	 0.40664948651479 
1412	 0.405318588491187 
1413	 0.404049065780381 
1414	 0.402774386157765 
1415	 0.401523928330477 
1416	 0.400278072135576 
1417	 0.399067483061992 
1418	 0.397895891477267 
1419	 0.396716166151281 
1420	 0.395562991443121 
1421	 0.394414846370629 
1422	 0.393225086548266 
1423	 0.392102335643436 
1424	 0.391049984742129 
1425	 0.389946301066157 
1426	 0.388949116134218 
1427	 0.387984468852876 
1428	 0.387010843160433 
1429	 0.386113846150343 
1430	 0.385180594518371 
1431	 0.384322841083057 
1432	 0.38323971861043 
1433	 0.382065567133845 
1434	 0.380867237568867 
1435	 0.379531504843188 
1436	 0.378204385771139 
1437	 0.376889996916465 
1438	 0.375520121815183 
1439	 0.374038001403684 
1440	 0.372613962141405 
1441	 0.371099298851265 
1442	 0.369822679062614 
1443	 0.368493029966456 
1444	 0.367550518534267 
1445	 0.366800401501636 
1446	 0.366394494268232 
1447	 0.366243216402393 
1448	 0.366417188608742 
1449	 0.366999364613108 
1450	 0.367696919056874 
1451	 0.368704969244211 
1452	 0.369801832577216 
1453	 0.371140720810843 
1454	 0.372448331158011 
1455	 0.373959125515207 
1456	 0.375335589801546 
1457	 0.37672606240464 
1458	 0.378001717471774 
1459	 0.379191785478755 
1460	 0.380323896710937 
1461	 0.381350855686439 
1462	 0.382340582300899 
1463	 0.383276508025173 
1464	 0.384173854740524 
1465	 0.385004557725389 
1466	 0.385841822192487 
1467	 0.386578092405974 
1468	 0.387275722060731 
1469	 0.387968541237751 
1470	 0.388633621762831 
1471	 0.389275154248601 
1472	 0.389910845340106 
1473	 0.390532252415021 
1474	 0.391111819541735 
1475	 0.391699146209028 
1476	 0.392316399302251 
1477	 0.392863169726429 
1478	 0.393402839026454 
1479	 0.393813142319984 
1480	 0.394186586358935 
1481	 0.394417482263962 
1482	 0.394484704939893 
1483	 0.394582073689069 
1484	 0.394588958242351 
1485	 0.394615806202335 
1486	 0.394604092393303 
1487	 0.394644359681496 
1488	 0.394652062212727 
1489	 0.394753866150147 
1490	 0.394869629001666 
1491	 0.395129224377691 
1492	 0.39543853794638 
1493	 0.395913654358323 
1494	 0.39655534789374 
1495	 0.39725627958207 
1496	 0.398099122768193 
1497	 0.398965436193337 
1498	 0.399905264272018 
1499	 0.400892931579036 
1500	 0.401970458152932 
1501	 0.40303278609079 
1502	 0.404210332120626 
1503	 0.40524933882209 
1504	 0.406240658007059 
1505	 0.407179679163673 
1506	 0.408023494437345 
1507	 0.408848081453715 
1508	 0.409664823756894 
1509	 0.410405348417787 
1510	 0.411099447778481 
1511	 0.411715034481775 
1512	 0.412229753466518 
1513	 0.412730563480082 
1514	 0.41318398469309 
1515	 0.413587756101953 
1516	 0.413930520339582 
1517	 0.414279180155428 
1518	 0.414607273327873 
1519	 0.414885297289514 
1520	 0.415150088162337 
1521	 0.415391678407682 
1522	 0.415536738350607 
1523	 0.415663061396438 
1524	 0.415816385704281 
1525	 0.415980835250357 
1526	 0.416075973523117 
1527	 0.416157161228522 
1528	 0.416219112512395 
1529	 0.416211021341632 
1530	 0.416260258913716 
1531	 0.416332214104979 
1532	 0.416396727357503 
1533	 0.416464221210375 
1534	 0.416525107166155 
1535	 0.416554316331654 
1536	 0.416688842667134 
1537	 0.416855942088897 
1538	 0.417050111795805 
1539	 0.417313756256215 
1540	 0.417598652031859 
1541	 0.417849626127458 
1542	 0.418254900068409 
1543	 0.418788148180013 
1544	 0.419293208185891 
1545	 0.419835978075016 
1546	 0.420462616121241 
1547	 0.421120701614148 
1548	 0.421832876875338 
1549	 0.422681752747603 
1550	 0.423452171846304 
1551	 0.424208522599542 
1552	 0.424972179105691 
1553	 0.425729550781689 
1554	 0.426500071968648 
1555	 0.427281593417674 
1556	 0.428054588532142 
1557	 0.428852766559467 
1558	 0.429599799332555 
1559	 0.430327209555074 
1560	 0.431029119761374 
1561	 0.431698084721114 
1562	 0.432349643147848 
1563	 0.432976758908977 
1564	 0.43359381314981 
1565	 0.434168529524255 
1566	 0.434774924101951 
1567	 0.435413569059659 
1568	 0.435996273047111 
1569	 0.436556490321695 
1570	 0.437122809794102 
1571	 0.437664163021886 
1572	 0.438189113639584 
1573	 0.438713801394728 
1574	 0.439236833999769 
1575	 0.439734163608833 
1576	 0.440227353602241 
1577	 0.44071093181903 
1578	 0.441225935099329 
1579	 0.441763991983296 
1580	 0.442254134334704 
1581	 0.442737100297763 
1582	 0.443236294932389 
1583	 0.443692417150977 
1584	 0.444175097616113 
1585	 0.444715047849937 
1586	 0.445221699378831 
1587	 0.445733993707578 
1588	 0.446187019356395 
1589	 0.446554943810089 
1590	 0.447012307315999 
1591	 0.447492143529881 
1592	 0.447941207239986 
1593	 0.448457635357599 
1594	 0.448922251156394 
1595	 0.44928060979235 
1596	 0.449712020008411 
1597	 0.450192799107652 
1598	 0.450655691098834 
1599	 0.451139842350815 
1600	 0.451602427415801 
1601	 0.452020237833105 
1602	 0.452488810185413 
1603	 0.453027091383976 
1604	 0.453479893391631 
1605	 0.453910778681548 
1606	 0.454339436101577 
1607	 0.454676501581831 
1608	 0.455072558382638 
1609	 0.455551729433939 
1610	 0.455966235440267 
1611	 0.456365616389584 
1612	 0.456741675137308 
1613	 0.457059783248134 
1614	 0.457395576283462 
1615	 0.457737329753061 
1616	 0.458062586320805 
1617	 0.458392879048859 
1618	 0.458704562144606 
1619	 0.458978794340307 
1620	 0.459267268617426 
1621	 0.459565058283974 
1622	 0.459834457106524 
1623	 0.460113167452511 
1624	 0.460358693276088 
1625	 0.460556191577928 
1626	 0.460767861936936 
1627	 0.460990446098323 
1628	 0.461163781608659 
1629	 0.461309020286644 
1630	 0.461451068909078 
1631	 0.46152073695414 
1632	 0.461652633181785 
1633	 0.461823331606369 
1634	 0.461997541545277 
1635	 0.462196394809512 
1636	 0.462393901410994 
1637	 0.462606317554328 
1638	 0.462808001829491 
1639	 0.463055341045852 
1640	 0.46322603610515 
1641	 0.463316918238543 
1642	 0.463450497989448 
1643	 0.463518960722364 
1644	 0.463665023332188 
1645	 0.463975791271088 
1646	 0.464107070941105 
1647	 0.464180647312267 
1648	 0.464219793901681 
1649	 0.464116689990012 
1650	 0.464062053672772 
1651	 0.464068442102161 
1652	 0.463972125144079 
1653	 0.463830703542498 
1654	 0.463634217691112 
1655	 0.46333093267979 
1656	 0.463056158450045 
1657	 0.462793305614586 
1658	 0.46244426084622 
1659	 0.462051047814919 
1660	 0.461646527048212 
1661	 0.461227828636113 
1662	 0.460698300826396 
1663	 0.460078819522184 
1664	 0.45948554019183 
1665	 0.458815132795334 
1666	 0.458120820815257 
1667	 0.457501457347579 
1668	 0.45675427688474 
1669	 0.455931732873685 
1670	 0.454994072303336 
1671	 0.453969057943176 
1672	 0.452858836214052 
1673	 0.451584765341105 
1674	 0.450326066254609 
1675	 0.449044445370285 
1676	 0.447706199470112 
1677	 0.446367051301468 
1678	 0.444899572831864 
1679	 0.443316418290016 
1680	 0.441687246066152 
1681	 0.439967706230233 
1682	 0.438190909270131 
1683	 0.4363722416938 
1684	 0.434507231632616 
1685	 0.432571164822835 
1686	 0.430565949261147 
1687	 0.428455205213928 
1688	 0.426388657097981 
1689	 0.424306488139811 
1690	 0.422135965303189 
1691	 0.419989897738164 
1692	 0.417788132781562 
1693	 0.415487155137749 
1694	 0.413161283838097 
1695	 0.410790591484415 
1696	 0.408394943159056 
1697	 0.405965545918086 
1698	 0.403410530853186 
1699	 0.400822961454227 
1700	 0.398214695122481 
1701	 0.395448267359821 
1702	 0.392831892390106 
1703	 0.390200427705007 
1704	 0.387744343214298 
1705	 0.38534941624406 
1706	 0.383002850588726 
1707	 0.381011840822837 
1708	 0.379104739998075 
1709	 0.377245909886894 
1710	 0.375569551607553 
1711	 0.373882223035263 
1712	 0.372311856744222 
1713	 0.3707956560711 
1714	 0.369252699595108 
1715	 0.367858175795717 
1716	 0.366423533339746 
1717	 0.365061784796698 
1718	 0.363796960148218 
1719	 0.362529655616815 
1720	 0.361385313064538 
1721	 0.3602216239769 
1722	 0.359114809595308 
1723	 0.358199223527939 
1724	 0.357314410793624 
1725	 0.356532619190878 
1726	 0.35593868368754 
1727	 0.355492407243877 
1728	 0.355224864773607 
1729	 0.355167154088283 
1730	 0.355364191367521 
1731	 0.355775416014804 
1732	 0.356401366726997 
1733	 0.357172919723202 
1734	 0.358091908846002 
1735	 0.358971803576439 
1736	 0.359738872132464 
1737	 0.360542075030852 
1738	 0.361245695102845 
1739	 0.361778320922972 
1740	 0.362240686880823 
1741	 0.362516893726634 
1742	 0.362546926521164 
1743	 0.36255960588454 
1744	 0.362491225163923 
1745	 0.362340627819262 
1746	 0.36200397326127 
1747	 0.361834860159144 
1748	 0.361656484604077 
1749	 0.361513319682361 
1750	 0.361453873126399 
1751	 0.361449691523619 
1752	 0.361396095617385 
1753	 0.361547032603671 
1754	 0.361812224832252 
1755	 0.362217381906815 
1756	 0.362763218552094 
1757	 0.363413344241727 
1758	 0.364253172946995 
1759	 0.365306571683432 
1760	 0.366467937431314 
1761	 0.367681140876799 
1762	 0.368948013660587 
1763	 0.370305226286011 
1764	 0.371708114496584 
1765	 0.37324173128962 
1766	 0.375012320688465 
1767	 0.376705523469529 
1768	 0.378435948140954 
1769	 0.38030322233466 
1770	 0.381965875195639 
1771	 0.3836950972041 
1772	 0.385422701507361 
1773	 0.386880395276632 
1774	 0.388312475418675 
1775	 0.389635192133353 
1776	 0.390847857766851 
1777	 0.392091034610474 
1778	 0.393332700262509 
1779	 0.394529444918007 
1780	 0.395604702274634 
1781	 0.396621470618319 
1782	 0.397634649103609 
1783	 0.398582577539687 
1784	 0.399520279240588 
1785	 0.400378106705324 
1786	 0.401181265552697 
1787	 0.401887012323177 
1788	 0.402615854267294 
1789	 0.403337683114001 
1790	 0.404048841267556 
1791	 0.404807232406877 
1792	 0.40545476392648 
1793	 0.405962454311687 
1794	 0.406514865097877 
1795	 0.407162362813689 
1796	 0.407918551927342 
1797	 0.408679987320107 
1798	 0.409247931414021 
1799	 0.409756004749278 
1800	 0.410307527131153 
1801	 0.408518418280445 
1802	 0.409129342521403 
1803	 0.409670192224718 
1804	 0.4101189361209 
1805	 0.410582468250623 
1806	 0.411018280956756 
1807	 0.411380322651506 
1808	 0.411832686325812 
1809	 0.412356925760222 
1810	 0.412791472172871 
1811	 0.413242140119825 
1812	 0.413663428278323 
1813	 0.414007282476032 
1814	 0.414351365358034 
1815	 0.414730615968796 
1816	 0.415105668064395 
1817	 0.415563789680982 
1818	 0.416086771010631 
1819	 0.416575356305095 
1820	 0.417116669442618 
1821	 0.417645401886066 
1822	 0.418180479825119 
1823	 0.41868184186023 
1824	 0.419127152271795 
1825	 0.419617810537818 
1826	 0.420045146076556 
1827	 0.420385040795115 
1828	 0.420738626848194 
1829	 0.421077071499372 
1830	 0.421438238487135 
1831	 0.421778956586663 
1832	 0.422165045120021 
1833	 0.422490238136597 
1834	 0.422809748991947 
1835	 0.423106918930166 
1836	 0.423393799808565 
1837	 0.423765753571973 
1838	 0.424286049055616 
1839	 0.424611745899262 
1840	 0.424902131365545 
1841	 0.425196885685606 
1842	 0.425401189417941 
1843	 0.425601061646595 
1844	 0.425902937220486 
1845	 0.426108775849954 
1846	 0.426278901764448 
1847	 0.426452971795523 
1848	 0.426546168365062 
1849	 0.426594692195615 
1850	 0.426571025056004 
1851	 0.426465612263748 
1852	 0.426349716208262 
1853	 0.426219259581313 
1854	 0.426082728872548 
1855	 0.425888014723678 
1856	 0.425663189085157 
1857	 0.4253270343067 
1858	 0.424879714709693 
1859	 0.424373407289208 
1860	 0.423790041442109 
1861	 0.423112634530653 
1862	 0.422320377371497 
1863	 0.421550181538597 
1864	 0.420672273905244 
1865	 0.419782870536452 
1866	 0.418892495374309 
1867	 0.417817090929197 
1868	 0.416718759154148 
1869	 0.415520707617089 
1870	 0.414145631727647 
1871	 0.412590088453804 
1872	 0.411070030059027 
1873	 0.409457678853719 
1874	 0.407756407463108 
1875	 0.406127672367896 
1876	 0.404287256967026 
1877	 0.40239685093024 
1878	 0.400368112075462 
1879	 0.398175738632425 
1880	 0.396034043574351 
1881	 0.393722116280497 
1882	 0.391231870267394 
1883	 0.388757634341605 
1884	 0.386212429021082 
1885	 0.383339391874737 
1886	 0.380584711748296 
1887	 0.377674037078106 
1888	 0.374478541191414 
1889	 0.371494353127185 
1890	 0.368342548246766 
1891	 0.365114923765921 
1892	 0.361985600327611 
1893	 0.358729649301993 
1894	 0.355331718403463 
1895	 0.352067917959138 
1896	 0.348729246244862 
1897	 0.345224372767746 
1898	 0.341995525469085 
1899	 0.338666979621906 
1900	 0.335377463121297 
1901	 0.332342947851116 
1902	 0.329180129829315 
1903	 0.326167733652063 
1904	 0.323183513325501 
1905	 0.320208240252396 
1906	 0.317262965735826 
1907	 0.314666636925286 
1908	 0.312002391476074 
1909	 0.309490555404656 
1910	 0.307156815125711 
1911	 0.304577172050413 
1912	 0.30215052248901 
1913	 0.299796951952114 
1914	 0.29738883367373 
1915	 0.295088974239978 
1916	 0.292966426365917 
1917	 0.290716252649088 
1918	 0.288424129479325 
1919	 0.286260459089154 
1920	 0.283985368967465 
1921	 0.281767027513794 
1922	 0.279504256679588 
1923	 0.277111016849045 
1924	 0.274856636507705 
1925	 0.272605236989341 
1926	 0.270412224323327 
1927	 0.26834521827034 
1928	 0.266215883764248 
1929	 0.264039673540842 
1930	 0.261963388724296 
1931	 0.259902154000226 
1932	 0.25791211742136 
1933	 0.256183027122595 
1934	 0.254610389306233 
1935	 0.253225207843343 
1936	 0.252100824583393 
1937	 0.251061883704286 
1938	 0.250126859253896 
1939	 0.249425638768064 
1940	 0.248884158258082 
1941	 0.24852550973588 
1942	 0.248406743994713 
1943	 0.248442986667956 
1944	 0.248569593907872 
1945	 0.24878981683514 
1946	 0.249153395187693 
1947	 0.249623140868858 
1948	 0.250329155533872 
1949	 0.251282352703074 
1950	 0.252336830757333 
1951	 0.253579539814473 
1952	 0.254963118907551 
1953	 0.256458557554357 
1954	 0.258135571793564 
1955	 0.260055382566874 
1956	 0.262040622798061 
1957	 0.264135599627163 
1958	 0.266294930410188 
1959	 0.268291421408498 
1960	 0.270211007527664 
1961	 0.271931860073932 
1962	 0.273488750567406 
1963	 0.274877926760265 
1964	 0.276099343364301 
1965	 0.277178738142291 
1966	 0.278089184795438 
1967	 0.278902126070994 
1968	 0.279546719021561 
1969	 0.280178971124949 
1970	 0.280819261520821 
1971	 0.281405417034573 
1972	 0.282051080079126 
1973	 0.282742852874988 
1974	 0.283496853880071 
1975	 0.284307543553596 
1976	 0.285162881004301 
1977	 0.286115495431157 
1978	 0.287042762674235 
1979	 0.287982415430497 
1980	 0.288916972911136 
1981	 0.289931073345128 
1982	 0.290980371286113 
1983	 0.292138502646035 
1984	 0.293377995061694 
1985	 0.294589486005936 
1986	 0.295855079727994 
1987	 0.297257974590338 
1988	 0.298656867425402 
1989	 0.300299601231651 
1990	 0.302121562497048 
1991	 0.304072811671469 
1992	 0.306131796291946 
1993	 0.308497169262778 
1994	 0.310883407451505 
1995	 0.313430482201315 
1996	 0.315997520148318 
1997	 0.318529035966208 
1998	 0.321195782352987 
1999	 0.32399260403651 
2000	 0.326628634729697 
2001	 0.329459666862321 
2002	 0.331932611347212 
2003	 0.334196169125497 
2004	 0.336355155729572 
2005	 0.338258041765737 
2006	 0.340186130470303 
2007	 0.342085586874878 
2008	 0.343790191080715 
2009	 0.345509976621212 
2010	 0.347144255096821 
2011	 0.348483384258057 
2012	 0.349828820922206 
2013	 0.351049760064762 
2014	 0.352111355926939 
2015	 0.353127842107548 
2016	 0.354066593285573 
2017	 0.354947534392114 
2018	 0.355810018526214 
2019	 0.3565110359873 
2020	 0.357106418533772 
2021	 0.357601350791328 
2022	 0.35799182933083 
2023	 0.358262302738235 
2024	 0.358552585497622 
2025	 0.358810985598078 
2026	 0.358957478042372 
2027	 0.359004672852319 
2028	 0.359026988969122 
2029	 0.358927896910041 
2030	 0.358876207802169 
2031	 0.358807245562122 
2032	 0.358728211141612 
2033	 0.358689129925861 
2034	 0.358572286311622 
2035	 0.358380989198958 
2036	 0.358205047393971 
2037	 0.358010346699042 
2038	 0.357778271702888 
2039	 0.357635952412018 
2040	 0.357585543865051 
2041	 0.357448240093406 
2042	 0.35729136364662 
2043	 0.35718209100438 
2044	 0.357022264543269 
2045	 0.356921020995697 
2046	 0.356943633547936 
2047	 0.356882572491557 
2048	 0.356807195384302 
2049	 0.356708455229375 
2050	 0.356585806106121 
2051	 0.356401271321447 
2052	 0.35624390414424 
2053	 0.356158807860597 
2054	 0.356071827762806 
2055	 0.35601556611164 
2056	 0.355961197340964 
2057	 0.355928325576574 
2058	 0.355875983949564 
2059	 0.355859817455787 
2060	 0.355808627607384 
2061	 0.355688018744033 
2062	 0.355630944414218 
2063	 0.355598774392185 
2064	 0.355548609197067 
2065	 0.355530249963829 
2066	 0.355518318909884 
2067	 0.355419485740366 
2068	 0.355325480160163 
2069	 0.355259698973542 
2070	 0.355190474741169 
2071	 0.35513887041028 
2072	 0.355135547301251 
2073	 0.355084173829319 
2074	 0.355011886586391 
2075	 0.354923561771674 
2076	 0.354845893299728 
2077	 0.354707468099875 
2078	 0.354482890813852 
2079	 0.354334951333758 
2080	 0.354204544413897 
2081	 0.354044745737177 
2082	 0.353958148520951 
2083	 0.353773309673906 
2084	 0.353561687512793 
2085	 0.353330952590778 
2086	 0.353063968569398 
2087	 0.35277200255724 
2088	 0.352474972571209 
2089	 0.352122962760406 
2090	 0.351794963963946 
2091	 0.351501866119483 
2092	 0.351156769710192 
2093	 0.350750697395398 
2094	 0.350395660181754 
2095	 0.350028870946151 
2096	 0.349679310705084 
2097	 0.349387958224023 
2098	 0.349097455303147 
2099	 0.348688366921196 
2100	 0.348200613596533 
2101	 0.347706643876224 
2102	 0.347099082685201 
2103	 0.346588101531418 
2104	 0.346109281971833 
2105	 0.345608128836926 
2106	 0.345168600057395 
2107	 0.344610462788086 
2108	 0.343973438831324 
2109	 0.343360114259777 
2110	 0.342706939966568 
2111	 0.34202310430198 
2112	 0.341298025037868 
2113	 0.340624207391299 
2114	 0.339939025908965 
2115	 0.339241707813502 
2116	 0.338546146353114 
2117	 0.337947043883621 
2118	 0.337253117237274 
2119	 0.336517433087058 
2120	 0.335752855842145 
2121	 0.33491400887519 
2122	 0.334182029292872 
2123	 0.333433601211082 
2124	 0.332750596499478 
2125	 0.332226748161739 
2126	 0.331575523482753 
2127	 0.330878379272858 
2128	 0.330183982814393 
2129	 0.32940164841687 
2130	 0.328695673114541 
2131	 0.328003630909231 
2132	 0.327369799889846 
2133	 0.326840692060234 
2134	 0.326256209581033 
2135	 0.325667609742831 
2136	 0.325107504431484 
2137	 0.324510331315012 
2138	 0.323865836459166 
2139	 0.323259920122482 
2140	 0.322606479946609 
2141	 0.322091603857241 
2142	 0.321648428411756 
2143	 0.321213380404022 
2144	 0.320913809430759 
2145	 0.320527450926785 
2146	 0.320040922035572 
2147	 0.319668504119023 
2148	 0.319335895151189 
2149	 0.319028954436477 
2150	 0.318830312502002 
2151	 0.318581660910846 
2152	 0.318304814017787 
2153	 0.318061479777073 
2154	 0.317821908837994 
2155	 0.317536409384818 
2156	 0.317305152400236 
2157	 0.317099610335411 
2158	 0.316899517425682 
2159	 0.316766923651994 
2160	 0.31649709316871 
2161	 0.316174798099149 
2162	 0.315850410516578 
2163	 0.315428405629945 
2164	 0.315062374474804 
2165	 0.314672460281758 
2166	 0.314381548978819 
2167	 0.314133031605888 
2168	 0.313898002115347 
2169	 0.3137778755273 
2170	 0.313606016576737 
2171	 0.313399513720465 
2172	 0.313211214428431 
2173	 0.313041998080173 
2174	 0.312851348527574 
2175	 0.312636391246723 
2176	 0.312485780863897 
2177	 0.312413374571867 
2178	 0.312399753452613 
2179	 0.312386033704445 
2180	 0.312467153536539 
2181	 0.312478015719881 
2182	 0.312464093281485 
2183	 0.312457604682818 
2184	 0.312465500313352 
2185	 0.312429008175729 
2186	 0.312365150214479 
2187	 0.312293626498208 
2188	 0.3121930958332 
2189	 0.312093553616224 
2190	 0.312004599539891 
2191	 0.311877446998046 
2192	 0.31176446154963 
2193	 0.311577840623779 
2194	 0.311289051697943 
2195	 0.311040201045453 
2196	 0.310783236053398 
2197	 0.310478031039994 
2198	 0.310209838735456 
2199	 0.309943758106583 
2200	 0.309637077919286 
2201	 0.309285949938803 
2202	 0.308937214764205 
2203	 0.308591558298088 
2204	 0.308209942563666 
2205	 0.307824054632089 
2206	 0.307363222136477 
2207	 0.306807406003873 
2208	 0.306337951308424 
2209	 0.305852086427405 
2210	 0.305386745165244 
2211	 0.30503985562043 
2212	 0.304550826516015 
2213	 0.303892425800019 
2214	 0.303398011952623 
2215	 0.302834134065243 
2216	 0.302458758701291 
2217	 0.302304324546861 
2218	 0.302122908397662 
2219	 0.30202668881257 
2220	 0.301942659887697 
2221	 0.301851003159809 
2222	 0.301854607909383 
2223	 0.301847615588375 
2224	 0.301819240704928 
2225	 0.301792883333539 
2226	 0.301705582229578 
2227	 0.301658083631002 
2228	 0.301677044103734 
2229	 0.301517391736593 
2230	 0.301361403248004 
2231	 0.300985914368353 
2232	 0.30040819349607 
2233	 0.299805151493595 
2234	 0.299176538710942 
2235	 0.298263735145312 
2236	 0.297161524315894 
2237	 0.295985858746321 
2238	 0.294525954285978 
2239	 0.293122502206465 
2240	 0.291825442637619 
2241	 0.290208309520802 
2242	 0.288436348198562 
2243	 0.286502767906754 
2244	 0.284265182161224 
2245	 0.282038674805749 
2246	 0.279650938286197 
2247	 0.277280465986246 
2248	 0.274900176320946 
2249	 0.272391411067767 
2250	 0.269808755634059 
2251	 0.267242554825817 
2252	 0.26430633449051 
2253	 0.261551515208474 
2254	 0.258760197692987 
2255	 0.255861503544155 
2256	 0.253333114812197 
2257	 0.250738011319849 
2258	 0.248140249192905 
2259	 0.245648614999146 
2260	 0.24305028826262 
2261	 0.240348778274842 
2262	 0.237737071760413 
2263	 0.235079101905098 
2264	 0.232572251188501 
2265	 0.23013121296497 
2266	 0.227753278005528 
2267	 0.22548519203066 
2268	 0.22327985804532 
2269	 0.221146959344908 
2270	 0.219071761392348 
2271	 0.217043929158944 
2272	 0.215149687713383 
2273	 0.213377745859177 
2274	 0.21159443781351 
2275	 0.210016240692205 
2276	 0.208281280794867 
2277	 0.20653097810402 
2278	 0.204655464222784 
2279	 0.202540913972889 
2280	 0.200586422519026 
2281	 0.198630768967377 
2282	 0.196671825872688 
2283	 0.194850381235921 
2284	 0.192992996331239 
2285	 0.190796935682545 
2286	 0.188619022015023 
2287	 0.186280051124611 
2288	 0.183865115661163 
2289	 0.181709447174477 
2290	 0.179410465935823 
2291	 0.177188825863765 
2292	 0.17504757391118 
2293	 0.172538793395785 
2294	 0.170183443566561 
2295	 0.167877093527757 
2296	 0.165610905700933 
2297	 0.163771698490644 
2298	 0.162250400022008 
2299	 0.160938886351145 
2300	 0.15993853504535 
2301	 0.159099593788093 
2302	 0.158501401754168 
2303	 0.158215702195339 
2304	 0.158135683126818 
2305	 0.15842848492913 
2306	 0.159151635651546 
2307	 0.159900210052467 
2308	 0.160888346718019 
2309	 0.162073951815592 
2310	 0.163400302716813 
2311	 0.165064931257179 
2312	 0.167180510847907 
2313	 0.1691956644874 
2314	 0.171361140815753 
2315	 0.173565250184528 
2316	 0.175940786185654 
2317	 0.178110512662198 
2318	 0.180420213209556 
2319	 0.18240747683041 
2320	 0.184260019400953 
2321	 0.185728135290736 
2322	 0.186890068585265 
2323	 0.187836966033954 
2324	 0.188329382911777 
2325	 0.18878675261696 
2326	 0.189242497462393 
2327	 0.189339399243431 
2328	 0.189072274411444 
2329	 0.188779041558274 
2330	 0.188312986387968 
2331	 0.187502406424473 
2332	 0.186769498032473 
2333	 0.18591228854336 
2334	 0.184657575037454 
2335	 0.183342445239935 
2336	 0.181835023031021 
2337	 0.18010623507293 
2338	 0.178485817769006 
2339	 0.176866597426913 
2340	 0.175514920884536 
2341	 0.174304297536339 
2342	 0.172995317744762 
2343	 0.171911029140604 
2344	 0.170734549290369 
2345	 0.169640989220048 
2346	 0.169070966698502 
2347	 0.168663310011413 
2348	 0.168572043712849 
2349	 0.169195223478948 
2350	 0.169805575956539 
2351	 0.170659175979044 
2352	 0.172133717174428 
2353	 0.173600375691356 
2354	 0.175098943900745 
2355	 0.176751895494704 
2356	 0.178014567051616 
2357	 0.178997969400593 
2358	 0.180136760677585 
2359	 0.180975283964896 
2360	 0.181669609669122 
2361	 0.18217201525551 
2362	 0.182172496743398 
2363	 0.182263001864963 
2364	 0.182339473327049 
2365	 0.182051672730363 
2366	 0.181721965938693 
2367	 0.181331652389538 
2368	 0.180850819698785 
2369	 0.180549718408501 
2370	 0.180519783463047 
2371	 0.18048607280815 
2372	 0.180171251730056 
2373	 0.179802742633042 
2374	 0.179435920508258 
2375	 0.179050991317622 
2376	 0.178980275911179 
2377	 0.178981373206436 
2378	 0.178721694553666 
2379	 0.178394928529757 
2380	 0.178170688784802 
2381	 0.178021724330742 
2382	 0.177925409600941 
2383	 0.178245139570524 
2384	 0.178023405402599 
2385	 0.177338024978766 
2386	 0.177106440082719 
2387	 0.17683201086757 
2388	 0.176654053095519 
2389	 0.176916197883833 
2390	 0.176727603861876 
2391	 0.176254430910112 
2392	 0.175916443174437 
2393	 0.175466932549634 
2394	 0.175064732429621 
2395	 0.174673875105948 
2396	 0.174501512729841 
2397	 0.17440253301379 
2398	 0.17434018142096 
2399	 0.174480630799585 
2400	 0.174473529851742 
2401	 0.174392134428754 
2402	 0.174272349202497 
2403	 0.174226069302756 
2404	 0.174064012939422 
2405	 0.173971913191903 
2406	 0.173695928687208 
2407	 0.173149954448901 
2408	 0.172747339245389 
2409	 0.17215109579881 
2410	 0.171630588693941 
2411	 0.171349686598503 
2412	 0.170962357555626 
2413	 0.170912862384342 
2414	 0.170841770343442 
2415	 0.17069541638975 
2416	 0.170615568463215 
2417	 0.17034705807083 
2418	 0.170232372771021 
2419	 0.169899542720492 
2420	 0.169391762237894 
2421	 0.169060605486022 
2422	 0.169316448816972 
2423	 0.169912538017683 
2424	 0.169927642743526 
2425	 0.170091555348093 
2426	 0.170247851000577 
2427	 0.170004170385845 
2428	 0.170040040861602 
2429	 0.169934603511607 
2430	 0.169590817054338 
2431	 0.169599166954266 
2432	 0.169875448345083 
2433	 0.17031365800527 
2434	 0.170204300035065 
2435	 0.169463507795167 
2436	 0.16889182159153 
2437	 0.168200668863755 
2438	 0.167995344136323 
2439	 0.167899777907117 
2440	 0.167218570707529 
2441	 0.166865859606535 
2442	 0.166561165108083 
2443	 0.166133600549953 
2444	 0.166001617962549 
2445	 0.166189562711376 
2446	 0.166533075799708 
2447	 0.166973253667421 
2448	 0.16709117941045 
2449	 0.166472712992431 
2450	 0.165596709738751 
2451	 0.164848324809004 
2452	 0.164758110541675 
2453	 0.165195976044384 
2454	 0.164774435068721 
2455	 0.164225126328591 
2456	 0.163915258471917 
2457	 0.162930935195231 
2458	 0.162802748806733 
2459	 0.163019868159646 
2460	 0.16262663475259 
2461	 0.162455576135214 
2462	 0.162107336971659 
2463	 0.161665636720949 
2464	 0.160829940833174 
2465	 0.15995427586704 
2466	 0.159450717593183 
2467	 0.15863459584853 
2468	 0.15821663135185 
2469	 0.158188863356837 
2470	 0.158137750519254 
2471	 0.158352540979737 
2472	 0.158569497394399 
2473	 0.158808824132176 
2474	 0.15918576696818 
2475	 0.159375435851474 
2476	 0.158841908909774 
2477	 0.158108263073609 
2478	 0.157719791967552 
2479	 0.156714966451144 
2480	 0.156938211901064 
2481	 0.157261544490638 
2482	 0.157776965266241 
2483	 0.15886933462447 
2484	 0.159308562429728 
2485	 0.159739536928182 
2486	 0.159982966355601 
2487	 0.159480175474047 
2488	 0.158786917430523 
2489	 0.157954594604125 
2490	 0.157750056477765 
2491	 0.157718861612481 
2492	 0.158780390222857 
2493	 0.160952030154086 
2494	 0.16119200344944 
2495	 0.160452676942092 
2496	 0.159712546320687 
2497	 0.159076068070315 
2498	 0.159728468239574 
2499	 0.160952552328074 
2500	 0.161975082359001 
