Wavelength	Tablay400038.asd
350	 0.245497804025838 
351	 0.333144034409146 
352	 0.225921027881987 
353	 1.56461686463182E-02 
354	 0.111377182667175 
355	 0.175772225246081 
356	 0.191649975789984 
357	 0.207666067840378 
358	 0.203370574566412 
359	 0.18992182171786 
360	 0.190361679480505 
361	 0.216512847357245 
362	 0.181135976191978 
363	 0.185872353225843 
364	 0.223778444235329 
365	 0.11006790928295 
366	 7.02658974828008E-02 
367	 8.03717312779854E-02 
368	 8.08558265942907E-02 
369	 0.127666398855128 
370	 0.128896922739542 
371	 0.100196438250604 
372	 0.116086152226026 
373	 0.138489667015734 
374	 0.161604268947584 
375	 0.170825342395596 
376	 0.133289186631875 
377	 8.33537386421509E-02 
378	 8.27633287732084E-02 
379	 0.143976379017486 
380	 7.81466663529829E-02 
381	 7.25617159095441E-02 
382	 0.112070615813446 
383	 7.35340969727208E-02 
384	 0.08265543180404 
385	 0.104404057255305 
386	 0.111363873488044 
387	 0.120850472797727 
388	 0.111949287256502 
389	 0.100121309553644 
390	 0.100693937368433 
391	 9.14519337548085E-02 
392	 0.110856139862642 
393	 0.134399631738377 
394	 0.105129559604234 
395	 8.60279664512141E-02 
396	 8.80646771507327E-02 
397	 9.93339390598257E-02 
398	 7.87854422153796E-02 
399	 9.78888146748985E-02 
400	 0.122551608461549 
401	 0.112296079032953 
402	 0.121481257772432 
403	 0.109930965174546 
404	 8.82645180568586E-02 
405	 0.100630479351799 
406	 0.10546339670263 
407	 9.87808781431161E-02 
408	 8.90510965153031E-02 
409	 9.85276547080317E-02 
410	 9.62477586475067E-02 
411	 9.01232079298805E-02 
412	 9.43327867152688E-02 
413	 0.08959542200407 
414	 7.58992288825188E-02 
415	 6.75294693359336E-02 
416	 8.66116598696501E-02 
417	 9.17873700295135E-02 
418	 8.90720992938067E-02 
419	 0.088924920519663 
420	 9.42541171705467E-02 
421	 8.51331089048532E-02 
422	 7.43302110196601E-02 
423	 8.16794813837073E-02 
424	 0.083171876730182 
425	 8.60879913194031E-02 
426	 8.93364831545074E-02 
427	 8.06086320501301E-02 
428	 0.082977841176549 
429	 8.73149292416597E-02 
430	 8.37289160123848E-02 
431	 7.98096986773288E-02 
432	 8.03651927185252E-02 
433	 8.34632604929845E-02 
434	 8.38549386388465E-02 
435	 8.11615692920176E-02 
436	 0.084710670246692 
437	 9.28905281596041E-02 
438	 8.65239172801867E-02 
439	 8.11068299504565E-02 
440	 7.98234370022381E-02 
441	 8.14912639665379E-02 
442	 8.28649667071475E-02 
443	 8.18688516516609E-02 
444	 0.07932016618823 
445	 7.80628398879583E-02 
446	 7.70378873202071E-02 
447	 7.66259360564905E-02 
448	 7.74053550240607E-02 
449	 8.06262568956016E-02 
450	 8.00604284618709E-02 
451	 7.76781508393561E-02 
452	 7.78536949406396E-02 
453	 0.079121048698518 
454	 7.77227973982023E-02 
455	 7.56710604485471E-02 
456	 8.08483836129999E-02 
457	 7.91370796419427E-02 
458	 7.55818947424919E-02 
459	 7.61990783126633E-02 
460	 7.73148468382659E-02 
461	 7.89675480263201E-02 
462	 7.95849315918206E-02 
463	 7.75426725423066E-02 
464	 7.76804368049763E-02 
465	 7.69994291189215E-02 
466	 7.48876899065055E-02 
467	 7.54867495643707E-02 
468	 7.73180907595351E-02 
469	 7.79210430382357E-02 
470	 7.59941189511014E-02 
471	 7.59559902795615E-02 
472	 7.56230349225689E-02 
473	 7.51398034153402E-02 
474	 7.63069132543628E-02 
475	 7.60542290807204E-02 
476	 7.54519543384018E-02 
477	 7.56057207172738E-02 
478	 7.67130365301224E-02 
479	 7.39097187653559E-02 
480	 7.19956189352757E-02 
481	 7.67252449206432E-02 
482	 0.075595266278081 
483	 7.48728231166513E-02 
484	 0.076619456531789 
485	 7.68935080525102E-02 
486	 7.48991605966999E-02 
487	 7.31747831201573E-02 
488	 7.38754549573266E-02 
489	 0.075890822984434 
490	 7.59678970084372E-02 
491	 7.47753532379193E-02 
492	 7.50498502746747E-02 
493	 7.56320202063174E-02 
494	 7.57925787635962E-02 
495	 7.53997844143332E-02 
496	 7.51386312482729E-02 
497	 7.55393034124201E-02 
498	 0.076049980218657 
499	 0.076016311998822 
500	 7.59362701138276E-02 
501	 7.62420973143825E-02 
502	 7.65141947876619E-02 
503	 7.57486546401391E-02 
504	 7.58232737835944E-02 
505	 7.63345851630812E-02 
506	 7.67435626099252E-02 
507	 7.71961594489244E-02 
508	 7.78536738835336E-02 
509	 7.80948962028554E-02 
510	 7.73634316131146E-02 
511	 0.077982359817351 
512	 7.82897369091241E-02 
513	 7.79617127229832E-02 
514	 7.87571888490583E-02 
515	 7.92132877781777E-02 
516	 7.95580342506808E-02 
517	 8.00771692113656E-02 
518	 7.96872881497403E-02 
519	 7.97573552077263E-02 
520	 8.01450676153703E-02 
521	 7.98555841900193E-02 
522	 8.09868768024998E-02 
523	 8.22965480596948E-02 
524	 8.27841850546054E-02 
525	 8.27256484823741E-02 
526	 8.28758138627208E-02 
527	 8.33402293495203E-02 
528	 8.39361641863884E-02 
529	 8.44987462335072E-02 
530	 8.48275944328808E-02 
531	 8.51012735239312E-02 
532	 8.58600205995455E-02 
533	 0.086740288999327 
534	 8.73776393162048E-02 
535	 8.76992729707956E-02 
536	 8.83485015849665E-02 
537	 8.96844417276507E-02 
538	 9.11061669299257E-02 
539	 9.16257461424859E-02 
540	 9.19051549937131E-02 
541	 9.24205573639032E-02 
542	 9.33130889053758E-02 
543	 9.42597806512712E-02 
544	 9.51800240082563E-02 
545	 0.096150412222636 
546	 9.71801401202807E-02 
547	 9.76625876008576E-02 
548	 0.098511085797649 
549	 0.099735834353489 
550	 0.10056002008446 
551	 0.101748177301239 
552	 0.102897223631141 
553	 0.1037311327646 
554	 0.104807191818749 
555	 0.105803119901114 
556	 0.106996136749312 
557	 0.108747372302758 
558	 0.109893794083569 
559	 0.111063816478618 
560	 0.112633476605376 
561	 0.114395851629513 
562	 0.116090905049027 
563	 0.117760839582374 
564	 0.119397923609406 
565	 0.120373325607876 
566	 0.121666835369557 
567	 0.123215857149944 
568	 0.124239221825677 
569	 0.125421149681446 
570	 0.126798638898433 
571	 0.128277654258378 
572	 0.129664587973524 
573	 0.131317794319576 
574	 0.133184150690694 
575	 0.135029449601502 
576	 0.136615071837336 
577	 0.138055715815001 
578	 0.139502690959217 
579	 0.141102839674863 
580	 0.142332400041365 
581	 0.143478339556282 
582	 0.144784113164573 
583	 0.145703748599928 
584	 0.146862459060469 
585	 0.148309222298178 
586	 0.149738534361762 
587	 0.151001394481402 
588	 0.152325939683135 
589	 0.153754016175318 
590	 0.154944524561728 
591	 0.155966338022865 
592	 0.157046342109852 
593	 0.158313375569598 
594	 0.159251213939316 
595	 0.160016194334366 
596	 0.160739352919347 
597	 0.161508710812132 
598	 0.16243300456189 
599	 0.163329782254644 
600	 0.164023905549163 
601	 0.164443628340117 
602	 0.164961153171878 
603	 0.165579679206137 
604	 0.166150417816361 
605	 0.166778249902871 
606	 0.167289936314995 
607	 0.16764459676712 
608	 0.167984492701564 
609	 0.168238210316402 
610	 0.16852351014516 
611	 0.168940687317878 
612	 0.16940578358653 
613	 0.169792218265317 
614	 0.1700544757818 
615	 0.170219523409649 
616	 0.17039822641222 
617	 0.170698713730394 
618	 0.171075838142534 
619	 0.171224834545586 
620	 0.171335311195432 
621	 0.171428096809006 
622	 0.171507180047428 
623	 0.171750511130916 
624	 0.171951342744939 
625	 0.172093138106718 
626	 0.17233428882532 
627	 0.172386051598054 
628	 0.172395333457067 
629	 0.172526986303921 
630	 0.172802112820537 
631	 0.173027066151015 
632	 0.173085679816586 
633	 0.17297301632348 
634	 0.173094863404239 
635	 0.173313404039221 
636	 0.173545063672714 
637	 0.173834237700679 
638	 0.173955789859182 
639	 0.173993119319276 
640	 0.174082812843021 
641	 0.174251749814427 
642	 0.174499234187479 
643	 0.174698541751901 
644	 0.17469719972348 
645	 0.174842887674882 
646	 0.175088526146203 
647	 0.175357073973041 
648	 0.175612081704488 
649	 0.175814352285384 
650	 0.175971847570781 
651	 0.176122530351386 
652	 0.176340537676286 
653	 0.176593885700559 
654	 0.176852181598374 
655	 0.177098309287748 
656	 0.177449313400191 
657	 0.177817895923091 
658	 0.178116815369644 
659	 0.178318862282899 
660	 0.178549780577762 
661	 0.178830453107712 
662	 0.179137254709706 
663	 0.179447791027755 
664	 0.179842385486535 
665	 0.180244951344004 
666	 0.18043855626372 
667	 0.180807223596979 
668	 0.181239960180226 
669	 0.181640074268148 
670	 0.182260733695563 
671	 0.182524701726944 
672	 0.182718147465446 
673	 0.183384034979877 
674	 0.183881786204439 
675	 0.184261813054247 
676	 0.184632647762415 
677	 0.185098265199694 
678	 0.185565002852985 
679	 0.185962362036536 
680	 0.186325035010324 
681	 0.186994178858731 
682	 0.187625187117725 
683	 0.188128895921001 
684	 0.188578297240193 
685	 0.189061024263345 
686	 0.189660358938084 
687	 0.190320814593717 
688	 0.190802878349575 
689	 0.191448314758885 
690	 0.192100053892436 
691	 0.192589073747316 
692	 0.193165539709797 
693	 0.193822402866903 
694	 0.194512090424199 
695	 0.19517349520014 
696	 0.195909701909043 
697	 0.196604584373446 
698	 0.197219048580575 
699	 0.197872473372348 
700	 0.198544808542152 
701	 0.19918700000756 
702	 0.199798799999711 
703	 0.200608476882142 
704	 0.201365372908097 
705	 0.202073495030719 
706	 0.202893548988695 
707	 0.203608305479562 
708	 0.204318238595383 
709	 0.205094247566922 
710	 0.20589016229613 
711	 0.206660755757097 
712	 0.207362671424551 
713	 0.208000866966501 
714	 0.208730005328011 
715	 0.20952633669136 
716	 0.210361108507648 
717	 0.211199165359878 
718	 0.211953878510145 
719	 0.212715761430396 
720	 0.213492829641646 
721	 0.214100847385705 
722	 0.214876806084901 
723	 0.215681300118524 
724	 0.216337352463783 
725	 0.217130661760744 
726	 0.217919898887458 
727	 0.218609195429251 
728	 0.219166438081561 
729	 0.219761892238037 
730	 0.220485845212657 
731	 0.221273786663765 
732	 0.221833018777316 
733	 0.222473068303931 
734	 0.223103561365709 
735	 0.223599111137416 
736	 0.224153515752077 
737	 0.224669978133609 
738	 0.225175660927434 
739	 0.225762465546628 
740	 0.226330985416617 
741	 0.226783993318609 
742	 0.22718201686646 
743	 0.227813917015526 
744	 0.228272864789526 
745	 0.228654760204466 
746	 0.229107764425177 
747	 0.229467264064183 
748	 0.229840392596599 
749	 0.230200504921944 
750	 0.230465009896235 
751	 0.230771105245557 
752	 0.230986645876078 
753	 0.231108441308648 
754	 0.231326224257974 
755	 0.231492587176858 
756	 0.231580261689623 
757	 0.231615031225665 
758	 0.231688561364489 
759	 0.231732155441037 
760	 0.231774475661335 
761	 0.231866034460033 
762	 0.231897303542301 
763	 0.231898581376314 
764	 0.231876538231488 
765	 0.231804650748552 
766	 0.231732877068682 
767	 0.231677871065247 
768	 0.231630195080386 
769	 0.231544957646726 
770	 0.231388543702685 
771	 0.231202149801322 
772	 0.231039036104913 
773	 0.230856758589976 
774	 0.230609903267653 
775	 0.230336917349226 
776	 0.230127881760326 
777	 0.229862672405088 
778	 0.229505388780092 
779	 0.22911119638915 
780	 0.228861856121458 
781	 0.228592102372939 
782	 0.228270194051528 
783	 0.22791515112229 
784	 0.22758575244543 
785	 0.227214764546287 
786	 0.226775690691279 
787	 0.226287065962443 
788	 0.225886776930667 
789	 0.225460609180822 
790	 0.224990960608683 
791	 0.224596508752424 
792	 0.224172516301674 
793	 0.223783724185668 
794	 0.223434096388654 
795	 0.222900182891235 
796	 0.222312485187876 
797	 0.221771293336544 
798	 0.221319625155604 
799	 0.220761632767125 
800	 0.220317363544524 
801	 0.219920331715666 
802	 0.219313431450536 
803	 0.218800570179849 
804	 0.218305374592478 
805	 0.217755917930288 
806	 0.217164217558108 
807	 0.216536889477243 
808	 0.215992469670212 
809	 0.215566611523887 
810	 0.214978331664885 
811	 0.21441107192093 
812	 0.21390442192741 
813	 0.213420677150298 
814	 0.21288901383784 
815	 0.212306541313779 
816	 0.211764590088126 
817	 0.211389948897527 
818	 0.210755024460249 
819	 0.210069241744577 
820	 0.209541624627848 
821	 0.209213959826448 
822	 0.208670001102263 
823	 0.208039630643154 
824	 0.207522070941405 
825	 0.207027170317361 
826	 0.206531959950783 
827	 0.206011922037417 
828	 0.205463436740011 
829	 0.204979951112261 
830	 0.204494186154191 
831	 0.203992878374073 
832	 0.203509907700425 
833	 0.202944016556132 
834	 0.202418238205972 
835	 0.20200680148656 
836	 0.20165816797556 
837	 0.201197335325081 
838	 0.200689589118358 
839	 0.20023010811404 
840	 0.199810728122581 
841	 0.199376546115022 
842	 0.198914884020013 
843	 0.198442596648145 
844	 0.198008153156366 
845	 0.197609951700462 
846	 0.197223552801041 
847	 0.19681945677016 
848	 0.196478888216322 
849	 0.196053462612994 
850	 0.19555846874573 
851	 0.195228565928977 
852	 0.194845244791746 
853	 0.194373112242465 
854	 0.193886070881005 
855	 0.193606184364035 
856	 0.193314204284259 
857	 0.192941027341669 
858	 0.192537373828502 
859	 0.192401510822975 
860	 0.192127369993769 
861	 0.191719135918261 
862	 0.191363150341378 
863	 0.190865573601847 
864	 0.19060756176945 
865	 0.190520515289084 
866	 0.190169385841587 
867	 0.189836272420504 
868	 0.189629390561709 
869	 0.189447613623749 
870	 0.188964477570062 
871	 0.188739094446144 
872	 0.188579131101599 
873	 0.188311429402649 
874	 0.188184627950502 
875	 0.188013447599979 
876	 0.187802143143748 
877	 0.187611528572357 
878	 0.187471730755274 
879	 0.187425350249582 
880	 0.187282017865811 
881	 0.186858073727239 
882	 0.186596306959324 
883	 0.186495127855575 
884	 0.186455912512426 
885	 0.186344895125218 
886	 0.186237115929676 
887	 0.186154947792931 
888	 0.186040741940977 
889	 0.185776456008802 
890	 0.185666173898065 
891	 0.185544567553878 
892	 0.185340301238531 
893	 0.185283189560509 
894	 0.1851773000019 
895	 0.185085569668944 
896	 0.185086213048628 
897	 0.185136105035261 
898	 0.185150400100037 
899	 0.185079864510877 
900	 0.184935923369582 
901	 0.184858784687953 
902	 0.184896541187996 
903	 0.184927116644083 
904	 0.184813554502458 
905	 0.184804257713616 
906	 0.184934931867282 
907	 0.185018559798606 
908	 0.184822239071514 
909	 0.18493516692745 
910	 0.185021012930856 
911	 0.185010028779195 
912	 0.185153564946318 
913	 0.185091132070744 
914	 0.185076141690791 
915	 0.185213230014262 
916	 0.185288166181364 
917	 0.185430552757695 
918	 0.185473068904385 
919	 0.185418629314924 
920	 0.185672553063571 
921	 0.185701473975826 
922	 0.185649076421121 
923	 0.185742433254052 
924	 0.185946840621686 
925	 0.186192109462293 
926	 0.186430617194752 
927	 0.186618296935404 
928	 0.186679143918261 
929	 0.186766396742428 
930	 0.186918809513333 
931	 0.187085042205376 
932	 0.187064120502048 
933	 0.18724455251371 
934	 0.187583253658888 
935	 0.187827186553008 
936	 0.188058110963686 
937	 0.188268633336023 
938	 0.188495830769955 
939	 0.188775191287969 
940	 0.188909775866696 
941	 0.189166198054913 
942	 0.189429320702337 
943	 0.189336655603904 
944	 0.189566226699121 
945	 0.189995139714729 
946	 0.190407301380793 
947	 0.190622434977054 
948	 0.19071207715897 
949	 0.190963336308915 
950	 0.191396034199959 
951	 0.191670323873539 
952	 0.191713022183351 
953	 0.191834520169544 
954	 0.192245617389327 
955	 0.192871165306674 
956	 0.193115326198781 
957	 0.193135461107263 
958	 0.193298108088947 
959	 0.193975020261858 
960	 0.194243038338929 
961	 0.194262755329546 
962	 0.194449982326211 
963	 0.195151604739283 
964	 0.195175917995826 
965	 0.195176630747682 
966	 0.195671657743047 
967	 0.195739047085123 
968	 0.196216582336797 
969	 0.19674916601366 
970	 0.196979520215084 
971	 0.197410185819294 
972	 0.197788445203451 
973	 0.198085167646804 
974	 0.198345029807924 
975	 0.198613359667881 
976	 0.199003405878437 
977	 0.199439108294557 
978	 0.199763221835819 
979	 0.199749647163615 
980	 0.200163873558454 
981	 0.200637592709552 
982	 0.200786662006357 
983	 0.201536224015023 
984	 0.201875923721126 
985	 0.201877061960538 
986	 0.202090653642013 
987	 0.203290294928015 
988	 0.203860094904048 
989	 0.203823795140308 
990	 0.20381055422168 
991	 0.20411631951317 
992	 0.204707962776778 
993	 0.205253865127288 
994	 0.205492061573897 
995	 0.205782205650947 
996	 0.205977051481994 
997	 0.206187969889398 
998	 0.206591954832015 
999	 0.207303476309301 
1000	 0.207758883117306 
1001	 0.210915055144431 
1002	 0.211220951595135 
1003	 0.211524940313862 
1004	 0.211997728743474 
1005	 0.212369092675706 
1006	 0.212847078908322 
1007	 0.213639511010807 
1008	 0.214170193196244 
1009	 0.214524571526508 
1010	 0.214935702491437 
1011	 0.215316877535716 
1012	 0.21577328124347 
1013	 0.216176465433159 
1014	 0.216666197109123 
1015	 0.217272533425049 
1016	 0.217903802180446 
1017	 0.218385584965101 
1018	 0.218878874891077 
1019	 0.219322922969705 
1020	 0.219625726327421 
1021	 0.220024834722281 
1022	 0.220486984318818 
1023	 0.220859848334863 
1024	 0.221139261061277 
1025	 0.221555785292759 
1026	 0.221988414958588 
1027	 0.222457881937546 
1028	 0.223029320352502 
1029	 0.223612712983531 
1030	 0.224068503602061 
1031	 0.224528715332353 
1032	 0.224947520813757 
1033	 0.225369473634422 
1034	 0.225926674198569 
1035	 0.22622923505854 
1036	 0.226549663319698 
1037	 0.22678035318759 
1038	 0.22715071103868 
1039	 0.227583927797117 
1040	 0.228000976176686 
1041	 0.228515476810393 
1042	 0.228938155742823 
1043	 0.229296050648818 
1044	 0.229512613969639 
1045	 0.229969041327956 
1046	 0.230520135234093 
1047	 0.231086245056217 
1048	 0.231767890251982 
1049	 0.232276477296026 
1050	 0.232678551202161 
1051	 0.233140461357024 
1052	 0.233547195517078 
1053	 0.234088879981286 
1054	 0.234769768922826 
1055	 0.235393871407038 
1056	 0.236153119642743 
1057	 0.236754426939606 
1058	 0.237234319431728 
1059	 0.237738961478608 
1060	 0.238290637478929 
1061	 0.238773232494677 
1062	 0.239458038639012 
1063	 0.240074575825038 
1064	 0.240547280502875 
1065	 0.241079616451193 
1066	 0.241602826742273 
1067	 0.242342528644666 
1068	 0.243197749319826 
1069	 0.243939627329339 
1070	 0.244679679023332 
1071	 0.245446616184923 
1072	 0.246007925962077 
1073	 0.246544109500093 
1074	 0.24732267631232 
1075	 0.248013636374419 
1076	 0.248736058502754 
1077	 0.249564367049184 
1078	 0.250271578089789 
1079	 0.250978826923531 
1080	 0.251689833011166 
1081	 0.25250018207994 
1082	 0.253288102815903 
1083	 0.253892896269879 
1084	 0.254777428443315 
1085	 0.255652886113761 
1086	 0.256390868188347 
1087	 0.257044188187016 
1088	 0.257987501486036 
1089	 0.258700621767407 
1090	 0.259148664404204 
1091	 0.25987249656353 
1092	 0.260579538901073 
1093	 0.261161783759848 
1094	 0.261922687170929 
1095	 0.262571547735572 
1096	 0.263114898395638 
1097	 0.263822874680164 
1098	 0.264548040306318 
1099	 0.265386120502487 
1100	 0.266233271233236 
1101	 0.266901815313056 
1102	 0.267584953963286 
1103	 0.268236942852159 
1104	 0.268799521680695 
1105	 0.269410782694522 
1106	 0.27017121342028 
1107	 0.270798917405071 
1108	 0.2714904300832 
1109	 0.27220714699019 
1110	 0.272679902254734 
1111	 0.273277320153673 
1112	 0.27392978216551 
1113	 0.274524131847601 
1114	 0.275283410939488 
1115	 0.275986984828599 
1116	 0.276649325359574 
1117	 0.277272649137145 
1118	 0.277871501068913 
1119	 0.278441340290021 
1120	 0.279040285533775 
1121	 0.27960186389774 
1122	 0.280209227445592 
1123	 0.280902664888751 
1124	 0.281478300578465 
1125	 0.282075675945041 
1126	 0.282626668890147 
1127	 0.283110398355709 
1128	 0.283650373472503 
1129	 0.284183757329456 
1130	 0.284844077305515 
1131	 0.285521179048884 
1132	 0.286115895852325 
1133	 0.286673057915219 
1134	 0.287091400365392 
1135	 0.28760756489152 
1136	 0.288127736049351 
1137	 0.288645505143903 
1138	 0.289230173814824 
1139	 0.289803639966833 
1140	 0.290339834119149 
1141	 0.290860932261109 
1142	 0.29146923216619 
1143	 0.292010646093017 
1144	 0.29253541288948 
1145	 0.29308996504683 
1146	 0.293634220890263 
1147	 0.294132868555008 
1148	 0.294645205250164 
1149	 0.295172805701602 
1150	 0.295625412913458 
1151	 0.296117528375884 
1152	 0.296641987311687 
1153	 0.297166903053903 
1154	 0.297696991266886 
1155	 0.298318943994183 
1156	 0.29884738453446 
1157	 0.299316022716168 
1158	 0.299824135030036 
1159	 0.300351916587516 
1160	 0.300771943752205 
1161	 0.30123386835258 
1162	 0.301726897684992 
1163	 0.302085646891918 
1164	 0.302594054593622 
1165	 0.303260681446766 
1166	 0.303728619595778 
1167	 0.304207304454289 
1168	 0.304769992144152 
1169	 0.30524383322659 
1170	 0.30561199741061 
1171	 0.306055951546902 
1172	 0.306494254848753 
1173	 0.306953523377238 
1174	 0.30745999043702 
1175	 0.307901094069091 
1176	 0.308345556260536 
1177	 0.308774786337034 
1178	 0.30911413054746 
1179	 0.309536040054412 
1180	 0.309999533203128 
1181	 0.310450201596904 
1182	 0.310871374493368 
1183	 0.311229542537564 
1184	 0.311598571623691 
1185	 0.311931337313315 
1186	 0.312323204224181 
1187	 0.312757380963814 
1188	 0.313195048614887 
1189	 0.313692147814284 
1190	 0.3141132619716 
1191	 0.314498374814635 
1192	 0.314900801058889 
1193	 0.315282271634582 
1194	 0.315638057745663 
1195	 0.315986913752241 
1196	 0.316366213611594 
1197	 0.316751753298621 
1198	 0.317070484859274 
1199	 0.317495960010614 
1200	 0.317869201890654 
1201	 0.318149965796772 
1202	 0.31851756244038 
1203	 0.318900780281826 
1204	 0.319313183352918 
1205	 0.319711756377792 
1206	 0.320150587589084 
1207	 0.320567124799638 
1208	 0.320932878769774 
1209	 0.321335871479677 
1210	 0.321771827441272 
1211	 0.322206382209987 
1212	 0.322631987687166 
1213	 0.323118510292755 
1214	 0.323644329553731 
1215	 0.324154389391391 
1216	 0.32474917114773 
1217	 0.325242190887062 
1218	 0.325656663450153 
1219	 0.326091106958219 
1220	 0.326531936502645 
1221	 0.326996894326077 
1222	 0.327467106385122 
1223	 0.327969178442412 
1224	 0.328460422338654 
1225	 0.328918128328566 
1226	 0.329400143814674 
1227	 0.32994363225403 
1228	 0.330400993109156 
1229	 0.330818805488221 
1230	 0.331238031714887 
1231	 0.331599873369572 
1232	 0.332004880696317 
1233	 0.332438474983506 
1234	 0.332839894114115 
1235	 0.333275600544849 
1236	 0.333644951216652 
1237	 0.333908374948963 
1238	 0.334249194197681 
1239	 0.334612755495542 
1240	 0.334956567816092 
1241	 0.335317925783094 
1242	 0.33566836459926 
1243	 0.335982480546055 
1244	 0.336224479211507 
1245	 0.33651207970176 
1246	 0.336789649214645 
1247	 0.337136731747008 
1248	 0.337531535572744 
1249	 0.337877012327908 
1250	 0.338289722654325 
1251	 0.338594566266072 
1252	 0.338796950392478 
1253	 0.339037424302131 
1254	 0.339254840175826 
1255	 0.339485404926516 
1256	 0.339729494759427 
1257	 0.339948534841436 
1258	 0.340151306444179 
1259	 0.34035388348946 
1260	 0.340514592646832 
1261	 0.340723285670238 
1262	 0.34097653421956 
1263	 0.341239366291769 
1264	 0.341401347844756 
1265	 0.341529146605672 
1266	 0.341686959833251 
1267	 0.341772272222954 
1268	 0.341901920657579 
1269	 0.34210962296741 
1270	 0.342243571707598 
1271	 0.342295427927883 
1272	 0.342426883721535 
1273	 0.342577650805361 
1274	 0.342742549389113 
1275	 0.342948539239743 
1276	 0.343137680496574 
1277	 0.34333661119167 
1278	 0.343527099943731 
1279	 0.343675906276453 
1280	 0.343891394008623 
1281	 0.344124628947107 
1282	 0.344386006927001 
1283	 0.344753909781322 
1284	 0.345054991131742 
1285	 0.345335446349065 
1286	 0.345581981957115 
1287	 0.345887820818763 
1288	 0.346192449141665 
1289	 0.346488475214612 
1290	 0.346827452027714 
1291	 0.347135113213587 
1292	 0.347380703708538 
1293	 0.347694674480167 
1294	 0.348054321065765 
1295	 0.34839565339896 
1296	 0.348733485527618 
1297	 0.349101875773665 
1298	 0.349532108991689 
1299	 0.349871800025641 
1300	 0.3501613203182 
1301	 0.350494894613043 
1302	 0.350783437993323 
1303	 0.351095537286686 
1304	 0.351472016107444 
1305	 0.351824406690667 
1306	 0.352183348999902 
1307	 0.352488768509297 
1308	 0.352746198737952 
1309	 0.35304103520496 
1310	 0.353297791588378 
1311	 0.353508942670153 
1312	 0.353714351042256 
1313	 0.353915665174295 
1314	 0.35412249291771 
1315	 0.354282660228527 
1316	 0.35449517872793 
1317	 0.354751869637807 
1318	 0.354990221895612 
1319	 0.355270645609871 
1320	 0.355458070058962 
1321	 0.355598422512091 
1322	 0.355748355580933 
1323	 0.355849080930325 
1324	 0.355950376432358 
1325	 0.356069110521603 
1326	 0.356163560448779 
1327	 0.356215156023714 
1328	 0.356275832640682 
1329	 0.35633694875053 
1330	 0.356401441752326 
1331	 0.3564707426177 
1332	 0.356521233336054 
1333	 0.356580941355652 
1334	 0.356610780860767 
1335	 0.356634590608366 
1336	 0.356629658130113 
1337	 0.3566493867626 
1338	 0.356684196422502 
1339	 0.356676635989909 
1340	 0.356656048215266 
1341	 0.356639562474433 
1342	 0.356601389978424 
1343	 0.356558573641844 
1344	 0.356532900853242 
1345	 0.356474871229927 
1346	 0.356360364051145 
1347	 0.356305015110531 
1348	 0.35633067973395 
1349	 0.356219493866604 
1350	 0.356065520370116 
1351	 0.355903503413233 
1352	 0.3555972870225 
1353	 0.355405485256981 
1354	 0.355254246894458 
1355	 0.355150225648888 
1356	 0.355160903343868 
1357	 0.355078211390599 
1358	 0.354967374520059 
1359	 0.354883356267654 
1360	 0.354744705655096 
1361	 0.35463933415462 
1362	 0.354598372648031 
1363	 0.354517770418166 
1364	 0.354399256568893 
1365	 0.354220057258714 
1366	 0.354110384149483 
1367	 0.354013843012002 
1368	 0.353897236704135 
1369	 0.353813211606145 
1370	 0.353686020027874 
1371	 0.353541468882333 
1372	 0.353340975505072 
1373	 0.353116369372588 
1374	 0.352870434824628 
1375	 0.352543244527988 
1376	 0.352270096875071 
1377	 0.35201396848362 
1378	 0.351747030687654 
1379	 0.35148569161719 
1380	 0.351212932117321 
1381	 0.350926329931175 
1382	 0.350654165986168 
1383	 0.350394481201974 
1384	 0.350114741994572 
1385	 0.349833341473859 
1386	 0.349546672689139 
1387	 0.349245800724271 
1388	 0.348946852911718 
1389	 0.348657711705787 
1390	 0.348353093048986 
1391	 0.348036277366778 
1392	 0.347690073313196 
1393	 0.347405705600184 
1394	 0.347137637836241 
1395	 0.346919605482078 
1396	 0.346777026485629 
1397	 0.346582771403796 
1398	 0.34640940749544 
1399	 0.346193200428096 
1400	 0.345943671311006 
1401	 0.345709732462656 
1402	 0.345471040174628 
1403	 0.345210420030947 
1404	 0.344959762067745 
1405	 0.344673431032107 
1406	 0.344344123561432 
1407	 0.344027546939515 
1408	 0.343739648018732 
1409	 0.343356335018022 
1410	 0.342904876785731 
1411	 0.342493191843251 
1412	 0.341973640095613 
1413	 0.341592184693881 
1414	 0.341249857668068 
1415	 0.34101206550134 
1416	 0.340868919983221 
1417	 0.340775730415302 
1418	 0.340799183580165 
1419	 0.340825474873347 
1420	 0.340908791586669 
1421	 0.340986912152961 
1422	 0.341116581682132 
1423	 0.341201779889101 
1424	 0.341282507900679 
1425	 0.341340487424932 
1426	 0.341329268986524 
1427	 0.341295430018245 
1428	 0.341255590448132 
1429	 0.341209099608246 
1430	 0.341188875109952 
1431	 0.341199545117525 
1432	 0.34117400815312 
1433	 0.341134738859814 
1434	 0.341109233118857 
1435	 0.341069015503499 
1436	 0.34105341517276 
1437	 0.34105650264358 
1438	 0.341069109486345 
1439	 0.341105410668881 
1440	 0.341103947600498 
1441	 0.341099748152595 
1442	 0.341090461141551 
1443	 0.34102797429826 
1444	 0.341035457636734 
1445	 0.341060067425636 
1446	 0.34113057981151 
1447	 0.341244469742213 
1448	 0.341377935463771 
1449	 0.341557527293421 
1450	 0.341736966031156 
1451	 0.341921722385565 
1452	 0.342148802765527 
1453	 0.342391523860491 
1454	 0.342667947840289 
1455	 0.343004270452629 
1456	 0.343328121633804 
1457	 0.343665502064613 
1458	 0.344014466531823 
1459	 0.344365143623092 
1460	 0.344730606441002 
1461	 0.345131298037577 
1462	 0.345512606538986 
1463	 0.345900433277696 
1464	 0.346275222301196 
1465	 0.346622380409543 
1466	 0.34699397941576 
1467	 0.347329000468246 
1468	 0.347649083430092 
1469	 0.347980068139422 
1470	 0.348226213408551 
1471	 0.34852871982012 
1472	 0.34884119972777 
1473	 0.349145140518552 
1474	 0.349453588888118 
1475	 0.349764975738266 
1476	 0.350073467241907 
1477	 0.350374942883438 
1478	 0.350689024170613 
1479	 0.350973898290654 
1480	 0.35123269294599 
1481	 0.351506545502538 
1482	 0.351753912522233 
1483	 0.352058314363623 
1484	 0.352425387934794 
1485	 0.352706609299978 
1486	 0.352998743254318 
1487	 0.353235113848406 
1488	 0.353343379690877 
1489	 0.353576378418904 
1490	 0.353874719763185 
1491	 0.35412310026665 
1492	 0.354409553761569 
1493	 0.354656673923086 
1494	 0.354831321281956 
1495	 0.355054943051327 
1496	 0.355297956329409 
1497	 0.355548044711082 
1498	 0.355815288548674 
1499	 0.356076484476006 
1500	 0.356362019432435 
1501	 0.356615114482486 
1502	 0.356853264677573 
1503	 0.357077890301269 
1504	 0.357280631687433 
1505	 0.357476403006088 
1506	 0.357638648990604 
1507	 0.35783761511477 
1508	 0.358065432549532 
1509	 0.358260277212754 
1510	 0.358481295794714 
1511	 0.358661011104171 
1512	 0.358762605012629 
1513	 0.358908320995642 
1514	 0.359072292603661 
1515	 0.359217815136593 
1516	 0.359384153339492 
1517	 0.359530493321855 
1518	 0.359668535824356 
1519	 0.359771091609451 
1520	 0.359836698533545 
1521	 0.359889153638944 
1522	 0.35997391256345 
1523	 0.360115991146464 
1524	 0.360290628343347 
1525	 0.360577597104411 
1526	 0.360716496962524 
1527	 0.36081430642788 
1528	 0.360915727029585 
1529	 0.360966511886854 
1530	 0.36101359416835 
1531	 0.361066329107252 
1532	 0.36110723814599 
1533	 0.3610882456027 
1534	 0.361144876840663 
1535	 0.361242192273906 
1536	 0.361334226785216 
1537	 0.361460836559806 
1538	 0.361544044599604 
1539	 0.361644931284227 
1540	 0.361663266521253 
1541	 0.361588919217414 
1542	 0.361618613394513 
1543	 0.361612798664318 
1544	 0.36170800522871 
1545	 0.361971552978464 
1546	 0.362045904527907 
1547	 0.362028471698776 
1548	 0.362121647764809 
1549	 0.36217199802499 
1550	 0.362270259501367 
1551	 0.362498247827733 
1552	 0.362634876091483 
1553	 0.362712136107202 
1554	 0.362800149231451 
1555	 0.362896535706624 
1556	 0.362974068930538 
1557	 0.362987223175016 
1558	 0.363085377079349 
1559	 0.363248342059476 
1560	 0.363353630508033 
1561	 0.363490586903159 
1562	 0.363576614069516 
1563	 0.363568439908221 
1564	 0.363642099424829 
1565	 0.363769074750952 
1566	 0.363841290812182 
1567	 0.363907884665882 
1568	 0.363985139493433 
1569	 0.364019782724268 
1570	 0.364091177220394 
1571	 0.364188477086911 
1572	 0.364311651598651 
1573	 0.364488017764252 
1574	 0.364593553148998 
1575	 0.364709024806434 
1576	 0.364785466161325 
1577	 0.364790438599139 
1578	 0.364802331913414 
1579	 0.364764285311511 
1580	 0.364811115947011 
1581	 0.364870550491083 
1582	 0.364958532736581 
1583	 0.365174474852305 
1584	 0.365285425793815 
1585	 0.36531015106528 
1586	 0.365403690405285 
1587	 0.365499822099031 
1588	 0.365591632264261 
1589	 0.365745412487931 
1590	 0.365844752377579 
1591	 0.365890750743357 
1592	 0.365949567345561 
1593	 0.36598622823073 
1594	 0.366048648872303 
1595	 0.366121677239687 
1596	 0.366192173361415 
1597	 0.366339009446464 
1598	 0.366368513857119 
1599	 0.366262044010613 
1600	 0.366272122323419 
1601	 0.366264249896164 
1602	 0.366290867567475 
1603	 0.366477173460909 
1604	 0.366539653286769 
1605	 0.366481401985177 
1606	 0.366502246056487 
1607	 0.366527446307695 
1608	 0.366550798018051 
1609	 0.366627564710127 
1610	 0.366672614577298 
1611	 0.366682199426405 
1612	 0.366697151409093 
1613	 0.366736721021364 
1614	 0.36673416629123 
1615	 0.366690744051083 
1616	 0.366659113521101 
1617	 0.366582000564635 
1618	 0.366555684260281 
1619	 0.366584212938309 
1620	 0.366576715556843 
1621	 0.366609955791728 
1622	 0.36657610521223 
1623	 0.366449950413891 
1624	 0.366374182388234 
1625	 0.366272878561677 
1626	 0.366209991644456 
1627	 0.366194412892113 
1628	 0.366184403642608 
1629	 0.366222019571171 
1630	 0.366210366873688 
1631	 0.366199018260759 
1632	 0.366150382330523 
1633	 0.366007308550744 
1634	 0.365937876925717 
1635	 0.365887527230853 
1636	 0.36585391240162 
1637	 0.365909160809064 
1638	 0.365883784948248 
1639	 0.365808573456548 
1640	 0.365752053438504 
1641	 0.365670853066546 
1642	 0.365583020556182 
1643	 0.365474410623358 
1644	 0.365416707674752 
1645	 0.365377846365713 
1646	 0.36532629259012 
1647	 0.365319325866493 
1648	 0.365284900013648 
1649	 0.365250078070946 
1650	 0.365160889432672 
1651	 0.365049576954659 
1652	 0.364922490078754 
1653	 0.364715839343226 
1654	 0.364530453456995 
1655	 0.364366266418797 
1656	 0.364189435676718 
1657	 0.36400529684293 
1658	 0.363816988283572 
1659	 0.36363424047154 
1660	 0.36340731682975 
1661	 0.363179451568452 
1662	 0.362878343577388 
1663	 0.362503185374639 
1664	 0.362150924871792 
1665	 0.361747345506225 
1666	 0.361364502521963 
1667	 0.361047319761974 
1668	 0.360636585414324 
1669	 0.360203003295719 
1670	 0.359696953701444 
1671	 0.359080916608145 
1672	 0.358475480942309 
1673	 0.357855753931139 
1674	 0.357173800981685 
1675	 0.356463699760651 
1676	 0.355729694459401 
1677	 0.354916090356224 
1678	 0.354130860895732 
1679	 0.353373730395306 
1680	 0.352536331729475 
1681	 0.351668097854223 
1682	 0.350765370794855 
1683	 0.349811659006509 
1684	 0.348826814915144 
1685	 0.347848714398116 
1686	 0.346755652935125 
1687	 0.345547987723766 
1688	 0.344366673074701 
1689	 0.343084707893433 
1690	 0.341884717789507 
1691	 0.340796399441782 
1692	 0.339551552011563 
1693	 0.338260900175355 
1694	 0.336963994806054 
1695	 0.335569862168909 
1696	 0.334154483818836 
1697	 0.332730208522696 
1698	 0.331290728677716 
1699	 0.32977580899528 
1700	 0.328365357677036 
1701	 0.327013509877367 
1702	 0.3256789886971 
1703	 0.324372582751198 
1704	 0.323024068310298 
1705	 0.321642193370656 
1706	 0.320340727259971 
1707	 0.319136271234569 
1708	 0.318104674498219 
1709	 0.317190686247252 
1710	 0.316262951051411 
1711	 0.315366696882448 
1712	 0.314550087705231 
1713	 0.313751386625482 
1714	 0.313023320960305 
1715	 0.312432904813079 
1716	 0.311875244356131 
1717	 0.311283817941369 
1718	 0.310758431472136 
1719	 0.310310005565363 
1720	 0.309839961518053 
1721	 0.309409817219895 
1722	 0.309051151976672 
1723	 0.308673971553828 
1724	 0.308349752711192 
1725	 0.3082163159964 
1726	 0.308179906400505 
1727	 0.308237217311055 
1728	 0.308461733157983 
1729	 0.308800860067031 
1730	 0.30926012476086 
1731	 0.309741816025255 
1732	 0.310331271186591 
1733	 0.31096184559559 
1734	 0.311581417917287 
1735	 0.312393588910712 
1736	 0.313179006701218 
1737	 0.313807530655543 
1738	 0.314316189612456 
1739	 0.31474634583802 
1740	 0.315046032934838 
1741	 0.315306003388773 
1742	 0.315553396727839 
1743	 0.315658618004943 
1744	 0.315626472056284 
1745	 0.31553175371841 
1746	 0.315289891990005 
1747	 0.315128732191818 
1748	 0.314915440869404 
1749	 0.314772214894717 
1750	 0.314663356606117 
1751	 0.314565615525324 
1752	 0.314463704060915 
1753	 0.314491353955074 
1754	 0.314623231031251 
1755	 0.31472178919006 
1756	 0.314825559004202 
1757	 0.315018187740638 
1758	 0.315309899414929 
1759	 0.315676406208095 
1760	 0.316155682601885 
1761	 0.316610385833525 
1762	 0.317076264213235 
1763	 0.317728435912024 
1764	 0.318483102914604 
1765	 0.319306011260437 
1766	 0.320200498066949 
1767	 0.321077358654803 
1768	 0.321901899683233 
1769	 0.322750327169922 
1770	 0.323641401445537 
1771	 0.324559975242965 
1772	 0.325466225770436 
1773	 0.326290397270267 
1774	 0.327015668215119 
1775	 0.327658656723604 
1776	 0.328307829502198 
1777	 0.328950742491188 
1778	 0.32955661499834 
1779	 0.330004507902183 
1780	 0.33037830458106 
1781	 0.330833048456155 
1782	 0.331239701742354 
1783	 0.331715437494487 
1784	 0.332234771716392 
1785	 0.332476328410785 
1786	 0.332745393202909 
1787	 0.332931991326315 
1788	 0.333149103837048 
1789	 0.333407314789352 
1790	 0.333622812868439 
1791	 0.333840039776218 
1792	 0.334012684492575 
1793	 0.334109596570196 
1794	 0.334168648394272 
1795	 0.334249315558873 
1796	 0.334345970877043 
1797	 0.334619588445821 
1798	 0.334871445330593 
1799	 0.335017208749055 
1800	 0.335163087374926 
1801	 0.336203857038745 
1802	 0.336333498453874 
1803	 0.336498442453125 
1804	 0.336715412343505 
1805	 0.336949352965234 
1806	 0.337103113998732 
1807	 0.337217363954217 
1808	 0.337407254482958 
1809	 0.337552309043975 
1810	 0.337744672487254 
1811	 0.338048804476494 
1812	 0.338289360936478 
1813	 0.338473552750075 
1814	 0.338715102472236 
1815	 0.338939404885621 
1816	 0.339140463058473 
1817	 0.339396361057038 
1818	 0.33971341124275 
1819	 0.339948728043235 
1820	 0.340168652969148 
1821	 0.340403573193907 
1822	 0.340616441184817 
1823	 0.340781518817335 
1824	 0.341001666374477 
1825	 0.341291793577379 
1826	 0.341508662627555 
1827	 0.34165712251521 
1828	 0.341895693089241 
1829	 0.342169775474556 
1830	 0.342414634015481 
1831	 0.342683718644706 
1832	 0.342963158465427 
1833	 0.343204372945863 
1834	 0.343437661929089 
1835	 0.343721190958587 
1836	 0.344014658344368 
1837	 0.34424868985405 
1838	 0.344449560499494 
1839	 0.344643072876834 
1840	 0.34478949681693 
1841	 0.344959086257011 
1842	 0.345114954657978 
1843	 0.345303510574604 
1844	 0.345516530348489 
1845	 0.345678453746785 
1846	 0.345922582622093 
1847	 0.346168242547714 
1848	 0.346380424435194 
1849	 0.346612932245547 
1850	 0.346817188550133 
1851	 0.346987168417364 
1852	 0.347141121299718 
1853	 0.347326438799462 
1854	 0.34743736300025 
1855	 0.347591709457472 
1856	 0.347722203489662 
1857	 0.347796220945278 
1858	 0.347931204888969 
1859	 0.347999156553416 
1860	 0.348045953896285 
1861	 0.348038711242255 
1862	 0.347999480250906 
1863	 0.347881838640559 
1864	 0.347821662522512 
1865	 0.347638019754072 
1866	 0.347432139769962 
1867	 0.347315221457771 
1868	 0.347118121057649 
1869	 0.346948742497481 
1870	 0.346768387450201 
1871	 0.346653925524634 
1872	 0.346410338635055 
1873	 0.346115315034495 
1874	 0.345762792765973 
1875	 0.345356158611512 
1876	 0.344929029085465 
1877	 0.344473313048069 
1878	 0.343961934846601 
1879	 0.343372010870699 
1880	 0.342722513044918 
1881	 0.342006535452233 
1882	 0.341206464061802 
1883	 0.340352527781616 
1884	 0.339455405227569 
1885	 0.338492845882598 
1886	 0.337485228186399 
1887	 0.336324745893925 
1888	 0.335107145047257 
1889	 0.333874287353417 
1890	 0.332487093943699 
1891	 0.331181555677299 
1892	 0.329790860228494 
1893	 0.328291125280085 
1894	 0.326663990001989 
1895	 0.325073372512102 
1896	 0.323355700344053 
1897	 0.321617193020752 
1898	 0.320001511091548 
1899	 0.318409366662962 
1900	 0.316901542280863 
1901	 0.315461281663285 
1902	 0.314017316420735 
1903	 0.312618096322894 
1904	 0.311196002252023 
1905	 0.309728331487731 
1906	 0.308339291560002 
1907	 0.307088417988573 
1908	 0.305903322738022 
1909	 0.304899840982934 
1910	 0.304021078343921 
1911	 0.303127371326852 
1912	 0.30229274448612 
1913	 0.301491784385816 
1914	 0.300726954340831 
1915	 0.300044788046381 
1916	 0.299449802004301 
1917	 0.298870901981711 
1918	 0.298399541285336 
1919	 0.29800412436911 
1920	 0.29761930356531 
1921	 0.297310162672625 
1922	 0.297002138702473 
1923	 0.296685156789445 
1924	 0.296458705684588 
1925	 0.296300575637413 
1926	 0.296116455571633 
1927	 0.29594406711546 
1928	 0.295810939147198 
1929	 0.295687528456935 
1930	 0.295546719190208 
1931	 0.295533034474216 
1932	 0.295554492404323 
1933	 0.295572572396334 
1934	 0.295631938631467 
1935	 0.295721155411669 
1936	 0.29579404325437 
1937	 0.295920707601573 
1938	 0.296141265468234 
1939	 0.296313312788102 
1940	 0.296472052478185 
1941	 0.296658227564202 
1942	 0.296837534134542 
1943	 0.29704210517726 
1944	 0.297364090755327 
1945	 0.297710437828874 
1946	 0.298086246511497 
1947	 0.298492081420992 
1948	 0.298863598263916 
1949	 0.299190450428321 
1950	 0.299587138417108 
1951	 0.300029006852612 
1952	 0.300486022798111 
1953	 0.300946909571878 
1954	 0.301491862108229 
1955	 0.302099238030968 
1956	 0.302601154127066 
1957	 0.303131741125072 
1958	 0.303686057570745 
1959	 0.304144023519465 
1960	 0.304637900046122 
1961	 0.305128063999985 
1962	 0.305622645412591 
1963	 0.306105133937246 
1964	 0.306579308658578 
1965	 0.307042457120741 
1966	 0.307533671401278 
1967	 0.307928191041602 
1968	 0.308273321211723 
1969	 0.308720045704835 
1970	 0.309117246080849 
1971	 0.309486740496485 
1972	 0.309943269354264 
1973	 0.310376253056208 
1974	 0.310804094835553 
1975	 0.311250462458544 
1976	 0.311669967915461 
1977	 0.312072128161456 
1978	 0.312460000836466 
1979	 0.312795354976777 
1980	 0.313177978830372 
1981	 0.313622131999151 
1982	 0.314013294568727 
1983	 0.31446612215025 
1984	 0.314949586203413 
1985	 0.315340864916451 
1986	 0.315755340178895 
1987	 0.316172979532285 
1988	 0.316534434610795 
1989	 0.316974175686666 
1990	 0.317500635595168 
1991	 0.317975814747289 
1992	 0.318474756707648 
1993	 0.318959552674536 
1994	 0.31938464396548 
1995	 0.319821628340666 
1996	 0.320215837906931 
1997	 0.320643731376931 
1998	 0.321106855042876 
1999	 0.321587756090787 
2000	 0.322042563721692 
2001	 0.322583166727935 
2002	 0.322994581854903 
2003	 0.323320116352578 
2004	 0.323645889686631 
2005	 0.323887943418664 
2006	 0.324173764515962 
2007	 0.324457563808937 
2008	 0.32477466008198 
2009	 0.325069786843797 
2010	 0.325349485465633 
2011	 0.325562954563417 
2012	 0.32568329344299 
2013	 0.325834766169804 
2014	 0.325937484788827 
2015	 0.326076142120953 
2016	 0.326250469892984 
2017	 0.326372465484947 
2018	 0.326494188846149 
2019	 0.326574004767832 
2020	 0.326589912856377 
2021	 0.326639586333103 
2022	 0.326670674165907 
2023	 0.326675598563146 
2024	 0.326683506590113 
2025	 0.326633682429208 
2026	 0.32654982214581 
2027	 0.326410849456357 
2028	 0.326286353856427 
2029	 0.326114896209694 
2030	 0.325977092261037 
2031	 0.325829861833088 
2032	 0.325725407002381 
2033	 0.325707035558809 
2034	 0.325587976653191 
2035	 0.325462483357372 
2036	 0.325272953443309 
2037	 0.325089742906909 
2038	 0.324912455242516 
2039	 0.324776053354304 
2040	 0.324764207148345 
2041	 0.324623121352696 
2042	 0.324426304428391 
2043	 0.324214321211332 
2044	 0.323880703752036 
2045	 0.323692787328023 
2046	 0.323562581668395 
2047	 0.323437328386679 
2048	 0.323412275807272 
2049	 0.323352465229803 
2050	 0.323285281382261 
2051	 0.323190859583849 
2052	 0.323103691201881 
2053	 0.322996571097165 
2054	 0.322867282812358 
2055	 0.322669906356801 
2056	 0.322537110197884 
2057	 0.322401354767157 
2058	 0.322321953767716 
2059	 0.32231415351872 
2060	 0.322268729513078 
2061	 0.322274274324505 
2062	 0.322207141841435 
2063	 0.322072373297208 
2064	 0.321955918671999 
2065	 0.321821835226108 
2066	 0.321664105509857 
2067	 0.32153663696906 
2068	 0.321459767480108 
2069	 0.321407234868381 
2070	 0.321414898783599 
2071	 0.321365742958027 
2072	 0.321339092404296 
2073	 0.321264509918554 
2074	 0.321156267197241 
2075	 0.321018849332215 
2076	 0.320826475415474 
2077	 0.32068217261317 
2078	 0.320492946891517 
2079	 0.320357878407885 
2080	 0.320335528383107 
2081	 0.320233772080641 
2082	 0.320101755048046 
2083	 0.319965065737288 
2084	 0.319832488133468 
2085	 0.319689123989616 
2086	 0.319550910116056 
2087	 0.319429979990667 
2088	 0.319335714058155 
2089	 0.319219726658944 
2090	 0.319138739331768 
2091	 0.319149071690579 
2092	 0.319069624262981 
2093	 0.318960270784055 
2094	 0.318847648054041 
2095	 0.318707270399966 
2096	 0.318558433411047 
2097	 0.318408309813789 
2098	 0.318209131448122 
2099	 0.318100184946923 
2100	 0.31791653019064 
2101	 0.317752945553386 
2102	 0.317629423452583 
2103	 0.317454441817898 
2104	 0.317213994997614 
2105	 0.317030520329465 
2106	 0.316847696121179 
2107	 0.316698489046016 
2108	 0.316596242576836 
2109	 0.316466206598507 
2110	 0.3163950471568 
2111	 0.316216938238156 
2112	 0.315968842276368 
2113	 0.315723005086286 
2114	 0.315412449611328 
2115	 0.315105283353804 
2116	 0.31478221290127 
2117	 0.314466350719768 
2118	 0.314193297720212 
2119	 0.313941507885262 
2120	 0.313645659498822 
2121	 0.313362026934909 
2122	 0.313111978471657 
2123	 0.312793249739839 
2124	 0.312576038954336 
2125	 0.312506122792887 
2126	 0.312310919884368 
2127	 0.312053104373654 
2128	 0.311868292772529 
2129	 0.311667256097086 
2130	 0.311497125869004 
2131	 0.311397964948231 
2132	 0.311281622914693 
2133	 0.31117157580817 
2134	 0.311044287035805 
2135	 0.310879402034059 
2136	 0.310754558322827 
2137	 0.310680279227208 
2138	 0.310615045951003 
2139	 0.310561742141333 
2140	 0.310616122238815 
2141	 0.310544981810548 
2142	 0.310404507599602 
2143	 0.310285044907833 
2144	 0.31009052036066 
2145	 0.309998050566641 
2146	 0.309963219099297 
2147	 0.309899888704898 
2148	 0.309869055620993 
2149	 0.309844985768672 
2150	 0.309791904731659 
2151	 0.309773966133963 
2152	 0.309847697175614 
2153	 0.309844546990634 
2154	 0.309790510727345 
2155	 0.309760654186208 
2156	 0.309697452678228 
2157	 0.309581434459822 
2158	 0.309506268072535 
2159	 0.309413049382234 
2160	 0.309398468186747 
2161	 0.30944141168233 
2162	 0.309437514286478 
2163	 0.309477459152366 
2164	 0.309477607333074 
2165	 0.309433701166311 
2166	 0.309389248467763 
2167	 0.309346355405437 
2168	 0.309305291918816 
2169	 0.30928923842031 
2170	 0.309183029370145 
2171	 0.308978533621969 
2172	 0.308862200433082 
2173	 0.308761427034773 
2174	 0.308596181406996 
2175	 0.30851847616126 
2176	 0.308434981260584 
2177	 0.308253749619612 
2178	 0.307920997479135 
2179	 0.307768683143174 
2180	 0.307650951232218 
2181	 0.307547841310275 
2182	 0.307554544475858 
2183	 0.307474556160795 
2184	 0.307408923217956 
2185	 0.307221845353318 
2186	 0.306946821858673 
2187	 0.306684178515896 
2188	 0.306283780457923 
2189	 0.306003959798302 
2190	 0.305839676616418 
2191	 0.305582519172805 
2192	 0.30533821753638 
2193	 0.305042316486343 
2194	 0.304628028836669 
2195	 0.304290331650133 
2196	 0.303970647443909 
2197	 0.303656134171949 
2198	 0.303400120096374 
2199	 0.303114450509888 
2200	 0.302772966098252 
2201	 0.302441009354283 
2202	 0.301946723813169 
2203	 0.30128386134001 
2204	 0.300783612798282 
2205	 0.300207126724115 
2206	 0.299770504718376 
2207	 0.299533005403042 
2208	 0.299151704917504 
2209	 0.298646996290057 
2210	 0.298350725702558 
2211	 0.298079424547171 
2212	 0.2979280977379 
2213	 0.298030430552582 
2214	 0.298018253058738 
2215	 0.298005131071535 
2216	 0.297991941889449 
2217	 0.29803567470111 
2218	 0.297956206211113 
2219	 0.297841362918524 
2220	 0.297675635019186 
2221	 0.297447305274295 
2222	 0.297097665025546 
2223	 0.296741731593859 
2224	 0.296360324196515 
2225	 0.295902492450066 
2226	 0.295346201614541 
2227	 0.294752439174499 
2228	 0.294113240424071 
2229	 0.293395525791223 
2230	 0.292626317107523 
2231	 0.29174894072467 
2232	 0.290748021428888 
2233	 0.289760604606543 
2234	 0.28870106900021 
2235	 0.287603365463524 
2236	 0.286544712072111 
2237	 0.285315939097897 
2238	 0.283946876472054 
2239	 0.282546786999972 
2240	 0.281054242893493 
2241	 0.279497897677601 
2242	 0.277901967493642 
2243	 0.276223342382482 
2244	 0.274451739599419 
2245	 0.272616234409234 
2246	 0.270680158764408 
2247	 0.268697505157091 
2248	 0.266567749587822 
2249	 0.264509431154905 
2250	 0.262479925016112 
2251	 0.260457296064656 
2252	 0.258160339073711 
2253	 0.256023181570804 
2254	 0.253776756092005 
2255	 0.251447425631934 
2256	 0.249442195367334 
2257	 0.247365089904516 
2258	 0.245332877081043 
2259	 0.243305212801298 
2260	 0.241388926690781 
2261	 0.239548311195498 
2262	 0.237728300793869 
2263	 0.235911592142498 
2264	 0.234284994713105 
2265	 0.232810254677692 
2266	 0.231244342039159 
2267	 0.229857169138689 
2268	 0.228332392364295 
2269	 0.226647730965803 
2270	 0.225036863527974 
2271	 0.223422658077092 
2272	 0.221861876624658 
2273	 0.220318701241801 
2274	 0.218793291628268 
2275	 0.217339242492259 
2276	 0.215869988134429 
2277	 0.214412010270986 
2278	 0.212925335485194 
2279	 0.211429084046736 
2280	 0.209930228238595 
2281	 0.208407444370606 
2282	 0.206856507637608 
2283	 0.205313422894238 
2284	 0.203782158961281 
2285	 0.202003221546736 
2286	 0.200372651097789 
2287	 0.198629026425684 
2288	 0.196688328321805 
2289	 0.194887336483524 
2290	 0.192964971716105 
2291	 0.191142951414732 
2292	 0.18944699474185 
2293	 0.187571717975203 
2294	 0.18584035834856 
2295	 0.184225780374173 
2296	 0.182579083673231 
2297	 0.181195236237361 
2298	 0.180032468139988 
2299	 0.179012334959257 
2300	 0.178134729219137 
2301	 0.177478372588113 
2302	 0.176987252475133 
2303	 0.176843770276553 
2304	 0.176974264988556 
2305	 0.177266410610026 
2306	 0.177950269775943 
2307	 0.178636163034614 
2308	 0.179383324608728 
2309	 0.18037054815346 
2310	 0.181625496757994 
2311	 0.18285842423454 
2312	 0.184322319470782 
2313	 0.185651100109262 
2314	 0.186977332203337 
2315	 0.188248788472508 
2316	 0.189489756647996 
2317	 0.19071450481419 
2318	 0.191938046469344 
2319	 0.193032225483244 
2320	 0.194180806435308 
2321	 0.195000224067437 
2322	 0.195519368205417 
2323	 0.196070753717339 
2324	 0.196475981955773 
2325	 0.196742888494923 
2326	 0.197081513332464 
2327	 0.197136520017065 
2328	 0.196807360434451 
2329	 0.196533202273299 
2330	 0.196237491321294 
2331	 0.195608523224631 
2332	 0.195064800659936 
2333	 0.19446005858348 
2334	 0.193574415150462 
2335	 0.192588388964908 
2336	 0.191442224200422 
2337	 0.190407591361141 
2338	 0.189534402504165 
2339	 0.188536125562628 
2340	 0.187305111816941 
2341	 0.186063140402118 
2342	 0.184833862394055 
2343	 0.183566823554696 
2344	 0.182817122994151 
2345	 0.182357748643432 
2346	 0.182044776218051 
2347	 0.182196593204986 
2348	 0.18241949765062 
2349	 0.182759560176551 
2350	 0.183346447213529 
2351	 0.184052334594041 
2352	 0.185028960735751 
2353	 0.186254827772922 
2354	 0.187245962617933 
2355	 0.1881723862511 
2356	 0.189112296074495 
2357	 0.189778986350815 
2358	 0.190619781635389 
2359	 0.191479281572568 
2360	 0.191777552598435 
2361	 0.191914470224711 
2362	 0.192025693725446 
2363	 0.191782508710433 
2364	 0.191923088811286 
2365	 0.192207173341648 
2366	 0.191775590540409 
2367	 0.191411688819157 
2368	 0.191272601216515 
2369	 0.190815408944902 
2370	 0.190610445113102 
2371	 0.19067652600679 
2372	 0.190577519556187 
2373	 0.190602217287315 
2374	 0.190817005901229 
2375	 0.19105593357515 
2376	 0.191054569246459 
2377	 0.190964577100332 
2378	 0.191028370800289 
2379	 0.191029580746155 
2380	 0.191141326733588 
2381	 0.191269982846035 
2382	 0.19114802028797 
2383	 0.190728986194347 
2384	 0.190569881398036 
2385	 0.190240033740683 
2386	 0.190325479970926 
2387	 0.190895517264344 
2388	 0.190943102162786 
2389	 0.190885267712674 
2390	 0.190950262692311 
2391	 0.190744720678618 
2392	 0.191008630603786 
2393	 0.191872844480578 
2394	 0.191938684085322 
2395	 0.191598320429879 
2396	 0.191579477542673 
2397	 0.191350253347291 
2398	 0.191327062175359 
2399	 0.191736985549399 
2400	 0.191950360455412 
2401	 0.191928527358876 
2402	 0.192189515321827 
2403	 0.192007518177251 
2404	 0.191481983169412 
2405	 0.191346432554271 
2406	 0.191653035145508 
2407	 0.191932882652586 
2408	 0.192257416508023 
2409	 0.192780239662545 
2410	 0.19262251651201 
2411	 0.19223479654879 
2412	 0.191677061847183 
2413	 0.190977662343388 
2414	 0.19106284529283 
2415	 0.191370175131728 
2416	 0.191745265472572 
2417	 0.19226404938941 
2418	 0.192164180345385 
2419	 0.191731884091518 
2420	 0.191547900363873 
2421	 0.191171633125505 
2422	 0.190940030954641 
2423	 0.190980990361996 
2424	 0.190700610435141 
2425	 0.190681376701994 
2426	 0.19071285842474 
2427	 0.19072428266158 
2428	 0.191307097149724 
2429	 0.191567842028218 
2430	 0.191566416887372 
2431	 0.191569574196146 
2432	 0.191060304444491 
2433	 0.190852921786803 
2434	 0.190433612157249 
2435	 0.189545482972281 
2436	 0.188834868332513 
2437	 0.18829900603282 
2438	 0.188629849044871 
2439	 0.18885684617469 
2440	 0.188866783301256 
2441	 0.188684255717364 
2442	 0.187924166972629 
2443	 0.187850768212102 
2444	 0.188200601978913 
2445	 0.188473910328967 
2446	 0.188066365093432 
2447	 0.187062777097083 
2448	 0.186436229689861 
2449	 0.185854939378498 
2450	 0.18591563928897 
2451	 0.18663313854193 
2452	 0.186399558015789 
2453	 0.185934667944884 
2454	 0.185551024673225 
2455	 0.184805505367583 
2456	 0.184578537387831 
2457	 0.184166778477296 
2458	 0.183678214439556 
2459	 0.183464472176987 
2460	 0.182961934549891 
2461	 0.182946095409457 
2462	 0.182955895221705 
2463	 0.18250391180767 
2464	 0.182055820169379 
2465	 0.18146438128467 
2466	 0.181556841735438 
2467	 0.181975204926045 
2468	 0.18227810947495 
2469	 0.183233447514766 
2470	 0.183468717293275 
2471	 0.183112968106939 
2472	 0.183229529360197 
2473	 0.183072101640991 
2474	 0.183260278710978 
2475	 0.183759477870275 
2476	 0.183733460531576 
2477	 0.183404845977029 
2478	 0.182692721813974 
2479	 0.181940225618235 
2480	 0.182091894142934 
2481	 0.182147490545996 
2482	 0.181960299718321 
2483	 0.18211988319956 
2484	 0.182991144114525 
2485	 0.182045604435546 
2486	 0.181982935311049 
2487	 0.183480188916951 
2488	 0.183524289295576 
2489	 0.183805586262533 
2490	 0.184590434033164 
2491	 0.184024478920163 
2492	 0.183062708730249 
2493	 0.183363628989319 
2494	 0.18380519026101 
2495	 0.18403271792649 
2496	 0.185586615451359 
2497	 0.187169277066794 
2498	 0.187912320455064 
2499	 0.189208172284196 
2500	 0.189820477903409 
