Wavelength	Tablay400054.asd
350	 0.31198892579296 
351	 0.189930080532715 
352	 0.201585554433082 
353	 0.354353495086165 
354	 0.23165460309374 
355	 0.223938229706781 
356	 0.268200531399928 
357	 0.262285924627334 
358	 0.259351807425766 
359	 0.239558949558059 
360	 0.210981538217901 
361	 0.196192554515629 
362	 0.211710647475167 
363	 0.204305056092359 
364	 0.175302877859712 
365	 0.19936975685821 
366	 0.207260440525879 
367	 0.203503230069623 
368	 0.208861179598212 
369	 0.231784571498171 
370	 0.206622363795974 
371	 0.159751873573452 
372	 0.173455046860887 
373	 0.202342611683046 
374	 0.209510401691963 
375	 0.189939422236797 
376	 0.183769740389775 
377	 0.169158552970091 
378	 0.169365677434702 
379	 0.192746211542995 
380	 0.170138730145507 
381	 0.154970657007481 
382	 0.162857690454104 
383	 0.174875797952628 
384	 0.140379296193243 
385	 0.133693316163332 
386	 0.165884277667074 
387	 0.139312476355852 
388	 0.12612558099523 
389	 0.133592489645808 
390	 0.147919438652844 
391	 0.142254639755849 
392	 0.136485299174862 
393	 0.128196489988049 
394	 0.10304029276643 
395	 0.101644969994806 
396	 0.114375858037898 
397	 0.124461265023315 
398	 0.114873231213873 
399	 0.118758377415542 
400	 0.127508277476094 
401	 0.125870654137957 
402	 0.11780482974356 
403	 0.115017014795087 
404	 0.114191343546757 
405	 0.102940460462148 
406	 0.101437476737486 
407	 0.103060999771012 
408	 0.101558414286472 
409	 9.78327178068297E-02 
410	 9.77553268134692E-02 
411	 0.101827980204206 
412	 0.105922758080463 
413	 0.094735310684641 
414	 8.14954589918631E-02 
415	 7.59975409784904E-02 
416	 8.30818642452723E-02 
417	 9.03672787089277E-02 
418	 8.83193567128878E-02 
419	 7.75187578098446E-02 
420	 8.00854695546462E-02 
421	 7.77922148097903E-02 
422	 7.26043238225161E-02 
423	 0.073524598163615 
424	 7.86950828796508E-02 
425	 7.92399758878401E-02 
426	 7.53999026441598E-02 
427	 7.75611694288086E-02 
428	 7.68060912300001E-02 
429	 7.37746181755825E-02 
430	 0.071551024691558 
431	 7.46668287116578E-02 
432	 7.52010352151704E-02 
433	 7.25754254982998E-02 
434	 7.06802373317506E-02 
435	 7.39328276501297E-02 
436	 0.076831786730029 
437	 7.59021036781859E-02 
438	 7.18673648447949E-02 
439	 7.01812953855088E-02 
440	 7.11810040857888E-02 
441	 7.27743544154586E-02 
442	 7.04127770638942E-02 
443	 0.069980176994442 
444	 0.071045262077057 
445	 6.86261000073191E-02 
446	 6.84494350380371E-02 
447	 7.03410095768321E-02 
448	 7.21958499630796E-02 
449	 6.93502177264445E-02 
450	 6.93831262984799E-02 
451	 7.10097679180544E-02 
452	 7.03003450511994E-02 
453	 6.89615688597946E-02 
454	 6.82772549589308E-02 
455	 0.06837521959496 
456	 6.81791416632946E-02 
457	 6.69175120763169E-02 
458	 6.63678637803294E-02 
459	 6.76092710023737E-02 
460	 6.82140462381583E-02 
461	 6.89361593233038E-02 
462	 6.90007067464312E-02 
463	 6.72876920140352E-02 
464	 6.65755948485356E-02 
465	 6.57256480086152E-02 
466	 6.47450212993059E-02 
467	 6.60440726076816E-02 
468	 6.66579774068949E-02 
469	 6.63582716403221E-02 
470	 6.56546780770229E-02 
471	 6.42675143822138E-02 
472	 6.46704851089738E-02 
473	 6.59465113981223E-02 
474	 6.49246475576433E-02 
475	 6.63281639361697E-02 
476	 6.58288896931619E-02 
477	 6.21105997600486E-02 
478	 6.31757743701078E-02 
479	 6.45617180141334E-02 
480	 6.49682486435405E-02 
481	 6.43738285131263E-02 
482	 6.32908132288214E-02 
483	 6.35255426877728E-02 
484	 6.45788145454731E-02 
485	 0.063472377739226 
486	 6.35331786401355E-02 
487	 6.34995056258062E-02 
488	 6.24133359938339E-02 
489	 6.35532377578144E-02 
490	 6.28738230505075E-02 
491	 6.14475196069656E-02 
492	 6.27530584952288E-02 
493	 6.33534459926255E-02 
494	 6.36413195991248E-02 
495	 6.37728951571226E-02 
496	 6.26840607170682E-02 
497	 6.29668184831865E-02 
498	 6.31400085025402E-02 
499	 6.16297836592172E-02 
500	 6.22552515453231E-02 
501	 0.062785736389262 
502	 6.27077502543737E-02 
503	 6.30977136621568E-02 
504	 6.26711991757532E-02 
505	 6.25778090181925E-02 
506	 6.34047842187763E-02 
507	 0.063528980840453 
508	 6.31701162537103E-02 
509	 6.28594545781427E-02 
510	 6.30746708075372E-02 
511	 6.26309341246601E-02 
512	 6.24573241780607E-02 
513	 6.28385813123412E-02 
514	 6.30532326719197E-02 
515	 6.29441255493163E-02 
516	 6.28046781643645E-02 
517	 6.28869517257376E-02 
518	 6.28365946902241E-02 
519	 6.27155305301242E-02 
520	 6.27297565608759E-02 
521	 6.31193585956529E-02 
522	 6.34230166698907E-02 
523	 6.36039297938585E-02 
524	 6.37196250119715E-02 
525	 6.39039550666617E-02 
526	 6.38036769713539E-02 
527	 6.35485221163076E-02 
528	 6.34317175652419E-02 
529	 6.35915383201409E-02 
530	 6.37849080234545E-02 
531	 6.39781021702996E-02 
532	 6.43676851572615E-02 
533	 6.44871210699943E-02 
534	 6.45477317744137E-02 
535	 6.47919837906123E-02 
536	 6.51519755274929E-02 
537	 6.53268511929517E-02 
538	 6.53071181011089E-02 
539	 6.52800740275275E-02 
540	 6.55443284028814E-02 
541	 0.06588494720377 
542	 6.61144806051936E-02 
543	 6.61649872791945E-02 
544	 6.64672312191228E-02 
545	 6.69538539890247E-02 
546	 6.73478230756434E-02 
547	 6.71451962353451E-02 
548	 6.74648381292077E-02 
549	 6.81936115355577E-02 
550	 6.81750424932919E-02 
551	 0.068647425598647 
552	 6.93288421311399E-02 
553	 6.97673672933554E-02 
554	 6.96835179237707E-02 
555	 7.02587582445827E-02 
556	 7.12519747207056E-02 
557	 7.18199940909625E-02 
558	 7.22503304350056E-02 
559	 7.29658575209986E-02 
560	 7.40417628673768E-02 
561	 7.50631245975146E-02 
562	 7.58632136588463E-02 
563	 7.68310432368521E-02 
564	 7.81796311503636E-02 
565	 7.87888711867294E-02 
566	 7.98279314935106E-02 
567	 8.13087815768215E-02 
568	 8.24336847177131E-02 
569	 0.083992433160943 
570	 8.55388269907922E-02 
571	 8.69471658510982E-02 
572	 8.91480738728219E-02 
573	 9.14861591672818E-02 
574	 9.38452357372611E-02 
575	 9.62862462099326E-02 
576	 9.86835951132843E-02 
577	 0.101066684266973 
578	 0.103606779885875 
579	 0.106609394895954 
580	 0.109982801555858 
581	 0.113369414767914 
582	 0.116582216782018 
583	 0.119999942489103 
584	 0.124334622519131 
585	 0.129206021207282 
586	 0.133712563344817 
587	 0.138702212992485 
588	 0.144248840845922 
589	 0.150250199544078 
590	 0.156465074946767 
591	 0.163008054568907 
592	 0.1699816547431 
593	 0.177348183342177 
594	 0.184486348937455 
595	 0.191733816904007 
596	 0.199222787368264 
597	 0.206889504871659 
598	 0.214872284275581 
599	 0.222866565737786 
600	 0.230747523561672 
601	 0.238956498437079 
602	 0.247023455199267 
603	 0.254932874178104 
604	 0.262812971820687 
605	 0.270496731602881 
606	 0.277962533786322 
607	 0.2850753547111 
608	 0.291517789121896 
609	 0.29773198959523 
610	 0.303562282960417 
611	 0.308926253127954 
612	 0.314436849747983 
613	 0.319613924432393 
614	 0.324264387905252 
615	 0.328428113881842 
616	 0.33226034996326 
617	 0.3360208930578 
618	 0.33971163114029 
619	 0.342887135308038 
620	 0.3457278975968 
621	 0.348470269114879 
622	 0.351250943732054 
623	 0.353574404922085 
624	 0.355805641025264 
625	 0.358044482655463 
626	 0.360108488314316 
627	 0.361837311438499 
628	 0.363391630077723 
629	 0.364944153801493 
630	 0.366536461132737 
631	 0.368064001280091 
632	 0.36935955862667 
633	 0.370348190610378 
634	 0.371767416194585 
635	 0.373087744677168 
636	 0.374104921863162 
637	 0.375145136151587 
638	 0.376100790831602 
639	 0.377109304435511 
640	 0.378247909219924 
641	 0.379256346026869 
642	 0.380047356594468 
643	 0.380756837806343 
644	 0.381631736985814 
645	 0.382517244127141 
646	 0.38329365827205 
647	 0.383962796617664 
648	 0.384718674330937 
649	 0.385353597864819 
650	 0.385957464026767 
651	 0.386669722513021 
652	 0.387438478287699 
653	 0.388208954068615 
654	 0.388886798233163 
655	 0.389376532439991 
656	 0.389993721176027 
657	 0.390640860364437 
658	 0.391217213303521 
659	 0.391762027470032 
660	 0.39228630140078 
661	 0.392823516030421 
662	 0.393378983716149 
663	 0.393754283644005 
664	 0.394264134881879 
665	 0.395001019119893 
666	 0.395791092614935 
667	 0.396277371235694 
668	 0.396661530517676 
669	 0.397143994700743 
670	 0.397599924704673 
671	 0.398087328619424 
672	 0.398645099466389 
673	 0.399252167148637 
674	 0.399541152100384 
675	 0.399888258624546 
676	 0.400466909558145 
677	 0.401128721869443 
678	 0.401487910850058 
679	 0.4017960827625 
680	 0.402281489004153 
681	 0.402592120383426 
682	 0.402966408414733 
683	 0.403422136873872 
684	 0.403865338063911 
685	 0.404383000934627 
686	 0.404733058726626 
687	 0.404944579884049 
688	 0.405460979405264 
689	 0.405972466826166 
690	 0.406361428794926 
691	 0.40664750249513 
692	 0.407147006869317 
693	 0.407538497799048 
694	 0.407824601472295 
695	 0.408208024947087 
696	 0.408661103764702 
697	 0.409076047063613 
698	 0.409424632821425 
699	 0.409825454681179 
700	 0.40999761687335 
701	 0.410193768213171 
702	 0.410659814281773 
703	 0.411019780011287 
704	 0.411356193617434 
705	 0.411696948209718 
706	 0.412026743679585 
707	 0.412338469025897 
708	 0.412578264653184 
709	 0.412788642823354 
710	 0.413179724709035 
711	 0.413562490016346 
712	 0.413922252702102 
713	 0.414278946426205 
714	 0.414572490514816 
715	 0.414831882645788 
716	 0.415094823533614 
717	 0.415392172585638 
718	 0.415622969514015 
719	 0.415908140304511 
720	 0.416278321680825 
721	 0.416564201084825 
722	 0.416847555093028 
723	 0.417145506762255 
724	 0.417449235505111 
725	 0.41770559300126 
726	 0.418073014860151 
727	 0.418469799882056 
728	 0.418669272664137 
729	 0.41882619823653 
730	 0.419034602800585 
731	 0.419356216900893 
732	 0.419821412030453 
733	 0.420222597846022 
734	 0.420450024521449 
735	 0.420504245210915 
736	 0.420613571379568 
737	 0.420816632764286 
738	 0.421150344440549 
739	 0.421609257860437 
740	 0.421869359521893 
741	 0.422079067417247 
742	 0.422358798250241 
743	 0.422693884001981 
744	 0.423038568616825 
745	 0.423331035922341 
746	 0.423534391775347 
747	 0.423683196060465 
748	 0.423887681601637 
749	 0.424212122797831 
750	 0.424655195377105 
751	 0.425007051187454 
752	 0.425240647954099 
753	 0.425410046395539 
754	 0.425639026937263 
755	 0.42599472484092 
756	 0.426324565141211 
757	 0.426515672326174 
758	 0.426709986432713 
759	 0.426983973939019 
760	 0.427284022703969 
761	 0.427518842150295 
762	 0.427814091305617 
763	 0.428157236189617 
764	 0.428467176882449 
765	 0.428621867145508 
766	 0.428922377880292 
767	 0.429236849159951 
768	 0.42945130337364 
769	 0.429680763025972 
770	 0.430022692435415 
771	 0.430368494582641 
772	 0.430568501292565 
773	 0.430684476219069 
774	 0.430954897944068 
775	 0.431357050235408 
776	 0.431650961848835 
777	 0.431745588597914 
778	 0.43196921150841 
779	 0.432390763024246 
780	 0.432539651621553 
781	 0.432858815414366 
782	 0.433228372755839 
783	 0.43345048405099 
784	 0.433632030335465 
785	 0.433822825947091 
786	 0.434043564815529 
787	 0.434299024477893 
788	 0.434653461539144 
789	 0.43492262355314 
790	 0.43505585891353 
791	 0.435188155906115 
792	 0.435422472038269 
793	 0.435752498072892 
794	 0.436106566697645 
795	 0.43633829105471 
796	 0.436435909339269 
797	 0.436578279392722 
798	 0.436928683148069 
799	 0.437201368985808 
800	 0.437457636115946 
801	 0.437743913611806 
802	 0.438069692790353 
803	 0.438287104774173 
804	 0.438529819142299 
805	 0.438842917760039 
806	 0.439085972694943 
807	 0.439199991102023 
808	 0.439294948211792 
809	 0.439471073341844 
810	 0.439646389995057 
811	 0.439964480224197 
812	 0.440273769044036 
813	 0.440374145225944 
814	 0.440586261442225 
815	 0.440837335590124 
816	 0.441096886095883 
817	 0.441374677859201 
818	 0.44145703987679 
819	 0.441511220687376 
820	 0.44168362431799 
821	 0.441983059058608 
822	 0.442366208938177 
823	 0.442648025546176 
824	 0.442725454262429 
825	 0.442836080749305 
826	 0.442971193594528 
827	 0.443156406184672 
828	 0.443396047656601 
829	 0.443532996728849 
830	 0.443658742067481 
831	 0.443841010602361 
832	 0.444092432505041 
833	 0.444229420451541 
834	 0.444380548199413 
835	 0.444573588454857 
836	 0.444613274680413 
837	 0.44492480223795 
838	 0.445253069118 
839	 0.445343750062658 
840	 0.445433927785991 
841	 0.445541804116717 
842	 0.445709794855182 
843	 0.445943526132277 
844	 0.446080498212649 
845	 0.446190622532545 
846	 0.44635233344927 
847	 0.446605246044409 
848	 0.446671194566312 
849	 0.446840139597658 
850	 0.447139956622669 
851	 0.447209690115741 
852	 0.447271494622014 
853	 0.447420290893977 
854	 0.447658788322697 
855	 0.447859671859539 
856	 0.447949692090385 
857	 0.448095155331893 
858	 0.448404201515521 
859	 0.448493556151021 
860	 0.448523160230698 
861	 0.448629640146306 
862	 0.448866727422496 
863	 0.448902860036245 
864	 0.44905408947416 
865	 0.44938229751038 
866	 0.449669668271468 
867	 0.44958893007624 
868	 0.449523090967591 
869	 0.449642346831167 
870	 0.449692807161896 
871	 0.450001031098634 
872	 0.450241161175312 
873	 0.450222684292188 
874	 0.450356611310322 
875	 0.450507964532434 
876	 0.450556832205303 
877	 0.450514339221047 
878	 0.450839592815973 
879	 0.451177489167658 
880	 0.451320264176705 
881	 0.451238698761843 
882	 0.451349885842344 
883	 0.451421717858965 
884	 0.451418766718564 
885	 0.451476393608662 
886	 0.451570159739983 
887	 0.451771749968217 
888	 0.452013483057372 
889	 0.452086457078641 
890	 0.452249119836453 
891	 0.452351713002788 
892	 0.452338543840845 
893	 0.452430638667321 
894	 0.452353682811344 
895	 0.452344997428527 
896	 0.45263096311734 
897	 0.453132898777671 
898	 0.453144398495584 
899	 0.452977818393894 
900	 0.453141085589937 
901	 0.453376338536966 
902	 0.453602921437563 
903	 0.453698450639266 
904	 0.453614206105759 
905	 0.453712049822431 
906	 0.453844753767627 
907	 0.454019011264857 
908	 0.454298243959927 
909	 0.454148427230278 
910	 0.454150376795104 
911	 0.45444002548816 
912	 0.454616298625277 
913	 0.454810684578842 
914	 0.455006689038467 
915	 0.455123600678487 
916	 0.455038180328365 
917	 0.455032944142098 
918	 0.455102736620018 
919	 0.455213537592035 
920	 0.455395741422444 
921	 0.45569983667494 
922	 0.455876024797719 
923	 0.455831541108189 
924	 0.456055275013355 
925	 0.456166159719297 
926	 0.456293135964607 
927	 0.456556719181926 
928	 0.456466563184505 
929	 0.456636888243998 
930	 0.456940919050488 
931	 0.457007017480465 
932	 0.456893725057521 
933	 0.456846363363172 
934	 0.456958034982973 
935	 0.457183972572045 
936	 0.457322474232058 
937	 0.457559289802161 
938	 0.457760947646067 
939	 0.457671377205793 
940	 0.457818970362347 
941	 0.458128498791401 
942	 0.458405526450816 
943	 0.45845637583483 
944	 0.45853212830572 
945	 0.458673728258119 
946	 0.458783549240737 
947	 0.458691436064306 
948	 0.45869789999714 
949	 0.459064354154558 
950	 0.459597548743176 
951	 0.459631348695191 
952	 0.459677506594686 
953	 0.459599875194453 
954	 0.4595386150916 
955	 0.4601164415501 
956	 0.46025443829134 
957	 0.460234331083608 
958	 0.460331771774592 
959	 0.460307957031884 
960	 0.460558361741749 
961	 0.460726292481143 
962	 0.46063356312736 
963	 0.4607876104411 
964	 0.461094235191455 
965	 0.461181451023949 
966	 0.461032203763004 
967	 0.461569855765284 
968	 0.461733872372847 
969	 0.461808932711938 
970	 0.462063661468002 
971	 0.461699541887776 
972	 0.461953918904974 
973	 0.462471515833991 
974	 0.462628936929288 
975	 0.462492532328804 
976	 0.462815311793593 
977	 0.46304755762295 
978	 0.462746733693737 
979	 0.46315281515817 
980	 0.463372757383601 
981	 0.463367179290791 
982	 0.463423470370143 
983	 0.46392551327116 
984	 0.463986112141424 
985	 0.463821430792865 
986	 0.463914989652803 
987	 0.464222627927148 
988	 0.46416745178961 
989	 0.464284793453849 
990	 0.464973458973943 
991	 0.464767973813029 
992	 0.464683562641848 
993	 0.464915852033594 
994	 0.465249227934187 
995	 0.465209253226323 
996	 0.465330094685548 
997	 0.465443868826349 
998	 0.465387550926322 
999	 0.465932447077713 
1000	 0.465975479612681 
1001	 0.472725172126889 
1002	 0.472953375680183 
1003	 0.473240969186935 
1004	 0.473365217132614 
1005	 0.473305039828967 
1006	 0.473348786694275 
1007	 0.47331760513675 
1008	 0.47348909372633 
1009	 0.473793096210934 
1010	 0.474014454888753 
1011	 0.474514603772766 
1012	 0.474590634578437 
1013	 0.474129425547963 
1014	 0.474145662573176 
1015	 0.474245205560862 
1016	 0.474337523722293 
1017	 0.474616662789053 
1018	 0.475031302954101 
1019	 0.475098310746497 
1020	 0.475118805820332 
1021	 0.475231881698238 
1022	 0.475330226195836 
1023	 0.475498160251286 
1024	 0.475779497673754 
1025	 0.475977996194557 
1026	 0.476189646307363 
1027	 0.476406510920626 
1028	 0.476679355345905 
1029	 0.476729226918718 
1030	 0.476798515479412 
1031	 0.476992130326618 
1032	 0.477061559157525 
1033	 0.477095585599433 
1034	 0.477186961465686 
1035	 0.477174646173163 
1036	 0.477247055267016 
1037	 0.47738584245769 
1038	 0.477483808627656 
1039	 0.477625798487824 
1040	 0.477635455986947 
1041	 0.477420462771887 
1042	 0.477499551268479 
1043	 0.477675045824019 
1044	 0.477868663359312 
1045	 0.478095176960586 
1046	 0.478326340179617 
1047	 0.478310348877257 
1048	 0.47829923286597 
1049	 0.478313678172934 
1050	 0.478355810105294 
1051	 0.478513881792478 
1052	 0.478555893744712 
1053	 0.478673944758989 
1054	 0.478917770769394 
1055	 0.479084089932945 
1056	 0.479211923005037 
1057	 0.479374156908585 
1058	 0.479529877647739 
1059	 0.479766467547716 
1060	 0.480003156398988 
1061	 0.480237779555211 
1062	 0.480483313318231 
1063	 0.4805467368188 
1064	 0.480593597824471 
1065	 0.480737728539365 
1066	 0.4808833297525 
1067	 0.4811685328087 
1068	 0.481470755210798 
1069	 0.481685887729542 
1070	 0.481938228829417 
1071	 0.482247128661553 
1072	 0.48242915581886 
1073	 0.482620369368226 
1074	 0.483015937893847 
1075	 0.48333562754571 
1076	 0.483591889213643 
1077	 0.48375996627265 
1078	 0.483612845895802 
1079	 0.483606762677743 
1080	 0.483955391468561 
1081	 0.484313350827697 
1082	 0.484806313210839 
1083	 0.485152088701103 
1084	 0.485239106685247 
1085	 0.485522698253733 
1086	 0.48572093533421 
1087	 0.485877498961308 
1088	 0.486014007004282 
1089	 0.486284604503747 
1090	 0.486306851642069 
1091	 0.486379698622134 
1092	 0.486653171024183 
1093	 0.486759415148429 
1094	 0.486864919289175 
1095	 0.487132477903661 
1096	 0.487359196609589 
1097	 0.487524891634999 
1098	 0.487763730881838 
1099	 0.487882007809605 
1100	 0.487873335217931 
1101	 0.4878649694592 
1102	 0.487844024866384 
1103	 0.487934213618046 
1104	 0.488071835184122 
1105	 0.488290355861041 
1106	 0.488608898616909 
1107	 0.488889357975079 
1108	 0.488956736148517 
1109	 0.488961122073917 
1110	 0.489010438267154 
1111	 0.489078167506771 
1112	 0.489185864688747 
1113	 0.489292024857981 
1114	 0.489296107976345 
1115	 0.489255008502909 
1116	 0.489294302771902 
1117	 0.489457416947483 
1118	 0.489602137527697 
1119	 0.48985740076091 
1120	 0.489920165975199 
1121	 0.489933221568914 
1122	 0.48986612029641 
1123	 0.48973541223163 
1124	 0.489646709849141 
1125	 0.489585324431436 
1126	 0.48961547317678 
1127	 0.489696696055771 
1128	 0.489832832739196 
1129	 0.489975822104555 
1130	 0.489985554320333 
1131	 0.48998319151 
1132	 0.489978615280175 
1133	 0.490017030440395 
1134	 0.490078915833466 
1135	 0.490038537414445 
1136	 0.489879406305356 
1137	 0.489806921850785 
1138	 0.489648581273201 
1139	 0.489638050184853 
1140	 0.489753762001619 
1141	 0.489898609061591 
1142	 0.489895142770021 
1143	 0.489868009144039 
1144	 0.489894177130754 
1145	 0.489825762621915 
1146	 0.489801822132337 
1147	 0.489890047995837 
1148	 0.489955947590333 
1149	 0.489988557262377 
1150	 0.489988312438852 
1151	 0.490050474226098 
1152	 0.490106400489793 
1153	 0.490114585730663 
1154	 0.490129332432497 
1155	 0.490216492663883 
1156	 0.49021190977484 
1157	 0.490132441361423 
1158	 0.490106838160786 
1159	 0.490066128050013 
1160	 0.490033513143916 
1161	 0.490088534943544 
1162	 0.490104414241594 
1163	 0.490198623017991 
1164	 0.49028867045963 
1165	 0.490252817831467 
1166	 0.490251687114544 
1167	 0.490309365916609 
1168	 0.490291074942306 
1169	 0.490315185230144 
1170	 0.490439248244675 
1171	 0.490466951312287 
1172	 0.490427251028549 
1173	 0.490428451209842 
1174	 0.490390297358312 
1175	 0.490402221548337 
1176	 0.49043427394845 
1177	 0.490491159311318 
1178	 0.490609190450442 
1179	 0.490715837153223 
1180	 0.490759176664012 
1181	 0.490769801256494 
1182	 0.490796055613584 
1183	 0.490779584859074 
1184	 0.490756067970284 
1185	 0.490817193811376 
1186	 0.490840018208741 
1187	 0.490828524595043 
1188	 0.490842350343046 
1189	 0.490886407417184 
1190	 0.490896529693126 
1191	 0.490880545487649 
1192	 0.490898870170271 
1193	 0.490898141385131 
1194	 0.490941860941846 
1195	 0.491010955880275 
1196	 0.491112449902342 
1197	 0.49128717844266 
1198	 0.491416300471811 
1199	 0.491497100670017 
1200	 0.49164062635408 
1201	 0.491718338953992 
1202	 0.491824969637083 
1203	 0.491986856249014 
1204	 0.492053407322902 
1205	 0.492155166829815 
1206	 0.492228667648004 
1207	 0.492350506694362 
1208	 0.492485476447708 
1209	 0.492653993213161 
1210	 0.492822224990185 
1211	 0.493070330075055 
1212	 0.493415091802228 
1213	 0.493701049731074 
1214	 0.494009265837963 
1215	 0.494317951105274 
1216	 0.49460070244874 
1217	 0.494887422879264 
1218	 0.495167656785404 
1219	 0.495506383763129 
1220	 0.495840971976518 
1221	 0.496156601254792 
1222	 0.496514937493392 
1223	 0.496916672383034 
1224	 0.4973074172345 
1225	 0.49771617252911 
1226	 0.498068081254805 
1227	 0.498423513034938 
1228	 0.498758315783449 
1229	 0.499044469720887 
1230	 0.499328410460739 
1231	 0.49962861271171 
1232	 0.49988141605074 
1233	 0.500063444731313 
1234	 0.50028542499438 
1235	 0.500471705569958 
1236	 0.50071836801291 
1237	 0.501071905350481 
1238	 0.501331874307717 
1239	 0.501565173163874 
1240	 0.501812604954195 
1241	 0.502017485898418 
1242	 0.502138988581066 
1243	 0.502335569767894 
1244	 0.502580026050541 
1245	 0.502791545985679 
1246	 0.502988077017137 
1247	 0.503207257958173 
1248	 0.503418327940706 
1249	 0.503668151736274 
1250	 0.504006615202213 
1251	 0.504213424306933 
1252	 0.504357518672972 
1253	 0.50454679918359 
1254	 0.504627537025348 
1255	 0.50481457774686 
1256	 0.505113843078131 
1257	 0.505380798241588 
1258	 0.505723582172378 
1259	 0.505964198301302 
1260	 0.506146887529918 
1261	 0.506333410829618 
1262	 0.506469022083616 
1263	 0.506560798452523 
1264	 0.506700260983876 
1265	 0.506874177273418 
1266	 0.507017914122835 
1267	 0.507158161817007 
1268	 0.507275417883017 
1269	 0.507342642038913 
1270	 0.507497067617242 
1271	 0.507708031768229 
1272	 0.507850651224139 
1273	 0.508008704838032 
1274	 0.508164286583046 
1275	 0.508236818986297 
1276	 0.508377353770938 
1277	 0.508610695472038 
1278	 0.508783500297972 
1279	 0.508922976808819 
1280	 0.509082049268633 
1281	 0.509206355563707 
1282	 0.509379217832812 
1283	 0.509590336538439 
1284	 0.509806659293943 
1285	 0.510039988421884 
1286	 0.51030295440091 
1287	 0.510558935198564 
1288	 0.510830970376394 
1289	 0.511075671067552 
1290	 0.511309396690735 
1291	 0.511561367897082 
1292	 0.511785804791307 
1293	 0.51206268592598 
1294	 0.512413551518691 
1295	 0.512682391304965 
1296	 0.512914418417295 
1297	 0.513184666444818 
1298	 0.513415274947269 
1299	 0.513690546016665 
1300	 0.514037727357745 
1301	 0.514345339516338 
1302	 0.51467239502159 
1303	 0.514941081563526 
1304	 0.515189185099552 
1305	 0.515401991524425 
1306	 0.51551831948742 
1307	 0.515686609572057 
1308	 0.515860023801847 
1309	 0.516036368736614 
1310	 0.516230744217209 
1311	 0.516457199474424 
1312	 0.516664748481282 
1313	 0.516867149788218 
1314	 0.517076534498147 
1315	 0.517318369925973 
1316	 0.517485965148807 
1317	 0.517605493605911 
1318	 0.517764963774734 
1319	 0.517889010928871 
1320	 0.518043823228031 
1321	 0.518287332719382 
1322	 0.518418966417064 
1323	 0.518490040594416 
1324	 0.518568183490252 
1325	 0.518582891579298 
1326	 0.518629842953153 
1327	 0.518706627866887 
1328	 0.518753606534755 
1329	 0.518772654593625 
1330	 0.518815090275516 
1331	 0.518840253241016 
1332	 0.518893607537066 
1333	 0.5189593358976 
1334	 0.519074865858363 
1335	 0.519145217713761 
1336	 0.51923614965931 
1337	 0.519240998231749 
1338	 0.519203837791409 
1339	 0.519160492937755 
1340	 0.519056670589637 
1341	 0.51899756718852 
1342	 0.518915462835354 
1343	 0.518914787126396 
1344	 0.518978973891426 
1345	 0.518988457977815 
1346	 0.519059969946084 
1347	 0.519038439083189 
1348	 0.518925480380751 
1349	 0.518853233938852 
1350	 0.518753997646014 
1351	 0.518685317864863 
1352	 0.518661951552484 
1353	 0.518582406524854 
1354	 0.518467379993674 
1355	 0.518384949635204 
1356	 0.51828923531902 
1357	 0.518195825694506 
1358	 0.518124248594222 
1359	 0.518056476866968 
1360	 0.517986514857891 
1361	 0.517910998768614 
1362	 0.517814617295225 
1363	 0.517740256225271 
1364	 0.517597225493549 
1365	 0.517382749492649 
1366	 0.517231308307764 
1367	 0.517072414350035 
1368	 0.516927660182325 
1369	 0.516816639661073 
1370	 0.516683142698755 
1371	 0.516531530186807 
1372	 0.51640912663323 
1373	 0.516333625894396 
1374	 0.51617234622481 
1375	 0.515969012885119 
1376	 0.515789088014368 
1377	 0.515545541682056 
1378	 0.515358877697367 
1379	 0.515242144660804 
1380	 0.515081420428158 
1381	 0.514939824364334 
1382	 0.514737465915969 
1383	 0.514474625018526 
1384	 0.514233217825017 
1385	 0.513911443185541 
1386	 0.513687293663711 
1387	 0.513510139874575 
1388	 0.513373633689046 
1389	 0.513332134663877 
1390	 0.513260589703235 
1391	 0.51319738058559 
1392	 0.513153091591278 
1393	 0.513090164108934 
1394	 0.512997881731519 
1395	 0.512945699262794 
1396	 0.512900831691926 
1397	 0.512887274425948 
1398	 0.512936101629392 
1399	 0.512879185806087 
1400	 0.512815095454167 
1401	 0.512687121921929 
1402	 0.512477019498145 
1403	 0.512272981131672 
1404	 0.512039460922929 
1405	 0.511817205361889 
1406	 0.511576830592828 
1407	 0.511325746012907 
1408	 0.511086697001245 
1409	 0.510812158843701 
1410	 0.51046868152922 
1411	 0.510197989366075 
1412	 0.509950693161471 
1413	 0.509704007308278 
1414	 0.509469034256907 
1415	 0.509273696538274 
1416	 0.509084872650616 
1417	 0.50892189174762 
1418	 0.508810553151998 
1419	 0.508705836660591 
1420	 0.508619184941535 
1421	 0.508532358140812 
1422	 0.508463637976669 
1423	 0.50840152633912 
1424	 0.508367830311938 
1425	 0.508282309578563 
1426	 0.50818644946351 
1427	 0.508120743729991 
1428	 0.50804778700518 
1429	 0.507978797365618 
1430	 0.507907828508327 
1431	 0.507853657241768 
1432	 0.507806136374925 
1433	 0.507748778487951 
1434	 0.507694410727647 
1435	 0.507674710845173 
1436	 0.507619920840089 
1437	 0.507528028076361 
1438	 0.507465405886242 
1439	 0.507380875637453 
1440	 0.507373530356835 
1441	 0.507402462279521 
1442	 0.507445893183776 
1443	 0.507566431217374 
1444	 0.507633106168077 
1445	 0.507667790297363 
1446	 0.507741334287724 
1447	 0.507814715636242 
1448	 0.507909952719388 
1449	 0.507996950832994 
1450	 0.508163908255944 
1451	 0.508383693953232 
1452	 0.508611729262947 
1453	 0.508904091700941 
1454	 0.509193728877392 
1455	 0.509498420794429 
1456	 0.509790596502641 
1457	 0.510094584497453 
1458	 0.51040810069654 
1459	 0.510692751525931 
1460	 0.511010700941571 
1461	 0.511413931370208 
1462	 0.511738538387538 
1463	 0.512012359895691 
1464	 0.512311700404151 
1465	 0.51256407796598 
1466	 0.512829975139844 
1467	 0.513198560038871 
1468	 0.513564813441969 
1469	 0.513937052888234 
1470	 0.514250975042063 
1471	 0.514532906805221 
1472	 0.514737653185311 
1473	 0.515024120434958 
1474	 0.515309866842955 
1475	 0.515623434260348 
1476	 0.51600394071464 
1477	 0.516306853019051 
1478	 0.516574587936664 
1479	 0.516859451970744 
1480	 0.517130016761751 
1481	 0.517394091596098 
1482	 0.517656846461818 
1483	 0.517935185589639 
1484	 0.518201259588662 
1485	 0.518471144170903 
1486	 0.518770016820079 
1487	 0.519047265143121 
1488	 0.519306364655987 
1489	 0.519566375058299 
1490	 0.519828723260537 
1491	 0.520080024494765 
1492	 0.5202910232172 
1493	 0.520557828953545 
1494	 0.52087933897026 
1495	 0.521144421229507 
1496	 0.521393802966769 
1497	 0.521670576624492 
1498	 0.521925985731979 
1499	 0.522190921394782 
1500	 0.522487633004756 
1501	 0.522785351926121 
1502	 0.523109073665152 
1503	 0.523360213772587 
1504	 0.523573531525868 
1505	 0.523811706874401 
1506	 0.523979354433397 
1507	 0.524198827633331 
1508	 0.524489141282784 
1509	 0.524759202293804 
1510	 0.525059239758379 
1511	 0.525300078290638 
1512	 0.525507049879251 
1513	 0.525711609260655 
1514	 0.525854132078562 
1515	 0.526023515652627 
1516	 0.526206502417751 
1517	 0.526403365026954 
1518	 0.526630045891549 
1519	 0.526827655273139 
1520	 0.527050710319984 
1521	 0.527219789429373 
1522	 0.527322950602559 
1523	 0.527457102912012 
1524	 0.527598524936232 
1525	 0.527722637131779 
1526	 0.527889788686025 
1527	 0.528120341627966 
1528	 0.52823912554261 
1529	 0.528317450616175 
1530	 0.528432099982506 
1531	 0.528505329014324 
1532	 0.528590497465371 
1533	 0.528712596720587 
1534	 0.52881142296798 
1535	 0.528858887941881 
1536	 0.528965599971431 
1537	 0.529127372763466 
1538	 0.529240568565305 
1539	 0.529342331965419 
1540	 0.529446119133634 
1541	 0.529538629725364 
1542	 0.529629487516266 
1543	 0.529704156604389 
1544	 0.529822235192123 
1545	 0.529953369286065 
1546	 0.530087694443101 
1547	 0.530269055016245 
1548	 0.530404650717837 
1549	 0.530493340956812 
1550	 0.530638599106939 
1551	 0.530790046026173 
1552	 0.530966210222085 
1553	 0.531205851200797 
1554	 0.531384079959356 
1555	 0.531554997741394 
1556	 0.531701284004133 
1557	 0.531791207028871 
1558	 0.531929620592111 
1559	 0.532062951639151 
1560	 0.532231166428977 
1561	 0.532453409768807 
1562	 0.532634998280785 
1563	 0.532830828452425 
1564	 0.532990232754104 
1565	 0.533102842162864 
1566	 0.533242614945569 
1567	 0.533397963833749 
1568	 0.533513118207022 
1569	 0.533590643700014 
1570	 0.533717596872068 
1571	 0.533852597904737 
1572	 0.533967222184497 
1573	 0.534111025802734 
1574	 0.534242496860314 
1575	 0.53433606918454 
1576	 0.534439416777178 
1577	 0.534565472938094 
1578	 0.534681432389956 
1579	 0.534743553595886 
1580	 0.53487780603682 
1581	 0.535060900276171 
1582	 0.535240025385706 
1583	 0.535460646610834 
1584	 0.535666139239931 
1585	 0.535867561117764 
1586	 0.53606723718456 
1587	 0.536312090103056 
1588	 0.536474790189027 
1589	 0.53658093728141 
1590	 0.53669506124521 
1591	 0.536757703151649 
1592	 0.536828383112179 
1593	 0.536887056641586 
1594	 0.536982267386227 
1595	 0.537074013713142 
1596	 0.53718559786297 
1597	 0.537366775524827 
1598	 0.537500617646475 
1599	 0.537603263414543 
1600	 0.537720730680485 
1601	 0.537815227274907 
1602	 0.537938319504697 
1603	 0.538137847228226 
1604	 0.538236460731942 
1605	 0.538293693068202 
1606	 0.538342319771979 
1607	 0.53827637142903 
1608	 0.538297210460574 
1609	 0.538356524838136 
1610	 0.53843687708482 
1611	 0.538592156355901 
1612	 0.538691536046306 
1613	 0.538781737751465 
1614	 0.538872974813532 
1615	 0.538934065613297 
1616	 0.538998004393153 
1617	 0.539111504035477 
1618	 0.53914208610714 
1619	 0.539100369560956 
1620	 0.539081839292499 
1621	 0.53899825260077 
1622	 0.538970857490855 
1623	 0.539004760434548 
1624	 0.538998428320242 
1625	 0.538991173649204 
1626	 0.538987661130771 
1627	 0.538927022884002 
1628	 0.538947600381919 
1629	 0.539066700554418 
1630	 0.539106115808421 
1631	 0.539164290978473 
1632	 0.539173042508001 
1633	 0.539085135277632 
1634	 0.539038509281976 
1635	 0.538964526037981 
1636	 0.538957449431123 
1637	 0.539037998059896 
1638	 0.53904570135204 
1639	 0.539043392910939 
1640	 0.539052837917913 
1641	 0.538988029779737 
1642	 0.538976710661974 
1643	 0.539050428145835 
1644	 0.539084423077479 
1645	 0.539143586173426 
1646	 0.539141515861689 
1647	 0.539086584478329 
1648	 0.539037722139774 
1649	 0.538937224770625 
1650	 0.538858038927575 
1651	 0.538812913594355 
1652	 0.538715884888618 
1653	 0.538573819026246 
1654	 0.538472040921699 
1655	 0.538382763276531 
1656	 0.538263487274757 
1657	 0.538190626900403 
1658	 0.538023375919194 
1659	 0.537745612317232 
1660	 0.537523944373778 
1661	 0.537293184024754 
1662	 0.537052058036787 
1663	 0.536836973692186 
1664	 0.536593914408728 
1665	 0.5363295323287 
1666	 0.536023984185537 
1667	 0.535749735926814 
1668	 0.535349581034644 
1669	 0.534821300623803 
1670	 0.534348334230674 
1671	 0.533817657360487 
1672	 0.533285871405892 
1673	 0.532821042325807 
1674	 0.532239335917873 
1675	 0.531571748992951 
1676	 0.530924245161001 
1677	 0.530264538974282 
1678	 0.529518265011993 
1679	 0.52873372698717 
1680	 0.527902401383576 
1681	 0.526991527447932 
1682	 0.526037672025878 
1683	 0.525052239242758 
1684	 0.524042619743518 
1685	 0.522947527385482 
1686	 0.521893809107494 
1687	 0.520862712582558 
1688	 0.519774445301892 
1689	 0.518650233614744 
1690	 0.517504369617587 
1691	 0.516375349550176 
1692	 0.515137071580268 
1693	 0.513807209479923 
1694	 0.512534986721514 
1695	 0.511184705536563 
1696	 0.509898944445596 
1697	 0.508695428946747 
1698	 0.507426150985797 
1699	 0.506169720797424 
1700	 0.504828023920372 
1701	 0.503414211738087 
1702	 0.502040622453002 
1703	 0.500567507163933 
1704	 0.499256292051335 
1705	 0.498036051029806 
1706	 0.496833933118869 
1707	 0.495719926981131 
1708	 0.494754679501369 
1709	 0.493831984494134 
1710	 0.49302176967738 
1711	 0.492337206623103 
1712	 0.491705545774093 
1713	 0.491096850804631 
1714	 0.490572422187808 
1715	 0.490073687169443 
1716	 0.489495449412585 
1717	 0.489003060928674 
1718	 0.488499881000526 
1719	 0.487989091665794 
1720	 0.487609124835606 
1721	 0.487265919391667 
1722	 0.487033239257205 
1723	 0.486869129407638 
1724	 0.486691054245005 
1725	 0.486576552418819 
1726	 0.486497382480964 
1727	 0.486488096161951 
1728	 0.486656855604527 
1729	 0.487077019142831 
1730	 0.4876261939204 
1731	 0.488215264078256 
1732	 0.48891221321857 
1733	 0.489471444249239 
1734	 0.490016683625309 
1735	 0.490747967693082 
1736	 0.491433721235874 
1737	 0.492106437622115 
1738	 0.492715582726858 
1739	 0.493181849851743 
1740	 0.493545909428493 
1741	 0.4938454690092 
1742	 0.494055403850855 
1743	 0.494160291678301 
1744	 0.494146302147707 
1745	 0.494106410597161 
1746	 0.493948692225059 
1747	 0.493865386575818 
1748	 0.493757076768909 
1749	 0.493697482462334 
1750	 0.493659191118735 
1751	 0.493630958895147 
1752	 0.493630638680329 
1753	 0.49367751519444 
1754	 0.493735475575313 
1755	 0.493847281226198 
1756	 0.493997436109554 
1757	 0.494163954153496 
1758	 0.49444796154999 
1759	 0.494849839227025 
1760	 0.495408114481257 
1761	 0.496010858599206 
1762	 0.4965983083283 
1763	 0.497264816821169 
1764	 0.497937845068658 
1765	 0.498725782405078 
1766	 0.499665515135886 
1767	 0.500561536108274 
1768	 0.501457107665799 
1769	 0.502343777698975 
1770	 0.503196607098815 
1771	 0.504099987119679 
1772	 0.504976766535633 
1773	 0.505777390130887 
1774	 0.506580337671235 
1775	 0.507346136273529 
1776	 0.508064928339027 
1777	 0.508772407827011 
1778	 0.509406946713679 
1779	 0.509953718150498 
1780	 0.510450269096713 
1781	 0.510939129797184 
1782	 0.511404097912422 
1783	 0.51184540350139 
1784	 0.512250735924562 
1785	 0.512357779377896 
1786	 0.512596727824935 
1787	 0.512832443219466 
1788	 0.513036502142947 
1789	 0.513336544207831 
1790	 0.513628754186845 
1791	 0.513766350320174 
1792	 0.513975120743177 
1793	 0.514311773464165 
1794	 0.514462741643568 
1795	 0.51466966119315 
1796	 0.514841630010625 
1797	 0.515036011281087 
1798	 0.515295338956096 
1799	 0.515433177566277 
1800	 0.515562788749018 
1801	 0.516322458009822 
1802	 0.516466511338798 
1803	 0.516587236737737 
1804	 0.516706126495045 
1805	 0.516815394974465 
1806	 0.516936492607135 
1807	 0.517029516769337 
1808	 0.51719033006977 
1809	 0.51738068192963 
1810	 0.517586516866035 
1811	 0.517820805928019 
1812	 0.518073726655639 
1813	 0.518346187308014 
1814	 0.518662698616621 
1815	 0.5189497404461 
1816	 0.519204202621593 
1817	 0.519412246161287 
1818	 0.519514259919215 
1819	 0.519709699309133 
1820	 0.51986845420217 
1821	 0.520124357252695 
1822	 0.520490695037617 
1823	 0.520815798380591 
1824	 0.521105040442122 
1825	 0.521423408745535 
1826	 0.521695767842806 
1827	 0.521898633860115 
1828	 0.522126693692509 
1829	 0.522340687421008 
1830	 0.522592173400923 
1831	 0.52284852536986 
1832	 0.523120345974797 
1833	 0.523361806408862 
1834	 0.52363211364934 
1835	 0.523897084315939 
1836	 0.524134533351333 
1837	 0.524376897229801 
1838	 0.524619629795398 
1839	 0.52490973462898 
1840	 0.525228367027237 
1841	 0.525501130200252 
1842	 0.525803491467728 
1843	 0.526121862705338 
1844	 0.526299460358966 
1845	 0.526449387150029 
1846	 0.52661482685168 
1847	 0.526759051826621 
1848	 0.526998937312439 
1849	 0.527355986700293 
1850	 0.527582225559945 
1851	 0.527821936392474 
1852	 0.528040129125166 
1853	 0.528110903698976 
1854	 0.528118157115176 
1855	 0.528213538716977 
1856	 0.528322065342927 
1857	 0.528425403484128 
1858	 0.528632815136502 
1859	 0.528767253216463 
1860	 0.528908210505288 
1861	 0.528951598504419 
1862	 0.528973247345119 
1863	 0.528889249699107 
1864	 0.528692127043976 
1865	 0.528628157075174 
1866	 0.528573645883174 
1867	 0.528407567389517 
1868	 0.528298558415946 
1869	 0.528138252244056 
1870	 0.527943002899158 
1871	 0.527713548705796 
1872	 0.52748629101271 
1873	 0.527244083765788 
1874	 0.526975385114929 
1875	 0.526700640862896 
1876	 0.526265251935762 
1877	 0.525751168827259 
1878	 0.525179469486737 
1879	 0.52449157283076 
1880	 0.523837012210952 
1881	 0.523160869233838 
1882	 0.522494382503519 
1883	 0.521743682023255 
1884	 0.520888783769786 
1885	 0.519882910638599 
1886	 0.518869499962397 
1887	 0.517781648029369 
1888	 0.516565382665938 
1889	 0.515426122714314 
1890	 0.514172458896808 
1891	 0.512835362734527 
1892	 0.511544959273441 
1893	 0.510198762654487 
1894	 0.508791403618911 
1895	 0.507410130875253 
1896	 0.505993601861638 
1897	 0.504577176260857 
1898	 0.503367263466143 
1899	 0.502075889481712 
1900	 0.500835956885964 
1901	 0.499792035799646 
1902	 0.498659731816652 
1903	 0.49765879432522 
1904	 0.496666438599834 
1905	 0.495722157418374 
1906	 0.494759919134359 
1907	 0.493967944267076 
1908	 0.493123649080087 
1909	 0.492402690924676 
1910	 0.491817397198605 
1911	 0.491116061701575 
1912	 0.490485046569957 
1913	 0.489969799728218 
1914	 0.489390337057358 
1915	 0.488895713296572 
1916	 0.488471489220301 
1917	 0.488127561234619 
1918	 0.487715766068419 
1919	 0.487398494845906 
1920	 0.487111178973856 
1921	 0.486806666199138 
1922	 0.486585928074721 
1923	 0.486366578904588 
1924	 0.486124186206561 
1925	 0.485878240062302 
1926	 0.4857267352993 
1927	 0.485660976499387 
1928	 0.485573761197041 
1929	 0.485504402256267 
1930	 0.485521030107734 
1931	 0.485571405035521 
1932	 0.485522216927986 
1933	 0.485576171859381 
1934	 0.48566550022529 
1935	 0.485691924999887 
1936	 0.485788666036606 
1937	 0.485907117388166 
1938	 0.486058279382725 
1939	 0.486220464675412 
1940	 0.486399567815524 
1941	 0.486611508030105 
1942	 0.486872335688895 
1943	 0.487200680823556 
1944	 0.487561456396221 
1945	 0.487924137025026 
1946	 0.48827822277286 
1947	 0.488583369854337 
1948	 0.488927072393253 
1949	 0.489279458448468 
1950	 0.489641377125494 
1951	 0.490009262457529 
1952	 0.490432762621284 
1953	 0.490872920646741 
1954	 0.491330282089252 
1955	 0.491889764254401 
1956	 0.492484214619391 
1957	 0.493041038637122 
1958	 0.493554612251934 
1959	 0.494037152594297 
1960	 0.4944066952146 
1961	 0.494814921172553 
1962	 0.495209300929968 
1963	 0.495635937956074 
1964	 0.496061388098218 
1965	 0.496488040577883 
1966	 0.496924983712078 
1967	 0.497377954466079 
1968	 0.497812329707733 
1969	 0.49830712120429 
1970	 0.49874848577713 
1971	 0.499125550354925 
1972	 0.49953952868118 
1973	 0.499930153979533 
1974	 0.500328088457163 
1975	 0.50075582752251 
1976	 0.501178354166926 
1977	 0.501578599412366 
1978	 0.501995093586595 
1979	 0.50242636755013 
1980	 0.502869812281926 
1981	 0.503308064934344 
1982	 0.503709408942533 
1983	 0.504154215706468 
1984	 0.504614082318077 
1985	 0.505057830054957 
1986	 0.505506769160652 
1987	 0.505928514408986 
1988	 0.506286907541044 
1989	 0.506709105863493 
1990	 0.507134166198873 
1991	 0.507591957039601 
1992	 0.50806513293321 
1993	 0.508641594951058 
1994	 0.509148624424766 
1995	 0.50964973274047 
1996	 0.510164436945882 
1997	 0.510616945562074 
1998	 0.511081927363838 
1999	 0.511545557028583 
2000	 0.511978829285368 
2001	 0.51240445653082 
2002	 0.512805350427759 
2003	 0.513175229821858 
2004	 0.513554068829058 
2005	 0.513896280519383 
2006	 0.514265237748953 
2007	 0.514674869379017 
2008	 0.515044450384129 
2009	 0.515360934670954 
2010	 0.515639963703609 
2011	 0.515893835182866 
2012	 0.516037501564226 
2013	 0.516198209208455 
2014	 0.51635378928441 
2015	 0.516497640526706 
2016	 0.516576762081916 
2017	 0.516719940513314 
2018	 0.516936084548546 
2019	 0.517062617346758 
2020	 0.517191244075792 
2021	 0.517258070596111 
2022	 0.517264745216596 
2023	 0.517206069672486 
2024	 0.51709502676808 
2025	 0.517021713482015 
2026	 0.516919335806006 
2027	 0.516750244229513 
2028	 0.516661025459648 
2029	 0.516618480665817 
2030	 0.516544840948073 
2031	 0.516492669545654 
2032	 0.516445626323922 
2033	 0.516381595869633 
2034	 0.516314616916518 
2035	 0.516280988450928 
2036	 0.51621210194087 
2037	 0.516112057867843 
2038	 0.516006268144979 
2039	 0.515934659675681 
2040	 0.515900885261216 
2041	 0.515801278313479 
2042	 0.515685900352139 
2043	 0.5155820693255 
2044	 0.515452394918162 
2045	 0.515310545762483 
2046	 0.515165664146939 
2047	 0.515024840382407 
2048	 0.51480390309429 
2049	 0.514682384644686 
2050	 0.514561366084465 
2051	 0.514609320759089 
2052	 0.514726776238696 
2053	 0.514724441043226 
2054	 0.514741156254207 
2055	 0.514778805389043 
2056	 0.514757996908532 
2057	 0.514699921146485 
2058	 0.514639625207248 
2059	 0.514536306468986 
2060	 0.514461456047786 
2061	 0.51437274045479 
2062	 0.514300640861165 
2063	 0.514263429982158 
2064	 0.514196809096323 
2065	 0.514126011066231 
2066	 0.514017294525406 
2067	 0.513938829695806 
2068	 0.514012452068327 
2069	 0.513976404379494 
2070	 0.51395369624614 
2071	 0.51392493578422 
2072	 0.513836175064414 
2073	 0.513775798642 
2074	 0.513759821446773 
2075	 0.513728018752363 
2076	 0.51364922244574 
2077	 0.513626494908325 
2078	 0.513658153668566 
2079	 0.513676229448703 
2080	 0.513697697441313 
2081	 0.513727950319216 
2082	 0.513784390455875 
2083	 0.513810757331634 
2084	 0.51382069150399 
2085	 0.513812368135921 
2086	 0.513794971811536 
2087	 0.513740321710912 
2088	 0.51370053489905 
2089	 0.513631737672801 
2090	 0.513636596341806 
2091	 0.513700189875126 
2092	 0.513692033861327 
2093	 0.513712961584169 
2094	 0.513690601477181 
2095	 0.513572238972314 
2096	 0.513502737150673 
2097	 0.513399708964546 
2098	 0.513424153493987 
2099	 0.51344143943475 
2100	 0.513349737464125 
2101	 0.513282247121788 
2102	 0.513189642948784 
2103	 0.513137046528938 
2104	 0.51309510435644 
2105	 0.513027920487765 
2106	 0.512968244937006 
2107	 0.51291009462213 
2108	 0.512796480883169 
2109	 0.512762109734796 
2110	 0.512854126088427 
2111	 0.512811829506074 
2112	 0.512709982661151 
2113	 0.512626765988198 
2114	 0.512493116605797 
2115	 0.51235242292972 
2116	 0.512242413926098 
2117	 0.512090892416044 
2118	 0.511956911977373 
2119	 0.511759424476641 
2120	 0.511649516139464 
2121	 0.511625559030804 
2122	 0.511530168684397 
2123	 0.511457035118458 
2124	 0.511307438159373 
2125	 0.511080921399196 
2126	 0.51089221622162 
2127	 0.510599442257904 
2128	 0.510467080557761 
2129	 0.510449316708163 
2130	 0.510397168023392 
2131	 0.510474632777128 
2132	 0.510460575010744 
2133	 0.510405210901821 
2134	 0.51026596469749 
2135	 0.510226615533287 
2136	 0.510169753374226 
2137	 0.510078665555695 
2138	 0.5100132790256 
2139	 0.509900705958717 
2140	 0.509697419714107 
2141	 0.509567357161734 
2142	 0.509456955376457 
2143	 0.509351215026364 
2144	 0.509232863987383 
2145	 0.509180669851908 
2146	 0.509208814816577 
2147	 0.509177963780638 
2148	 0.509139664859842 
2149	 0.509131131446769 
2150	 0.509093228621754 
2151	 0.509074677196463 
2152	 0.509060120454766 
2153	 0.509162724619102 
2154	 0.509167399201913 
2155	 0.509145294502951 
2156	 0.509122228342074 
2157	 0.509111620740521 
2158	 0.509003543831553 
2159	 0.508819881705201 
2160	 0.50869011573998 
2161	 0.508558857555445 
2162	 0.508355157413575 
2163	 0.50811920404456 
2164	 0.507933430684107 
2165	 0.507653620197174 
2166	 0.507468637489625 
2167	 0.507420736086462 
2168	 0.507308937430225 
2169	 0.507226985942554 
2170	 0.507064017611994 
2171	 0.506838532633659 
2172	 0.506624967525292 
2173	 0.506393171190287 
2174	 0.506086689455291 
2175	 0.505755360036524 
2176	 0.505569081901082 
2177	 0.505363293107277 
2178	 0.505156135411417 
2179	 0.504953163828333 
2180	 0.504816354857305 
2181	 0.504606009373678 
2182	 0.504289756150266 
2183	 0.50414635083148 
2184	 0.504107698775115 
2185	 0.503979027080629 
2186	 0.50394351484076 
2187	 0.503791195606418 
2188	 0.503449775853964 
2189	 0.503253574290584 
2190	 0.50311199450042 
2191	 0.502956642466723 
2192	 0.502849923282531 
2193	 0.502751126705537 
2194	 0.502684399059717 
2195	 0.502545250427624 
2196	 0.502400467578253 
2197	 0.502234660169031 
2198	 0.501914855049185 
2199	 0.50166057155486 
2200	 0.50147613819776 
2201	 0.501313623997545 
2202	 0.501177686745028 
2203	 0.501157769657449 
2204	 0.501011791957512 
2205	 0.500852432567986 
2206	 0.500611073211838 
2207	 0.500262050784928 
2208	 0.4999911712737 
2209	 0.499665031407835 
2210	 0.499416754396933 
2211	 0.49922164802248 
2212	 0.499060197883902 
2213	 0.498992217477399 
2214	 0.498841904365632 
2215	 0.49871919462697 
2216	 0.498519002501774 
2217	 0.498227194674639 
2218	 0.497925934321941 
2219	 0.497643013212742 
2220	 0.49729846336669 
2221	 0.496893222763173 
2222	 0.496413390327182 
2223	 0.496081490618435 
2224	 0.495665912040296 
2225	 0.495259918118137 
2226	 0.494904291957366 
2227	 0.494472265546528 
2228	 0.493955665816468 
2229	 0.493436771875533 
2230	 0.492924216589631 
2231	 0.492367657183172 
2232	 0.491798772135272 
2233	 0.491104050233946 
2234	 0.490418508555329 
2235	 0.489516166131974 
2236	 0.488400295180199 
2237	 0.487277682178858 
2238	 0.486003388040915 
2239	 0.484764941812469 
2240	 0.483565658291884 
2241	 0.482192741390445 
2242	 0.480716447590793 
2243	 0.479192049502641 
2244	 0.47751115762387 
2245	 0.475863002103525 
2246	 0.474177703749947 
2247	 0.472502913622209 
2248	 0.470867298195568 
2249	 0.469105888886301 
2250	 0.467259974274868 
2251	 0.465446860284846 
2252	 0.463516999317094 
2253	 0.461601911903761 
2254	 0.45969478118161 
2255	 0.45787432062286 
2256	 0.456135118775713 
2257	 0.45430663334883 
2258	 0.452578707456794 
2259	 0.450974170859933 
2260	 0.449246543644727 
2261	 0.447459528790438 
2262	 0.4457753236469 
2263	 0.444026357380352 
2264	 0.442469808998889 
2265	 0.441117418007327 
2266	 0.439643851613452 
2267	 0.438186186412314 
2268	 0.436762261941838 
2269	 0.435288303001489 
2270	 0.433929059157289 
2271	 0.432740774105014 
2272	 0.431453821324353 
2273	 0.430083158851403 
2274	 0.428841148612618 
2275	 0.427780860129707 
2276	 0.426445096129341 
2277	 0.425085483984891 
2278	 0.423655288209638 
2279	 0.421864443323058 
2280	 0.420301835253409 
2281	 0.418851879968168 
2282	 0.417407926115464 
2283	 0.416080358351945 
2284	 0.414670272210935 
2285	 0.413169775388798 
2286	 0.411815615222108 
2287	 0.410181192842462 
2288	 0.408442076877705 
2289	 0.406967078501789 
2290	 0.405246154632933 
2291	 0.40345593833773 
2292	 0.401901986896833 
2293	 0.400148354094026 
2294	 0.398352904848646 
2295	 0.396930701213943 
2296	 0.395633966150645 
2297	 0.394429984164488 
2298	 0.393375025962971 
2299	 0.392499740164915 
2300	 0.391651847875379 
2301	 0.391196771017471 
2302	 0.391077910691966 
2303	 0.391067780864046 
2304	 0.391315372875118 
2305	 0.391723730264377 
2306	 0.392240795333481 
2307	 0.393102435060254 
2308	 0.394342992348243 
2309	 0.395603638494057 
2310	 0.397164735780633 
2311	 0.398598085496518 
2312	 0.400067594056299 
2313	 0.401562559022122 
2314	 0.403120836482749 
2315	 0.404676390436314 
2316	 0.406228640227234 
2317	 0.407748287656706 
2318	 0.409476334177531 
2319	 0.41073419668643 
2320	 0.411807719751714 
2321	 0.412733594936704 
2322	 0.413275752779238 
2323	 0.413785421850289 
2324	 0.414193281088287 
2325	 0.414475553735281 
2326	 0.41462550097811 
2327	 0.414602448791092 
2328	 0.414304240553675 
2329	 0.414203453735987 
2330	 0.414116661596239 
2331	 0.413927104770757 
2332	 0.413676421119634 
2333	 0.41324924138751 
2334	 0.412651032319482 
2335	 0.411937726669444 
2336	 0.411254286192044 
2337	 0.410405823347438 
2338	 0.409272710409015 
2339	 0.407909340195553 
2340	 0.406547642941409 
2341	 0.405509060582937 
2342	 0.404758077219866 
2343	 0.404163855191541 
2344	 0.403598246677672 
2345	 0.40328095767007 
2346	 0.403293198621432 
2347	 0.403301547510617 
2348	 0.40356501485134 
2349	 0.404181710525879 
2350	 0.40481541759674 
2351	 0.405673003058434 
2352	 0.406824696356594 
2353	 0.40802112780695 
2354	 0.40906637692378 
2355	 0.410226402621943 
2356	 0.411209354688818 
2357	 0.411807836872597 
2358	 0.412387055787147 
2359	 0.412888488357215 
2360	 0.413542670210559 
2361	 0.414243345472169 
2362	 0.414557932602081 
2363	 0.41456573308741 
2364	 0.414520511023316 
2365	 0.414464679396978 
2366	 0.414711388540235 
2367	 0.41522876216966 
2368	 0.415423601453631 
2369	 0.415339330414696 
2370	 0.415314561083499 
2371	 0.415258788381455 
2372	 0.415117554937145 
2373	 0.415194357965593 
2374	 0.415356249379997 
2375	 0.415650310031929 
2376	 0.416049786387191 
2377	 0.416124981548756 
2378	 0.41640992911417 
2379	 0.416643377635341 
2380	 0.416460038850448 
2381	 0.41649084912305 
2382	 0.41658480234882 
2383	 0.416468007343026 
2384	 0.416647797277304 
2385	 0.417293131950329 
2386	 0.417490750268013 
2387	 0.417466096216548 
2388	 0.417511749841767 
2389	 0.417282107621944 
2390	 0.41762435028635 
2391	 0.418495801304874 
2392	 0.418787831347383 
2393	 0.419071612736593 
2394	 0.419340206775483 
2395	 0.419186460257658 
2396	 0.419309458002702 
2397	 0.41977777391262 
2398	 0.419913742498202 
2399	 0.419740889731536 
2400	 0.419976911861877 
2401	 0.420348190826707 
2402	 0.420977736113801 
2403	 0.421336845094895 
2404	 0.421499382108531 
2405	 0.421646144199035 
2406	 0.421445891901992 
2407	 0.421459532324428 
2408	 0.421336684676909 
2409	 0.420958833453441 
2410	 0.420799719630904 
2411	 0.420662379189285 
2412	 0.420913158988507 
2413	 0.421547245932092 
2414	 0.421933496682134 
2415	 0.422111455101535 
2416	 0.422150089512352 
2417	 0.422187541074707 
2418	 0.422427553941835 
2419	 0.422247332385042 
2420	 0.422116649929999 
2421	 0.422105744732113 
2422	 0.421875670183619 
2423	 0.421912923119817 
2424	 0.421618668000784 
2425	 0.421483398370913 
2426	 0.421449439140492 
2427	 0.421623742713165 
2428	 0.42241065393375 
2429	 0.422659763823449 
2430	 0.422481504760198 
2431	 0.422154062807634 
2432	 0.422050842293879 
2433	 0.422229246663725 
2434	 0.422158571397674 
2435	 0.422411101558424 
2436	 0.422689293450956 
2437	 0.42187206197249 
2438	 0.421323875565394 
2439	 0.421533690094249 
2440	 0.421053418572091 
2441	 0.421069956992425 
2442	 0.421722533053969 
2443	 0.421688550442193 
2444	 0.421238636138806 
2445	 0.421057951343323 
2446	 0.420976790438189 
2447	 0.420000747079515 
2448	 0.420048530638855 
2449	 0.420458821023262 
2450	 0.419535212453394 
2451	 0.419416363090674 
2452	 0.418674091106203 
2453	 0.417920904228312 
2454	 0.418468380050021 
2455	 0.418364418305536 
2456	 0.418137098809308 
2457	 0.417907700111209 
2458	 0.417650865408092 
2459	 0.418029476507335 
2460	 0.41835564914026 
2461	 0.417913549473986 
2462	 0.417374975707215 
2463	 0.41658039741214 
2464	 0.415994552621965 
2465	 0.41620957208732 
2466	 0.415424005520078 
2467	 0.414066287410029 
2468	 0.413459353745879 
2469	 0.413101577432348 
2470	 0.413106521311416 
2471	 0.414014152042921 
2472	 0.414654899585024 
2473	 0.414824283076582 
2474	 0.414755823335935 
2475	 0.414410245146476 
2476	 0.413990382721211 
2477	 0.413460637858334 
2478	 0.413828525447885 
2479	 0.413997487527592 
2480	 0.413854496472012 
2481	 0.413976661058121 
2482	 0.413868215448573 
2483	 0.413909771717389 
2484	 0.414117744156613 
2485	 0.415042830613313 
2486	 0.416146975556883 
2487	 0.417438871183189 
2488	 0.419136666330273 
2489	 0.419467245878058 
2490	 0.41913995376754 
2491	 0.419595211421383 
2492	 0.419036867499844 
2493	 0.418051692974683 
2494	 0.418285165636423 
2495	 0.418726809379686 
2496	 0.419982633684538 
2497	 0.421846441958698 
2498	 0.421602736703035 
2499	 0.420716775047288 
2500	 0.419975540422964 
