Wavelength	Tablay400069.asd
350	 0.253033199570785 
351	 0.182884490363457 
352	 0.136045736078511 
353	 0.208447701242105 
354	 0.282062134502239 
355	 0.260871645329718 
356	 0.199841471430899 
357	 0.179376119567523 
358	 0.198325227873546 
359	 0.201600490822025 
360	 0.173855326026202 
361	 0.137722110827541 
362	 0.153979075529533 
363	 0.168757562832227 
364	 0.159439940638872 
365	 0.172321562188513 
366	 0.127816886733045 
367	 7.80354248497673E-02 
368	 9.11454871483691E-02 
369	 0.168104329280037 
370	 0.199636522820119 
371	 0.162634537728836 
372	 0.101758503276663 
373	 0.150011721768469 
374	 0.17168057045422 
375	 0.124058872781682 
376	 0.139967924938626 
377	 9.31510507164381E-02 
378	 7.67239258945578E-02 
379	 0.155270521889682 
380	 0.120129777243497 
381	 9.25717061531138E-02 
382	 0.106309772565561 
383	 0.130093381385558 
384	 0.101633044934526 
385	 8.36402073968993E-02 
386	 9.96351272328993E-02 
387	 9.23921167321718E-02 
388	 0.115943434345931 
389	 0.124478996445755 
390	 8.43975807821582E-02 
391	 9.96673023133292E-02 
392	 0.106214181786313 
393	 9.71796861049335E-02 
394	 0.102312315816024 
395	 9.35928773718548E-02 
396	 8.22644781320298E-02 
397	 7.73968052408522E-02 
398	 7.47944303182469E-02 
399	 8.92113230476781E-02 
400	 0.101137730173318 
401	 9.13719409738399E-02 
402	 7.75655762255888E-02 
403	 7.35050068125007E-02 
404	 8.01278607410105E-02 
405	 0.087260177933271 
406	 0.077819957034619 
407	 6.91257393431422E-02 
408	 7.05406019787358E-02 
409	 7.11367531127843E-02 
410	 6.46011177326787E-02 
411	 6.36045826907013E-02 
412	 7.83081137357889E-02 
413	 7.80605056397567E-02 
414	 6.99904485268264E-02 
415	 6.52886836642875E-02 
416	 7.57666529120337E-02 
417	 7.46648453005066E-02 
418	 6.85957690318062E-02 
419	 6.58976569719315E-02 
420	 6.58900422718251E-02 
421	 6.37147504581383E-02 
422	 6.23900187809563E-02 
423	 6.60217172712649E-02 
424	 6.34774570882446E-02 
425	 6.41827560382118E-02 
426	 6.79880511797115E-02 
427	 6.31035094819342E-02 
428	 6.33350306466497E-02 
429	 6.42629688945214E-02 
430	 6.14616488752933E-02 
431	 0.062535354979695 
432	 6.09122623439511E-02 
433	 0.058468780320171 
434	 6.05269906190162E-02 
435	 5.99965392230156E-02 
436	 5.96841869622267E-02 
437	 6.09077168002328E-02 
438	 6.13769664780194E-02 
439	 5.87577620804152E-02 
440	 5.64188063486016E-02 
441	 5.76861768072323E-02 
442	 5.88670772054545E-02 
443	 5.91411603660083E-02 
444	 0.057984223526376 
445	 5.52978087529714E-02 
446	 5.37180436998631E-02 
447	 5.45018725442313E-02 
448	 5.67995600657837E-02 
449	 5.60230879359395E-02 
450	 5.48483044313201E-02 
451	 0.055180736230954 
452	 0.057552887317768 
453	 5.61376059991576E-02 
454	 5.43067903843574E-02 
455	 5.44671498143428E-02 
456	 5.71664900325843E-02 
457	 0.054379476063787 
458	 5.17647060009036E-02 
459	 0.053750682656041 
460	 5.21139207849699E-02 
461	 5.26717930335013E-02 
462	 5.40513176357403E-02 
463	 5.20034387137142E-02 
464	 5.26678506420474E-02 
465	 5.32419359633358E-02 
466	 5.23769206563346E-02 
467	 5.23158780428212E-02 
468	 5.16986645288956E-02 
469	 5.08635063638798E-02 
470	 5.08292344346845E-02 
471	 5.39083822566063E-02 
472	 5.38989683464677E-02 
473	 5.06818409205565E-02 
474	 4.89816957162171E-02 
475	 5.05267008849809E-02 
476	 5.16864730814688E-02 
477	 5.05742671136115E-02 
478	 5.09100044495266E-02 
479	 5.04045055970733E-02 
480	 4.95491160390807E-02 
481	 0.049543053818302 
482	 4.93164113599216E-02 
483	 4.93622265336172E-02 
484	 4.97772648408201E-02 
485	 5.01139876847083E-02 
486	 4.88131474555997E-02 
487	 4.79451415987376E-02 
488	 4.89434796193929E-02 
489	 4.88337384643956E-02 
490	 4.94702538453723E-02 
491	 5.01841816052195E-02 
492	 4.91886754764292E-02 
493	 4.82883075453028E-02 
494	 4.85141160511205E-02 
495	 4.95447770793686E-02 
496	 4.91278363560413E-02 
497	 4.87578857282284E-02 
498	 4.81777583262839E-02 
499	 4.71455367573104E-02 
500	 4.77809740691012E-02 
501	 4.83161440827286E-02 
502	 4.80838192918821E-02 
503	 4.75059302776085E-02 
504	 4.64294518981896E-02 
505	 4.60822350321213E-02 
506	 4.69774815808165E-02 
507	 4.76684510904718E-02 
508	 4.74370785226838E-02 
509	 4.68505529182375E-02 
510	 4.68609405394804E-02 
511	 4.64450530725759E-02 
512	 4.60782593743139E-02 
513	 0.046075913934735 
514	 0.046406380712036 
515	 4.67266039894824E-02 
516	 0.046861624609245 
517	 4.66450681926123E-02 
518	 4.55758384780886E-02 
519	 4.51772415894562E-02 
520	 4.55678718881508E-02 
521	 4.58742428266792E-02 
522	 4.58222491464723E-02 
523	 4.58411950256421E-02 
524	 4.60535432904985E-02 
525	 4.57456725028567E-02 
526	 4.55422340763049E-02 
527	 4.56151191454008E-02 
528	 0.04591789619924 
529	 4.62639692639846E-02 
530	 4.58730871172197E-02 
531	 4.51185440295101E-02 
532	 4.55241917804817E-02 
533	 4.55220075718705E-02 
534	 4.52372860920923E-02 
535	 4.50829201920109E-02 
536	 4.52394083514779E-02 
537	 4.52972879767107E-02 
538	 4.52672559089261E-02 
539	 4.53571770574586E-02 
540	 4.52353316065428E-02 
541	 4.53510492250984E-02 
542	 4.56382775150755E-02 
543	 4.50539832081983E-02 
544	 4.48787043123844E-02 
545	 4.48920901974243E-02 
546	 4.46454631239572E-02 
547	 4.48321543139651E-02 
548	 4.50355195119638E-02 
549	 4.50605701150685E-02 
550	 4.49512546375026E-02 
551	 4.47770780165137E-02 
552	 4.44463483221026E-02 
553	 4.40788614158638E-02 
554	 4.44628315211571E-02 
555	 4.45898741914432E-02 
556	 4.44826536650795E-02 
557	 4.45847438501653E-02 
558	 4.45284329444386E-02 
559	 4.43253357950837E-02 
560	 4.41745738892172E-02 
561	 4.44882808487018E-02 
562	 4.44270968073885E-02 
563	 4.43554403046332E-02 
564	 4.46264855282891E-02 
565	 4.41890013872869E-02 
566	 4.41791128246661E-02 
567	 4.45046787171089E-02 
568	 4.42330445464601E-02 
569	 4.44187341282881E-02 
570	 4.44804078819057E-02 
571	 4.41602002502775E-02 
572	 4.44160598437892E-02 
573	 4.44149970036754E-02 
574	 4.43506996310697E-02 
575	 0.044633127379761 
576	 4.45572352215364E-02 
577	 4.46053016583411E-02 
578	 4.48928373334824E-02 
579	 4.50415858516174E-02 
580	 4.50129730407684E-02 
581	 4.49293857571656E-02 
582	 0.044920748287121 
583	 4.49666419803251E-02 
584	 4.52460961814239E-02 
585	 4.55653035029984E-02 
586	 4.55563353254493E-02 
587	 4.54277955603202E-02 
588	 4.54317224583912E-02 
589	 4.56406655403093E-02 
590	 4.58362073300192E-02 
591	 4.61058565941465E-02 
592	 4.64834807253183E-02 
593	 4.69113066617599E-02 
594	 4.69844659096714E-02 
595	 4.71795868247519E-02 
596	 4.75830479425901E-02 
597	 4.79244024059809E-02 
598	 4.82538161561095E-02 
599	 4.86726457547279E-02 
600	 4.91920805130882E-02 
601	 4.95633438075141E-02 
602	 0.050011062662065 
603	 5.06574915404416E-02 
604	 5.15051076441009E-02 
605	 0.052120849965157 
606	 5.27407236971009E-02 
607	 5.35388353928119E-02 
608	 5.45367200969753E-02 
609	 5.53589616372149E-02 
610	 0.05623547033631 
611	 5.74223058559938E-02 
612	 5.87398786833786E-02 
613	 5.99626967770823E-02 
614	 6.11867424408053E-02 
615	 6.26823892315039E-02 
616	 6.41620616165882E-02 
617	 6.55570816118975E-02 
618	 6.69474590722885E-02 
619	 6.86092620664156E-02 
620	 7.06577185025116E-02 
621	 7.26499234658533E-02 
622	 7.41810164111572E-02 
623	 7.59474732230347E-02 
624	 7.80088922613623E-02 
625	 8.02028186524612E-02 
626	 8.22122903366744E-02 
627	 8.43634294917569E-02 
628	 8.64859571803136E-02 
629	 8.85263794386016E-02 
630	 9.09763231428668E-02 
631	 9.32465253300822E-02 
632	 9.54257140677678E-02 
633	 9.78213458836888E-02 
634	 0.100028810611792 
635	 0.102393120999713 
636	 0.104931253542175 
637	 0.107181630626492 
638	 0.109553380665507 
639	 0.111873295549503 
640	 0.114003166417938 
641	 0.116395273621165 
642	 0.118718626752567 
643	 0.12095020387147 
644	 0.123251817920166 
645	 0.125525461557529 
646	 0.127835868158306 
647	 0.130158625809819 
648	 0.132299273533581 
649	 0.134432657046726 
650	 0.136635771672805 
651	 0.138906713309142 
652	 0.141064284772094 
653	 0.14307898195606 
654	 0.145074657391532 
655	 0.147251114674257 
656	 0.149182298457574 
657	 0.151090673264884 
658	 0.153147327441777 
659	 0.155205760886962 
660	 0.157236066311693 
661	 0.159074153267106 
662	 0.16064786495312 
663	 0.162578030746542 
664	 0.164534401292254 
665	 0.166337385361168 
666	 0.168023452165627 
667	 0.169689278739116 
668	 0.171410047300873 
669	 0.173161561073783 
670	 0.174667993526042 
671	 0.176295144827693 
672	 0.178036398603122 
673	 0.179711156390917 
674	 0.181224896075059 
675	 0.18274600886598 
676	 0.184332884472142 
677	 0.18588985345974 
678	 0.187373349578036 
679	 0.188789467486292 
680	 0.190180151469099 
681	 0.19164497016722 
682	 0.193140152423388 
683	 0.19450938976547 
684	 0.195619773650138 
685	 0.196995065901004 
686	 0.198440046656216 
687	 0.199800378210556 
688	 0.20110169360149 
689	 0.202302224039529 
690	 0.203578613314145 
691	 0.205019497976831 
692	 0.206209525165804 
693	 0.207393497091475 
694	 0.208634500203162 
695	 0.209866067494162 
696	 0.210990159470845 
697	 0.212152390812031 
698	 0.21333968551905 
699	 0.214237700588722 
700	 0.215356580177118 
701	 0.216601286624778 
702	 0.21774554063501 
703	 0.218791003493948 
704	 0.219764893232784 
705	 0.220730630950708 
706	 0.221760708700664 
707	 0.222747097533957 
708	 0.223745834699965 
709	 0.224749241993723 
710	 0.225600781052336 
711	 0.226482332226577 
712	 0.22747414447067 
713	 0.228563832404666 
714	 0.229537594236787 
715	 0.230396341211954 
716	 0.231200696698825 
717	 0.232043546335793 
718	 0.232908565763949 
719	 0.233729801632289 
720	 0.234498654316172 
721	 0.235307816010233 
722	 0.236251394431308 
723	 0.237096616426976 
724	 0.237693512264749 
725	 0.238628512242311 
726	 0.23955392409524 
727	 0.240338135950292 
728	 0.241032250018649 
729	 0.241700680575696 
730	 0.242406094346961 
731	 0.243187433108654 
732	 0.244056367191489 
733	 0.244836785891088 
734	 0.245491470261847 
735	 0.246089904860073 
736	 0.246909175599267 
737	 0.24761359311229 
738	 0.248218543291741 
739	 0.24895336221556 
740	 0.249677876649011 
741	 0.250373360003365 
742	 0.251032844187757 
743	 0.251646170119763 
744	 0.252305727549127 
745	 0.253015590837196 
746	 0.253739396264195 
747	 0.254412964636114 
748	 0.25500095535243 
749	 0.25563508119064 
750	 0.256473569722993 
751	 0.257103334318773 
752	 0.257668431953231 
753	 0.258276121294341 
754	 0.258908317990653 
755	 0.259507419617712 
756	 0.260141822667458 
757	 0.260848743361099 
758	 0.261490108595173 
759	 0.262104949560669 
760	 0.262721843425716 
761	 0.263362596552305 
762	 0.264019014915077 
763	 0.264676583665472 
764	 0.265309601503164 
765	 0.265886382303439 
766	 0.266412484588864 
767	 0.266967043773091 
768	 0.267593224236654 
769	 0.268218914796996 
770	 0.268900745175824 
771	 0.269523701537545 
772	 0.269999708668449 
773	 0.27068160208782 
774	 0.271332301111667 
775	 0.271877703721263 
776	 0.272399606562628 
777	 0.272885480807346 
778	 0.273418913425043 
779	 0.274040185620535 
780	 0.274701881896461 
781	 0.275278667058979 
782	 0.275833685641009 
783	 0.276431155174532 
784	 0.276922086927831 
785	 0.277409789660185 
786	 0.277990232087722 
787	 0.27869590114486 
788	 0.279171949548302 
789	 0.279679140375162 
790	 0.280263517237431 
791	 0.280662632618939 
792	 0.28110158211057 
793	 0.281654944474551 
794	 0.282302076512099 
795	 0.282892919343047 
796	 0.283363991583167 
797	 0.28377801467652 
798	 0.284242438709719 
799	 0.284784126135611 
800	 0.285357782865905 
801	 0.285920626387318 
802	 0.286441059238781 
803	 0.286932611902472 
804	 0.287392483766671 
805	 0.287831734788362 
806	 0.288284205310009 
807	 0.288720255062774 
808	 0.289169312500974 
809	 0.289648325535343 
810	 0.290093838319881 
811	 0.290555333271027 
812	 0.291006447601195 
813	 0.291415154542972 
814	 0.291926619645758 
815	 0.292317769214805 
816	 0.292652982690208 
817	 0.293221220613409 
818	 0.293612809370741 
819	 0.293929163243216 
820	 0.294296392017411 
821	 0.294746388854492 
822	 0.295222629949107 
823	 0.295666283207501 
824	 0.296045493655216 
825	 0.296400028973388 
826	 0.296791791918005 
827	 0.297134560523028 
828	 0.29735111754921 
829	 0.297833654261709 
830	 0.298255682244735 
831	 0.298511347536379 
832	 0.298743576336284 
833	 0.299151189918662 
834	 0.299483508281515 
835	 0.299680299048332 
836	 0.300071714027111 
837	 0.300407000787413 
838	 0.300637128472138 
839	 0.300828066540046 
840	 0.301219947459307 
841	 0.30157583715998 
842	 0.301854128567868 
843	 0.302102235107335 
844	 0.302368084809146 
845	 0.302625710522754 
846	 0.302828265470279 
847	 0.302956742552724 
848	 0.303340982115094 
849	 0.303624656077604 
850	 0.303764906206838 
851	 0.304176063613408 
852	 0.304301934825457 
853	 0.304412216054916 
854	 0.304746949023639 
855	 0.305135225548792 
856	 0.305308449706472 
857	 0.305420771544148 
858	 0.30566687674245 
859	 0.305841977798503 
860	 0.305928583392776 
861	 0.306062032059917 
862	 0.306388180205513 
863	 0.306639219806176 
864	 0.306826673956208 
865	 0.306958151802233 
866	 0.30703202842462 
867	 0.307103509216688 
868	 0.307295245074949 
869	 0.307584147967763 
870	 0.307752618736235 
871	 0.307928335859642 
872	 0.308047469768145 
873	 0.308099344073892 
874	 0.30827568245831 
875	 0.308356988491145 
876	 0.308449392445483 
877	 0.308656958338691 
878	 0.308702689983779 
879	 0.308781135250852 
880	 0.308844635412419 
881	 0.308819238005517 
882	 0.309175293805292 
883	 0.3093780462374 
884	 0.309399312815878 
885	 0.309586609574446 
886	 0.309570537477383 
887	 0.309696872843723 
888	 0.310029090045254 
889	 0.310224899681056 
890	 0.310167275628569 
891	 0.310105019362105 
892	 0.310202360373504 
893	 0.310353865246281 
894	 0.310305859836031 
895	 0.310334560682052 
896	 0.310629240303759 
897	 0.31081998953016 
898	 0.310753718058084 
899	 0.310724820479889 
900	 0.311009012379897 
901	 0.311182750103856 
902	 0.311161015865946 
903	 0.31117000707848 
904	 0.311446015109996 
905	 0.311374440288069 
906	 0.311537961293077 
907	 0.311832996762297 
908	 0.311745748985859 
909	 0.311957904336651 
910	 0.312108799370794 
911	 0.312055663521575 
912	 0.311995141438248 
913	 0.312161295866464 
914	 0.312458994838726 
915	 0.312709855429381 
916	 0.312729460549099 
917	 0.312713938184128 
918	 0.312722087723392 
919	 0.312784676583394 
920	 0.312932075379796 
921	 0.313112127381164 
922	 0.313190107260782 
923	 0.313187856908243 
924	 0.313573586064578 
925	 0.313712102945443 
926	 0.313741212414916 
927	 0.313914046900605 
928	 0.31394895455929 
929	 0.314061005820388 
930	 0.31421404255407 
931	 0.314308582906309 
932	 0.314480394170234 
933	 0.314509900727172 
934	 0.314517793249658 
935	 0.314730498137362 
936	 0.314854790359295 
937	 0.314968107765816 
938	 0.315102301927129 
939	 0.315279328671309 
940	 0.315803544136401 
941	 0.316054281496182 
942	 0.315977567383244 
943	 0.316050581385968 
944	 0.316238060168622 
945	 0.316497089930401 
946	 0.316639935860116 
947	 0.316434232842043 
948	 0.316689692543629 
949	 0.316851854001824 
950	 0.316815181705832 
951	 0.317215556953243 
952	 0.31730375705238 
953	 0.317295286676863 
954	 0.31741046417729 
955	 0.317609540976718 
956	 0.31787188581153 
957	 0.318024316750558 
958	 0.317942006312606 
959	 0.317644093976053 
960	 0.317750819729781 
961	 0.318148994957942 
962	 0.318492628199904 
963	 0.318400625156682 
964	 0.318473208706039 
965	 0.31859738682617 
966	 0.318598629997024 
967	 0.318601298267227 
968	 0.318706861500931 
969	 0.318983949136249 
970	 0.31929100719209 
971	 0.319014160058543 
972	 0.319143942227715 
973	 0.319409111810441 
974	 0.319385550500643 
975	 0.319361162051351 
976	 0.319550340011384 
977	 0.319687171442549 
978	 0.319640447045357 
979	 0.320243272872439 
980	 0.320192445639567 
981	 0.319986683805316 
982	 0.320290918286384 
983	 0.320210702453297 
984	 0.320253656925184 
985	 0.32034625817713 
986	 0.320362550864064 
987	 0.320704852465006 
988	 0.320825563839251 
989	 0.320848310834888 
990	 0.321057721420179 
991	 0.321440289446312 
992	 0.321166462272186 
993	 0.320878185390724 
994	 0.321163603775889 
995	 0.320444356442111 
996	 0.320370129374749 
997	 0.321003555656417 
998	 0.321635287746883 
999	 0.321184145132046 
1000	 0.32111695054967 
1001	 0.326234344662415 
1002	 0.32631657291439 
1003	 0.326286865767037 
1004	 0.326216732542783 
1005	 0.325939984091216 
1006	 0.325903575744431 
1007	 0.325943061179389 
1008	 0.325962294974026 
1009	 0.32604864406208 
1010	 0.32610354223416 
1011	 0.326149556600963 
1012	 0.326214700768912 
1013	 0.326403888796677 
1014	 0.32642011863647 
1015	 0.326327300440566 
1016	 0.326134385060734 
1017	 0.326160955203107 
1018	 0.326325470725422 
1019	 0.326640197911874 
1020	 0.326901094083817 
1021	 0.326977223213719 
1022	 0.326888776376878 
1023	 0.326759616807118 
1024	 0.326371239378384 
1025	 0.326337143191916 
1026	 0.326376710035174 
1027	 0.326443955158616 
1028	 0.326735048736937 
1029	 0.326947007549032 
1030	 0.327035568840968 
1031	 0.327215294695496 
1032	 0.327246555192352 
1033	 0.327245178340098 
1034	 0.327425221922154 
1035	 0.327363171034787 
1036	 0.327341579461385 
1037	 0.327349782481145 
1038	 0.327501190572974 
1039	 0.327707055256409 
1040	 0.327776385932183 
1041	 0.327919851210051 
1042	 0.327976485333636 
1043	 0.32781838865906 
1044	 0.32771428239608 
1045	 0.327974775875255 
1046	 0.328219847184234 
1047	 0.328365699540536 
1048	 0.328443889381146 
1049	 0.328516931750251 
1050	 0.32856581177082 
1051	 0.3285291309478 
1052	 0.328566836731466 
1053	 0.328561535078004 
1054	 0.328452623913655 
1055	 0.328367141813341 
1056	 0.328285471640088 
1057	 0.328252241361928 
1058	 0.328208688886351 
1059	 0.328194255136566 
1060	 0.328231260637652 
1061	 0.328243380368283 
1062	 0.328250433220728 
1063	 0.328156982495502 
1064	 0.328078376343128 
1065	 0.32810690050978 
1066	 0.328040041707306 
1067	 0.327935146064486 
1068	 0.327974546909337 
1069	 0.327941282719988 
1070	 0.327937683878893 
1071	 0.327978972986393 
1072	 0.328117723980993 
1073	 0.328070036230065 
1074	 0.328007999852295 
1075	 0.327956072131976 
1076	 0.327876526066259 
1077	 0.327853831114423 
1078	 0.327894783771394 
1079	 0.327959343047332 
1080	 0.327862657280156 
1081	 0.327757532393512 
1082	 0.327733052064167 
1083	 0.327693876348663 
1084	 0.327816836143295 
1085	 0.327823769256879 
1086	 0.327783249148854 
1087	 0.327649303027129 
1088	 0.327641820145021 
1089	 0.327626914963425 
1090	 0.327733088995213 
1091	 0.327949624688908 
1092	 0.328056141037169 
1093	 0.328062903467802 
1094	 0.328129851667522 
1095	 0.328177543595707 
1096	 0.328125692658965 
1097	 0.328134004991684 
1098	 0.328213637298353 
1099	 0.328176980876711 
1100	 0.32815906490407 
1101	 0.328271238947912 
1102	 0.328191483016372 
1103	 0.328180219774649 
1104	 0.328196530740605 
1105	 0.328332714092238 
1106	 0.328326031070556 
1107	 0.328393181661116 
1108	 0.328430319835242 
1109	 0.328429006815126 
1110	 0.328531512635181 
1111	 0.328598190143017 
1112	 0.328717385843505 
1113	 0.328921354066648 
1114	 0.329060891596438 
1115	 0.329206387307659 
1116	 0.329375425206351 
1117	 0.329504543227799 
1118	 0.329601770516081 
1119	 0.329604115125218 
1120	 0.329711012643194 
1121	 0.32985581828516 
1122	 0.329995749884189 
1123	 0.330115889158075 
1124	 0.330265821927302 
1125	 0.33036791210145 
1126	 0.330451592951055 
1127	 0.330639258617966 
1128	 0.330847092467146 
1129	 0.330926579440536 
1130	 0.33099285267701 
1131	 0.331099212893898 
1132	 0.331156130361232 
1133	 0.331308522964639 
1134	 0.331506312227539 
1135	 0.331615164559312 
1136	 0.331621188237992 
1137	 0.331722425083441 
1138	 0.331876677844038 
1139	 0.331946291825162 
1140	 0.332020069390708 
1141	 0.332032434363237 
1142	 0.332034818128925 
1143	 0.332057121699945 
1144	 0.332164280999494 
1145	 0.332265122112428 
1146	 0.332269837387688 
1147	 0.332251490107553 
1148	 0.332256385845427 
1149	 0.332324789321469 
1150	 0.33238431767076 
1151	 0.332417068130904 
1152	 0.332421136091257 
1153	 0.332327349240787 
1154	 0.332286465073207 
1155	 0.332239924477122 
1156	 0.332263748982825 
1157	 0.332346788135237 
1158	 0.332401505164876 
1159	 0.332504881989746 
1160	 0.332580209345407 
1161	 0.332580962480947 
1162	 0.332543229333188 
1163	 0.332488031393338 
1164	 0.332403638907972 
1165	 0.332369427955946 
1166	 0.332331462370858 
1167	 0.332293992551618 
1168	 0.332342268299904 
1169	 0.33230943558463 
1170	 0.332178712270718 
1171	 0.332166762968886 
1172	 0.332210433934706 
1173	 0.332185743222013 
1174	 0.33222897635665 
1175	 0.332199338048124 
1176	 0.332076213702919 
1177	 0.33198259337351 
1178	 0.331874932235175 
1179	 0.331769905757259 
1180	 0.331691120124287 
1181	 0.33160321362028 
1182	 0.331546499061094 
1183	 0.33143875147674 
1184	 0.331277423677539 
1185	 0.331172312811664 
1186	 0.33109276293312 
1187	 0.331036480781108 
1188	 0.330969784705921 
1189	 0.330920280441558 
1190	 0.330880326065914 
1191	 0.330820103748303 
1192	 0.330802228122153 
1193	 0.330842464242108 
1194	 0.33086883238974 
1195	 0.330909157632233 
1196	 0.330928271200264 
1197	 0.330935242012036 
1198	 0.330961341225075 
1199	 0.330969393545862 
1200	 0.330968006970732 
1201	 0.331024237981039 
1202	 0.331035313246116 
1203	 0.331044975012867 
1204	 0.331124569239392 
1205	 0.33124695476753 
1206	 0.33140314792611 
1207	 0.331606863598846 
1208	 0.331890443596517 
1209	 0.332149543524841 
1210	 0.332398275284771 
1211	 0.3327062299658 
1212	 0.333048549803572 
1213	 0.33341671632599 
1214	 0.333839840033169 
1215	 0.334277468753286 
1216	 0.334699913245758 
1217	 0.33517532623868 
1218	 0.335671910859324 
1219	 0.336256703439806 
1220	 0.336863254159556 
1221	 0.337496091222541 
1222	 0.338113270665669 
1223	 0.338710107029838 
1224	 0.339277902678945 
1225	 0.339803731032799 
1226	 0.340351348950857 
1227	 0.340910780130518 
1228	 0.341405659437605 
1229	 0.341850484028165 
1230	 0.34234761151216 
1231	 0.342836006249858 
1232	 0.343316826067489 
1233	 0.343888070864713 
1234	 0.344325334607527 
1235	 0.344650088674469 
1236	 0.345002149594055 
1237	 0.345275007063621 
1238	 0.345594077684508 
1239	 0.345927446716208 
1240	 0.34629300876885 
1241	 0.346634057084739 
1242	 0.34705839041449 
1243	 0.347400090564868 
1244	 0.347728831204618 
1245	 0.348042441848302 
1246	 0.348326393432368 
1247	 0.34859136747874 
1248	 0.348808311565243 
1249	 0.349114761892748 
1250	 0.349438012930211 
1251	 0.349750514385045 
1252	 0.350139647666708 
1253	 0.350481314449579 
1254	 0.350777865106215 
1255	 0.351077062374817 
1256	 0.351378395742469 
1257	 0.351680946116367 
1258	 0.351973519775193 
1259	 0.352247348647773 
1260	 0.352513387509935 
1261	 0.352792132520441 
1262	 0.353048883300951 
1263	 0.353319729406102 
1264	 0.353586517529357 
1265	 0.353868653752514 
1266	 0.354149575632383 
1267	 0.354423199460441 
1268	 0.354697960309996 
1269	 0.354977407772501 
1270	 0.355277606672445 
1271	 0.355604693157033 
1272	 0.355873195272804 
1273	 0.356134728418586 
1274	 0.356393956993255 
1275	 0.356593239298066 
1276	 0.3568243001171 
1277	 0.357092906136305 
1278	 0.357343445692338 
1279	 0.357598175424536 
1280	 0.357818875733183 
1281	 0.358026903511159 
1282	 0.358222575770314 
1283	 0.358376460328075 
1284	 0.35853829398062 
1285	 0.358698572071181 
1286	 0.358856871632448 
1287	 0.359023878985045 
1288	 0.359175692824713 
1289	 0.359372686638495 
1290	 0.359618663948951 
1291	 0.359801549369594 
1292	 0.359990796575254 
1293	 0.360148409392046 
1294	 0.360227810594554 
1295	 0.360382255036667 
1296	 0.360607602751586 
1297	 0.36073824886425 
1298	 0.360810405676436 
1299	 0.360951876416217 
1300	 0.361077543151947 
1301	 0.361203517080455 
1302	 0.361374025212418 
1303	 0.36155487047269 
1304	 0.361720912646194 
1305	 0.36188058512402 
1306	 0.362074967195033 
1307	 0.362265391547507 
1308	 0.362431769418163 
1309	 0.362597452988593 
1310	 0.362749232485326 
1311	 0.362906525355411 
1312	 0.363078881157132 
1313	 0.363213576316075 
1314	 0.363418773835136 
1315	 0.363697535507583 
1316	 0.363917059945313 
1317	 0.364140003530279 
1318	 0.364345226353832 
1319	 0.364520054815733 
1320	 0.364710256741932 
1321	 0.364895437128461 
1322	 0.365095682576084 
1323	 0.365291515128857 
1324	 0.365506197952492 
1325	 0.365744722333217 
1326	 0.365976446198047 
1327	 0.366233178406481 
1328	 0.366459246937821 
1329	 0.366667750707305 
1330	 0.36687355937627 
1331	 0.367060192657797 
1332	 0.367247217478901 
1333	 0.367421722308422 
1334	 0.367607240410293 
1335	 0.367821828997822 
1336	 0.368046024023087 
1337	 0.368270014004533 
1338	 0.368542505676632 
1339	 0.36873752995909 
1340	 0.368898084389191 
1341	 0.369049466284272 
1342	 0.369157527498238 
1343	 0.369294714901763 
1344	 0.369432073067679 
1345	 0.369572293374077 
1346	 0.369730886445928 
1347	 0.369860892010746 
1348	 0.369967317431446 
1349	 0.37009329087526 
1350	 0.37023358773998 
1351	 0.370339929484069 
1352	 0.370449939439749 
1353	 0.37053600316797 
1354	 0.370550520991187 
1355	 0.370622444429646 
1356	 0.370754258960764 
1357	 0.37082834825918 
1358	 0.370891389739078 
1359	 0.370955345390958 
1360	 0.371005371172926 
1361	 0.371000041680802 
1362	 0.371045466203364 
1363	 0.371104168939556 
1364	 0.371126817850407 
1365	 0.371144453989969 
1366	 0.371114137876486 
1367	 0.371049634670105 
1368	 0.370987559819032 
1369	 0.370893949101076 
1370	 0.370804436401347 
1371	 0.370723268228709 
1372	 0.370616811779608 
1373	 0.370495129006448 
1374	 0.37035208432414 
1375	 0.370203898080562 
1376	 0.37001813049052 
1377	 0.36977485729446 
1378	 0.369566658226448 
1379	 0.369364846485425 
1380	 0.369138017900167 
1381	 0.368911526336025 
1382	 0.368680564732455 
1383	 0.368421110597555 
1384	 0.368163082843016 
1385	 0.367940116945757 
1386	 0.367667340897668 
1387	 0.367362405396112 
1388	 0.367048442996265 
1389	 0.366641478470992 
1390	 0.366331692156314 
1391	 0.366072158794094 
1392	 0.365790629942469 
1393	 0.365666564585824 
1394	 0.365563848613438 
1395	 0.365420452347559 
1396	 0.36529814213457 
1397	 0.365168695566253 
1398	 0.365052310107203 
1399	 0.364823901142949 
1400	 0.364608709398481 
1401	 0.36425347807818 
1402	 0.363765398425391 
1403	 0.363254071598219 
1404	 0.362680263280493 
1405	 0.362069554931536 
1406	 0.361389052780745 
1407	 0.360687671777542 
1408	 0.359925111054862 
1409	 0.359181684603469 
1410	 0.358416438005327 
1411	 0.357643896213426 
1412	 0.356877528616371 
1413	 0.35610552195703 
1414	 0.355274275782645 
1415	 0.354514056272879 
1416	 0.353756882067546 
1417	 0.353058960452451 
1418	 0.352448521825949 
1419	 0.351812799611955 
1420	 0.351210833943084 
1421	 0.35060327738082 
1422	 0.34996854306271 
1423	 0.34936289100558 
1424	 0.34876397742539 
1425	 0.348198656355682 
1426	 0.347654522276838 
1427	 0.347103409742289 
1428	 0.346610511862507 
1429	 0.346144697846538 
1430	 0.345672024419685 
1431	 0.345214891519871 
1432	 0.344795913897376 
1433	 0.344370463839951 
1434	 0.344001350473123 
1435	 0.343705013547142 
1436	 0.343372865747654 
1437	 0.343056421762236 
1438	 0.342727892333143 
1439	 0.342367299840667 
1440	 0.342073447796178 
1441	 0.341784694435393 
1442	 0.341555916478151 
1443	 0.3413679931136 
1444	 0.34123802629411 
1445	 0.341114674532213 
1446	 0.341122358056613 
1447	 0.341226420518201 
1448	 0.341383888905298 
1449	 0.341616605158997 
1450	 0.341943619728319 
1451	 0.342353000555128 
1452	 0.342818306586274 
1453	 0.343414331762185 
1454	 0.34399432280725 
1455	 0.344637212460924 
1456	 0.34524082739357 
1457	 0.345838074436339 
1458	 0.346454831733274 
1459	 0.347063417116364 
1460	 0.347672752486355 
1461	 0.348328976419007 
1462	 0.348936849588685 
1463	 0.349480349880108 
1464	 0.350066749169871 
1465	 0.350650307497357 
1466	 0.351263585184935 
1467	 0.351848319248567 
1468	 0.352427449672301 
1469	 0.353020790338026 
1470	 0.353557679028843 
1471	 0.354082546091017 
1472	 0.354609149243333 
1473	 0.35512513883664 
1474	 0.355581686875968 
1475	 0.356098559932914 
1476	 0.356681038820439 
1477	 0.35716936145457 
1478	 0.357609729398509 
1479	 0.358086647533422 
1480	 0.35854323578254 
1481	 0.358996318291385 
1482	 0.35950834198909 
1483	 0.359921593590254 
1484	 0.360259504143464 
1485	 0.360606652324371 
1486	 0.360899142234044 
1487	 0.36123376370202 
1488	 0.361571077711268 
1489	 0.36192351324009 
1490	 0.362272506544788 
1491	 0.362673313465438 
1492	 0.363095182725099 
1493	 0.363550817504419 
1494	 0.36408842463847 
1495	 0.364571373613863 
1496	 0.365018037945157 
1497	 0.365523747772691 
1498	 0.366058864058884 
1499	 0.366566539306999 
1500	 0.36709342352256 
1501	 0.367635780699023 
1502	 0.368164204841153 
1503	 0.3686852329304 
1504	 0.369261657506481 
1505	 0.369779494777918 
1506	 0.370231337782313 
1507	 0.370705053043185 
1508	 0.371198532088904 
1509	 0.371641930465132 
1510	 0.372063370019069 
1511	 0.372462951225322 
1512	 0.372815286964688 
1513	 0.373159488183785 
1514	 0.373465461911351 
1515	 0.373805210598084 
1516	 0.374160246367246 
1517	 0.374498502428811 
1518	 0.374887725638374 
1519	 0.375211047307456 
1520	 0.375475518005103 
1521	 0.37572182335798 
1522	 0.375956232362125 
1523	 0.376203492604878 
1524	 0.37644068124002 
1525	 0.376695637639533 
1526	 0.376907694964158 
1527	 0.377088707085406 
1528	 0.377286015278117 
1529	 0.377485303259396 
1530	 0.377640674576949 
1531	 0.377774989941634 
1532	 0.377924628419979 
1533	 0.378039714335908 
1534	 0.378189669824468 
1535	 0.378365593038031 
1536	 0.37854514886688 
1537	 0.37872132293651 
1538	 0.378917065940288 
1539	 0.379150409118752 
1540	 0.379348313373265 
1541	 0.379528907658812 
1542	 0.379730543362426 
1543	 0.379906946159791 
1544	 0.380150617137133 
1545	 0.380432198783567 
1546	 0.380727660505996 
1547	 0.381079277002412 
1548	 0.381391616424641 
1549	 0.381701195051434 
1550	 0.382012311978049 
1551	 0.382318375715869 
1552	 0.382617114953895 
1553	 0.382898275749066 
1554	 0.383220350645008 
1555	 0.383556442522723 
1556	 0.383886070864345 
1557	 0.384266736970704 
1558	 0.384585313851014 
1559	 0.384862369673739 
1560	 0.385140949163062 
1561	 0.385369058406698 
1562	 0.385662573703556 
1563	 0.386016032164815 
1564	 0.386290496600414 
1565	 0.386509627731891 
1566	 0.386831142340408 
1567	 0.38716994637751 
1568	 0.387484537570954 
1569	 0.387895754671925 
1570	 0.388236393680402 
1571	 0.388469263760427 
1572	 0.388764003953894 
1573	 0.389107118659457 
1574	 0.38941778855956 
1575	 0.389708248604413 
1576	 0.390011936169555 
1577	 0.390311722674798 
1578	 0.39062091920304 
1579	 0.390941516908078 
1580	 0.391258873715301 
1581	 0.391586316034629 
1582	 0.391898162213304 
1583	 0.392207544197355 
1584	 0.392506613128843 
1585	 0.39279357336306 
1586	 0.393074552206096 
1587	 0.393344939932976 
1588	 0.393614208125322 
1589	 0.393865871242014 
1590	 0.394136583087418 
1591	 0.394419520474044 
1592	 0.394694928148644 
1593	 0.394974744187172 
1594	 0.395255292366985 
1595	 0.395520037493086 
1596	 0.395809165533966 
1597	 0.39608877518626 
1598	 0.396424520265216 
1599	 0.396854968487787 
1600	 0.397194341672753 
1601	 0.397560809834953 
1602	 0.397844998172271 
1603	 0.397972067048184 
1604	 0.39819411451299 
1605	 0.398439948805394 
1606	 0.398671360208382 
1607	 0.398913847324162 
1608	 0.399193908849534 
1609	 0.399484322143588 
1610	 0.399769569450079 
1611	 0.400141233373517 
1612	 0.400412872241806 
1613	 0.400620891400975 
1614	 0.400809539864628 
1615	 0.400924044292027 
1616	 0.401067557088294 
1617	 0.401173861748973 
1618	 0.401332112529274 
1619	 0.401568169802084 
1620	 0.401732723338922 
1621	 0.401876343206419 
1622	 0.40203086158565 
1623	 0.402132564786923 
1624	 0.402258487215204 
1625	 0.402438122159409 
1626	 0.402583612437457 
1627	 0.402714097191167 
1628	 0.402825477525881 
1629	 0.402906906651699 
1630	 0.403000190748093 
1631	 0.40306994985747 
1632	 0.403164752688744 
1633	 0.403282112582824 
1634	 0.403397178661874 
1635	 0.403505945933921 
1636	 0.403642738628983 
1637	 0.403824650917855 
1638	 0.403963029454495 
1639	 0.404132738583218 
1640	 0.40422877769835 
1641	 0.404221588714442 
1642	 0.404273283007739 
1643	 0.40434159080158 
1644	 0.404369981501756 
1645	 0.404426222822699 
1646	 0.40442350584278 
1647	 0.404297969546211 
1648	 0.404267121720295 
1649	 0.404303889701611 
1650	 0.404277834370602 
1651	 0.404334602349137 
1652	 0.404230453997273 
1653	 0.403929933039528 
1654	 0.403746281387817 
1655	 0.403552392177416 
1656	 0.403346798574293 
1657	 0.40325196936675 
1658	 0.403009011662419 
1659	 0.402611204437593 
1660	 0.402278068839082 
1661	 0.401946201260188 
1662	 0.401571661780357 
1663	 0.401222256790119 
1664	 0.400801091301391 
1665	 0.400326226320911 
1666	 0.399760252263037 
1667	 0.399135743973794 
1668	 0.398469433625771 
1669	 0.397745314144304 
1670	 0.396925476931362 
1671	 0.396041129167766 
1672	 0.395082379210245 
1673	 0.393991472631931 
1674	 0.392903508824805 
1675	 0.391836978017407 
1676	 0.390636151949803 
1677	 0.389349493099135 
1678	 0.388000399250631 
1679	 0.386539209559472 
1680	 0.385025887700862 
1681	 0.383485317367509 
1682	 0.381824684990354 
1683	 0.38007645193278 
1684	 0.378255152271643 
1685	 0.376287569692158 
1686	 0.374350081175023 
1687	 0.37235692963347 
1688	 0.370323929283641 
1689	 0.368295976961619 
1690	 0.366193766350358 
1691	 0.364016226095672 
1692	 0.361852893453592 
1693	 0.359685303563877 
1694	 0.357438287893306 
1695	 0.355127064284543 
1696	 0.352802053205431 
1697	 0.350413012590757 
1698	 0.348028423917661 
1699	 0.345666649701326 
1700	 0.343262350676048 
1701	 0.340790419231876 
1702	 0.338383471077024 
1703	 0.335896707461585 
1704	 0.333599325585445 
1705	 0.331397667532701 
1706	 0.329204593252447 
1707	 0.327267976003059 
1708	 0.325448439422441 
1709	 0.323760167947226 
1710	 0.322337956176594 
1711	 0.32102917006028 
1712	 0.319868071551454 
1713	 0.318645348108414 
1714	 0.317375136572034 
1715	 0.316291077368693 
1716	 0.315148059658238 
1717	 0.314070550038662 
1718	 0.313145717347179 
1719	 0.312156926220252 
1720	 0.311306887539368 
1721	 0.310629180765573 
1722	 0.309989672739246 
1723	 0.309523004709026 
1724	 0.30911824410907 
1725	 0.308742836794337 
1726	 0.3086290862513 
1727	 0.308721397198551 
1728	 0.308998432031301 
1729	 0.309560659597754 
1730	 0.310270719991252 
1731	 0.311097476672024 
1732	 0.312162300482679 
1733	 0.31329447864453 
1734	 0.314498143320766 
1735	 0.315826773857126 
1736	 0.317160438232259 
1737	 0.318427435569262 
1738	 0.319525471658852 
1739	 0.320426077743453 
1740	 0.321083694393894 
1741	 0.321613621811288 
1742	 0.322049350054323 
1743	 0.322345627710719 
1744	 0.322420326729342 
1745	 0.322435010902164 
1746	 0.322278014378408 
1747	 0.322135080920576 
1748	 0.321888449989191 
1749	 0.321701194013658 
1750	 0.321482150168689 
1751	 0.321391456306773 
1752	 0.321377197286419 
1753	 0.321376144097124 
1754	 0.321424266433127 
1755	 0.321577655227428 
1756	 0.321705952946164 
1757	 0.322060845249361 
1758	 0.32259263342029 
1759	 0.323064851602228 
1760	 0.323718240521874 
1761	 0.32463308246731 
1762	 0.325620746044405 
1763	 0.326909920627382 
1764	 0.328265532496558 
1765	 0.329536806398192 
1766	 0.331008404353981 
1767	 0.332525797097324 
1768	 0.334198277604358 
1769	 0.336001849048204 
1770	 0.337606314713432 
1771	 0.339245653565756 
1772	 0.340802473252549 
1773	 0.342164200199436 
1774	 0.343609871593577 
1775	 0.344951670272997 
1776	 0.346174267844403 
1777	 0.347366015984275 
1778	 0.348425148196602 
1779	 0.349364713181236 
1780	 0.350152107910609 
1781	 0.350902378093709 
1782	 0.351661477843821 
1783	 0.352304628885832 
1784	 0.352976100206255 
1785	 0.353649919887523 
1786	 0.354232028091317 
1787	 0.354810757867321 
1788	 0.355357709178033 
1789	 0.355830349025086 
1790	 0.356273235663977 
1791	 0.356698678498868 
1792	 0.357055256195813 
1793	 0.357295760031736 
1794	 0.357573543806297 
1795	 0.357879526714536 
1796	 0.358152495052105 
1797	 0.358508687108373 
1798	 0.358957988668341 
1799	 0.359283652966466 
1800	 0.359528437932084 
1801	 0.352659540484095 
1802	 0.352827596707557 
1803	 0.353125578608219 
1804	 0.353424626687467 
1805	 0.35386796496065 
1806	 0.354266610671359 
1807	 0.35477662551259 
1808	 0.355154882057396 
1809	 0.355467730651704 
1810	 0.355792566564169 
1811	 0.356093897991121 
1812	 0.356393762097148 
1813	 0.35669911851262 
1814	 0.356984696117994 
1815	 0.357222853633153 
1816	 0.357451436603813 
1817	 0.357770384040121 
1818	 0.358136535078436 
1819	 0.358487879352836 
1820	 0.358897814169658 
1821	 0.359308094089354 
1822	 0.359691905799727 
1823	 0.360105986389651 
1824	 0.360585344431818 
1825	 0.361029668141289 
1826	 0.361433817770664 
1827	 0.361761847695927 
1828	 0.362165963035812 
1829	 0.362606907332589 
1830	 0.363003255094889 
1831	 0.363371187187919 
1832	 0.363841728438321 
1833	 0.364221804348129 
1834	 0.36456364214997 
1835	 0.365078834659312 
1836	 0.365549383176744 
1837	 0.365976418282783 
1838	 0.366460120390993 
1839	 0.366829207068396 
1840	 0.367022597571288 
1841	 0.367356916334175 
1842	 0.367702339058781 
1843	 0.368074724701218 
1844	 0.368542046800839 
1845	 0.368964182763357 
1846	 0.369252283803133 
1847	 0.369523382444024 
1848	 0.369804227246798 
1849	 0.370007179615934 
1850	 0.370262504119901 
1851	 0.370573026493247 
1852	 0.370865585576373 
1853	 0.37108635528067 
1854	 0.371279351711841 
1855	 0.371346109635988 
1856	 0.371347669965356 
1857	 0.371343601670054 
1858	 0.371314260835713 
1859	 0.371294328588217 
1860	 0.371347013747008 
1861	 0.371285847133182 
1862	 0.371176606902203 
1863	 0.371012651224948 
1864	 0.370817452117658 
1865	 0.370560027045495 
1866	 0.370261713806248 
1867	 0.369910406729634 
1868	 0.36949134900472 
1869	 0.369037298891052 
1870	 0.368514474149632 
1871	 0.367927978743418 
1872	 0.36729993020068 
1873	 0.366602253237002 
1874	 0.365920422806434 
1875	 0.365202312542798 
1876	 0.364356960027336 
1877	 0.363477241641299 
1878	 0.362379105461072 
1879	 0.361165257460957 
1880	 0.359983072645919 
1881	 0.358657150691105 
1882	 0.357229160334585 
1883	 0.355735802262357 
1884	 0.354077354463266 
1885	 0.352221243203493 
1886	 0.350381435124946 
1887	 0.348383922197265 
1888	 0.346221900913578 
1889	 0.34413212985036 
1890	 0.341819603444679 
1891	 0.339384124501852 
1892	 0.336896928325062 
1893	 0.334326865598466 
1894	 0.331582786816031 
1895	 0.328907828209032 
1896	 0.326154293863151 
1897	 0.323379519483016 
1898	 0.320753551084986 
1899	 0.318025066425185 
1900	 0.315399516066503 
1901	 0.312841985107512 
1902	 0.310128255681996 
1903	 0.307575010715258 
1904	 0.305094482768527 
1905	 0.302633728194628 
1906	 0.300271012931539 
1907	 0.298199947237046 
1908	 0.296129955325256 
1909	 0.294147857542199 
1910	 0.292350577883847 
1911	 0.290481587311979 
1912	 0.288727522766602 
1913	 0.287064784762173 
1914	 0.285399421113643 
1915	 0.283932640378935 
1916	 0.282664215073832 
1917	 0.281411440612005 
1918	 0.280191237913612 
1919	 0.279108037473154 
1920	 0.277969142792661 
1921	 0.276899843907181 
1922	 0.275888232613276 
1923	 0.274896628975536 
1924	 0.274043779372856 
1925	 0.27326217739606 
1926	 0.27255389381086 
1927	 0.271977740889431 
1928	 0.271411165352414 
1929	 0.270887971602237 
1930	 0.270414301910845 
1931	 0.269992220565812 
1932	 0.269590846750093 
1933	 0.269339529350075 
1934	 0.269163605999909 
1935	 0.268984617118726 
1936	 0.268935633801398 
1937	 0.268963266119053 
1938	 0.269036755006372 
1939	 0.269190938371707 
1940	 0.269452972467481 
1941	 0.269803036490718 
1942	 0.270117231967182 
1943	 0.270444861168951 
1944	 0.270818386122862 
1945	 0.271247399651233 
1946	 0.271832166559044 
1947	 0.272454743546959 
1948	 0.273109577403148 
1949	 0.27383561213563 
1950	 0.274534869586572 
1951	 0.275174941270056 
1952	 0.275937051910725 
1953	 0.276769731007702 
1954	 0.277593277228074 
1955	 0.278529416828252 
1956	 0.279444916222543 
1957	 0.280324551442242 
1958	 0.281223205438452 
1959	 0.282058860296078 
1960	 0.282932772061272 
1961	 0.283786464318563 
1962	 0.284666601703577 
1963	 0.285468650331716 
1964	 0.286190745635327 
1965	 0.286947549607949 
1966	 0.28768489757037 
1967	 0.288449074366588 
1968	 0.28916943724193 
1969	 0.289944817349944 
1970	 0.290638206841626 
1971	 0.291255487373553 
1972	 0.291948423432525 
1973	 0.292663084168192 
1974	 0.293374327433061 
1975	 0.294127975298285 
1976	 0.294852217292059 
1977	 0.295582056292497 
1978	 0.29626488831163 
1979	 0.296913106491666 
1980	 0.297543431792484 
1981	 0.298214642559667 
1982	 0.298889928872307 
1983	 0.299668752257409 
1984	 0.300504913079962 
1985	 0.301258155056104 
1986	 0.302019680722599 
1987	 0.302767676586963 
1988	 0.30343205737203 
1989	 0.304204903797679 
1990	 0.305030510399496 
1991	 0.305848203551365 
1992	 0.306703926340308 
1993	 0.307589389836052 
1994	 0.3084227762862 
1995	 0.309347012969274 
1996	 0.31020121228974 
1997	 0.310995674196413 
1998	 0.311839275281012 
1999	 0.312642452066862 
2000	 0.313479234416021 
2001	 0.314453778041179 
2002	 0.315238995133807 
2003	 0.315966801078231 
2004	 0.316632174544236 
2005	 0.317113834935662 
2006	 0.31767027415539 
2007	 0.318218809875291 
2008	 0.318782861240916 
2009	 0.319371405304175 
2010	 0.319919936940878 
2011	 0.320295999427989 
2012	 0.320567573208809 
2013	 0.320828274485228 
2014	 0.320951477617353 
2015	 0.321123339519694 
2016	 0.321385074394182 
2017	 0.321463874446188 
2018	 0.32138086888417 
2019	 0.321354972901187 
2020	 0.321267887753934 
2021	 0.321174624989297 
2022	 0.321107630980262 
2023	 0.320986283937808 
2024	 0.320734908264176 
2025	 0.320407212401213 
2026	 0.320075517459961 
2027	 0.319682320977452 
2028	 0.319299905711695 
2029	 0.318888346481338 
2030	 0.31847886226331 
2031	 0.318084612799984 
2032	 0.317634586206522 
2033	 0.317147212773864 
2034	 0.316656769257844 
2035	 0.316125432640744 
2036	 0.315574939698819 
2037	 0.315067733550149 
2038	 0.314590897153535 
2039	 0.314081472661571 
2040	 0.31356752167057 
2041	 0.313064349585335 
2042	 0.312523381549725 
2043	 0.312048480452736 
2044	 0.311600035745116 
2045	 0.311184151751383 
2046	 0.310865287303275 
2047	 0.310469136561867 
2048	 0.31003622350328 
2049	 0.309637061929053 
2050	 0.309226502588064 
2051	 0.308774804636601 
2052	 0.308443403687916 
2053	 0.308123049172277 
2054	 0.307780191504604 
2055	 0.307453209474041 
2056	 0.307102914251883 
2057	 0.306727670353284 
2058	 0.306380740817761 
2059	 0.305998945851411 
2060	 0.305692321706362 
2061	 0.305454744915891 
2062	 0.305180836118621 
2063	 0.304968726809406 
2064	 0.304696554057177 
2065	 0.304382824323973 
2066	 0.304027743489264 
2067	 0.303701137029578 
2068	 0.303419014867605 
2069	 0.303156578674062 
2070	 0.302938264258737 
2071	 0.302715796467 
2072	 0.302525844335057 
2073	 0.302282995401497 
2074	 0.302041201020687 
2075	 0.301778613351672 
2076	 0.301487369875283 
2077	 0.301189782757304 
2078	 0.300843478962191 
2079	 0.300547146028726 
2080	 0.300226920977823 
2081	 0.299967230064933 
2082	 0.299801183741585 
2083	 0.299611903932632 
2084	 0.299406911986886 
2085	 0.299196748068756 
2086	 0.298970664688199 
2087	 0.298695959928471 
2088	 0.298473438730313 
2089	 0.298290733321595 
2090	 0.298057307294334 
2091	 0.297805201448412 
2092	 0.297570954142841 
2093	 0.297326900068864 
2094	 0.297074043733383 
2095	 0.296822622696116 
2096	 0.29658318502677 
2097	 0.296335385441946 
2098	 0.296074600888657 
2099	 0.29586625766093 
2100	 0.295687438372795 
2101	 0.29546370348318 
2102	 0.295256841458869 
2103	 0.294967020996555 
2104	 0.294605869285589 
2105	 0.294286187652637 
2106	 0.293919361266594 
2107	 0.293601263807234 
2108	 0.293319352124988 
2109	 0.293035101783842 
2110	 0.292783474196574 
2111	 0.292488093170896 
2112	 0.292185376667408 
2113	 0.291874437384111 
2114	 0.2915227711881 
2115	 0.291175247143123 
2116	 0.290860542238195 
2117	 0.290528135790489 
2118	 0.290084714279109 
2119	 0.289563962947631 
2120	 0.289101293914185 
2121	 0.288504080862866 
2122	 0.288105815443217 
2123	 0.287849134544406 
2124	 0.287543804824592 
2125	 0.287331943129196 
2126	 0.2870480198488 
2127	 0.286731914099688 
2128	 0.286405103224297 
2129	 0.286012517167475 
2130	 0.285700714071591 
2131	 0.285399655286625 
2132	 0.285133245613362 
2133	 0.284898009843458 
2134	 0.284737283697946 
2135	 0.284574779350009 
2136	 0.28445267511764 
2137	 0.284336689968128 
2138	 0.284262753037901 
2139	 0.284165619341828 
2140	 0.28405095713363 
2141	 0.283997275383136 
2142	 0.283949654006152 
2143	 0.283975468414116 
2144	 0.284065084086464 
2145	 0.284157490397979 
2146	 0.284318724230147 
2147	 0.284450799464482 
2148	 0.284584306880495 
2149	 0.284724846769919 
2150	 0.284885491073531 
2151	 0.285015324414401 
2152	 0.285106342438339 
2153	 0.285244799447727 
2154	 0.285371102376801 
2155	 0.285479608790079 
2156	 0.285666068313983 
2157	 0.285927404884474 
2158	 0.286112273060903 
2159	 0.286330256386066 
2160	 0.286490240415119 
2161	 0.286596033466368 
2162	 0.286693467027 
2163	 0.286726047340806 
2164	 0.286836655174181 
2165	 0.287001651375487 
2166	 0.287079162460779 
2167	 0.287173601942802 
2168	 0.287244926933781 
2169	 0.287230536163412 
2170	 0.287232472726857 
2171	 0.287218990014993 
2172	 0.287243163253035 
2173	 0.287252757405719 
2174	 0.287282646277564 
2175	 0.287346364577031 
2176	 0.287516947539173 
2177	 0.287619053636637 
2178	 0.287714611912971 
2179	 0.287780390371431 
2180	 0.287822552209577 
2181	 0.287892377091181 
2182	 0.287940511101711 
2183	 0.2880391668596 
2184	 0.288240702193192 
2185	 0.288288116244651 
2186	 0.28826237827608 
2187	 0.288266514897037 
2188	 0.288176303406687 
2189	 0.288147967732638 
2190	 0.288210735013728 
2191	 0.288194529200547 
2192	 0.288129240865323 
2193	 0.288075958602725 
2194	 0.287982478035162 
2195	 0.287933344481421 
2196	 0.28795619416681 
2197	 0.287882371356106 
2198	 0.287912142403326 
2199	 0.287805461982443 
2200	 0.287652101876793 
2201	 0.287437776685633 
2202	 0.287212478050743 
2203	 0.286875011780717 
2204	 0.286653256967408 
2205	 0.286451659250441 
2206	 0.286269752677085 
2207	 0.286194388847863 
2208	 0.285978590849273 
2209	 0.285681506733639 
2210	 0.285436288030098 
2211	 0.285161362857165 
2212	 0.284870407305948 
2213	 0.284634630615124 
2214	 0.284331545473757 
2215	 0.283914964933257 
2216	 0.283563614782314 
2217	 0.283233565882923 
2218	 0.282892624048285 
2219	 0.282616179067649 
2220	 0.282258986750284 
2221	 0.281843055688613 
2222	 0.281422940904946 
2223	 0.281012782177561 
2224	 0.280511186158283 
2225	 0.279954753382285 
2226	 0.279387907995866 
2227	 0.278729962999663 
2228	 0.277939574536243 
2229	 0.277191547559167 
2230	 0.276448307965329 
2231	 0.275605826059183 
2232	 0.274770755381959 
2233	 0.273747315510912 
2234	 0.272660921916174 
2235	 0.271350506111739 
2236	 0.269808360429962 
2237	 0.268256737914234 
2238	 0.266519099403498 
2239	 0.264788050484165 
2240	 0.263088478952513 
2241	 0.261185528011356 
2242	 0.259218948500028 
2243	 0.257044039402168 
2244	 0.254574997662769 
2245	 0.252181364640632 
2246	 0.249621946604375 
2247	 0.247122048762896 
2248	 0.244757486319815 
2249	 0.24219469494257 
2250	 0.239516420639261 
2251	 0.236824555446742 
2252	 0.233966037003976 
2253	 0.231135199882171 
2254	 0.228255044951851 
2255	 0.225341039457482 
2256	 0.222634832889915 
2257	 0.219983621212883 
2258	 0.217405223866307 
2259	 0.215062823112955 
2260	 0.212539045575616 
2261	 0.209902038571276 
2262	 0.20745390745264 
2263	 0.204983637500005 
2264	 0.202704944654622 
2265	 0.20058449948885 
2266	 0.198564975460662 
2267	 0.196798109474651 
2268	 0.194830719312527 
2269	 0.1928597668751 
2270	 0.190949843369965 
2271	 0.18889646017178 
2272	 0.187024135772234 
2273	 0.185318369437806 
2274	 0.183635286215876 
2275	 0.18207805824305 
2276	 0.180438768722279 
2277	 0.178839054326508 
2278	 0.1772291488986 
2279	 0.175595852347115 
2280	 0.173870068096221 
2281	 0.172126602366418 
2282	 0.17033674523717 
2283	 0.168470204367975 
2284	 0.166536436980001 
2285	 0.16441323311291 
2286	 0.162496538991241 
2287	 0.160516205672971 
2288	 0.158299446425101 
2289	 0.156167304716343 
2290	 0.154006234610105 
2291	 0.151918784861016 
2292	 0.149898322601358 
2293	 0.147912052538255 
2294	 0.146071176231049 
2295	 0.144045959739099 
2296	 0.142091062896873 
2297	 0.140455408155076 
2298	 0.138964592652403 
2299	 0.137767742391018 
2300	 0.136929395390164 
2301	 0.136128614922117 
2302	 0.135466830859344 
2303	 0.135139536408399 
2304	 0.13494993893726 
2305	 0.135171661024274 
2306	 0.135864113428969 
2307	 0.136595347706729 
2308	 0.1376191873744 
2309	 0.13868086761785 
2310	 0.139862045448126 
2311	 0.141231756297939 
2312	 0.142773534776161 
2313	 0.144479779620058 
2314	 0.146567664587038 
2315	 0.148314186408395 
2316	 0.150127416954613 
2317	 0.151693462109475 
2318	 0.152918009843228 
2319	 0.154248238987278 
2320	 0.155733595027784 
2321	 0.156785454125451 
2322	 0.157625360881202 
2323	 0.158360754450331 
2324	 0.158651474101379 
2325	 0.159086012978514 
2326	 0.159734251068967 
2327	 0.159957896921618 
2328	 0.159997116538925 
2329	 0.159847406932206 
2330	 0.159395868994537 
2331	 0.158719233459474 
2332	 0.15804875852783 
2333	 0.157143616691364 
2334	 0.156006080316968 
2335	 0.154922158999084 
2336	 0.153618857978307 
2337	 0.152317291604039 
2338	 0.151315326799897 
2339	 0.150078795200807 
2340	 0.148709753820139 
2341	 0.147628037126328 
2342	 0.146372614631064 
2343	 0.144996792011799 
2344	 0.144082982780516 
2345	 0.14342836516425 
2346	 0.142962833633384 
2347	 0.143002258174445 
2348	 0.143389472572614 
2349	 0.144063578155022 
2350	 0.144980792402414 
2351	 0.145870857749493 
2352	 0.14688150298842 
2353	 0.148102748852234 
2354	 0.149004970112778 
2355	 0.150194757365405 
2356	 0.151520449100267 
2357	 0.152140066159151 
2358	 0.152855684538526 
2359	 0.153726923134334 
2360	 0.154409980097433 
2361	 0.154986955053024 
2362	 0.155305148810251 
2363	 0.15538919617739 
2364	 0.155416969249909 
2365	 0.155362440483136 
2366	 0.155496230267136 
2367	 0.155667069090075 
2368	 0.155405073473353 
2369	 0.15523404776846 
2370	 0.155237851668971 
2371	 0.15516998693803 
2372	 0.155201725757068 
2373	 0.155272043783778 
2374	 0.155325286410549 
2375	 0.155309848127367 
2376	 0.155284492044913 
2377	 0.155357065648244 
2378	 0.155305209648877 
2379	 0.155414908445401 
2380	 0.155877234314416 
2381	 0.15604131055743 
2382	 0.156102258376087 
2383	 0.156152241032787 
2384	 0.156048530424554 
2385	 0.155572140575402 
2386	 0.155559707512908 
2387	 0.155736979756184 
2388	 0.155789897454181 
2389	 0.155891779786888 
2390	 0.156016780841088 
2391	 0.15611319564295 
2392	 0.156331081266131 
2393	 0.156803499471556 
2394	 0.157188470020052 
2395	 0.15745564012288 
2396	 0.157712841580231 
2397	 0.158093875033118 
2398	 0.158107205772999 
2399	 0.157926605160659 
2400	 0.157913786548397 
2401	 0.157558809878464 
2402	 0.157568118351453 
2403	 0.15775894699568 
2404	 0.157895598377739 
2405	 0.158383424178209 
2406	 0.158465806303341 
2407	 0.158534462991208 
2408	 0.158840331033014 
2409	 0.158997811493906 
2410	 0.159389000494267 
2411	 0.1595835967251 
2412	 0.159362654210857 
2413	 0.158889012581723 
2414	 0.158443648531604 
2415	 0.158476947887802 
2416	 0.158512444287087 
2417	 0.158659255194151 
2418	 0.15877674887006 
2419	 0.158397471765909 
2420	 0.158048517893273 
2421	 0.157987512299327 
2422	 0.158395757042009 
2423	 0.158920228193784 
2424	 0.158913536749068 
2425	 0.15861203960924 
2426	 0.158352640327868 
2427	 0.158183724275299 
2428	 0.157911403554296 
2429	 0.15767077721289 
2430	 0.157810593649062 
2431	 0.157631991623411 
2432	 0.15743883905205 
2433	 0.158152878005144 
2434	 0.157949592584193 
2435	 0.156920191444817 
2436	 0.15679450764575 
2437	 0.156681324465629 
2438	 0.156651069494105 
2439	 0.157095351119886 
2440	 0.157157708942709 
2441	 0.156519656113068 
2442	 0.155621005206293 
2443	 0.155345109564805 
2444	 0.155486713467068 
2445	 0.154993218595437 
2446	 0.154489361532997 
2447	 0.154268625740565 
2448	 0.153435148029268 
2449	 0.153199122100775 
2450	 0.153807860297826 
2451	 0.15336170313841 
2452	 0.152501767539145 
2453	 0.152075077746906 
2454	 0.151640570802884 
2455	 0.151202142089153 
2456	 0.15076085757344 
2457	 0.150426338375871 
2458	 0.150273519029339 
2459	 0.15038516589872 
2460	 0.150871911849109 
2461	 0.151169680111199 
2462	 0.150549810581054 
2463	 0.14960207903192 
2464	 0.148223901999363 
2465	 0.147061439042973 
2466	 0.146780520651951 
2467	 0.146237461868725 
2468	 0.146338492259512 
2469	 0.146752294245741 
2470	 0.14627972583497 
2471	 0.145795425569887 
2472	 0.145565791683848 
2473	 0.146110066992658 
2474	 0.146817882246765 
2475	 0.146322368111433 
2476	 0.146355973113232 
2477	 0.146142992738164 
2478	 0.145254953725823 
2479	 0.145958575834087 
2480	 0.146261445857211 
2481	 0.146273255781071 
2482	 0.145540542875701 
2483	 0.145951378172526 
2484	 0.146206431120143 
2485	 0.14620255194208 
2486	 0.147300349352412 
2487	 0.14782798408122 
2488	 0.147512067696022 
2489	 0.147802635622817 
2490	 0.147746549825553 
2491	 0.146754316567131 
2492	 0.146525677316151 
2493	 0.14673891299363 
2494	 0.147225214628713 
2495	 0.149179759957289 
2496	 0.151258318824105 
2497	 0.151965994669208 
2498	 0.152444165920558 
2499	 0.152618127226057 
2500	 0.150860350739827 
