Wavelength	Tablay400115.asd
350	 8.29505065568673E-02 
351	-2.54969099047122E-03 
352	-0.011969913199109 
353	 9.87334718072794E-02 
354	 3.87159111656868E-02 
355	 5.09314005072389E-02 
356	 7.29671746739329E-02 
357	 3.28498958971084E-02 
358	 4.66147377875657E-02 
359	 0.12133537888087 
360	 0.173907891881695 
361	 0.103814026706116 
362	 8.98426225011171E-02 
363	 4.92449710488391E-02 
364	-1.97467198783489E-02 
365	 1.45731272484878E-02 
366	 8.11068184907029E-02 
367	 0.104477840777473 
368	 5.92611077892598E-02 
369	 6.42903281726012E-02 
370	 5.99880864744972E-02 
371	 3.88112411667351E-02 
372	 0.028460573845828 
373	 6.05887533354791E-02 
374	 7.19669787284275E-02 
375	 4.39353644853521E-02 
376	 3.48478008719853E-02 
377	 0.042201158200278 
378	 5.92220734744242E-02 
379	 7.36332632438427E-02 
380	 5.93791132486637E-02 
381	 0.051595492975608 
382	 5.96722133893815E-02 
383	 7.29036697917381E-02 
384	 5.74863509478903E-02 
385	 3.72483517866618E-02 
386	 3.11266507776655E-02 
387	 3.12047987062769E-02 
388	 6.79003338787833E-02 
389	 8.64878222345709E-02 
390	 4.93532190269241E-02 
391	 3.81380064432937E-02 
392	 6.58287841660996E-02 
393	 8.79404516772448E-02 
394	 3.99419704082893E-02 
395	 2.94734641089583E-02 
396	 5.11852779781214E-02 
397	 7.53558330461964E-02 
398	 5.74709615564165E-02 
399	 6.66254890081178E-02 
400	 0.082245353395145 
401	 7.24211803076336E-02 
402	 6.62743501124754E-02 
403	 6.29682094813309E-02 
404	 0.061087614720029 
405	 0.059540435913058 
406	 6.41974320281535E-02 
407	 7.69017353536232E-02 
408	 8.89483905054075E-02 
409	 7.33271113572661E-02 
410	 6.07774878281278E-02 
411	 6.43696846467989E-02 
412	 8.19623942064581E-02 
413	 7.41428547665796E-02 
414	 6.32118343765113E-02 
415	 6.16436643702457E-02 
416	 6.87954112229875E-02 
417	 6.97697295117834E-02 
418	 6.59662103477162E-02 
419	 0.062252380627414 
420	 6.52996858926946E-02 
421	 6.33591990157541E-02 
422	 6.00890405896107E-02 
423	 6.29353083076384E-02 
424	 6.13792796470586E-02 
425	 6.12655940657015E-02 
426	 6.40717989787706E-02 
427	 6.53523970440527E-02 
428	 6.18112445358857E-02 
429	 5.82733109841682E-02 
430	 5.88712299263114E-02 
431	 6.03311459439362E-02 
432	 6.26315242481594E-02 
433	 6.40415039727074E-02 
434	 6.28067271447269E-02 
435	 6.43665767879819E-02 
436	 6.57076624833273E-02 
437	 6.49975912650167E-02 
438	 6.35939675565125E-02 
439	 5.92268314951299E-02 
440	 5.84498567747043E-02 
441	 6.49115867079822E-02 
442	 6.13422864828694E-02 
443	 5.98896174845842E-02 
444	 6.20599012153055E-02 
445	 6.08958727151554E-02 
446	 5.87123576664345E-02 
447	 5.93297371029292E-02 
448	 6.29616061595579E-02 
449	 6.16124781180303E-02 
450	 6.09004480771081E-02 
451	 6.23389690826208E-02 
452	 6.53887890459288E-02 
453	 6.75940511176301E-02 
454	 6.46132378574802E-02 
455	 5.86055138794878E-02 
456	 5.84154817807381E-02 
457	 5.84959236258167E-02 
458	 5.93181276155298E-02 
459	 6.12240565011237E-02 
460	 6.07089262548235E-02 
461	 5.98515038102013E-02 
462	 5.98461011440189E-02 
463	 6.10268949044602E-02 
464	 0.060891255826897 
465	 6.07844987650066E-02 
466	 0.061241584334593 
467	 6.09437724169322E-02 
468	 6.09688020883574E-02 
469	 6.11282434555399E-02 
470	 6.10971859564789E-02 
471	 6.15047110972802E-02 
472	 6.17933896306493E-02 
473	 0.061569724375194 
474	 6.07382670895532E-02 
475	 0.061059152611442 
476	 0.062257218119959 
477	 6.34255774113234E-02 
478	 0.063027125713336 
479	 6.27399503817669E-02 
480	 6.22657127556341E-02 
481	 6.09850452079725E-02 
482	 6.09287700515026E-02 
483	 6.10844441645452E-02 
484	 6.13627568350799E-02 
485	 6.28778928980431E-02 
486	 6.24218813169862E-02 
487	 6.16454813058496E-02 
488	 6.21262565925089E-02 
489	 6.18226394579909E-02 
490	 6.15057977875826E-02 
491	 0.061320603855929 
492	 6.11665076275041E-02 
493	 6.21017732509853E-02 
494	 6.34692723773211E-02 
495	 0.064027308011557 
496	 6.16399366098993E-02 
497	 6.27358323438478E-02 
498	 6.45629050214497E-02 
499	 6.31428971611043E-02 
500	 6.22511462232344E-02 
501	 6.22256119173324E-02 
502	 6.27045906951516E-02 
503	 6.28853039274355E-02 
504	 6.33865282510686E-02 
505	 6.31436619622852E-02 
506	 6.21753318998748E-02 
507	 6.38660039936605E-02 
508	 6.44005925314715E-02 
509	 6.39029060639951E-02 
510	 6.40367409696159E-02 
511	 6.43460310384635E-02 
512	 6.39742200310642E-02 
513	 6.32680086796929E-02 
514	 6.40969235416771E-02 
515	 6.48805327007186E-02 
516	 6.50189082252706E-02 
517	 6.44797154295105E-02 
518	 0.064109859143735 
519	 6.43212265841058E-02 
520	 6.48177531906823E-02 
521	 6.48922611803882E-02 
522	 6.49542635344139E-02 
523	 6.52688877519122E-02 
524	 0.06570633549196 
525	 6.53843381246336E-02 
526	 6.50631959139416E-02 
527	 6.51199981927237E-02 
528	 0.065648652481742 
529	 6.60932585356654E-02 
530	 6.59855897262846E-02 
531	 6.56691281489653E-02 
532	 6.62556726503147E-02 
533	 6.63499279411929E-02 
534	 6.62279363658247E-02 
535	 6.63922425244512E-02 
536	 6.69967165672665E-02 
537	 6.72763785925626E-02 
538	 6.72022102298403E-02 
539	 6.71783973413973E-02 
540	 0.067436363914319 
541	 6.76556088431293E-02 
542	 0.067660637606584 
543	 6.76025286437507E-02 
544	 0.067430409764839 
545	 6.73579524945105E-02 
546	 6.75804009385286E-02 
547	 6.78998110421448E-02 
548	 6.82162356187411E-02 
549	 6.82992180646358E-02 
550	 6.78766018195762E-02 
551	 6.83188898368583E-02 
552	 6.85974536663601E-02 
553	 6.80979458894722E-02 
554	 6.83712359067001E-02 
555	 6.86257907124082E-02 
556	 6.87287690573806E-02 
557	 6.88451118214631E-02 
558	 6.90993449781894E-02 
559	 6.90007928229385E-02 
560	 6.86745056624009E-02 
561	 6.91686360912066E-02 
562	 6.90785358607675E-02 
563	 6.89753884627377E-02 
564	 6.95129685875895E-02 
565	 6.95745993156744E-02 
566	 6.95814679624543E-02 
567	 6.96003225925603E-02 
568	 6.94498257286537E-02 
569	 6.94718177081882E-02 
570	 0.069601906621038 
571	 6.96864299824653E-02 
572	 6.94736287684189E-02 
573	 0.069639082148034 
574	 6.99036240071933E-02 
575	 6.97529949064235E-02 
576	 6.96277414764939E-02 
577	 6.96302730867723E-02 
578	 6.97441545412605E-02 
579	 6.98477157670165E-02 
580	 7.01113766956582E-02 
581	 7.03452397897389E-02 
582	 7.03397147601773E-02 
583	 7.00076689533506E-02 
584	 0.070093072944644 
585	 7.03707189370602E-02 
586	 0.070138133132243 
587	 7.00895575279693E-02 
588	 7.01616873821339E-02 
589	 7.02405641787828E-02 
590	 7.02797144719224E-02 
591	 7.02908455569272E-02 
592	 7.03806021844199E-02 
593	 7.05745057966463E-02 
594	 7.03851460636751E-02 
595	 0.070504942816464 
596	 7.07964772082249E-02 
597	 7.04525968108285E-02 
598	 7.04581960626399E-02 
599	 7.05086418497388E-02 
600	 7.03868215261549E-02 
601	 7.06951779070841E-02 
602	 0.070617851449936 
603	 7.03914853062741E-02 
604	 7.05668989650461E-02 
605	 7.04337114794591E-02 
606	 0.070324828750037 
607	 7.04435634701391E-02 
608	 7.07285391284572E-02 
609	 7.06139771252604E-02 
610	 7.04516780948554E-02 
611	 7.05842728509558E-02 
612	 7.04899265717678E-02 
613	 7.04368991459534E-02 
614	 7.05209803441786E-02 
615	 7.06814473122758E-02 
616	 7.05017990278387E-02 
617	 7.03323227653941E-02 
618	 7.03919191681264E-02 
619	 7.05058076702343E-02 
620	 7.04117557626008E-02 
621	 7.02728997155433E-02 
622	 7.03221168724647E-02 
623	 7.03330040451212E-02 
624	 7.03873998037694E-02 
625	 7.05023320151541E-02 
626	 7.06162109355995E-02 
627	 7.05660274518325E-02 
628	 7.02812128064272E-02 
629	 6.99344377996559E-02 
630	 7.02784858201543E-02 
631	 7.04718615543376E-02 
632	 7.03919536705618E-02 
633	 7.02624609881334E-02 
634	 7.02744403599645E-02 
635	 7.02244930724726E-02 
636	 7.00834590098717E-02 
637	 7.00774566933621E-02 
638	 6.99642330188069E-02 
639	 6.99003065284579E-02 
640	 7.00302462920907E-02 
641	 7.01886300888648E-02 
642	 7.00210006226342E-02 
643	 6.97767519553734E-02 
644	 6.99785442645644E-02 
645	 6.98843964954493E-02 
646	 6.98675851960547E-02 
647	 7.00381343135194E-02 
648	 6.98541009840445E-02 
649	 6.97554260932801E-02 
650	 6.97146110777061E-02 
651	 6.96394951473908E-02 
652	 6.98117147830557E-02 
653	 6.98046587861247E-02 
654	 6.96375377519316E-02 
655	 6.96792640139917E-02 
656	 6.96833015964357E-02 
657	 6.97134476414036E-02 
658	 0.069788565283818 
659	 0.069742078604475 
660	 6.95700618132702E-02 
661	 6.94136959585423E-02 
662	 6.94367581329008E-02 
663	 6.95978012287413E-02 
664	 6.96145222908254E-02 
665	 6.94912609887937E-02 
666	 6.95172511394585E-02 
667	 6.94011297370494E-02 
668	 6.92937839474222E-02 
669	 6.93199299396717E-02 
670	 6.93246553407786E-02 
671	 6.92937194352528E-02 
672	 6.92635738741982E-02 
673	 6.92768120815514E-02 
674	 6.92035073329127E-02 
675	 6.92298860302369E-02 
676	 6.93292560074377E-02 
677	 6.92001077027151E-02 
678	 6.92230095361135E-02 
679	 6.92544213545112E-02 
680	 6.91349558199723E-02 
681	 6.90218993826603E-02 
682	 6.89998356573694E-02 
683	 6.90629118134001E-02 
684	 6.91296821092716E-02 
685	 6.89943497083101E-02 
686	 6.89086284667396E-02 
687	 0.068968009348584 
688	 6.89840028282142E-02 
689	 6.90315638182423E-02 
690	 0.069016500079429 
691	 6.88956476595051E-02 
692	 6.89392443242574E-02 
693	 6.89531803795437E-02 
694	 0.068914698175997 
695	 6.89116001774944E-02 
696	 6.89605867879344E-02 
697	 6.89617149155897E-02 
698	 6.88967872392377E-02 
699	 6.88930023407054E-02 
700	 6.89391609750933E-02 
701	 6.89764247721995E-02 
702	 6.89655202157883E-02 
703	 6.90036960448669E-02 
704	 6.90540449979686E-02 
705	 6.90715755869236E-02 
706	 0.069023024378475 
707	 0.069030697220029 
708	 6.90342687602327E-02 
709	 6.90145204048789E-02 
710	 6.90618136269087E-02 
711	 6.91107330383399E-02 
712	 6.91690045613488E-02 
713	 6.92338748013123E-02 
714	 6.91723603298213E-02 
715	 6.91247108664949E-02 
716	 6.91371501034899E-02 
717	 6.91838549983983E-02 
718	 6.93022794901111E-02 
719	 6.94529809620241E-02 
720	 6.95446052998055E-02 
721	 0.069404201605842 
722	 6.94355655336658E-02 
723	 6.95378402612754E-02 
724	 0.069536101977453 
725	 6.96221099777167E-02 
726	 6.97451383692116E-02 
727	 6.98255542327119E-02 
728	 6.97949618416397E-02 
729	 6.98820516029549E-02 
730	 6.99161380988313E-02 
731	 6.98903182156565E-02 
732	 7.01594439900401E-02 
733	 7.01816929678419E-02 
734	 7.01614373328557E-02 
735	 0.070366654043843 
736	 7.04431744462402E-02 
737	 7.05195227500278E-02 
738	 7.06194725418779E-02 
739	 7.06924664386083E-02 
740	 7.07046585376513E-02 
741	 7.07714548938186E-02 
742	 7.09320495539541E-02 
743	 7.10900267249274E-02 
744	 7.11856720229864E-02 
745	 7.12692246430398E-02 
746	 0.071399398185458 
747	 0.07155498816247 
748	 0.071630166622409 
749	 7.17016674477704E-02 
750	 7.19047884602122E-02 
751	 7.19324160747294E-02 
752	 7.19816661186909E-02 
753	 7.21624088087454E-02 
754	 7.24035959976957E-02 
755	 7.25503860343472E-02 
756	 7.26276291447005E-02 
757	 7.27063249954932E-02 
758	 7.28517278297418E-02 
759	 7.29110799473609E-02 
760	 7.29737984435312E-02 
761	 7.32032079213189E-02 
762	 7.34575629486607E-02 
763	 7.36220010356171E-02 
764	 7.37102549119438E-02 
765	 7.38642550290483E-02 
766	 7.40483430292336E-02 
767	 7.42352992067429E-02 
768	 7.43938503839582E-02 
769	 7.44778865132405E-02 
770	 7.45715306247792E-02 
771	 7.47535802121304E-02 
772	 7.50344931380222E-02 
773	 7.51294786104606E-02 
774	 7.52619738708065E-02 
775	 7.54501331884533E-02 
776	 7.55470229565399E-02 
777	 7.57421700008661E-02 
778	 7.59421390191709E-02 
779	 7.60844113911485E-02 
780	 7.62259706844662E-02 
781	 7.64040265716984E-02 
782	 7.65661543289254E-02 
783	 7.66780794397465E-02 
784	 7.68732466365691E-02 
785	 7.70105553015344E-02 
786	 7.71342470006178E-02 
787	 7.73616739655618E-02 
788	 7.74933228309222E-02 
789	 7.76675137731655E-02 
790	 0.07788564320073 
791	 7.79629331199685E-02 
792	 0.078051708803561 
793	 7.81869586741646E-02 
794	 7.83717687850848E-02 
795	 7.86139583764344E-02 
796	 7.86946206004518E-02 
797	 7.87555392646617E-02 
798	 7.89875503586415E-02 
799	 0.0791022347797 
800	 7.91886576708903E-02 
801	 7.93283006802894E-02 
802	 0.079559033230323 
803	 0.07967533926931 
804	 7.97423767760918E-02 
805	 7.98323791330363E-02 
806	 7.99676331490189E-02 
807	 8.01140508227607E-02 
808	 8.02043231537218E-02 
809	 8.02408534368952E-02 
810	 8.04560473156685E-02 
811	 8.06059319425831E-02 
812	 8.06849863759068E-02 
813	 8.07952031941973E-02 
814	 8.09928716557868E-02 
815	 8.09961595721537E-02 
816	 8.09285181442443E-02 
817	 8.12172922830713E-02 
818	 0.081257611831737 
819	 8.12552009664027E-02 
820	 8.13792686913959E-02 
821	 0.081535547435182 
822	 8.16317137165504E-02 
823	 8.16812314648593E-02 
824	 8.17194192437704E-02 
825	 8.17284026692518E-02 
826	 8.18120586455645E-02 
827	 8.19198968856519E-02 
828	 8.19421081524017E-02 
829	 8.18638850466556E-02 
830	 8.20127892765865E-02 
831	 8.22787033233257E-02 
832	 8.22099950300419E-02 
833	 8.21801165248869E-02 
834	 8.22160794655161E-02 
835	 8.22850282392343E-02 
836	 8.23405714434971E-02 
837	 8.24408734533452E-02 
838	 8.24876304149572E-02 
839	 8.24208498875387E-02 
840	 8.23659907733349E-02 
841	 8.25228129677312E-02 
842	 8.27018879594692E-02 
843	 8.26467577029565E-02 
844	 8.26422394531497E-02 
845	 8.26595787233666E-02 
846	 8.26659831192896E-02 
847	 8.26498242831619E-02 
848	 0.082762539428715 
849	 8.27374165493107E-02 
850	 8.25839424519636E-02 
851	 8.26878120093123E-02 
852	 0.082740527249503 
853	 8.26960045227916E-02 
854	 8.26253893962471E-02 
855	 8.27379539554607E-02 
856	 8.26733815216007E-02 
857	 8.26544911852676E-02 
858	 8.28869792795814E-02 
859	 8.28325927708566E-02 
860	 8.27529477035687E-02 
861	 8.27505108461023E-02 
862	 8.28098136411114E-02 
863	 8.27693137939311E-02 
864	 8.28058362764147E-02 
865	 8.29007863854672E-02 
866	 8.28697014580651E-02 
867	 8.28362223970808E-02 
868	 8.27593700347208E-02 
869	 0.082672249834426 
870	 8.27245194087517E-02 
871	 8.27264226884235E-02 
872	 8.27434460531348E-02 
873	 8.28393130380306E-02 
874	 8.29595890015697E-02 
875	 8.29624273656177E-02 
876	 8.28812793248052E-02 
877	 8.27965422890585E-02 
878	 8.26902227007797E-02 
879	 8.28210131981097E-02 
880	 8.29520463181776E-02 
881	 8.27700464972894E-02 
882	 8.29551340020329E-02 
883	 8.30561857565638E-02 
884	 8.29729766934644E-02 
885	 8.29261633082497E-02 
886	 0.083006654277568 
887	 8.30496678670941E-02 
888	 8.30163436684202E-02 
889	 0.083039683832629 
890	 8.30208793433029E-02 
891	 0.082965963576397 
892	 0.082926049989115 
893	 8.29906934089824E-02 
894	 8.31161827551405E-02 
895	 8.31645496263198E-02 
896	 8.31007894156105E-02 
897	 8.32137149673704E-02 
898	 8.32497199993627E-02 
899	 8.31764066098136E-02 
900	 8.30937806683053E-02 
901	 8.32905955300839E-02 
902	 8.33587594369223E-02 
903	 8.32902809611425E-02 
904	 8.32824417625784E-02 
905	 8.33868607059084E-02 
906	 8.35193628735613E-02 
907	 8.36111569803427E-02 
908	 8.36364165771035E-02 
909	 8.37316259198658E-02 
910	 8.37221137272018E-02 
911	 8.36364748196829E-02 
912	 8.37151868770596E-02 
913	 0.083884060106363 
914	 8.40266973108416E-02 
915	 8.40559220838623E-02 
916	 8.39527322386426E-02 
917	 8.39773604747101E-02 
918	 8.40295989247725E-02 
919	 8.40527759827701E-02 
920	 8.42145795515776E-02 
921	 8.42428820358868E-02 
922	 8.41982936007624E-02 
923	 8.42057767489329E-02 
924	 8.43085063134556E-02 
925	 8.44803153123444E-02 
926	 8.46669224309867E-02 
927	 8.47831666976593E-02 
928	 8.46448521832866E-02 
929	 8.47999076173808E-02 
930	 8.50647294732332E-02 
931	 8.50549596752773E-02 
932	 8.49894089987794E-02 
933	 8.50518306522091E-02 
934	 8.51865809370222E-02 
935	 0.085234382854403 
936	 8.52600972459458E-02 
937	 8.54675203414273E-02 
938	 8.57192803510358E-02 
939	 8.57259053506102E-02 
940	 8.58934139650467E-02 
941	 8.60219207824308E-02 
942	 8.60140121205359E-02 
943	 8.59381131063034E-02 
944	 8.60565408592768E-02 
945	 8.62297171145946E-02 
946	 8.62932741969141E-02 
947	 8.61784634225942E-02 
948	 0.086537045271111 
949	 8.66652201716968E-02 
950	 8.64392435656793E-02 
951	 8.66427784188562E-02 
952	 8.67214302973451E-02 
953	 8.67254334570261E-02 
954	 8.68160710942671E-02 
955	 8.71322336823063E-02 
956	 8.71289241888339E-02 
957	 8.70829916430199E-02 
958	 8.72483696374981E-02 
959	 8.75207272279329E-02 
960	 8.75305641420868E-02 
961	 8.76721744089518E-02 
962	 8.80295003750264E-02 
963	 8.77402785256784E-02 
964	 8.78077395927173E-02 
965	 8.80210193077012E-02 
966	 8.80185774361437E-02 
967	 8.78337466567109E-02 
968	 8.81840560022277E-02 
969	 8.85477044918365E-02 
970	 8.84774100343958E-02 
971	 8.86663049913705E-02 
972	 8.86379466593705E-02 
973	 0.088482862712103 
974	 8.84126063880829E-02 
975	 8.84541756982859E-02 
976	 8.88184037317809E-02 
977	 8.91081203771758E-02 
978	 8.89873568281037E-02 
979	 8.89011493346732E-02 
980	 8.88258758488088E-02 
981	 8.89130565455708E-02 
982	 8.92265594055201E-02 
983	 8.94970155968114E-02 
984	 8.91051488535443E-02 
985	 8.87897826135235E-02 
986	 8.92768243210481E-02 
987	 8.95747461830483E-02 
988	 0.089813476817275 
989	 0.08989530984169 
990	 8.97757910761192E-02 
991	 0.08971800718886 
992	 9.01382333283664E-02 
993	 9.03158033566166E-02 
994	 8.97119130144775E-02 
995	 8.98091199829563E-02 
996	 8.99614493947272E-02 
997	 9.00608498968706E-02 
998	 9.01104565166585E-02 
999	 8.98342552655003E-02 
1000	 0.08967865475276 
1001	 9.14735590409857E-02 
1002	 0.091423007151197 
1003	 9.16491711977701E-02 
1004	 9.18564784909731E-02 
1005	 9.21699035917127E-02 
1006	 9.22196089807024E-02 
1007	 0.092275743318667 
1008	 9.22567290751092E-02 
1009	 9.18994695536478E-02 
1010	 9.19500185465179E-02 
1011	 9.22643496114676E-02 
1012	 9.23933908036806E-02 
1013	 9.25861406841077E-02 
1014	 9.27321101373792E-02 
1015	 9.28043537747784E-02 
1016	 9.28702321197668E-02 
1017	 9.28696797435193E-02 
1018	 9.30010087969413E-02 
1019	 9.30134204053965E-02 
1020	 9.29220912843264E-02 
1021	 9.29211641350619E-02 
1022	 9.29567856343013E-02 
1023	 9.29418614384209E-02 
1024	 9.29383178089496E-02 
1025	 9.29444129548945E-02 
1026	 9.28940834746906E-02 
1027	 9.28981269564053E-02 
1028	 9.29848100311916E-02 
1029	 0.092983834412501 
1030	 9.29540849962733E-02 
1031	 9.30072665181668E-02 
1032	 9.28970835625333E-02 
1033	 9.29153061231402E-02 
1034	 9.30595354449588E-02 
1035	 9.30964715078019E-02 
1036	 9.31528515093016E-02 
1037	 9.32874834594525E-02 
1038	 9.33424126648618E-02 
1039	 9.32954985969458E-02 
1040	 9.32850952817527E-02 
1041	 9.33715135648915E-02 
1042	 9.33794921515894E-02 
1043	 9.33035623388467E-02 
1044	 9.32399647805432E-02 
1045	 9.32247522023069E-02 
1046	 0.093108598183947 
1047	 9.32203396282382E-02 
1048	 9.33028974013708E-02 
1049	 0.093275762728327 
1050	 9.34512724508312E-02 
1051	 9.34602818377862E-02 
1052	 9.33920862641947E-02 
1053	 9.34552374098908E-02 
1054	 9.36424711177836E-02 
1055	 9.36821811740746E-02 
1056	 9.38055391251241E-02 
1057	 0.093863122273388 
1058	 9.38293359159202E-02 
1059	 9.37468608087063E-02 
1060	 9.38345986246978E-02 
1061	 0.093789788973321 
1062	 9.38625142984707E-02 
1063	 9.39411266824396E-02 
1064	 9.40030391451947E-02 
1065	 9.40123730948346E-02 
1066	 9.39687773250238E-02 
1067	 9.41565243510305E-02 
1068	 9.43079005737484E-02 
1069	 9.43842376446414E-02 
1070	 9.44411575237733E-02 
1071	 9.44871961580589E-02 
1072	 9.45179709391371E-02 
1073	 0.094565787567526 
1074	 0.094584945837037 
1075	 9.47685330317755E-02 
1076	 9.48756089983283E-02 
1077	 9.48550543048385E-02 
1078	 9.49493871301007E-02 
1079	 9.50199261968841E-02 
1080	 9.51060283201451E-02 
1081	 9.52462508220981E-02 
1082	 9.52192384847637E-02 
1083	 9.52188563709596E-02 
1084	 0.095343117433701 
1085	 9.53873697178024E-02 
1086	 9.54939482725941E-02 
1087	 9.57206871081542E-02 
1088	 9.59686399461765E-02 
1089	 9.60174313680458E-02 
1090	 9.60708359466223E-02 
1091	 0.096232445792774 
1092	 9.63205139160541E-02 
1093	 9.63435294506869E-02 
1094	 9.64333509818415E-02 
1095	 9.64083936366368E-02 
1096	 9.63676241227164E-02 
1097	 0.096555812264445 
1098	 9.67245768265473E-02 
1099	 9.68373154410109E-02 
1100	 9.69260682370794E-02 
1101	 9.68855246911462E-02 
1102	 0.096960364847933 
1103	 9.70282197586549E-02 
1104	 9.71364195718747E-02 
1105	 9.72308850749814E-02 
1106	 9.74143827253822E-02 
1107	 9.74636516815519E-02 
1108	 9.75964628090563E-02 
1109	 9.78018689905434E-02 
1110	 9.78481787332543E-02 
1111	 9.79182876942534E-02 
1112	 9.78666017347168E-02 
1113	 9.77702708741021E-02 
1114	 9.78841332614682E-02 
1115	 9.79874540415116E-02 
1116	 9.81365082321871E-02 
1117	 9.83563740266356E-02 
1118	 9.84796172544713E-02 
1119	 9.85153482591604E-02 
1120	 9.85807840962842E-02 
1121	 9.86116927217099E-02 
1122	 0.098670626696198 
1123	 9.88100706893677E-02 
1124	 9.88703241069609E-02 
1125	 9.89914215913545E-02 
1126	 9.90843888916168E-02 
1127	 9.91031572334884E-02 
1128	 9.92064477690444E-02 
1129	 0.09928087667645 
1130	 9.93558855763137E-02 
1131	 9.94473571318071E-02 
1132	 0.099575012312368 
1133	 9.97623535139086E-02 
1134	 9.98828584659485E-02 
1135	 0.100005506215593 
1136	 0.100153913030922 
1137	 0.100236939673859 
1138	 0.100232129454462 
1139	 0.100328204998555 
1140	 0.100467378425043 
1141	 0.100526890366473 
1142	 0.100666623379478 
1143	 0.100876260532609 
1144	 0.100982602509939 
1145	 0.10104477730457 
1146	 0.101096731897709 
1147	 0.101105568718396 
1148	 0.101198835680737 
1149	 0.101400713756293 
1150	 0.101578048370584 
1151	 0.101688820012319 
1152	 0.10181236902959 
1153	 0.101852375083945 
1154	 0.101992416058916 
1155	 0.102222875193848 
1156	 0.10239447712594 
1157	 0.102594454837698 
1158	 0.102738737542388 
1159	 0.102829531427381 
1160	 0.102900020214361 
1161	 0.103012621030695 
1162	 0.103169895660899 
1163	 0.103307507991828 
1164	 0.1034857108846 
1165	 0.103674992347321 
1166	 0.103823850500061 
1167	 0.103979386480065 
1168	 0.104136652228181 
1169	 0.104300232665722 
1170	 0.104459840227323 
1171	 0.104609828753381 
1172	 0.104757294485543 
1173	 0.104933101719975 
1174	 0.105093782416321 
1175	 0.10527595206026 
1176	 0.105485083906203 
1177	 0.105704621437291 
1178	 0.10593547079009 
1179	 0.106198882586765 
1180	 0.106409910742955 
1181	 0.10658766835833 
1182	 0.106699993500795 
1183	 0.10676738776501 
1184	 0.10684062271994 
1185	 0.10694806464536 
1186	 0.107101510629363 
1187	 0.107288962832656 
1188	 0.107472679678423 
1189	 0.107695441943505 
1190	 0.107930123326277 
1191	 0.108176782272989 
1192	 0.108411031025134 
1193	 0.108673558041797 
1194	 0.108907841421275 
1195	 0.109113097402776 
1196	 0.109332798996176 
1197	 0.109541931404087 
1198	 0.109782465818174 
1199	 0.110071538867964 
1200	 0.110255959383594 
1201	 0.110398472280703 
1202	 0.110585303940755 
1203	 0.110769097230559 
1204	 0.11096568453934 
1205	 0.111206545666015 
1206	 0.111555877830574 
1207	 0.111805185353778 
1208	 0.112017511233746 
1209	 0.112246910915904 
1210	 0.112447921881672 
1211	 0.112676763007251 
1212	 0.112888762290427 
1213	 0.113160866633965 
1214	 0.113483772636387 
1215	 0.113782001012248 
1216	 0.114163770238728 
1217	 0.114469646810494 
1218	 0.114701964157693 
1219	 0.114939668051771 
1220	 0.11524815080526 
1221	 0.115529855633172 
1222	 0.115824095153037 
1223	 0.116124201445135 
1224	 0.116430109703747 
1225	 0.116698288073197 
1226	 0.116990051913106 
1227	 0.11731468013491 
1228	 0.117657252381046 
1229	 0.117992829550658 
1230	 0.118329472458713 
1231	 0.118718627552339 
1232	 0.119059876536679 
1233	 0.119361213956565 
1234	 0.119682290888551 
1235	 0.120014731132035 
1236	 0.12032760412663 
1237	 0.120645731278876 
1238	 0.120924899767759 
1239	 0.12113956870377 
1240	 0.121387995871127 
1241	 0.121700204514081 
1242	 0.122047003204752 
1243	 0.122353701142561 
1244	 0.122699159377213 
1245	 0.123041731364298 
1246	 0.123350893876981 
1247	 0.123653581554344 
1248	 0.124004295177083 
1249	 0.124313712107541 
1250	 0.12455722267297 
1251	 0.124828913208952 
1252	 0.125114308224419 
1253	 0.125412509402467 
1254	 0.125703831120856 
1255	 0.125996555495921 
1256	 0.126316249668556 
1257	 0.126625480994032 
1258	 0.126927244076134 
1259	 0.127217126057921 
1260	 0.127511787986863 
1261	 0.127795906743637 
1262	 0.128020421919665 
1263	 0.128307494838239 
1264	 0.128604873849612 
1265	 0.128921264422554 
1266	 0.129235785237995 
1267	 0.129571274609796 
1268	 0.129905718478319 
1269	 0.130242560208168 
1270	 0.130574696122767 
1271	 0.130936267625135 
1272	 0.131251961598947 
1273	 0.131537835100128 
1274	 0.131824975758367 
1275	 0.13208290592412 
1276	 0.132359678051578 
1277	 0.132606435549013 
1278	 0.132913441836972 
1279	 0.133249136243594 
1280	 0.133604561148032 
1281	 0.134038002123322 
1282	 0.134428218506512 
1283	 0.13483313700272 
1284	 0.135193449459078 
1285	 0.135524609631646 
1286	 0.135792539601724 
1287	 0.136164081675885 
1288	 0.136543049369782 
1289	 0.136939898651647 
1290	 0.137423223870964 
1291	 0.137825069993315 
1292	 0.138196340259828 
1293	 0.138548571419339 
1294	 0.138856624253628 
1295	 0.139208661029652 
1296	 0.139532292202854 
1297	 0.139909329346249 
1298	 0.14035089393006 
1299	 0.140763583947466 
1300	 0.141171570781651 
1301	 0.141599557228915 
1302	 0.142083953911375 
1303	 0.142481989704725 
1304	 0.142816103553612 
1305	 0.143198659155486 
1306	 0.143538940352031 
1307	 0.143898898745344 
1308	 0.144311413515377 
1309	 0.144735317238185 
1310	 0.145116447749359 
1311	 0.145448598877395 
1312	 0.14584094418938 
1313	 0.146255567719363 
1314	 0.146644083747539 
1315	 0.147030986127236 
1316	 0.147445041774145 
1317	 0.147866997509969 
1318	 0.148260990515071 
1319	 0.148689289637036 
1320	 0.149064832389696 
1321	 0.149346710830753 
1322	 0.14971634675769 
1323	 0.150148362060451 
1324	 0.150512065889375 
1325	 0.150881941169775 
1326	 0.151230834688725 
1327	 0.151494716191685 
1328	 0.151818795510098 
1329	 0.152194767193878 
1330	 0.15253942141651 
1331	 0.15287530895275 
1332	 0.153221874053244 
1333	 0.153558859235913 
1334	 0.153895989944503 
1335	 0.154249895232311 
1336	 0.154627944231103 
1337	 0.154986487421424 
1338	 0.155351190393488 
1339	 0.155682827306861 
1340	 0.155988558066968 
1341	 0.156317871888966 
1342	 0.156630782624665 
1343	 0.156968028607683 
1344	 0.157347965030517 
1345	 0.157677811158572 
1346	 0.157998553733153 
1347	 0.158296919634676 
1348	 0.158540151863077 
1349	 0.158835325656536 
1350	 0.159136643242228 
1351	 0.159455061619819 
1352	 0.159831818492098 
1353	 0.160156274255299 
1354	 0.160438020115037 
1355	 0.160756817736196 
1356	 0.161053385788431 
1357	 0.16139076346495 
1358	 0.161835718659191 
1359	 0.162184600216979 
1360	 0.162487166534842 
1361	 0.162784975294221 
1362	 0.163090870644956 
1363	 0.163343647623767 
1364	 0.163650025506838 
1365	 0.164031659327758 
1366	 0.164298029555837 
1367	 0.164504942393085 
1368	 0.16475360563808 
1369	 0.164945948957155 
1370	 0.165225065601424 
1371	 0.165601776957454 
1372	 0.165866180376148 
1373	 0.166116696178634 
1374	 0.166347735414639 
1375	 0.166500340375447 
1376	 0.166702821651823 
1377	 0.166955440975728 
1378	 0.167151442281922 
1379	 0.167318088314426 
1380	 0.167493349917938 
1381	 0.167668601446351 
1382	 0.167805192490418 
1383	 0.167965885365763 
1384	 0.168044759021595 
1385	 0.168046778624359 
1386	 0.168037004233612 
1387	 0.167974382540145 
1388	 0.167907743747449 
1389	 0.167821927455817 
1390	 0.167729310606498 
1391	 0.167596390655612 
1392	 0.167476840722572 
1393	 0.167434162266788 
1394	 0.167382689712503 
1395	 0.167417115366815 
1396	 0.167531939790551 
1397	 0.167643425478421 
1398	 0.167797314435352 
1399	 0.167944907044653 
1400	 0.168133632539335 
1401	 0.168275698241697 
1402	 0.168418715042564 
1403	 0.168516804948999 
1404	 0.16857052408588 
1405	 0.168638119305666 
1406	 0.168701478821207 
1407	 0.168732720094436 
1408	 0.168754675707393 
1409	 0.168755960815011 
1410	 0.168675709139308 
1411	 0.168686117792748 
1412	 0.168691470401988 
1413	 0.168783716663892 
1414	 0.168986550287435 
1415	 0.169150186410859 
1416	 0.169328573670202 
1417	 0.169543570909647 
1418	 0.169761762130363 
1419	 0.169995864741024 
1420	 0.170280873956293 
1421	 0.170567349330013 
1422	 0.170865306077241 
1423	 0.17115441757379 
1424	 0.171449054684181 
1425	 0.171744524332556 
1426	 0.172075271109515 
1427	 0.172401747330533 
1428	 0.172780049253014 
1429	 0.173159974164027 
1430	 0.173514112091929 
1431	 0.173846977548841 
1432	 0.174191263628807 
1433	 0.174517691224571 
1434	 0.174890488915933 
1435	 0.175289115568478 
1436	 0.175677475566915 
1437	 0.176097051917597 
1438	 0.176482587114498 
1439	 0.176828368689547 
1440	 0.177220899962434 
1441	 0.177628360365572 
1442	 0.178038342481525 
1443	 0.178475900291235 
1444	 0.178901845590831 
1445	 0.179314187704553 
1446	 0.179745316329052 
1447	 0.180171782042112 
1448	 0.180634283828381 
1449	 0.181098787695813 
1450	 0.181614285704443 
1451	 0.1822071121025 
1452	 0.182759699197938 
1453	 0.183306270322244 
1454	 0.183887397607937 
1455	 0.184472023888532 
1456	 0.185056224302845 
1457	 0.185691831370045 
1458	 0.186297724893423 
1459	 0.186884851007249 
1460	 0.187461973695418 
1461	 0.187998571807063 
1462	 0.188578038299323 
1463	 0.18919984788684 
1464	 0.189771732253458 
1465	 0.190298903147853 
1466	 0.190920599428276 
1467	 0.191485879483815 
1468	 0.192001963253164 
1469	 0.192590001588465 
1470	 0.193134031072743 
1471	 0.193659413867588 
1472	 0.194131010843545 
1473	 0.194676746534038 
1474	 0.195250145778103 
1475	 0.195786213297384 
1476	 0.196353071144216 
1477	 0.196878005206894 
1478	 0.197336955379846 
1479	 0.197846285697856 
1480	 0.198367184193181 
1481	 0.198906165217701 
1482	 0.199466676339101 
1483	 0.200015890268599 
1484	 0.200590593787764 
1485	 0.201133551633029 
1486	 0.201670704199341 
1487	 0.202166858195037 
1488	 0.202618774709847 
1489	 0.203097888342418 
1490	 0.203557259602632 
1491	 0.204031835178233 
1492	 0.204500833783996 
1493	 0.205023935966383 
1494	 0.205584548837439 
1495	 0.20611741806664 
1496	 0.206708121293774 
1497	 0.207241838785978 
1498	 0.207711826053423 
1499	 0.20820308598667 
1500	 0.208684703520076 
1501	 0.209177038223314 
1502	 0.209671604346003 
1503	 0.210164656479638 
1504	 0.210662636667104 
1505	 0.21116406797853 
1506	 0.211677876370521 
1507	 0.212171323415321 
1508	 0.212639646617376 
1509	 0.213137434673254 
1510	 0.213650308287806 
1511	 0.214139264270548 
1512	 0.214674676132007 
1513	 0.215145121069756 
1514	 0.215500191653448 
1515	 0.215939349464402 
1516	 0.216423650038129 
1517	 0.216866337449497 
1518	 0.217325343611324 
1519	 0.217792002539498 
1520	 0.218243866059365 
1521	 0.218660424793812 
1522	 0.219075142754492 
1523	 0.219524115881349 
1524	 0.219952689516488 
1525	 0.220328497464105 
1526	 0.220782637036354 
1527	 0.221318746606696 
1528	 0.221718582819218 
1529	 0.222078085068502 
1530	 0.222461320582897 
1531	 0.222767714325553 
1532	 0.22315441896732 
1533	 0.223612204163635 
1534	 0.224017790100675 
1535	 0.224420406231972 
1536	 0.224790630136829 
1537	 0.225128867167984 
1538	 0.225508033980254 
1539	 0.225863121170804 
1540	 0.226272501582796 
1541	 0.226742244728894 
1542	 0.227178008841112 
1543	 0.227623466304335 
1544	 0.228050581860724 
1545	 0.228475295147187 
1546	 0.228878216312701 
1547	 0.229247651043354 
1548	 0.229657293687484 
1549	 0.230068887369557 
1550	 0.230485122034875 
1551	 0.230933306654344 
1552	 0.23135743321902 
1553	 0.23175631009471 
1554	 0.23218213854984 
1555	 0.232617017685255 
1556	 0.233057809023464 
1557	 0.233502932306015 
1558	 0.233967268987048 
1559	 0.234481569888188 
1560	 0.23491629010738 
1561	 0.235311490701664 
1562	 0.235737952109056 
1563	 0.236100399498136 
1564	 0.236538674435051 
1565	 0.237083779134502 
1566	 0.237536017742448 
1567	 0.237979747815538 
1568	 0.238384924160746 
1569	 0.238679689500873 
1570	 0.239088863613578 
1571	 0.239561287631913 
1572	 0.239985108069666 
1573	 0.240454285547478 
1574	 0.240883350734217 
1575	 0.24122865551744 
1576	 0.241636573231862 
1577	 0.242067331866898 
1578	 0.242519089427413 
1579	 0.243034736773619 
1580	 0.243478221773204 
1581	 0.243895793167289 
1582	 0.244326895432774 
1583	 0.244705853483764 
1584	 0.245122364751885 
1585	 0.245579360767714 
1586	 0.246029397657349 
1587	 0.246493035406924 
1588	 0.246930510196434 
1589	 0.247356125365004 
1590	 0.247789552052663 
1591	 0.248181367851541 
1592	 0.248628689017018 
1593	 0.249162789450568 
1594	 0.249611603598514 
1595	 0.25003939850471 
1596	 0.250457808596168 
1597	 0.250788223503229 
1598	 0.251187591893708 
1599	 0.251621350425417 
1600	 0.252069794810331 
1601	 0.252591632063919 
1602	 0.253034102565235 
1603	 0.253439340115181 
1604	 0.253859837178115 
1605	 0.254221362680666 
1606	 0.254623301176327 
1607	 0.255084455512807 
1608	 0.255509708360625 
1609	 0.255916272884956 
1610	 0.25633238116131 
1611	 0.256740299372621 
1612	 0.257149490006848 
1613	 0.257583455733141 
1614	 0.25798317509007 
1615	 0.258347084845695 
1616	 0.258731766803358 
1617	 0.259119576966445 
1618	 0.25948819116677 
1619	 0.259858537112458 
1620	 0.260224565935017 
1621	 0.260568888305731 
1622	 0.260914426494416 
1623	 0.261273793732295 
1624	 0.261621125507364 
1625	 0.261914944192481 
1626	 0.262270641127947 
1627	 0.262692027233862 
1628	 0.263049347215149 
1629	 0.263414088515131 
1630	 0.26376724864407 
1631	 0.264069505421867 
1632	 0.264378792642756 
1633	 0.264680166575754 
1634	 0.265010216638536 
1635	 0.265340141123906 
1636	 0.265669393065861 
1637	 0.266012766146283 
1638	 0.266385482461603 
1639	 0.266792112239572 
1640	 0.267156454843978 
1641	 0.26755002883541 
1642	 0.267897820075043 
1643	 0.268166203322709 
1644	 0.268461378975694 
1645	 0.268762917178367 
1646	 0.269053596147655 
1647	 0.26932968898552 
1648	 0.269622021124775 
1649	 0.269924534517719 
1650	 0.27021654591583 
1651	 0.270517819717558 
1652	 0.270802772115695 
1653	 0.271096139786873 
1654	 0.271331936361303 
1655	 0.271544303354044 
1656	 0.271730982082553 
1657	 0.271841582154505 
1658	 0.271986194172562 
1659	 0.272154197755874 
1660	 0.272272493752562 
1661	 0.272382043472562 
1662	 0.272463811129826 
1663	 0.272518284954505 
1664	 0.272526780971857 
1665	 0.27247947661083 
1666	 0.272460510246537 
1667	 0.272465923133965 
1668	 0.272365853716463 
1669	 0.272240374228072 
1670	 0.272064207723903 
1671	 0.271754226817918 
1672	 0.271493586879397 
1673	 0.271291862144201 
1674	 0.270971192379101 
1675	 0.270592522588901 
1676	 0.270184749325158 
1677	 0.269688215317688 
1678	 0.269201258472562 
1679	 0.268704697127621 
1680	 0.2681620476826 
1681	 0.267611217526258 
1682	 0.266998351299761 
1683	 0.266320430162197 
1684	 0.265648249373729 
1685	 0.264944529738338 
1686	 0.264184901807892 
1687	 0.263420829481028 
1688	 0.262593006018797 
1689	 0.261675134205096 
1690	 0.2607612034024 
1691	 0.259814794327755 
1692	 0.258880634961935 
1693	 0.257958242100205 
1694	 0.256969825204726 
1695	 0.255949250969262 
1696	 0.254891666014121 
1697	 0.253770350916642 
1698	 0.252631878951744 
1699	 0.251499348727908 
1700	 0.250338223946563 
1701	 0.249099207389523 
1702	 0.247946494429401 
1703	 0.246762196651811 
1704	 0.245695237531524 
1705	 0.244692559956078 
1706	 0.243682172857601 
1707	 0.242876744449668 
1708	 0.242079800407001 
1709	 0.241353722609022 
1710	 0.240727901427959 
1711	 0.240073263519244 
1712	 0.23946924750234 
1713	 0.238928647126153 
1714	 0.238491047180927 
1715	 0.238119817060576 
1716	 0.237688543675539 
1717	 0.23727879751853 
1718	 0.236939535374787 
1719	 0.236580761648801 
1720	 0.236254332658744 
1721	 0.23605550440098 
1722	 0.235897413103272 
1723	 0.235750967880741 
1724	 0.235710978467999 
1725	 0.235780764968597 
1726	 0.235858482789509 
1727	 0.236024342576038 
1728	 0.2364451365197 
1729	 0.236941605883826 
1730	 0.237462365995589 
1731	 0.238165523524764 
1732	 0.238917523139719 
1733	 0.2396101534966 
1734	 0.240437269082046 
1735	 0.241319033907064 
1736	 0.242161971363084 
1737	 0.243038310534776 
1738	 0.243728041847193 
1739	 0.244379636995952 
1740	 0.244932589023531 
1741	 0.24538129561972 
1742	 0.245822800335242 
1743	 0.246138996423342 
1744	 0.246261069257885 
1745	 0.246403137304601 
1746	 0.246498852382159 
1747	 0.246554851073506 
1748	 0.246506706610213 
1749	 0.24657972722917 
1750	 0.246663098185903 
1751	 0.246781915865039 
1752	 0.246972320211111 
1753	 0.247188127529071 
1754	 0.247418631625309 
1755	 0.247703762039861 
1756	 0.24796485257188 
1757	 0.248471522549396 
1758	 0.249065041256749 
1759	 0.249616630171525 
1760	 0.250413475803637 
1761	 0.25117125174592 
1762	 0.251870244153921 
1763	 0.252871680499996 
1764	 0.253861265408014 
1765	 0.254813822007501 
1766	 0.255892558168757 
1767	 0.256958076466005 
1768	 0.258079548568731 
1769	 0.259259521225273 
1770	 0.260499444133367 
1771	 0.261689690219357 
1772	 0.262711425463992 
1773	 0.263765397125139 
1774	 0.264760506037849 
1775	 0.265624699577089 
1776	 0.266541007592265 
1777	 0.267326425678141 
1778	 0.268031220866819 
1779	 0.268804384889302 
1780	 0.269457999903463 
1781	 0.270136552440744 
1782	 0.270794181646971 
1783	 0.271314150693542 
1784	 0.271971034436231 
1785	 0.272500908196238 
1786	 0.273003131925706 
1787	 0.273496845569957 
1788	 0.273937442924862 
1789	 0.274353401067416 
1790	 0.274763586117147 
1791	 0.275111795572756 
1792	 0.275470989432933 
1793	 0.275817892315062 
1794	 0.276215706880233 
1795	 0.276542456895596 
1796	 0.27692815909401 
1797	 0.277425390953558 
1798	 0.277732599472525 
1799	 0.278076680020234 
1800	 0.278394697585121 
1801	 0.278460088929979 
1802	 0.278800900905386 
1803	 0.279214634046498 
1804	 0.279672252751762 
1805	 0.280189964119149 
1806	 0.280596692605487 
1807	 0.280985675294294 
1808	 0.281383994918294 
1809	 0.281700256358591 
1810	 0.282065537179596 
1811	 0.28249402677013 
1812	 0.282894343902084 
1813	 0.283258779921055 
1814	 0.283682461030722 
1815	 0.284037655550332 
1816	 0.284421209656485 
1817	 0.284798682416821 
1818	 0.285098253865946 
1819	 0.285516735711131 
1820	 0.286019036297357 
1821	 0.286490497218583 
1822	 0.28701523310107 
1823	 0.287546022254314 
1824	 0.28795645217043 
1825	 0.288415317757673 
1826	 0.288824855547841 
1827	 0.289150551016761 
1828	 0.28955264584477 
1829	 0.289991842329364 
1830	 0.290387397353669 
1831	 0.290771718186916 
1832	 0.291209755356007 
1833	 0.291591451594254 
1834	 0.291981347263777 
1835	 0.292358599717029 
1836	 0.29271088561248 
1837	 0.29307515755263 
1838	 0.293398956861278 
1839	 0.293753714379565 
1840	 0.294145097921934 
1841	 0.294524547893884 
1842	 0.294886272824883 
1843	 0.295294267010026 
1844	 0.295697173664814 
1845	 0.296065695403429 
1846	 0.296455678737854 
1847	 0.296757964004098 
1848	 0.297073469502917 
1849	 0.297386765724226 
1850	 0.297676048663508 
1851	 0.297948702606047 
1852	 0.298204352300594 
1853	 0.29846757843135 
1854	 0.298602831639727 
1855	 0.298643932649539 
1856	 0.298759086478959 
1857	 0.298948126719268 
1858	 0.299089181322764 
1859	 0.299149232616103 
1860	 0.299273070727756 
1861	 0.299266292870083 
1862	 0.299106022334222 
1863	 0.298876840321471 
1864	 0.298834759232081 
1865	 0.298734962447993 
1866	 0.29863922442541 
1867	 0.298627533872443 
1868	 0.29847433546357 
1869	 0.29819730456447 
1870	 0.297847259588046 
1871	 0.297384917362303 
1872	 0.296896008116388 
1873	 0.296319920471733 
1874	 0.29573485235364 
1875	 0.295195974667771 
1876	 0.29451011158773 
1877	 0.293801636049881 
1878	 0.293033700657929 
1879	 0.292135574548328 
1880	 0.291193443853166 
1881	 0.29014119439491 
1882	 0.288996792361513 
1883	 0.287817794650863 
1884	 0.28646968605862 
1885	 0.284864546940442 
1886	 0.283225549117628 
1887	 0.281322701304337 
1888	 0.279242329227749 
1889	 0.277261146230705 
1890	 0.275085398271269 
1891	 0.27286934033526 
1892	 0.270547559243294 
1893	 0.268053542984701 
1894	 0.265360058016884 
1895	 0.262673624394302 
1896	 0.259823667225178 
1897	 0.256914083772495 
1898	 0.254162494965937 
1899	 0.251337402704828 
1900	 0.248573241595547 
1901	 0.245882042483049 
1902	 0.243113570314379 
1903	 0.24051889677183 
1904	 0.237984584299498 
1905	 0.235486851977497 
1906	 0.233074034687806 
1907	 0.23099784174847 
1908	 0.229026505155079 
1909	 0.22723854537517 
1910	 0.225729699112924 
1911	 0.224188797752251 
1912	 0.222803660923726 
1913	 0.221670102088322 
1914	 0.220665147690447 
1915	 0.21982444040882 
1916	 0.219226696810724 
1917	 0.218712953135769 
1918	 0.21821013516957 
1919	 0.217877164844424 
1920	 0.217624477281409 
1921	 0.217437573849915 
1922	 0.217412026684087 
1923	 0.217481029340691 
1924	 0.217606138628463 
1925	 0.217777823427877 
1926	 0.217964274018827 
1927	 0.218170215727597 
1928	 0.218392824619454 
1929	 0.218633545469024 
1930	 0.21890492775633 
1931	 0.21925611845223 
1932	 0.21963839954131 
1933	 0.220075970919314 
1934	 0.220579960984805 
1935	 0.220980888624476 
1936	 0.221386912047956 
1937	 0.221895600846042 
1938	 0.222454557161164 
1939	 0.222991918465993 
1940	 0.22360327525741 
1941	 0.224226441880059 
1942	 0.224729118564464 
1943	 0.22524924085677 
1944	 0.225770519287745 
1945	 0.226320161933686 
1946	 0.226953179898176 
1947	 0.227602853789605 
1948	 0.228359284474622 
1949	 0.229161822142957 
1950	 0.229882885232497 
1951	 0.230564368125045 
1952	 0.231256916135047 
1953	 0.23190707340587 
1954	 0.232540923953312 
1955	 0.233306963075527 
1956	 0.234138999604771 
1957	 0.234995691728331 
1958	 0.235901870069453 
1959	 0.236748733805597 
1960	 0.237526251636643 
1961	 0.238288942042857 
1962	 0.239030134087044 
1963	 0.239738599577592 
1964	 0.240363867778184 
1965	 0.241051683311998 
1966	 0.241752926020922 
1967	 0.242447890654447 
1968	 0.243106611089404 
1969	 0.243852886054562 
1970	 0.244612811334417 
1971	 0.245330422696611 
1972	 0.246125472495625 
1973	 0.246856880003594 
1974	 0.24755048734278 
1975	 0.248179618961038 
1976	 0.248831997863453 
1977	 0.249483318417577 
1978	 0.250111131624269 
1979	 0.250706896468303 
1980	 0.25130265588397 
1981	 0.251985818808217 
1982	 0.252611035767511 
1983	 0.253298413986162 
1984	 0.254048820554351 
1985	 0.254682419574528 
1986	 0.255327305194359 
1987	 0.255985025956076 
1988	 0.256627411473057 
1989	 0.257301000477033 
1990	 0.257999514294932 
1991	 0.25869522760027 
1992	 0.259427064338119 
1993	 0.260128554696253 
1994	 0.260782440680202 
1995	 0.261485392475805 
1996	 0.262142522134983 
1997	 0.262864949768909 
1998	 0.263559785451553 
1999	 0.264263414086108 
2000	 0.264928113115651 
2001	 0.265592856155508 
2002	 0.266208561278416 
2003	 0.266782084849745 
2004	 0.267378536335192 
2005	 0.267943232269642 
2006	 0.268515471141079 
2007	 0.269137959387996 
2008	 0.269692679578405 
2009	 0.27017460636574 
2010	 0.270642811539292 
2011	 0.271045537451349 
2012	 0.271454125391912 
2013	 0.271827580760044 
2014	 0.272182431208847 
2015	 0.27253620877607 
2016	 0.272883547383849 
2017	 0.27315891729303 
2018	 0.273425678447902 
2019	 0.273645096999637 
2020	 0.273750472937903 
2021	 0.273899292991838 
2022	 0.274093644233298 
2023	 0.274277295907105 
2024	 0.274450913504131 
2025	 0.274557234576543 
2026	 0.274649012348316 
2027	 0.274659225447659 
2028	 0.2747318657864 
2029	 0.274865476314258 
2030	 0.274914383960927 
2031	 0.274986640107293 
2032	 0.274938202599844 
2033	 0.274711186436842 
2034	 0.274572128699601 
2035	 0.274378239710752 
2036	 0.274253132784198 
2037	 0.274215198336802 
2038	 0.274217423149598 
2039	 0.274153681988988 
2040	 0.27407215460257 
2041	 0.274026326101315 
2042	 0.273961701278686 
2043	 0.273911129432928 
2044	 0.273896428928442 
2045	 0.273875960499008 
2046	 0.273862016791325 
2047	 0.273814354551896 
2048	 0.273748448919381 
2049	 0.273711861770887 
2050	 0.273657206909391 
2051	 0.273612393713107 
2052	 0.273585325949055 
2053	 0.273612055871728 
2054	 0.273587266366611 
2055	 0.27352455478672 
2056	 0.27348060883234 
2057	 0.273421080080694 
2058	 0.273397968477173 
2059	 0.273419662387327 
2060	 0.273401174792299 
2061	 0.273421764330762 
2062	 0.273360112468889 
2063	 0.273238905556983 
2064	 0.27309287070728 
2065	 0.272848695516176 
2066	 0.272656965384204 
2067	 0.27253855794284 
2068	 0.272437527368046 
2069	 0.27243143801448 
2070	 0.272579395673046 
2071	 0.272638745338001 
2072	 0.272756205979108 
2073	 0.27275540781844 
2074	 0.272676161417301 
2075	 0.272615627600641 
2076	 0.272493348515252 
2077	 0.272401279349425 
2078	 0.272336723576004 
2079	 0.272263045587917 
2080	 0.272151006978717 
2081	 0.272068040778426 
2082	 0.272057043632111 
2083	 0.271966342236609 
2084	 0.271815119401266 
2085	 0.271711964682646 
2086	 0.271599136302517 
2087	 0.271452958416561 
2088	 0.271322494127322 
2089	 0.27124613550664 
2090	 0.271097420063739 
2091	 0.270888408540756 
2092	 0.270695127465758 
2093	 0.270461921719875 
2094	 0.270284288776185 
2095	 0.270114386390361 
2096	 0.269968507633588 
2097	 0.269902654952252 
2098	 0.26978966309704 
2099	 0.269599367931805 
2100	 0.269420375733301 
2101	 0.269187040889226 
2102	 0.268846910427958 
2103	 0.268626371119674 
2104	 0.268432520992593 
2105	 0.268241612980649 
2106	 0.268154605883766 
2107	 0.26791374468428 
2108	 0.267595509730313 
2109	 0.267296748572231 
2110	 0.266911140664256 
2111	 0.266578038656836 
2112	 0.266310168213221 
2113	 0.265971397536572 
2114	 0.265534322187131 
2115	 0.265187760803882 
2116	 0.264850545755882 
2117	 0.264558154946716 
2118	 0.264246926752464 
2119	 0.264020228181591 
2120	 0.263691716866408 
2121	 0.263268817150219 
2122	 0.262926099636822 
2123	 0.26258039267994 
2124	 0.262281580136505 
2125	 0.262031525614095 
2126	 0.261772249637012 
2127	 0.261498991708857 
2128	 0.261291984329503 
2129	 0.261159422540893 
2130	 0.260983056563219 
2131	 0.260815624885861 
2132	 0.260675636573094 
2133	 0.260520295582611 
2134	 0.260347447851984 
2135	 0.260321059037739 
2136	 0.260286540385101 
2137	 0.260275887170863 
2138	 0.260324015757557 
2139	 0.260323850709954 
2140	 0.260315324760562 
2141	 0.26031502132279 
2142	 0.260274639881711 
2143	 0.260297154788739 
2144	 0.26033721907289 
2145	 0.260420022079185 
2146	 0.260550158072705 
2147	 0.260707658721265 
2148	 0.260936406962125 
2149	 0.261115384045057 
2150	 0.261285953014062 
2151	 0.261476078824545 
2152	 0.261667598588788 
2153	 0.261821473612002 
2154	 0.262039410854872 
2155	 0.262326384677051 
2156	 0.262537047157488 
2157	 0.262747495910752 
2158	 0.262919610136715 
2159	 0.263010670313015 
2160	 0.26318562514164 
2161	 0.263412792121706 
2162	 0.263554442639402 
2163	 0.263699803281231 
2164	 0.263829458399475 
2165	 0.263922220320917 
2166	 0.263961143531492 
2167	 0.26392887419546 
2168	 0.263989986156158 
2169	 0.26404463032695 
2170	 0.264081337224586 
2171	 0.264213740834642 
2172	 0.264291425133067 
2173	 0.264295204177408 
2174	 0.264283536502818 
2175	 0.264269222552956 
2176	 0.264341604678216 
2177	 0.264409833891862 
2178	 0.26450273936047 
2179	 0.264526007440703 
2180	 0.264582734115896 
2181	 0.264548381688753 
2182	 0.264396932170994 
2183	 0.264323463275027 
2184	 0.264231323069912 
2185	 0.264184589712262 
2186	 0.264215759961521 
2187	 0.264156040682585 
2188	 0.264093575574794 
2189	 0.263994171908312 
2190	 0.263821554346244 
2191	 0.26364222819415 
2192	 0.263458247141487 
2193	 0.263251247241148 
2194	 0.262974002017791 
2195	 0.262741366766584 
2196	 0.262602971160889 
2197	 0.26231374906999 
2198	 0.261950781932801 
2199	 0.261715910261997 
2200	 0.261358245801137 
2201	 0.260871405570752 
2202	 0.260521345127376 
2203	 0.260202774650038 
2204	 0.259868703865338 
2205	 0.259634089113914 
2206	 0.259246639642318 
2207	 0.258741073702744 
2208	 0.258328167011633 
2209	 0.257874443584734 
2210	 0.257449478526072 
2211	 0.257114836083419 
2212	 0.256724621382492 
2213	 0.256276006769146 
2214	 0.255861375706837 
2215	 0.255483681839423 
2216	 0.25505753986272 
2217	 0.254677177984018 
2218	 0.254173658665871 
2219	 0.253571581500002 
2220	 0.252969983087754 
2221	 0.252247159152834 
2222	 0.251573350216472 
2223	 0.251066468995359 
2224	 0.250416141092248 
2225	 0.249750664366874 
2226	 0.249004308698995 
2227	 0.248143387185867 
2228	 0.247150827444477 
2229	 0.246098810815237 
2230	 0.244966032593358 
2231	 0.243754853052365 
2232	 0.242418248725709 
2233	 0.241068705773645 
2234	 0.239678825106046 
2235	 0.238203687517685 
2236	 0.236684303118388 
2237	 0.235047167919077 
2238	 0.233264716497402 
2239	 0.231486274722623 
2240	 0.229647094445982 
2241	 0.227755780465435 
2242	 0.225874916445538 
2243	 0.22387325644181 
2244	 0.221737022001992 
2245	 0.219587180598163 
2246	 0.217316800841601 
2247	 0.215053793416455 
2248	 0.212750387786679 
2249	 0.210468857799573 
2250	 0.208068601279907 
2251	 0.205925704405471 
2252	 0.203741285042387 
2253	 0.201576928621226 
2254	 0.199384536994122 
2255	 0.197059225385655 
2256	 0.194835475387967 
2257	 0.192682629748799 
2258	 0.190680851990896 
2259	 0.188917912385463 
2260	 0.186975245778362 
2261	 0.184978075271862 
2262	 0.1831882132966 
2263	 0.181412934603188 
2264	 0.179751164354822 
2265	 0.178385930880457 
2266	 0.176770211573057 
2267	 0.175025595340405 
2268	 0.173394548884347 
2269	 0.171703092395261 
2270	 0.1701778707247 
2271	 0.168830760274779 
2272	 0.167379779668029 
2273	 0.165954421268408 
2274	 0.16451991801497 
2275	 0.163086124047799 
2276	 0.161601339659828 
2277	 0.160211697150245 
2278	 0.158626725336571 
2279	 0.156792260751386 
2280	 0.155068836837803 
2281	 0.153271622685075 
2282	 0.151513160487929 
2283	 0.149825832122496 
2284	 0.148179126026368 
2285	 0.146390466457712 
2286	 0.14455274881937 
2287	 0.142629459454768 
2288	 0.140618373861217 
2289	 0.138792974959716 
2290	 0.136977198445795 
2291	 0.135073786824128 
2292	 0.133267858612491 
2293	 0.131309676700374 
2294	 0.129441732204754 
2295	 0.127892895486296 
2296	 0.126540781895762 
2297	 0.125398424048169 
2298	 0.124583859604408 
2299	 0.123683671355905 
2300	 0.122856437197408 
2301	 0.122272814983625 
2302	 0.121715866541274 
2303	 0.121530756432091 
2304	 0.121720986531288 
2305	 0.121961691143473 
2306	 0.12246254155912 
2307	 0.122962560668157 
2308	 0.123477814213014 
2309	 0.12433864182865 
2310	 0.125453627013708 
2311	 0.126545984645731 
2312	 0.127983812911707 
2313	 0.129188861396048 
2314	 0.130206512268604 
2315	 0.1314290964319 
2316	 0.132773106900552 
2317	 0.134054172999319 
2318	 0.135507011813965 
2319	 0.136636774415592 
2320	 0.137708162604782 
2321	 0.138475214348644 
2322	 0.138788794871298 
2323	 0.139293005602565 
2324	 0.139713268255264 
2325	 0.140063721505946 
2326	 0.140643427852104 
2327	 0.140861472130362 
2328	 0.140726516798944 
2329	 0.140566997154362 
2330	 0.140288397694727 
2331	 0.139738410754773 
2332	 0.139221559086345 
2333	 0.138693639207118 
2334	 0.137960272250382 
2335	 0.1372957157822 
2336	 0.13645210337469 
2337	 0.135585134431088 
2338	 0.134631401599954 
2339	 0.133524245478665 
2340	 0.132701134345335 
2341	 0.131723323861581 
2342	 0.130718103264994 
2343	 0.129954572511056 
2344	 0.129253790499806 
2345	 0.128766889613286 
2346	 0.128766824886836 
2347	 0.128981210216825 
2348	 0.129080538053906 
2349	 0.129572622202444 
2350	 0.130165338738654 
2351	 0.130590097140484 
2352	 0.131384687452849 
2353	 0.132504701325999 
2354	 0.133432027463228 
2355	 0.134527121653527 
2356	 0.135731383166316 
2357	 0.136399239367073 
2358	 0.136935665586676 
2359	 0.137367219992349 
2360	 0.137607199417118 
2361	 0.137766141311773 
2362	 0.137872025153226 
2363	 0.138025436708486 
2364	 0.138242375097418 
2365	 0.138383660662063 
2366	 0.138284007324127 
2367	 0.138318980891571 
2368	 0.13816848500981 
2369	 0.137962639336088 
2370	 0.138102601794078 
2371	 0.138009715617864 
2372	 0.138078578827227 
2373	 0.13824364199144 
2374	 0.13811464250311 
2375	 0.138094894907285 
2376	 0.138147668642464 
2377	 0.138149102600361 
2378	 0.138270041575481 
2379	 0.138454108656886 
2380	 0.138248705545289 
2381	 0.13796090627822 
2382	 0.137866164701722 
2383	 0.137766215293496 
2384	 0.137712061508819 
2385	 0.137863408727194 
2386	 0.137872704417244 
2387	 0.137809787614116 
2388	 0.137752750656251 
2389	 0.13764372675085 
2390	 0.13763826492077 
2391	 0.137527085699931 
2392	 0.137698593334789 
2393	 0.13829608160521 
2394	 0.138555515679983 
2395	 0.13882998101747 
2396	 0.13889285953933 
2397	 0.138561579327685 
2398	 0.138561683794933 
2399	 0.138647200660449 
2400	 0.138741368356869 
2401	 0.138981326635927 
2402	 0.13915809969747 
2403	 0.139199581482041 
2404	 0.139031824283451 
2405	 0.138919702360432 
2406	 0.138966044382506 
2407	 0.139210621922891 
2408	 0.139395539022834 
2409	 0.139535001789841 
2410	 0.139479110872228 
2411	 0.139152628466549 
2412	 0.138965587534684 
2413	 0.139058449528112 
2414	 0.139243644553652 
2415	 0.139306227560173 
2416	 0.13954268957944 
2417	 0.139713202636681 
2418	 0.139642804681726 
2419	 0.139689948995808 
2420	 0.139268401673392 
2421	 0.138931518405115 
2422	 0.138766618551655 
2423	 0.138290600377984 
2424	 0.138435175145963 
2425	 0.138738727116474 
2426	 0.138720256604696 
2427	 0.138889358060648 
2428	 0.13928658302669 
2429	 0.139216000890519 
2430	 0.138909341108918 
2431	 0.138890584315009 
2432	 0.13834748096385 
2433	 0.13777877688122 
2434	 0.137645246274382 
2435	 0.137389221662902 
2436	 0.137253719706268 
2437	 0.137270340304212 
2438	 0.137205160730714 
2439	 0.137428612466527 
2440	 0.137770551258436 
2441	 0.13754537550028 
2442	 0.137028797449497 
2443	 0.136534506610992 
2444	 0.13624535206944 
2445	 0.13601662405454 
2446	 0.135676672646945 
2447	 0.13542205292116 
2448	 0.134258087770167 
2449	 0.133098291510264 
2450	 0.133409718128087 
2451	 0.133521882495241 
2452	 0.13330699573174 
2453	 0.133279858186609 
2454	 0.132633334565446 
2455	 0.13201785966057 
2456	 0.131580548719982 
2457	 0.131038552635628 
2458	 0.130582319231799 
2459	 0.129929019889237 
2460	 0.129808792503836 
2461	 0.130267324723743 
2462	 0.130029793974836 
2463	 0.129480446843215 
2464	 0.129096604352566 
2465	 0.128643043284544 
2466	 0.128407073017799 
2467	 0.128390860384618 
2468	 0.128452608678179 
2469	 0.12819568776281 
2470	 0.128565888429174 
2471	 0.129163743035967 
2472	 0.12872291340718 
2473	 0.128654897367644 
2474	 0.128298915400398 
2475	 0.127692790670746 
2476	 0.127940681020594 
2477	 0.127937402098887 
2478	 0.127909059964353 
2479	 0.12756849144119 
2480	 0.126900353688637 
2481	 0.126705785480186 
2482	 0.12668009368899 
2483	 0.126617897512614 
2484	 0.12687409695142 
2485	 0.128028386408087 
2486	 0.128006839745848 
2487	 0.128270582407029 
2488	 0.128998070314052 
2489	 0.128751384478419 
2490	 0.129328379188178 
2491	 0.13014994658329 
2492	 0.129925758648534 
2493	 0.129762445674202 
2494	 0.130281517706576 
2495	 0.13092141286653 
2496	 0.131880241296234 
2497	 0.132294192882353 
2498	 0.131431532490761 
2499	 0.131217562243586 
2500	 0.132238395480069 
