Wavelength	Tablay400104.asd
350	 9.06001065124785E-02 
351	 6.15881885942356E-02 
352	 1.07291863844129E-02 
353	 1.02257379893822E-02 
354	 0.136611599891794 
355	 0.111053419951029 
356	 3.92872367749565E-02 
357	 4.59444766698269E-02 
358	 2.81962719175918E-02 
359	 2.61308165996309E-02 
360	 6.16123415375431E-02 
361	 0.124122146445096 
362	 5.52114953291224E-02 
363	 2.11392459129802E-02 
364	 6.99206612258369E-02 
365	 4.07295906297665E-02 
366	 2.45704826578273E-02 
367	 2.62524154267876E-02 
368	 3.75591475317437E-02 
369	 8.54556871439941E-02 
370	 0.081393627336734 
371	 5.20395322222324E-02 
372	 8.17418453709271E-02 
373	 7.14992602841589E-02 
374	 8.14102002342702E-02 
375	 0.112775852594233 
376	 5.65446518696573E-02 
377	 5.26067922913154E-02 
378	 6.45814631614678E-02 
379	 4.33768254662874E-02 
380	 3.56003156394163E-02 
381	 0.041096436846703 
382	 4.63731076932232E-02 
383	 3.64468092851825E-02 
384	 5.28483581936692E-02 
385	 6.05447460371968E-02 
386	 0.052221463153234 
387	 6.94872506542014E-02 
388	 7.48768340934513E-02 
389	 0.070056306481702 
390	 6.53130692526046E-02 
391	 6.09153624215473E-02 
392	 6.32031287102505E-02 
393	 6.18811435593642E-02 
394	 0.041024504824552 
395	 3.66293800296376E-02 
396	 4.87332055715367E-02 
397	 6.55360159409692E-02 
398	 6.75109998636774E-02 
399	 6.08166512437133E-02 
400	 5.08521402903446E-02 
401	 4.49181388155854E-02 
402	 5.74388122982468E-02 
403	 6.89652940405103E-02 
404	 7.18477073796879E-02 
405	 6.93690635305013E-02 
406	 6.30162917816661E-02 
407	 6.48649136312811E-02 
408	 7.33580057897846E-02 
409	 5.82988785017401E-02 
410	 5.06071416029988E-02 
411	 5.54584538798203E-02 
412	 0.065271600996401 
413	 5.77754575431894E-02 
414	 4.36452853449325E-02 
415	 3.90726002798603E-02 
416	 6.04848018047695E-02 
417	 5.90757063879372E-02 
418	 5.37063036630386E-02 
419	 5.84769629702489E-02 
420	 4.99341577189273E-02 
421	 4.08719604692368E-02 
422	 4.21399105217708E-02 
423	 5.76483911947359E-02 
424	 5.33153550081221E-02 
425	 5.10760932267554E-02 
426	 5.60176917059025E-02 
427	 5.05801493175947E-02 
428	 5.18978735080168E-02 
429	 5.51644670601883E-02 
430	 5.45219101278306E-02 
431	 5.53524449022063E-02 
432	 5.17378781147796E-02 
433	 4.86750523658498E-02 
434	 5.44777439852856E-02 
435	 5.12624353894931E-02 
436	 5.22474286283024E-02 
437	 5.97873228304602E-02 
438	 0.055428580004643 
439	 4.98330263132734E-02 
440	 4.72129444969032E-02 
441	 4.85641618786815E-02 
442	 5.00136444069923E-02 
443	 4.95843925780692E-02 
444	 4.80666296412224E-02 
445	 4.81636904858415E-02 
446	 4.92253165355743E-02 
447	 4.91948546954782E-02 
448	 4.83266301853889E-02 
449	 5.26864717386512E-02 
450	 5.41707246695625E-02 
451	 5.33517169982835E-02 
452	 5.37740041698938E-02 
453	 5.60296489024409E-02 
454	 5.53634517682855E-02 
455	 5.19699258199766E-02 
456	 5.15361634190471E-02 
457	 5.08517840615727E-02 
458	 5.11549923914228E-02 
459	 5.30440923956158E-02 
460	 0.052716340908425 
461	 5.32094802679365E-02 
462	 5.48423895966632E-02 
463	 5.62285745268467E-02 
464	 5.47846291234385E-02 
465	 5.34139339492221E-02 
466	 5.35227050213136E-02 
467	 5.34322963654116E-02 
468	 5.33143240387282E-02 
469	 5.30673231042154E-02 
470	 0.05292147750078 
471	 5.48896943593474E-02 
472	 0.054368011865194 
473	 5.22405708930634E-02 
474	 5.33402251937405E-02 
475	 5.41523684004943E-02 
476	 5.42983661616929E-02 
477	 5.42015977467678E-02 
478	 5.50404938668123E-02 
479	 5.48780315865035E-02 
480	 0.054014116310676 
481	 5.36914681697765E-02 
482	 5.52106463715653E-02 
483	 5.56301188817645E-02 
484	 0.05469730969824 
485	 5.53384281351526E-02 
486	 5.42719466464802E-02 
487	 5.35907881030903E-02 
488	 5.50294097710592E-02 
489	 5.58619705801956E-02 
490	 5.59338448602016E-02 
491	 5.57075628941836E-02 
492	 5.59300732395995E-02 
493	 5.59856423638302E-02 
494	 5.68129688396728E-02 
495	 5.81353788271087E-02 
496	 5.74260788284009E-02 
497	 0.05750522510766 
498	 5.80368766367847E-02 
499	 5.80031734632473E-02 
500	 5.76771624930124E-02 
501	 5.86953480965081E-02 
502	 6.00270140344759E-02 
503	 5.86600261218914E-02 
504	 5.87475969275942E-02 
505	 5.98119782586093E-02 
506	 6.06568525032419E-02 
507	 6.03395291432768E-02 
508	 6.04322406538256E-02 
509	 6.09465315282607E-02 
510	 6.12756265076242E-02 
511	 0.061743920429654 
512	 6.19900251894143E-02 
513	 6.19926226024376E-02 
514	 6.22004792730651E-02 
515	 6.28150632423231E-02 
516	 0.063454528576307 
517	 6.37475194893349E-02 
518	 6.39003412692333E-02 
519	 6.40188770439772E-02 
520	 6.42473431430987E-02 
521	 6.47248720698797E-02 
522	 6.52966947577425E-02 
523	 6.58760322942602E-02 
524	 6.63792241901099E-02 
525	 6.66961009087476E-02 
526	 6.69603397351318E-02 
527	 6.73084201119552E-02 
528	 6.78121115570965E-02 
529	 6.82431817476652E-02 
530	 6.83915353982995E-02 
531	 6.83807624839542E-02 
532	 6.86644281425022E-02 
533	 6.97650982535424E-02 
534	 7.03570210702736E-02 
535	 6.98036454064881E-02 
536	 7.05449380351307E-02 
537	 7.12165823102681E-02 
538	 7.14720353824695E-02 
539	 7.15705320233537E-02 
540	 7.18188800754345E-02 
541	 7.22165284208017E-02 
542	 7.26094748732587E-02 
543	 0.072658617067732 
544	 7.28270984050741E-02 
545	 7.30407379744702E-02 
546	 7.31169017854689E-02 
547	 7.31032213422374E-02 
548	 7.35449306144183E-02 
549	 7.40829331204731E-02 
550	 7.36583066881038E-02 
551	 7.39766095941442E-02 
552	 7.42240584179329E-02 
553	 7.38959314249251E-02 
554	 7.45323393405828E-02 
555	 0.074594336197724 
556	 0.074121341698971 
557	 7.38900214699568E-02 
558	 7.41304445042986E-02 
559	 7.40392071074604E-02 
560	 7.35614296348266E-02 
561	 7.38039161701054E-02 
562	 0.073766092618606 
563	 0.073484515476764 
564	 7.32196184502503E-02 
565	 7.29415810119028E-02 
566	 7.27594529819893E-02 
567	 7.25988971251828E-02 
568	 7.22850676338334E-02 
569	 7.22240887616486E-02 
570	 7.20933794600227E-02 
571	 7.17510168634071E-02 
572	 7.16758699459201E-02 
573	 7.15217087358552E-02 
574	 7.13402254065543E-02 
575	 7.12494184953712E-02 
576	 7.08530903402644E-02 
577	 7.04853438418021E-02 
578	 7.02642294270464E-02 
579	 7.00089720507857E-02 
580	 6.95934755321202E-02 
581	 6.91431463965355E-02 
582	 6.88096949260832E-02 
583	 6.86628019968014E-02 
584	 0.068265077113709 
585	 6.78034925681884E-02 
586	 6.77377749337598E-02 
587	 6.73505139289363E-02 
588	 6.69121885290308E-02 
589	 6.65646843100657E-02 
590	 6.60453836886186E-02 
591	 6.56210768033534E-02 
592	 6.52484511538859E-02 
593	 6.48515197757359E-02 
594	 6.46637150797357E-02 
595	 0.064430726737651 
596	 6.39827804059897E-02 
597	 6.32785458958846E-02 
598	 6.29278912194264E-02 
599	 6.25507742218446E-02 
600	 6.19778802034758E-02 
601	 6.20445151338146E-02 
602	 6.18144052017994E-02 
603	 6.13239101374361E-02 
604	 6.09802961838999E-02 
605	 6.05524200620533E-02 
606	 6.02644886989109E-02 
607	 6.00667749400436E-02 
608	 5.95411317826712E-02 
609	 0.059205818740092 
610	 5.88812967909475E-02 
611	 5.83880438573994E-02 
612	 5.81517388394683E-02 
613	 0.057882694869414 
614	 5.75294984207699E-02 
615	 5.71902778142385E-02 
616	 5.67770687646795E-02 
617	 5.64569875360099E-02 
618	 5.62351074445764E-02 
619	 5.57590039641789E-02 
620	 5.55238937449236E-02 
621	 5.53545222754305E-02 
622	 0.054984165996607 
623	 5.48519386266417E-02 
624	 5.47059497706032E-02 
625	 5.44399442960823E-02 
626	 5.41168465281452E-02 
627	 5.38598258657686E-02 
628	 5.35849487788024E-02 
629	 5.32693008423466E-02 
630	 5.31600452176151E-02 
631	 5.30004717374186E-02 
632	 5.27408944842154E-02 
633	 5.24394230773718E-02 
634	 5.21638972753505E-02 
635	 5.20701939529086E-02 
636	 5.20283774253929E-02 
637	 5.15648277012845E-02 
638	 5.12861967296649E-02 
639	 5.11874058797292E-02 
640	 5.11201909926378E-02 
641	 5.10170808795414E-02 
642	 5.08544142465495E-02 
643	 5.06468879004188E-02 
644	 5.04256190828252E-02 
645	 5.00812638849754E-02 
646	 4.99449808331834E-02 
647	 5.00268618865234E-02 
648	 4.97352239142277E-02 
649	 4.94524763930047E-02 
650	 4.92998961967115E-02 
651	 4.92815539121208E-02 
652	 4.92709671212264E-02 
653	 4.91176359617068E-02 
654	 4.88999262739792E-02 
655	 4.88549687460048E-02 
656	 4.87303078731862E-02 
657	 4.85788862943747E-02 
658	 4.84493068152383E-02 
659	 4.82737431468331E-02 
660	 4.81101037459914E-02 
661	 4.79777782745861E-02 
662	 4.78846016505553E-02 
663	 4.78534003002799E-02 
664	 0.047890429639007 
665	 4.78832778022494E-02 
666	 4.76274186798561E-02 
667	 4.75515500612388E-02 
668	 0.047525530564274 
669	 4.74043802319582E-02 
670	 4.73041497608635E-02 
671	 4.72033574932652E-02 
672	 0.047089919469298 
673	 4.69702310499832E-02 
674	 4.69586436407755E-02 
675	 0.046936241459058 
676	 4.68699153673657E-02 
677	 4.68508840570512E-02 
678	 4.67401309913731E-02 
679	 4.66136370927541E-02 
680	 4.65544253633425E-02 
681	 4.65187107226122E-02 
682	 4.64177266652932E-02 
683	 4.63224069785035E-02 
684	 4.63631824327282E-02 
685	 4.63823683532882E-02 
686	 4.63648747537216E-02 
687	 4.63087635493103E-02 
688	 4.62062389172944E-02 
689	 4.61983133106758E-02 
690	 4.61594462318671E-02 
691	 4.60085492425477E-02 
692	 0.046087749531767 
693	 0.046048692241994 
694	 4.59393322086857E-02 
695	 4.60181596221364E-02 
696	 4.59614232827724E-02 
697	 4.59229825633651E-02 
698	 4.59565358308543E-02 
699	 4.58681135802984E-02 
700	 4.59011192963702E-02 
701	 0.045940392024636 
702	 4.58482783122569E-02 
703	 0.045795210815594 
704	 4.58130279222672E-02 
705	 0.045863051718082 
706	 4.58740379954943E-02 
707	 4.60015349234882E-02 
708	 4.59721330765055E-02 
709	 4.57456427528483E-02 
710	 4.57493682497021E-02 
711	 4.57795601204618E-02 
712	 4.57935897936466E-02 
713	 0.045810695113134 
714	 4.59368666831295E-02 
715	 4.59620835874409E-02 
716	 4.59057030630225E-02 
717	 4.59394329979178E-02 
718	 4.59222416174053E-02 
719	 4.59417383788028E-02 
720	 4.60118567859054E-02 
721	 4.59705303301217E-02 
722	 4.60033124973966E-02 
723	 4.60420857735168E-02 
724	 4.60180694271026E-02 
725	 4.61819812397447E-02 
726	 0.046297827713628 
727	 0.046316072671025 
728	 4.63282492819136E-02 
729	 4.63347515449148E-02 
730	 4.63489188960947E-02 
731	 4.63814393891013E-02 
732	 4.64404498348383E-02 
733	 4.64746283643168E-02 
734	 4.65114607798203E-02 
735	 4.65843651392651E-02 
736	 4.66596072549058E-02 
737	 4.67105558494411E-02 
738	 4.67516663463239E-02 
739	 4.68140535861475E-02 
740	 4.67965834387631E-02 
741	 4.68628195470592E-02 
742	 4.70431694863868E-02 
743	 4.71305888565905E-02 
744	 0.047136349224636 
745	 4.71821042352482E-02 
746	 4.73321816159818E-02 
747	 4.73481132459948E-02 
748	 4.73541845237323E-02 
749	 4.73869550236973E-02 
750	 4.74412160054645E-02 
751	 4.76316079278798E-02 
752	 0.047730786892731 
753	 4.76939632399627E-02 
754	 4.77487976566657E-02 
755	 4.79131406798042E-02 
756	 4.80125342534103E-02 
757	 4.79604336101963E-02 
758	 4.80542694924449E-02 
759	 4.81606193557716E-02 
760	 4.82397930992386E-02 
761	 4.83056716759066E-02 
762	 4.84360991188184E-02 
763	 4.85182039437383E-02 
764	 4.85401700163878E-02 
765	 4.86108126137615E-02 
766	 4.87704804803716E-02 
767	 4.88689604818187E-02 
768	 4.88587782730098E-02 
769	 4.90197738272412E-02 
770	 4.91303902923387E-02 
771	 4.92108874751566E-02 
772	 4.93384640655283E-02 
773	 4.94194410785226E-02 
774	 4.95138264139345E-02 
775	 4.96090870477248E-02 
776	 4.96514819149497E-02 
777	 4.99040509326691E-02 
778	 5.00494031055645E-02 
779	 4.99954670915718E-02 
780	 5.01647932298348E-02 
781	 5.02686708685082E-02 
782	 5.03517031498543E-02 
783	 5.04954051994646E-02 
784	 5.05836002804892E-02 
785	 0.050621068106767 
786	 5.07065618468274E-02 
787	 5.09374546138006E-02 
788	 5.09899998850684E-02 
789	 5.10835814149084E-02 
790	 5.12642058144112E-02 
791	 5.13212008417694E-02 
792	 5.13229065807258E-02 
793	 5.14021490857513E-02 
794	 5.16023781330165E-02 
795	 5.17250802853202E-02 
796	 5.18219520410218E-02 
797	 5.19446866410061E-02 
798	 5.21235200959177E-02 
799	 5.22666627337253E-02 
800	 5.23957425944087E-02 
801	 5.25271490752322E-02 
802	 5.26676410985722E-02 
803	 5.28153651939164E-02 
804	 5.28814207192607E-02 
805	 5.29318809794076E-02 
806	 5.32686163116192E-02 
807	 5.33331079094899E-02 
808	 5.33599688754996E-02 
809	 5.35964025476361E-02 
810	 5.37068762295812E-02 
811	 5.38307514598052E-02 
812	 5.39886954849044E-02 
813	 5.41511258714766E-02 
814	 5.43177484243019E-02 
815	 5.44210554460871E-02 
816	 5.45151870942486E-02 
817	 5.47374854286518E-02 
818	 5.48446618524605E-02 
819	 0.054998342422475 
820	 5.52345102580899E-02 
821	 0.055286297729502 
822	 5.55309270927202E-02 
823	 5.57509709975431E-02 
824	 5.57626108950857E-02 
825	 5.59926397846919E-02 
826	 5.61844147689106E-02 
827	 5.63534706155439E-02 
828	 5.65812871047138E-02 
829	 5.65497735757783E-02 
830	 0.056735425352526 
831	 5.71044043193992E-02 
832	 5.71827653866362E-02 
833	 5.72504795856619E-02 
834	 5.73671640613918E-02 
835	 5.75504661436716E-02 
836	 5.77975003597031E-02 
837	 0.058043671025145 
838	 5.82522268670095E-02 
839	 5.84016263615914E-02 
840	 5.84534009428189E-02 
841	 5.87409128281024E-02 
842	 5.90370416297243E-02 
843	 5.90394035686612E-02 
844	 5.92980710070294E-02 
845	 5.95384961544671E-02 
846	 5.97265320922376E-02 
847	 6.00011562670598E-02 
848	 6.01719652009219E-02 
849	 6.02699531617272E-02 
850	 6.03997777585967E-02 
851	 6.07041602523834E-02 
852	 0.06092047445741 
853	 6.10978787701037E-02 
854	 6.13044378032242E-02 
855	 6.15043504376295E-02 
856	 6.16975930005845E-02 
857	 6.18732212668471E-02 
858	 0.062048128848765 
859	 6.23630305927921E-02 
860	 6.25121651926863E-02 
861	 6.26055610107766E-02 
862	 6.28980416052786E-02 
863	 0.063091453672511 
864	 6.33576172581751E-02 
865	 6.36598492922464E-02 
866	 6.37893447892044E-02 
867	 6.39037868596405E-02 
868	 6.42059795030889E-02 
869	 6.45973825838626E-02 
870	 6.46012813876055E-02 
871	 6.48350877197552E-02 
872	 6.51247258277823E-02 
873	 6.52677271611741E-02 
874	 6.53804134254937E-02 
875	 6.56567455360566E-02 
876	 6.59528869049955E-02 
877	 6.61089829991194E-02 
878	 6.63286801414569E-02 
879	 0.066542754158228 
880	 6.67400625893366E-02 
881	 6.69451774718572E-02 
882	 6.72043478255326E-02 
883	 6.75326380865638E-02 
884	 6.78058165461102E-02 
885	 6.78687315891184E-02 
886	 6.81885256062371E-02 
887	 6.85487523200012E-02 
888	 6.87882269324514E-02 
889	 6.89204884986208E-02 
890	 6.91584109255171E-02 
891	 6.94325457068833E-02 
892	 0.069677041275978 
893	 6.99286454687817E-02 
894	 0.070086526016872 
895	 0.070265532494434 
896	 7.05693183836349E-02 
897	 7.09497456786924E-02 
898	 7.11277316056275E-02 
899	 7.13036460603444E-02 
900	 7.16935118219062E-02 
901	 7.18833137195949E-02 
902	 7.21646191194268E-02 
903	 7.24992878384032E-02 
904	 0.07270227586964 
905	 7.27506665008372E-02 
906	 0.07306673038328 
907	 7.35314286273115E-02 
908	 7.37048343479172E-02 
909	 7.40058983173605E-02 
910	 7.42056943898835E-02 
911	 7.43738225308596E-02 
912	 7.48673134229603E-02 
913	 7.51432013502794E-02 
914	 7.52944124472668E-02 
915	 7.54779926211058E-02 
916	 7.57860791815665E-02 
917	 7.60849564788179E-02 
918	 7.62682507596753E-02 
919	 7.64105008280848E-02 
920	 7.68859261193962E-02 
921	 7.71350686680298E-02 
922	 7.72434618236547E-02 
923	 7.74718368904972E-02 
924	 7.80769704870898E-02 
925	 7.84674877735322E-02 
926	 0.07871635483803 
927	 7.90241427771847E-02 
928	 7.91863414824783E-02 
929	 7.95022347993398E-02 
930	 7.98588535146012E-02 
931	 8.00448979797222E-02 
932	 8.02223869392746E-02 
933	 8.06268618992258E-02 
934	 8.09708585185279E-02 
935	 8.09016814455456E-02 
936	 8.13165402187263E-02 
937	 8.17823536595842E-02 
938	 8.20555444054016E-02 
939	 8.21719231563172E-02 
940	 8.26640561658539E-02 
941	 8.31203187610523E-02 
942	 8.33762154844264E-02 
943	 8.35788156350989E-02 
944	 8.39212402653798E-02 
945	 0.084153451804679 
946	 0.084328440837779 
947	 8.48068713424327E-02 
948	 8.51473113293186E-02 
949	 8.54114934542838E-02 
950	 8.56859760673845E-02 
951	 8.59906532350203E-02 
952	 8.63814792390375E-02 
953	 8.65845150881713E-02 
954	 8.66425130586254E-02 
955	 8.71009323220368E-02 
956	 8.76825827607028E-02 
957	 8.78628466895543E-02 
958	 8.77216843362547E-02 
959	 8.83791320625169E-02 
960	 8.87968433237454E-02 
961	 0.088902759476742 
962	 8.89544582648233E-02 
963	 8.93630382203373E-02 
964	 8.97400717193866E-02 
965	 0.090000485283845 
966	 9.01866791456401E-02 
967	 9.04239257509097E-02 
968	 9.07988205931146E-02 
969	 9.12264799224522E-02 
970	 9.16132257655604E-02 
971	 9.19986706800935E-02 
972	 9.22390437628827E-02 
973	 0.092391985605884 
974	 9.26094514270186E-02 
975	 9.31357372927911E-02 
976	 9.31918175990903E-02 
977	 9.33010534218821E-02 
978	 9.39578562043125E-02 
979	 9.42419870536479E-02 
980	 9.45310519016725E-02 
981	 9.47422886086626E-02 
982	 9.48605524529148E-02 
983	 9.55996024405783E-02 
984	 9.54780504146162E-02 
985	 9.53332291834698E-02 
986	 9.61929765287757E-02 
987	 9.69025981269646E-02 
988	 9.69985549494909E-02 
989	 9.70647551172123E-02 
990	 9.76044777594306E-02 
991	 9.73575663828556E-02 
992	 9.76869797617804E-02 
993	 9.81667994508986E-02 
994	 0.098075274257649 
995	 9.80104499499489E-02 
996	 9.83569990869027E-02 
997	 9.88525710370498E-02 
998	 9.91536216070954E-02 
999	 0.099572268137785 
1000	 9.98916092098874E-02 
1001	 0.100907543441932 
1002	 0.101057765692301 
1003	 0.101238160061785 
1004	 0.101427843301775 
1005	 0.101309732221109 
1006	 0.101493897719482 
1007	 0.101977609273405 
1008	 0.102241161210568 
1009	 0.102369403410615 
1010	 0.102655923615182 
1011	 0.103019610419071 
1012	 0.103271557728187 
1013	 0.103591281657855 
1014	 0.103826419734804 
1015	 0.103882874997178 
1016	 0.104058781097421 
1017	 0.104281132987693 
1018	 0.104578497128175 
1019	 0.10494113889957 
1020	 0.10511468940037 
1021	 0.105347550235133 
1022	 0.105522352214322 
1023	 0.105799820104733 
1024	 0.106238692111865 
1025	 0.106439971902915 
1026	 0.106480056174065 
1027	 0.10672253404731 
1028	 0.106905660568233 
1029	 0.107111553801244 
1030	 0.107670174752425 
1031	 0.107944009398855 
1032	 0.108091840471525 
1033	 0.108408803191583 
1034	 0.108490617206167 
1035	 0.108665737738949 
1036	 0.108898628263577 
1037	 0.109112658001514 
1038	 0.109323807492155 
1039	 0.10958371193416 
1040	 0.109889104990707 
1041	 0.110239642440139 
1042	 0.110497561227259 
1043	 0.110696902462236 
1044	 0.111161406280894 
1045	 0.11143959523079 
1046	 0.111465704222859 
1047	 0.111713556736784 
1048	 0.111720171011085 
1049	 0.11174397642115 
1050	 0.112343480796192 
1051	 0.112796846902049 
1052	 0.113037072932774 
1053	 0.1133414020081 
1054	 0.113553742552054 
1055	 0.113777267278399 
1056	 0.114084214336266 
1057	 0.114336419007756 
1058	 0.114645611424527 
1059	 0.114607806239187 
1060	 0.114603490121599 
1061	 0.114822233436949 
1062	 0.115063765533571 
1063	 0.115421097082848 
1064	 0.115797772567616 
1065	 0.115989879184621 
1066	 0.116156684467717 
1067	 0.11639438650534 
1068	 0.116514836059047 
1069	 0.116788061001264 
1070	 0.117002263177307 
1071	 0.117213209636798 
1072	 0.117261165306021 
1073	 0.117503385861379 
1074	 0.11761778255274 
1075	 0.11780155118221 
1076	 0.118158438667191 
1077	 0.118325044425906 
1078	 0.11856869900729 
1079	 0.118813434183699 
1080	 0.118908163302874 
1081	 0.119203779845226 
1082	 0.119591839635409 
1083	 0.119864210217447 
1084	 0.120117742659168 
1085	 0.120192156988796 
1086	 0.120311816262503 
1087	 0.120318944874239 
1088	 0.120464144306612 
1089	 0.120727969095464 
1090	 0.121094837134208 
1091	 0.121406611688112 
1092	 0.121616270426928 
1093	 0.121782479497791 
1094	 0.121930987834925 
1095	 0.121948966458366 
1096	 0.122072300112765 
1097	 0.122342736157239 
1098	 0.122548331886796 
1099	 0.12288477906659 
1100	 0.123189136913769 
1101	 0.123269694230792 
1102	 0.123317431651467 
1103	 0.123499010834215 
1104	 0.123716499711842 
1105	 0.124027009148594 
1106	 0.124304386594963 
1107	 0.124582482754745 
1108	 0.124900714495573 
1109	 0.124986772995533 
1110	 0.12502421448259 
1111	 0.125247445797851 
1112	 0.125396805613748 
1113	 0.125520219931861 
1114	 0.125801740597816 
1115	 0.126055094393226 
1116	 0.126253345503774 
1117	 0.126530148124584 
1118	 0.126738073893297 
1119	 0.126872522187362 
1120	 0.127099405760291 
1121	 0.12735398851822 
1122	 0.127585084405909 
1123	 0.127760496612635 
1124	 0.127986839449471 
1125	 0.128208221515907 
1126	 0.128347065726355 
1127	 0.128567802838666 
1128	 0.128905402746743 
1129	 0.129132936867916 
1130	 0.129322172480933 
1131	 0.129573777331159 
1132	 0.12977279845458 
1133	 0.129945498837812 
1134	 0.130114010218379 
1135	 0.130299567293594 
1136	 0.130474989558062 
1137	 0.130668536005942 
1138	 0.130893011513769 
1139	 0.131122081156327 
1140	 0.131347375174227 
1141	 0.131607700741222 
1142	 0.131891042821068 
1143	 0.132060252519429 
1144	 0.13217770324414 
1145	 0.132293115018348 
1146	 0.13241875792452 
1147	 0.132602428702049 
1148	 0.132812405710635 
1149	 0.133033512139849 
1150	 0.133226532568937 
1151	 0.133385113651415 
1152	 0.13356087105743 
1153	 0.133764699898847 
1154	 0.133935215738932 
1155	 0.134047539101329 
1156	 0.134216176449267 
1157	 0.134432718609514 
1158	 0.134601491654575 
1159	 0.134767841443037 
1160	 0.134964576388645 
1161	 0.135085776633233 
1162	 0.135135980899248 
1163	 0.135256603805287 
1164	 0.135457545868675 
1165	 0.135678171677823 
1166	 0.135843878697174 
1167	 0.135918100984981 
1168	 0.135969901095318 
1169	 0.13609806196634 
1170	 0.136254984527505 
1171	 0.136373610956052 
1172	 0.136552154861205 
1173	 0.136688997354042 
1174	 0.136691193337722 
1175	 0.136830433884279 
1176	 0.13711128859763 
1177	 0.137285799912912 
1178	 0.137447813699629 
1179	 0.137621463097626 
1180	 0.137761314594688 
1181	 0.137821522422798 
1182	 0.137941394567299 
1183	 0.138109643306808 
1184	 0.138232145849914 
1185	 0.138346494484858 
1186	 0.13845329626117 
1187	 0.138534627784219 
1188	 0.138654698208593 
1189	 0.138799860089205 
1190	 0.13889971585426 
1191	 0.138974256147045 
1192	 0.139097442818475 
1193	 0.139188870547035 
1194	 0.139343065611368 
1195	 0.139615453101311 
1196	 0.139806803826744 
1197	 0.139973743392108 
1198	 0.140137425707239 
1199	 0.14027704694701 
1200	 0.140399945583311 
1201	 0.140643972248251 
1202	 0.140894337170497 
1203	 0.141068560486887 
1204	 0.141234373882367 
1205	 0.141355689851954 
1206	 0.141339091112914 
1207	 0.141458282299694 
1208	 0.141628240101183 
1209	 0.141789978914639 
1210	 0.141995092972675 
1211	 0.14220093693647 
1212	 0.142394421120853 
1213	 0.142622087247927 
1214	 0.142907606647597 
1215	 0.143127880743001 
1216	 0.143299589762532 
1217	 0.143537803857037 
1218	 0.14376872820401 
1219	 0.144052840628817 
1220	 0.144289879150275 
1221	 0.144574806791952 
1222	 0.144867968349171 
1223	 0.145079724049521 
1224	 0.145329290626488 
1225	 0.14562316889284 
1226	 0.145878524621979 
1227	 0.146112223897766 
1228	 0.146332133094918 
1229	 0.146523336146323 
1230	 0.146756297381779 
1231	 0.147002458707879 
1232	 0.147223478331965 
1233	 0.147466650778676 
1234	 0.147699953888543 
1235	 0.147881201580026 
1236	 0.148084372014385 
1237	 0.148346173431816 
1238	 0.148553330817568 
1239	 0.148723922897256 
1240	 0.148894218871835 
1241	 0.148995128894955 
1242	 0.14919472642901 
1243	 0.149463830807038 
1244	 0.149877175031111 
1245	 0.150055593445254 
1246	 0.150193130251002 
1247	 0.150344357178692 
1248	 0.150310394327171 
1249	 0.150451387952264 
1250	 0.150753636150509 
1251	 0.150961986530965 
1252	 0.151164501799462 
1253	 0.151345681661714 
1254	 0.151485731537702 
1255	 0.151670233014156 
1256	 0.151874876406979 
1257	 0.152052138656825 
1258	 0.15221577743114 
1259	 0.152417904409278 
1260	 0.152628378517015 
1261	 0.152827986042532 
1262	 0.153057803059559 
1263	 0.15330903967098 
1264	 0.153493861065711 
1265	 0.153626808368243 
1266	 0.15377422218709 
1267	 0.153871850669517 
1268	 0.154059625332532 
1269	 0.154305600486917 
1270	 0.154478399876694 
1271	 0.154670448856346 
1272	 0.154851922249591 
1273	 0.154933967875155 
1274	 0.155122277762491 
1275	 0.155431707754406 
1276	 0.155638438538899 
1277	 0.155844420012333 
1278	 0.156014605508665 
1279	 0.156069492536922 
1280	 0.156212876711726 
1281	 0.156418204187507 
1282	 0.156580882885484 
1283	 0.156727062884945 
1284	 0.156917781759936 
1285	 0.157118663796112 
1286	 0.157319196655069 
1287	 0.157468856568057 
1288	 0.157649627872804 
1289	 0.157783279916902 
1290	 0.157819511467842 
1291	 0.157928903374824 
1292	 0.158072385316522 
1293	 0.158213053601209 
1294	 0.158358145521891 
1295	 0.158499636636741 
1296	 0.158669814033393 
1297	 0.158804099618863 
1298	 0.158893500673842 
1299	 0.159023837182318 
1300	 0.159154044038767 
1301	 0.159300549293713 
1302	 0.159509898468907 
1303	 0.159655929449683 
1304	 0.159748456203046 
1305	 0.15988083963639 
1306	 0.160021480558522 
1307	 0.160134925181259 
1308	 0.160239932400327 
1309	 0.160383378712591 
1310	 0.160487159840901 
1311	 0.160522204583442 
1312	 0.160666579152508 
1313	 0.160867553875821 
1314	 0.161032037421927 
1315	 0.161224719852276 
1316	 0.161407312581901 
1317	 0.16158006927702 
1318	 0.161737582431297 
1319	 0.161904226226052 
1320	 0.162058716481699 
1321	 0.162176580803048 
1322	 0.162313731008334 
1323	 0.162443210359617 
1324	 0.162612874033593 
1325	 0.162803568213571 
1326	 0.162990102303729 
1327	 0.163234168159676 
1328	 0.163426671096088 
1329	 0.163594996825091 
1330	 0.163742318585001 
1331	 0.163803515588823 
1332	 0.163951997620929 
1333	 0.164127977746618 
1334	 0.164323722303694 
1335	 0.164522156509033 
1336	 0.164779494791331 
1337	 0.164996236654574 
1338	 0.165208391192005 
1339	 0.16536184313027 
1340	 0.165491788659329 
1341	 0.165636653728728 
1342	 0.165692229658483 
1343	 0.165877626559556 
1344	 0.166207492386239 
1345	 0.166374013748539 
1346	 0.166482368653657 
1347	 0.166645376120672 
1348	 0.166742874349185 
1349	 0.166885141055036 
1350	 0.167141559343753 
1351	 0.167305047773316 
1352	 0.16737546252051 
1353	 0.167506111184012 
1354	 0.167626737631851 
1355	 0.167784551189484 
1356	 0.1679975592956 
1357	 0.168190887674157 
1358	 0.168436128522439 
1359	 0.168612183787469 
1360	 0.168770886395108 
1361	 0.168870707902045 
1362	 0.168914886782538 
1363	 0.168937503562252 
1364	 0.169038841992255 
1365	 0.169153869950139 
1366	 0.169280652891266 
1367	 0.169480325226651 
1368	 0.169600532749571 
1369	 0.169671045268268 
1370	 0.169781626008382 
1371	 0.16989834911689 
1372	 0.169995688357663 
1373	 0.170119598850985 
1374	 0.170190657346375 
1375	 0.170200285140716 
1376	 0.170252973404344 
1377	 0.17031562283341 
1378	 0.170352294432156 
1379	 0.170413931075193 
1380	 0.170429806141828 
1381	 0.170350345569374 
1382	 0.170363499255673 
1383	 0.170432874192427 
1384	 0.170457963381611 
1385	 0.170507808375245 
1386	 0.170549255247413 
1387	 0.170535872501084 
1388	 0.170551642605061 
1389	 0.170630255366963 
1390	 0.17065902013195 
1391	 0.170647729738363 
1392	 0.170644886890875 
1393	 0.170661972437478 
1394	 0.170662581940936 
1395	 0.170705125550352 
1396	 0.170794828507406 
1397	 0.170860406154646 
1398	 0.170937405411151 
1399	 0.170986328547875 
1400	 0.171045295698708 
1401	 0.171044265227682 
1402	 0.170988746996077 
1403	 0.170965704494835 
1404	 0.170925921360041 
1405	 0.170887398261873 
1406	 0.170874031015011 
1407	 0.17082508148646 
1408	 0.170742638868957 
1409	 0.170665272103492 
1410	 0.170571538544731 
1411	 0.17048981449482 
1412	 0.170402613935276 
1413	 0.170332888431517 
1414	 0.170292084824788 
1415	 0.170225976317188 
1416	 0.170106039717408 
1417	 0.170066033834441 
1418	 0.170066598631902 
1419	 0.170064335628521 
1420	 0.170157716687588 
1421	 0.170179552963332 
1422	 0.170142122043214 
1423	 0.170106736141651 
1424	 0.170025838982371 
1425	 0.169973171640211 
1426	 0.169960254533545 
1427	 0.169955085454105 
1428	 0.169981597299886 
1429	 0.170006239223593 
1430	 0.170014752061793 
1431	 0.170004127550894 
1432	 0.170014207339093 
1433	 0.170039044818595 
1434	 0.170034723807119 
1435	 0.170020450194718 
1436	 0.170020532569482 
1437	 0.170005114489919 
1438	 0.169996195918911 
1439	 0.170004005002711 
1440	 0.17000995147622 
1441	 0.170002198486264 
1442	 0.170013212115498 
1443	 0.170031048164757 
1444	 0.170067133233608 
1445	 0.170119377169822 
1446	 0.170167867043264 
1447	 0.170213281961026 
1448	 0.170303568335034 
1449	 0.170383304543318 
1450	 0.17052876824933 
1451	 0.170746753598052 
1452	 0.170963701217397 
1453	 0.171232214752873 
1454	 0.171473299784062 
1455	 0.171684052342158 
1456	 0.171952539823351 
1457	 0.172271313752375 
1458	 0.17255213580755 
1459	 0.172841304141656 
1460	 0.173145213886641 
1461	 0.173423380747379 
1462	 0.173711434304842 
1463	 0.174041198270411 
1464	 0.174357560491391 
1465	 0.174647667731638 
1466	 0.17494690154449 
1467	 0.175292098207165 
1468	 0.175632949383396 
1469	 0.175983063048058 
1470	 0.176318119773321 
1471	 0.176606611942797 
1472	 0.17684792408979 
1473	 0.177124042187045 
1474	 0.177384595560036 
1475	 0.177644413529561 
1476	 0.177922289916293 
1477	 0.17817822615239 
1478	 0.178404029878764 
1479	 0.178648804870666 
1480	 0.178911966859813 
1481	 0.179145162200917 
1482	 0.179365647833816 
1483	 0.179585908494555 
1484	 0.179780872465393 
1485	 0.180002289671749 
1486	 0.180246962670394 
1487	 0.180460769927588 
1488	 0.180677344924871 
1489	 0.180872225198932 
1490	 0.181022510765157 
1491	 0.181213099663799 
1492	 0.181423429143602 
1493	 0.181617345292022 
1494	 0.181805598585841 
1495	 0.182017989260528 
1496	 0.182210699515642 
1497	 0.182444965838474 
1498	 0.182751645621675 
1499	 0.183006700589481 
1500	 0.183238468925286 
1501	 0.183499388189766 
1502	 0.183760005837401 
1503	 0.18401074742297 
1504	 0.184298293205941 
1505	 0.184546703528477 
1506	 0.184760484630414 
1507	 0.184969466418871 
1508	 0.185159311070322 
1509	 0.185349345921207 
1510	 0.185518885210211 
1511	 0.185702681926105 
1512	 0.185904317982552 
1513	 0.186086832813976 
1514	 0.186251093224355 
1515	 0.186434006607824 
1516	 0.186605416258084 
1517	 0.186794965878434 
1518	 0.187037220174069 
1519	 0.187239061994651 
1520	 0.187416996263481 
1521	 0.187609540767126 
1522	 0.187738668007025 
1523	 0.187868840468994 
1524	 0.188009678289869 
1525	 0.188146171448134 
1526	 0.188280030434751 
1527	 0.188416575147433 
1528	 0.188566539824996 
1529	 0.188714421655615 
1530	 0.188859634186962 
1531	 0.189029340987922 
1532	 0.189160176900751 
1533	 0.189268737762619 
1534	 0.189374699160727 
1535	 0.189447637132599 
1536	 0.189581099856244 
1537	 0.189735146518292 
1538	 0.189874282607605 
1539	 0.190049717952611 
1540	 0.190193462451225 
1541	 0.190286977502537 
1542	 0.190449612147457 
1543	 0.19067604306141 
1544	 0.190812936448888 
1545	 0.190908224413884 
1546	 0.191071356959732 
1547	 0.191198069505256 
1548	 0.19138415999796 
1549	 0.191682686866383 
1550	 0.191896195575187 
1551	 0.192077873246812 
1552	 0.192256018698994 
1553	 0.192391662721689 
1554	 0.192590146028078 
1555	 0.192797888623391 
1556	 0.193029294766708 
1557	 0.193353506851383 
1558	 0.193569207382027 
1559	 0.193730378318464 
1560	 0.193912485217798 
1561	 0.194053812598944 
1562	 0.194205643086065 
1563	 0.194365923655291 
1564	 0.19453896360641 
1565	 0.194695427305987 
1566	 0.194872939243417 
1567	 0.195084151753378 
1568	 0.195289018842877 
1569	 0.195491667293028 
1570	 0.195698580969386 
1571	 0.195937717114782 
1572	 0.196131327300301 
1573	 0.196289395280341 
1574	 0.196467941908164 
1575	 0.19664099936452 
1576	 0.196801759356268 
1577	 0.196956802138329 
1578	 0.197127850707179 
1579	 0.197277704295408 
1580	 0.197457818991442 
1581	 0.197710824685294 
1582	 0.197885837789614 
1583	 0.19799834972923 
1584	 0.198164889518055 
1585	 0.198320134056091 
1586	 0.198483566658412 
1587	 0.198698198044087 
1588	 0.198888850946685 
1589	 0.199047518298324 
1590	 0.1992215605324 
1591	 0.199402927011351 
1592	 0.199593936972381 
1593	 0.199794018677007 
1594	 0.199987212865148 
1595	 0.200217597914079 
1596	 0.200392840453894 
1597	 0.200512700439706 
1598	 0.200660178726848 
1599	 0.200784336911017 
1600	 0.2009247938017 
1601	 0.201087793267282 
1602	 0.201252651600415 
1603	 0.201402797307416 
1604	 0.201584473665519 
1605	 0.201812530203017 
1606	 0.202007059429565 
1607	 0.20221084427649 
1608	 0.20239696243344 
1609	 0.202555265769062 
1610	 0.20271036539623 
1611	 0.202844509377962 
1612	 0.202999738477607 
1613	 0.203169529551507 
1614	 0.203319198101443 
1615	 0.203472291424954 
1616	 0.20362129953979 
1617	 0.203737313037318 
1618	 0.203876665799672 
1619	 0.204044349039442 
1620	 0.204196496751297 
1621	 0.204342466476677 
1622	 0.204491370359817 
1623	 0.204647393613499 
1624	 0.204783410837471 
1625	 0.204947170452635 
1626	 0.205044694507279 
1627	 0.205049553259714 
1628	 0.205115526469647 
1629	 0.205148228265819 
1630	 0.205233496614574 
1631	 0.205412024302179 
1632	 0.205549235174044 
1633	 0.205687062484328 
1634	 0.205809985559705 
1635	 0.205903942839553 
1636	 0.206015930152643 
1637	 0.206132674456579 
1638	 0.206250133755885 
1639	 0.206376022456398 
1640	 0.206501965809736 
1641	 0.206632029618028 
1642	 0.206745329098213 
1643	 0.206852129548629 
1644	 0.206958663861436 
1645	 0.207025781298035 
1646	 0.207146843980942 
1647	 0.207332558357047 
1648	 0.207470511398288 
1649	 0.207632207122649 
1650	 0.207743204001993 
1651	 0.207780467368062 
1652	 0.207836825175402 
1653	 0.207897132784191 
1654	 0.207935096927507 
1655	 0.207970271670609 
1656	 0.207978027038578 
1657	 0.207948225144936 
1658	 0.207917195994311 
1659	 0.20786205540985 
1660	 0.20782934575075 
1661	 0.207822194050215 
1662	 0.207762727991779 
1663	 0.207708930014116 
1664	 0.207602340523713 
1665	 0.207416781519382 
1666	 0.2072644068771 
1667	 0.207100646245207 
1668	 0.206929034666089 
1669	 0.206792830372481 
1670	 0.206587884400859 
1671	 0.206324464526024 
1672	 0.206082618094382 
1673	 0.20585815029289 
1674	 0.205530896521161 
1675	 0.205153006926189 
1676	 0.204771988311298 
1677	 0.20430078667297 
1678	 0.203851964327501 
1679	 0.203443917505297 
1680	 0.202983106290869 
1681	 0.20247719767271 
1682	 0.20195909666525 
1683	 0.201437607587683 
1684	 0.200874951802086 
1685	 0.200258218816208 
1686	 0.19965539937549 
1687	 0.199031306985527 
1688	 0.198398060116249 
1689	 0.197769746420689 
1690	 0.197110186313327 
1691	 0.196442481710869 
1692	 0.195743981786633 
1693	 0.195012717601912 
1694	 0.194289388092618 
1695	 0.193540771397063 
1696	 0.192775957198191 
1697	 0.192010258067491 
1698	 0.191212361430857 
1699	 0.190355715769129 
1700	 0.189589496699649 
1701	 0.18887246759733 
1702	 0.188100674824694 
1703	 0.187347716192222 
1704	 0.186593890589229 
1705	 0.185760193530358 
1706	 0.184982158432599 
1707	 0.184311871707621 
1708	 0.183713663476017 
1709	 0.183146904894789 
1710	 0.182659039285595 
1711	 0.182206397698438 
1712	 0.181687926351739 
1713	 0.181293190008784 
1714	 0.180946524014025 
1715	 0.18058418481957 
1716	 0.180313968245916 
1717	 0.180010707856949 
1718	 0.179762021935771 
1719	 0.179562585962313 
1720	 0.179262107788311 
1721	 0.179039975539336 
1722	 0.17884881844289 
1723	 0.17864514633135 
1724	 0.17859207081068 
1725	 0.178579277894308 
1726	 0.178564283843536 
1727	 0.178671396330205 
1728	 0.17884392717406 
1729	 0.179083617313431 
1730	 0.179525326344283 
1731	 0.180005739475854 
1732	 0.180551001392584 
1733	 0.181150277960056 
1734	 0.181656327104083 
1735	 0.182231920756378 
1736	 0.182820703435965 
1737	 0.183387979643443 
1738	 0.183945801853181 
1739	 0.184456502072404 
1740	 0.185014927535081 
1741	 0.185352496664004 
1742	 0.185564810383986 
1743	 0.185742112669022 
1744	 0.185667982238956 
1745	 0.18575188227001 
1746	 0.18596342866894 
1747	 0.186011374373295 
1748	 0.186013470630368 
1749	 0.185984084773457 
1750	 0.185795352146885 
1751	 0.185747473171986 
1752	 0.185755182979872 
1753	 0.185803126713897 
1754	 0.185920505656185 
1755	 0.186023634994304 
1756	 0.186113882755067 
1757	 0.186345221091077 
1758	 0.18660616010918 
1759	 0.186944157534384 
1760	 0.187334881376959 
1761	 0.187678584621414 
1762	 0.188021515601937 
1763	 0.188508200715922 
1764	 0.188997257808617 
1765	 0.189484273985042 
1766	 0.190108432851729 
1767	 0.190685060829911 
1768	 0.191281632898119 
1769	 0.192001748896907 
1770	 0.192609888359224 
1771	 0.193277936797067 
1772	 0.194004295066583 
1773	 0.194646965179122 
1774	 0.19540873973326 
1775	 0.196118111181761 
1776	 0.196713619251088 
1777	 0.197259903641634 
1778	 0.197728556727676 
1779	 0.198154717855234 
1780	 0.198558940289979 
1781	 0.199055901725006 
1782	 0.199511655017712 
1783	 0.199855650981852 
1784	 0.200237242045817 
1785	 0.200466789538168 
1786	 0.200743397302623 
1787	 0.201040318874935 
1788	 0.201302922061404 
1789	 0.201566479761703 
1790	 0.201816577601385 
1791	 0.202073150767139 
1792	 0.202296790572582 
1793	 0.202478026671096 
1794	 0.202633012077018 
1795	 0.202773823225301 
1796	 0.202960271683917 
1797	 0.203291803717969 
1798	 0.20363158226877 
1799	 0.20389234701143 
1800	 0.204168233054081 
1801	 0.201423561557708 
1802	 0.201581526795256 
1803	 0.20176560448715 
1804	 0.201950556249785 
1805	 0.202266277256045 
1806	 0.20245621488973 
1807	 0.202604434052496 
1808	 0.202799558320152 
1809	 0.20295205619117 
1810	 0.203141286542844 
1811	 0.203420695685573 
1812	 0.203636843758738 
1813	 0.203861645236251 
1814	 0.204012061663386 
1815	 0.204075813883021 
1816	 0.204206441908536 
1817	 0.204365494415459 
1818	 0.204520330992875 
1819	 0.204704363847258 
1820	 0.204921450513169 
1821	 0.205163335624946 
1822	 0.205464926265086 
1823	 0.205698036375226 
1824	 0.205859250957782 
1825	 0.206138566209497 
1826	 0.206371733953523 
1827	 0.206526451897491 
1828	 0.206725544857268 
1829	 0.207016319809432 
1830	 0.207226406340579 
1831	 0.207354608865488 
1832	 0.207526276755855 
1833	 0.20780176158498 
1834	 0.207987762040773 
1835	 0.208189960045811 
1836	 0.208397899071832 
1837	 0.208624826317503 
1838	 0.208832262974382 
1839	 0.209068532254648 
1840	 0.209396773904482 
1841	 0.209655011375951 
1842	 0.209920060722645 
1843	 0.210062333963633 
1844	 0.210220771118148 
1845	 0.210320274638756 
1846	 0.210403351299457 
1847	 0.210542913600595 
1848	 0.21072620886191 
1849	 0.211021989326725 
1850	 0.211170786017561 
1851	 0.21127315537811 
1852	 0.211415111200938 
1853	 0.211488440914767 
1854	 0.211554858489635 
1855	 0.2117412192438 
1856	 0.211858629789266 
1857	 0.211912715130588 
1858	 0.211960066323376 
1859	 0.212034489898628 
1860	 0.212135406107699 
1861	 0.212214064846746 
1862	 0.212334171154636 
1863	 0.2123552743501 
1864	 0.212322625208753 
1865	 0.212257055684865 
1866	 0.21221352499906 
1867	 0.212173506614891 
1868	 0.212130950432901 
1869	 0.21205770379078 
1870	 0.21194863431257 
1871	 0.211784455783874 
1872	 0.211625932616688 
1873	 0.211450743166603 
1874	 0.21127684733111 
1875	 0.211077908291186 
1876	 0.210860448048883 
1877	 0.210615215131716 
1878	 0.210287082532085 
1879	 0.20992191421524 
1880	 0.20954186146316 
1881	 0.209161023207559 
1882	 0.208785282306481 
1883	 0.208363219338156 
1884	 0.207876073044661 
1885	 0.207352242101978 
1886	 0.206733077049418 
1887	 0.206081021447865 
1888	 0.205425026782922 
1889	 0.204756184332266 
1890	 0.204046992527129 
1891	 0.203353010433159 
1892	 0.202634320859759 
1893	 0.201868016977959 
1894	 0.201032021845105 
1895	 0.200264322583044 
1896	 0.199483769363767 
1897	 0.198689782254172 
1898	 0.198009350769315 
1899	 0.197305132938552 
1900	 0.196593662768632 
1901	 0.195917682455564 
1902	 0.195184131076176 
1903	 0.194449860320531 
1904	 0.193759515845843 
1905	 0.193085285749623 
1906	 0.192386644850715 
1907	 0.191765201352519 
1908	 0.191274202021649 
1909	 0.190792623339593 
1910	 0.190389396338466 
1911	 0.189996045588928 
1912	 0.189600455379716 
1913	 0.189239590435419 
1914	 0.18888803464357 
1915	 0.188573860027672 
1916	 0.188345331634542 
1917	 0.188045873645048 
1918	 0.187720082114767 
1919	 0.187458295240994 
1920	 0.187168664489995 
1921	 0.18695618852594 
1922	 0.186788122741679 
1923	 0.186606496547276 
1924	 0.186466888327786 
1925	 0.186272680541853 
1926	 0.186118879426076 
1927	 0.186011457134375 
1928	 0.185863649910678 
1929	 0.185677542681324 
1930	 0.185580130341691 
1931	 0.185466993657424 
1932	 0.185293523539609 
1933	 0.18526120235115 
1934	 0.185257429745963 
1935	 0.18522623261023 
1936	 0.185289860820309 
1937	 0.185338212809049 
1938	 0.185354900991025 
1939	 0.185443855437832 
1940	 0.185598207338602 
1941	 0.185726552613124 
1942	 0.185860048619729 
1943	 0.186017174434871 
1944	 0.186147814394569 
1945	 0.186332238290854 
1946	 0.186574082322127 
1947	 0.186816718634871 
1948	 0.187086358701227 
1949	 0.187359344656724 
1950	 0.187628569766702 
1951	 0.187865157503198 
1952	 0.188180124258967 
1953	 0.188529279772194 
1954	 0.188895255655433 
1955	 0.189319669703265 
1956	 0.189707583827962 
1957	 0.190039422916896 
1958	 0.190378501812466 
1959	 0.190697476805498 
1960	 0.191055269058762 
1961	 0.191401344688386 
1962	 0.191777785610889 
1963	 0.192125505299116 
1964	 0.192467381485812 
1965	 0.192751661425693 
1966	 0.193020156764728 
1967	 0.193247627219816 
1968	 0.193427782502327 
1969	 0.193670498212526 
1970	 0.193957305670887 
1971	 0.194229451824313 
1972	 0.194472049517092 
1973	 0.19469262100563 
1974	 0.194961469463937 
1975	 0.195255996052244 
1976	 0.195526104967531 
1977	 0.195850179388399 
1978	 0.196125348206402 
1979	 0.196354560782031 
1980	 0.196532370607635 
1981	 0.196841425838332 
1982	 0.197131890177541 
1983	 0.197426971638008 
1984	 0.197831540872224 
1985	 0.198133963926078 
1986	 0.198370104689752 
1987	 0.198654494087083 
1988	 0.198912239353092 
1989	 0.199226333057901 
1990	 0.199589421767252 
1991	 0.199944502033799 
1992	 0.200338379245361 
1993	 0.200700576092054 
1994	 0.201052226175626 
1995	 0.201524603724917 
1996	 0.20197927084002 
1997	 0.202444808158771 
1998	 0.20288595892384 
1999	 0.203301226754795 
2000	 0.203719129046611 
2001	 0.204150972920949 
2002	 0.20454160567378 
2003	 0.204951009821726 
2004	 0.205295833443298 
2005	 0.205557691341999 
2006	 0.205848931493693 
2007	 0.20612617799864 
2008	 0.206368624821803 
2009	 0.206645350185027 
2010	 0.206920888170235 
2011	 0.207179096404379 
2012	 0.207439688362746 
2013	 0.207665302545228 
2014	 0.207874521868548 
2015	 0.208060065961977 
2016	 0.208221921402785 
2017	 0.20835228862768 
2018	 0.20844850182931 
2019	 0.208545557566428 
2020	 0.208618380427204 
2021	 0.208679506626163 
2022	 0.208730779923917 
2023	 0.208787200376032 
2024	 0.208851703496321 
2025	 0.208893062343657 
2026	 0.208895295867081 
2027	 0.208879613985506 
2028	 0.208843278588572 
2029	 0.208724120141587 
2030	 0.20868822948711 
2031	 0.208687436657088 
2032	 0.208680172952004 
2033	 0.208731635111926 
2034	 0.208719681433063 
2035	 0.208679594256899 
2036	 0.208629859764109 
2037	 0.208515198222585 
2038	 0.208406236272504 
2039	 0.20834649590721 
2040	 0.208300597780806 
2041	 0.208245048378956 
2042	 0.208227897335834 
2043	 0.208194188400095 
2044	 0.208129116842407 
2045	 0.208095882813864 
2046	 0.208109453685743 
2047	 0.208079918813472 
2048	 0.208000117244935 
2049	 0.207976850062206 
2050	 0.207960861593935 
2051	 0.207964534227973 
2052	 0.208019183899296 
2053	 0.208073166375956 
2054	 0.208076444840506 
2055	 0.208051914646935 
2056	 0.208020856382538 
2057	 0.207952858227081 
2058	 0.20790391077785 
2059	 0.207842860608878 
2060	 0.207794964225421 
2061	 0.207739850160334 
2062	 0.207720339185011 
2063	 0.207723826671016 
2064	 0.207734677632202 
2065	 0.207810455744076 
2066	 0.207814387624082 
2067	 0.207793896482897 
2068	 0.207787451073276 
2069	 0.207798570284751 
2070	 0.207817148348607 
2071	 0.207820243887089 
2072	 0.207858505630471 
2073	 0.207836536514006 
2074	 0.207738537219792 
2075	 0.207698642878396 
2076	 0.207654659328941 
2077	 0.207632273552323 
2078	 0.207636311661067 
2079	 0.207656057445203 
2080	 0.207705760189372 
2081	 0.2077329272565 
2082	 0.207768710834631 
2083	 0.207806621814905 
2084	 0.207817878834053 
2085	 0.207843408271259 
2086	 0.207856006870186 
2087	 0.207890723967028 
2088	 0.207868566947379 
2089	 0.207793518143614 
2090	 0.207753351321218 
2091	 0.207696111831092 
2092	 0.207670333284468 
2093	 0.207697051727957 
2094	 0.207665224241836 
2095	 0.207575538328345 
2096	 0.207545935373547 
2097	 0.207505753850984 
2098	 0.207511171161345 
2099	 0.207548861815717 
2100	 0.207583032073798 
2101	 0.207517475981519 
2102	 0.207336532676593 
2103	 0.207271690020142 
2104	 0.20720428294725 
2105	 0.207149484853445 
2106	 0.207200795245202 
2107	 0.207131855687899 
2108	 0.206976263527075 
2109	 0.206844760880483 
2110	 0.206693547828684 
2111	 0.206526084509872 
2112	 0.206337631080946 
2113	 0.206167258141281 
2114	 0.205956004503657 
2115	 0.205786083915089 
2116	 0.205681187709811 
2117	 0.20554083665552 
2118	 0.205389907233591 
2119	 0.205219167492156 
2120	 0.205113939869068 
2121	 0.205012891019698 
2122	 0.204918473979295 
2123	 0.204904673377735 
2124	 0.204814220246323 
2125	 0.204676032881105 
2126	 0.204554072155016 
2127	 0.204345133922398 
2128	 0.204276356321688 
2129	 0.20428602174557 
2130	 0.204293718019893 
2131	 0.204460094134339 
2132	 0.204503407052086 
2133	 0.204489419558883 
2134	 0.204399792245181 
2135	 0.20439219222038 
2136	 0.204412456227588 
2137	 0.204433135807282 
2138	 0.204523654154898 
2139	 0.204568496422186 
2140	 0.204579284297132 
2141	 0.204601937571718 
2142	 0.204641070834691 
2143	 0.204658113391462 
2144	 0.204641156179673 
2145	 0.204659161366471 
2146	 0.204654354017124 
2147	 0.204724351893827 
2148	 0.204869912709272 
2149	 0.204966041749733 
2150	 0.205046822341011 
2151	 0.205197912093524 
2152	 0.205362754045182 
2153	 0.205549797378192 
2154	 0.205771984333741 
2155	 0.205971424543857 
2156	 0.206111966781216 
2157	 0.20617015039352 
2158	 0.206266800201571 
2159	 0.206354946310578 
2160	 0.206444306275402 
2161	 0.206567316062343 
2162	 0.206592160509005 
2163	 0.206562754471278 
2164	 0.206539767935471 
2165	 0.206433086001529 
2166	 0.206368418108027 
2167	 0.206341150430612 
2168	 0.206304906696046 
2169	 0.206243287231628 
2170	 0.206217621863937 
2171	 0.206242294502353 
2172	 0.206209182582141 
2173	 0.206173321147771 
2174	 0.206094986172613 
2175	 0.206004495972016 
2176	 0.206032046068306 
2177	 0.20603546175005 
2178	 0.20612257538963 
2179	 0.206108456051661 
2180	 0.206030123111079 
2181	 0.206006438689611 
2182	 0.205961029282893 
2183	 0.205944435551044 
2184	 0.205993024834096 
2185	 0.205988759071546 
2186	 0.205968171415342 
2187	 0.205940291936339 
2188	 0.205855864485122 
2189	 0.205827839108117 
2190	 0.205831677189298 
2191	 0.20582311017398 
2192	 0.205912520183553 
2193	 0.205878348879503 
2194	 0.205770658489972 
2195	 0.205639302394919 
2196	 0.205401060972575 
2197	 0.205175832393727 
2198	 0.205033803203208 
2199	 0.204831991817199 
2200	 0.204687374969305 
2201	 0.204594202402141 
2202	 0.204447690865657 
2203	 0.20428430504677 
2204	 0.204159828085959 
2205	 0.204030616649029 
2206	 0.203919716252211 
2207	 0.203836664554602 
2208	 0.203751735674153 
2209	 0.203757786336023 
2210	 0.20357594159815 
2211	 0.203302130020961 
2212	 0.203038695938964 
2213	 0.202582424428737 
2214	 0.202279678698257 
2215	 0.202120738067055 
2216	 0.201881789917402 
2217	 0.201677669482324 
2218	 0.201407658710193 
2219	 0.200990553840382 
2220	 0.200703536695999 
2221	 0.200513115291958 
2222	 0.200215382617854 
2223	 0.200049569850055 
2224	 0.199877872016943 
2225	 0.199496271161721 
2226	 0.199046493892239 
2227	 0.198602829702418 
2228	 0.198054787405869 
2229	 0.197573896489577 
2230	 0.197145036952513 
2231	 0.196644169020259 
2232	 0.196161576712749 
2233	 0.195499335383912 
2234	 0.194730887353501 
2235	 0.193955191544924 
2236	 0.193063246683153 
2237	 0.192156669283125 
2238	 0.19124764698294 
2239	 0.190277291466548 
2240	 0.18927495646484 
2241	 0.188140643433258 
2242	 0.186969886995038 
2243	 0.185674755223066 
2244	 0.184116789010159 
2245	 0.182670147261577 
2246	 0.181172961701055 
2247	 0.179719424033077 
2248	 0.178481546961495 
2249	 0.176983517303142 
2250	 0.175343834378317 
2251	 0.173637059488137 
2252	 0.171927500525054 
2253	 0.17022595172601 
2254	 0.168474430813293 
2255	 0.166843708687758 
2256	 0.165242789400985 
2257	 0.163461729569282 
2258	 0.16192854882152 
2259	 0.160620739643371 
2260	 0.159235480557913 
2261	 0.157925826565184 
2262	 0.156504419181008 
2263	 0.15503690823882 
2264	 0.153637233466244 
2265	 0.152120843075527 
2266	 0.150851363866144 
2267	 0.149799057412559 
2268	 0.148645034584077 
2269	 0.147530262879264 
2270	 0.146450355354352 
2271	 0.145369837037843 
2272	 0.14430816999194 
2273	 0.143332687941962 
2274	 0.142347515055825 
2275	 0.141390728074255 
2276	 0.140350332394444 
2277	 0.139301536669898 
2278	 0.13823428341752 
2279	 0.137031509148405 
2280	 0.135912292859156 
2281	 0.13487314053353 
2282	 0.133760028033734 
2283	 0.132690046040118 
2284	 0.131512975127452 
2285	 0.130170803170787 
2286	 0.128924155946029 
2287	 0.12748938092892 
2288	 0.125969958398303 
2289	 0.124659416706428 
2290	 0.123268343580303 
2291	 0.121930755133562 
2292	 0.120837601161001 
2293	 0.119526598454244 
2294	 0.118117242106005 
2295	 0.116797743009846 
2296	 0.115368929959317 
2297	 0.114078276289589 
2298	 0.112851013418081 
2299	 0.111750755645842 
2300	 0.110639245359584 
2301	 0.109828459935802 
2302	 0.109186319744408 
2303	 0.108819516894735 
2304	 0.108732850623414 
2305	 0.108791908490764 
2306	 0.109111923724172 
2307	 0.109455763833741 
2308	 0.109936821372073 
2309	 0.11060073067091 
2310	 0.111388261530537 
2311	 0.112371500677322 
2312	 0.113661529570144 
2313	 0.114875044747758 
2314	 0.116173942512406 
2315	 0.117524879040018 
2316	 0.11900791382325 
2317	 0.120316204955384 
2318	 0.121794687828589 
2319	 0.122882129747239 
2320	 0.123618138665506 
2321	 0.124367579147914 
2322	 0.124894359083162 
2323	 0.125451241367832 
2324	 0.126080866383829 
2325	 0.12648625221726 
2326	 0.126667471819099 
2327	 0.126871118635857 
2328	 0.127068196097156 
2329	 0.1270531052161 
2330	 0.126982001721151 
2331	 0.126716737386607 
2332	 0.126260754240537 
2333	 0.125598968470406 
2334	 0.124876112022514 
2335	 0.124426613211162 
2336	 0.123849401105237 
2337	 0.123148100716727 
2338	 0.122486600758892 
2339	 0.121651059833166 
2340	 0.120896924877541 
2341	 0.120032196606288 
2342	 0.119010069400895 
2343	 0.118070550839725 
2344	 0.117149799108284 
2345	 0.116606686659913 
2346	 0.116414655550544 
2347	 0.116412305717443 
2348	 0.116724391987322 
2349	 0.117235954220272 
2350	 0.11783683526605 
2351	 0.11840970946243 
2352	 0.118888052295974 
2353	 0.119417062085726 
2354	 0.120149194486715 
2355	 0.121114112376186 
2356	 0.12206087775871 
2357	 0.1229314180452 
2358	 0.123746801938098 
2359	 0.124308682728435 
2360	 0.124819508292369 
2361	 0.125367868407592 
2362	 0.125715043143575 
2363	 0.126033313111538 
2364	 0.126355602573519 
2365	 0.126446873321152 
2366	 0.126228428838978 
2367	 0.12594823378731 
2368	 0.125621473726413 
2369	 0.125228608826939 
2370	 0.125162514983708 
2371	 0.125074887334732 
2372	 0.125088766156402 
2373	 0.125533735661952 
2374	 0.125840768272859 
2375	 0.125988472367621 
2376	 0.126090358652409 
2377	 0.125965031764936 
2378	 0.125901783473055 
2379	 0.125816864652057 
2380	 0.125641740130884 
2381	 0.125587258289927 
2382	 0.125536254273973 
2383	 0.125466249841448 
2384	 0.125482623717538 
2385	 0.125630913473835 
2386	 0.125535093051613 
2387	 0.125163735306849 
2388	 0.125191390954286 
2389	 0.12545022876693 
2390	 0.12558877489876 
2391	 0.126013802007819 
2392	 0.126069675907002 
2393	 0.125723172013994 
2394	 0.125558464898999 
2395	 0.125237106789829 
2396	 0.125224189282302 
2397	 0.125442683055576 
2398	 0.125611828270138 
2399	 0.12602003097077 
2400	 0.126177881584673 
2401	 0.126184099378857 
2402	 0.126158677243882 
2403	 0.126272732111345 
2404	 0.126507962779015 
2405	 0.12658308314365 
2406	 0.126706535462495 
2407	 0.126776196976648 
2408	 0.126819405883491 
2409	 0.127023122217015 
2410	 0.127141538691167 
2411	 0.126998862631181 
2412	 0.127103361162684 
2413	 0.127281839512642 
2414	 0.12722788138313 
2415	 0.127354855852638 
2416	 0.127322035647105 
2417	 0.127157016443737 
2418	 0.127462607290017 
2419	 0.127873370213736 
2420	 0.127940525803591 
2421	 0.127902271625186 
2422	 0.127537826795974 
2423	 0.127047820374738 
2424	 0.127018542667421 
2425	 0.126917514094982 
2426	 0.127051857641972 
2427	 0.12752744847756 
2428	 0.127620414014898 
2429	 0.127371062375308 
2430	 0.127252359992121 
2431	 0.127295426933538 
2432	 0.126921911613625 
2433	 0.126968535175877 
2434	 0.127189146554169 
2435	 0.126428570311017 
2436	 0.125804380169707 
2437	 0.125709865481639 
2438	 0.125344847575654 
2439	 0.124884863516315 
2440	 0.124768899672157 
2441	 0.124676605864535 
2442	 0.124547185878978 
2443	 0.124914263372039 
2444	 0.125659653564995 
2445	 0.125809354691032 
2446	 0.125444336281717 
2447	 0.12528489692561 
2448	 0.125110425302023 
2449	 0.12488791454037 
2450	 0.124797122654195 
2451	 0.124619661479196 
2452	 0.123768626147762 
2453	 0.123100814267174 
2454	 0.122981441064529 
2455	 0.122665338484304 
2456	 0.123206598834064 
2457	 0.123457488400239 
2458	 0.123036076121683 
2459	 0.123455730311875 
2460	 0.123065859157432 
2461	 0.122764591801396 
2462	 0.12332709308425 
2463	 0.123475683198897 
2464	 0.124066915940911 
2465	 0.124540515260308 
2466	 0.124887337406159 
2467	 0.125008970585226 
2468	 0.124692043134429 
2469	 0.125129953177238 
2470	 0.125316366022757 
2471	 0.125037305756527 
2472	 0.12544625536154 
2473	 0.125744446342473 
2474	 0.125247469365637 
2475	 0.124895865468124 
2476	 0.124937581398446 
2477	 0.124693694872046 
2478	 0.124921847435141 
2479	 0.126149293596283 
2480	 0.126216310495102 
2481	 0.126546686519938 
2482	 0.127325076442818 
2483	 0.127664297910602 
2484	 0.128495896774366 
2485	 0.12942260377151 
2486	 0.130050910684284 
2487	 0.130647852398366 
2488	 0.130376338873796 
2489	 0.130982036299061 
2490	 0.132024865239917 
2491	 0.132132183515786 
2492	 0.132623876657644 
2493	 0.132217180861686 
2494	 0.131659297710229 
2495	 0.131678233584037 
2496	 0.131898094188307 
2497	 0.131728070054601 
2498	 0.130254666014965 
2499	 0.130192994244643 
2500	 0.130940055024489 
