Wavelength	Tablay400118.asd
350	 0.116067391234371 
351	-1.80898010619105E-02 
352	-5.70373541696244E-02 
353	 6.61588313693372E-02 
354	 9.49293757322386E-02 
355	 8.98398837697938E-02 
356	 8.42096706356261E-02 
357	 9.02733624197928E-02 
358	 6.67183151186905E-02 
359	 8.92044056131785E-02 
360	 0.133248636776928 
361	 0.129718440369292 
362	 0.126439407107045 
363	 0.112415574434289 
364	 9.13085539551495E-02 
365	 0.088521285474045 
366	 0.013722723261675 
367	-1.79951161507642E-02 
368	 0.057047715981863 
369	 7.67444800089379E-02 
370	 7.63743896005926E-02 
371	 7.49510826647123E-02 
372	 0.080271348914189 
373	 9.86125751940833E-02 
374	 8.49266712137988E-02 
375	 5.00584820691718E-02 
376	 9.10057296710337E-02 
377	 7.84260567082487E-02 
378	 5.24448748651729E-02 
379	 6.35161188344671E-02 
380	 4.73838750338532E-02 
381	 5.20275076717025E-02 
382	 6.33316609657182E-02 
383	 3.85388548722128E-02 
384	 2.82624859707871E-02 
385	 3.99557099909554E-02 
386	 5.99987320708777E-02 
387	 5.96476927088508E-02 
388	 5.46937685687893E-02 
389	 5.79575944302131E-02 
390	 0.072574125449351 
391	 7.13191466626275E-02 
392	 6.46377243675062E-02 
393	 5.88236872622639E-02 
394	 5.51523494759465E-02 
395	 3.77172172058446E-02 
396	 4.03414184698963E-02 
397	 6.47497975317335E-02 
398	 5.39387089845967E-02 
399	 7.27376227423306E-02 
400	 8.18266875954723E-02 
401	 4.45337810632316E-02 
402	 4.67494127251105E-02 
403	 5.43101830893559E-02 
404	 5.52640131813222E-02 
405	 5.64152562785043E-02 
406	 4.55397727357023E-02 
407	 4.40831313670641E-02 
408	 5.93009709469509E-02 
409	 6.30118051439922E-02 
410	 5.99903035696861E-02 
411	 6.10029194241996E-02 
412	 7.19182865957211E-02 
413	 6.37566215653518E-02 
414	 0.053380460278963 
415	 5.19898174267159E-02 
416	 0.061679119869972 
417	 5.38537457431747E-02 
418	 4.27302904132744E-02 
419	 4.14667886089565E-02 
420	 4.43040415024909E-02 
421	 4.61838769473913E-02 
422	 4.71434793771416E-02 
423	 4.85723076957088E-02 
424	 4.52684578345614E-02 
425	 4.63279647077758E-02 
426	 5.06991952419396E-02 
427	 4.56848483693177E-02 
428	 4.59949348756178E-02 
429	 4.76607996393445E-02 
430	 0.0459684334085 
431	 4.55246097779041E-02 
432	 4.81326284359469E-02 
433	 5.31557172376399E-02 
434	 5.73123375948183E-02 
435	 4.69574386185156E-02 
436	 4.15625151987803E-02 
437	 4.74971166192921E-02 
438	 4.68230011374859E-02 
439	 0.043547867838518 
440	 0.042363345914397 
441	 4.60914664861296E-02 
442	 4.91754570930386E-02 
443	 4.61613295852098E-02 
444	 4.11572832497702E-02 
445	 4.45352176823808E-02 
446	 4.67339084931241E-02 
447	 4.75015926564923E-02 
448	 4.77079440137068E-02 
449	 0.047583982256753 
450	 4.43764746733635E-02 
451	 4.29378227614985E-02 
452	 4.79755363804766E-02 
453	 4.58731880868892E-02 
454	 4.28779293557625E-02 
455	 4.30464908705561E-02 
456	 0.046436194343695 
457	 4.60881261080757E-02 
458	 4.39738524606113E-02 
459	 4.33158749590022E-02 
460	 4.50777754255214E-02 
461	 4.49341527148403E-02 
462	 4.33615357600076E-02 
463	 4.33852360667505E-02 
464	 4.59643234186033E-02 
465	 4.52083472299221E-02 
466	 4.13101429180634E-02 
467	 4.44937965563266E-02 
468	 4.62702562304419E-02 
469	 4.49208369640196E-02 
470	 4.20373407830933E-02 
471	 4.43304491345175E-02 
472	 4.47178470724321E-02 
473	 4.28324306425705E-02 
474	 4.34183546505517E-02 
475	 4.25067206316684E-02 
476	 4.13334675342154E-02 
477	 4.13097397018379E-02 
478	 4.27961143145899E-02 
479	 4.34120753880307E-02 
480	 0.042590122509239 
481	 0.041078495996245 
482	 4.23516210141297E-02 
483	 4.29867197680786E-02 
484	 4.19319533370976E-02 
485	 4.12530629801274E-02 
486	 4.08645194442046E-02 
487	 0.040984244000938 
488	 4.16525640681398E-02 
489	 0.042592541133889 
490	 4.21004293762939E-02 
491	 4.11086193430132E-02 
492	 4.17813080808959E-02 
493	 4.25533467832183E-02 
494	 4.24966307337319E-02 
495	 4.17338423203145E-02 
496	 4.19099215356799E-02 
497	 4.19874050846513E-02 
498	 4.15613171009148E-02 
499	 0.040725040287766 
500	 4.08321437319081E-02 
501	 4.12653169340253E-02 
502	 4.14521328043301E-02 
503	 4.10027481654746E-02 
504	 4.06376162875893E-02 
505	 4.02681555470685E-02 
506	 4.00687078050509E-02 
507	 4.14517240018544E-02 
508	 4.12626190024859E-02 
509	 4.04113866732811E-02 
510	 0.041113682555681 
511	 4.13052315305269E-02 
512	 4.05201896646432E-02 
513	 3.93860062603569E-02 
514	 3.96767794044528E-02 
515	 4.00487408419378E-02 
516	 4.01830158897784E-02 
517	 0.040010522079847 
518	 0.03931259924337 
519	 3.89800239049344E-02 
520	 3.91568081278374E-02 
521	 3.94453082609688E-02 
522	 3.97350789398314E-02 
523	 0.03966480502385 
524	 0.039323959622945 
525	 0.039755749077325 
526	 3.98425798924892E-02 
527	 3.94492984532098E-02 
528	 3.89389493979254E-02 
529	 3.93747145677592E-02 
530	 3.93860973820605E-02 
531	 3.89068136820345E-02 
532	 3.93210328898458E-02 
533	 3.94213788602451E-02 
534	 3.92109045698457E-02 
535	 3.89716942077084E-02 
536	 3.90023067838157E-02 
537	 3.91350781894884E-02 
538	 3.92271483877688E-02 
539	 3.91864539717579E-02 
540	 3.93155712552735E-02 
541	 3.89025592927089E-02 
542	 3.81179330508999E-02 
543	 3.87198434289584E-02 
544	 3.89671099441802E-02 
545	 3.88054248823714E-02 
546	 0.038647956112442 
547	 3.85264892348189E-02 
548	 3.87124855555586E-02 
549	 3.89100953794605E-02 
550	 3.83999749731471E-02 
551	 3.83079118728155E-02 
552	 3.83342510647134E-02 
553	 3.82110563857059E-02 
554	 3.85050803600455E-02 
555	 3.82855536727947E-02 
556	 3.79108847061277E-02 
557	 3.81641492348593E-02 
558	 0.037989156674258 
559	 0.037931903378277 
560	 3.81400045808769E-02 
561	 3.80198066115479E-02 
562	 3.77018641250591E-02 
563	 3.76542487082207E-02 
564	 3.81011272240128E-02 
565	 3.80219996891739E-02 
566	 3.79304342605752E-02 
567	 3.78810514831564E-02 
568	 3.76211774270794E-02 
569	 3.77864660185235E-02 
570	 3.77771809464662E-02 
571	 3.73322322307764E-02 
572	 3.72650875248192E-02 
573	 3.73763055298606E-02 
574	 3.75043700127476E-02 
575	 3.75080251765913E-02 
576	 3.74290080004247E-02 
577	 3.74746354000334E-02 
578	 3.75966624621668E-02 
579	 3.74624483909576E-02 
580	 3.74859386213565E-02 
581	 3.75397022354655E-02 
582	 3.74693359148202E-02 
583	 0.037424966914532 
584	 0.037433371295951 
585	 3.73986596606363E-02 
586	 0.037210273390983 
587	 3.73510733907726E-02 
588	 3.74541999822571E-02 
589	 3.73341390152884E-02 
590	 3.72455165559167E-02 
591	 3.74212599235002E-02 
592	 3.75270555738197E-02 
593	 3.72450265339232E-02 
594	 3.71359878631772E-02 
595	 3.71905429828652E-02 
596	 3.72202531062409E-02 
597	 3.69432605907683E-02 
598	 3.69485566282162E-02 
599	 3.69952328456277E-02 
600	 3.69063255987073E-02 
601	 0.037040880268112 
602	 3.70482447998882E-02 
603	 3.69797359052116E-02 
604	 3.70292228345889E-02 
605	 3.71116567466811E-02 
606	 3.69558621254995E-02 
607	 3.66741073373443E-02 
608	 3.68538952020965E-02 
609	 3.69335785074819E-02 
610	 3.68592937574812E-02 
611	 0.036712625944233 
612	 3.65421706301792E-02 
613	 3.66336169274382E-02 
614	 3.67908586782214E-02 
615	 3.65866067894271E-02 
616	 3.66831918111509E-02 
617	 3.66905942109599E-02 
618	 3.64531592733446E-02 
619	 3.64678562908754E-02 
620	 3.64515495841515E-02 
621	 3.65072019693287E-02 
622	 3.67233419374441E-02 
623	 3.65278381262342E-02 
624	 3.64466838274241E-02 
625	 3.65380012849754E-02 
626	 3.64150515548877E-02 
627	 0.036610519440202 
628	 3.66657627172134E-02 
629	 3.63511950888909E-02 
630	 3.64602697123395E-02 
631	 3.65594411079627E-02 
632	 0.036480181041802 
633	 0.036233112182751 
634	 3.62331278398762E-02 
635	 3.62973627957417E-02 
636	 3.63103420592562E-02 
637	 3.63075372110489E-02 
638	 3.61006651470905E-02 
639	 3.59425589055405E-02 
640	 3.60464125858221E-02 
641	 3.61577128145293E-02 
642	 3.61758410117146E-02 
643	 3.61430281705114E-02 
644	 3.61692156680033E-02 
645	 3.60307852009599E-02 
646	 3.60308133967587E-02 
647	 3.61820489429187E-02 
648	 3.59110816900345E-02 
649	 3.59552591481704E-02 
650	 3.60646545717658E-02 
651	 0.035882071454058 
652	 3.59486067517944E-02 
653	 3.60192675190079E-02 
654	 3.59707959701282E-02 
655	 3.58228660956062E-02 
656	 3.59056986124485E-02 
657	 3.60024727526091E-02 
658	 3.59379697499002E-02 
659	 3.58034865681311E-02 
660	 3.56982788231401E-02 
661	 3.56485880237156E-02 
662	 3.56522821979504E-02 
663	 3.57653337159463E-02 
664	 3.58164833377664E-02 
665	 3.58061176561864E-02 
666	 3.59020977013202E-02 
667	 3.56856027199616E-02 
668	 3.56091168416318E-02 
669	 3.58866604336216E-02 
670	 0.035662079122892 
671	 3.55810613257463E-02 
672	 3.56234404386811E-02 
673	 3.55251966793263E-02 
674	 3.55361416362918E-02 
675	 3.56317880242406E-02 
676	 3.57072354925715E-02 
677	 0.035597229538088 
678	 3.55395821852691E-02 
679	 3.55123305335721E-02 
680	 0.035464357418698 
681	 3.54579967559914E-02 
682	 3.54077164445392E-02 
683	 3.53882151118256E-02 
684	 3.55066203225021E-02 
685	 3.53692192627819E-02 
686	 3.53129353398291E-02 
687	 3.54091773393693E-02 
688	 0.035255262847709 
689	 3.53141453771804E-02 
690	 3.53975691140546E-02 
691	 3.52903158951493E-02 
692	 3.52990758207988E-02 
693	 3.52537675241604E-02 
694	 3.52006515224605E-02 
695	 3.52956551916953E-02 
696	 0.035357528916521 
697	 0.035398491461645 
698	 3.54087234293134E-02 
699	 3.53019082925322E-02 
700	 3.52853555518713E-02 
701	 0.035324098006926 
702	 3.53260155954941E-02 
703	 3.52761149669355E-02 
704	 3.52270035125567E-02 
705	 3.52120607534701E-02 
706	 3.52401549873961E-02 
707	 0.035236818136639 
708	 3.52654614321525E-02 
709	 3.53007315229346E-02 
710	 0.035128338335325 
711	 3.51747999425678E-02 
712	 3.52962931123034E-02 
713	 3.52424881159903E-02 
714	 3.50487202208449E-02 
715	 3.50543187468482E-02 
716	 3.51998643630022E-02 
717	 3.51676688022969E-02 
718	 3.52193785695481E-02 
719	 3.52772129735962E-02 
720	 3.52579944002258E-02 
721	 3.51344581667606E-02 
722	 0.035162916669478 
723	 3.52281989575535E-02 
724	 3.51838171032586E-02 
725	 0.035256227780488 
726	 3.52921708178066E-02 
727	 3.52466840543636E-02 
728	 0.035175301248449 
729	 3.52710395300718E-02 
730	 3.52948295709235E-02 
731	 3.51689307561444E-02 
732	 0.035168736889042 
733	 3.51814227285419E-02 
734	 3.51899748052024E-02 
735	 3.52065145250834E-02 
736	 3.52693718419487E-02 
737	 3.52780086682928E-02 
738	 3.52658664186826E-02 
739	 3.53359474356611E-02 
740	 3.53483354308249E-02 
741	 3.53150707308284E-02 
742	 3.52871802008949E-02 
743	 3.53427034236687E-02 
744	 3.54052114774581E-02 
745	 3.54373990547261E-02 
746	 3.54282212025533E-02 
747	 3.54093529851568E-02 
748	 3.54129045856276E-02 
749	 3.54182925063375E-02 
750	 3.53876493575287E-02 
751	 3.54118428322315E-02 
752	 3.54304164774766E-02 
753	 3.54123470947778E-02 
754	 0.035384876491297 
755	 3.54139377485606E-02 
756	 3.54532376966917E-02 
757	 3.54651544219701E-02 
758	 0.035534659513792 
759	 3.54664232142749E-02 
760	 3.53661043340731E-02 
761	 3.54362274522343E-02 
762	 3.55093978381458E-02 
763	 3.55371820451725E-02 
764	 3.55040043671656E-02 
765	 3.54278166625624E-02 
766	 3.54691346509332E-02 
767	 3.55317861544036E-02 
768	 3.55260621308118E-02 
769	 3.54904481202664E-02 
770	 3.55172043486183E-02 
771	 3.55778353615341E-02 
772	 0.035603906979944 
773	 3.55870415268472E-02 
774	 3.56058895632144E-02 
775	 3.56389185391657E-02 
776	 3.55960584617889E-02 
777	 3.56279101550438E-02 
778	 0.035636853041231 
779	 3.55876068810896E-02 
780	 0.035608268670008 
781	 3.56341009574395E-02 
782	 3.56549766885973E-02 
783	 3.56709329282565E-02 
784	 0.035670012547026 
785	 3.56294765551861E-02 
786	 3.56118517841849E-02 
787	 3.56928871266397E-02 
788	 3.56642376144989E-02 
789	 3.56893346658811E-02 
790	 0.035751319459164 
791	 3.56005706060549E-02 
792	 3.55849401963521E-02 
793	 3.56525833446517E-02 
794	 3.56990779669024E-02 
795	 3.57086550519381E-02 
796	 3.56748291194396E-02 
797	 3.56532924902908E-02 
798	 3.56862439673514E-02 
799	 3.56185014706131E-02 
800	 3.56771736019416E-02 
801	 3.57655617435253E-02 
802	 3.55916736450499E-02 
803	 3.56578325189831E-02 
804	 3.57613338754906E-02 
805	 3.57686877842482E-02 
806	 3.57927639370112E-02 
807	 3.57728861716386E-02 
808	 3.57595606449224E-02 
809	 3.57831623846042E-02 
810	 3.57319406745885E-02 
811	 3.57297713892901E-02 
812	 0.03570711471294 
813	 3.55792986991706E-02 
814	 3.56978223522839E-02 
815	 3.57316493184858E-02 
816	 3.56847789367892E-02 
817	 3.58507615727517E-02 
818	 3.58470583119136E-02 
819	 3.58021820154899E-02 
820	 3.58333299525593E-02 
821	 3.59107809623603E-02 
822	 3.58956312705582E-02 
823	 3.58335620224371E-02 
824	 0.03580371004009 
825	 3.58122119413801E-02 
826	 0.03582775820919 
827	 3.58761897222352E-02 
828	 3.59663150170116E-02 
829	 3.58455220046748E-02 
830	 3.58720507835773E-02 
831	 3.60089986996653E-02 
832	 3.58874610593727E-02 
833	 3.58033725188207E-02 
834	 0.035845308813777 
835	 3.59665326183233E-02 
836	 3.59685255446588E-02 
837	 3.59669405336218E-02 
838	 3.59500103756346E-02 
839	 3.59133161947272E-02 
840	 3.59522210002474E-02 
841	 3.60350945278766E-02 
842	 3.60992856402643E-02 
843	 3.60914203322724E-02 
844	 3.60728579532979E-02 
845	 3.60326249713787E-02 
846	 0.036045759734043 
847	 3.62029607433676E-02 
848	 3.61773945199148E-02 
849	 3.61129302479504E-02 
850	 3.61362525719134E-02 
851	 3.62661944590394E-02 
852	 3.62460057922075E-02 
853	 3.61789459224552E-02 
854	 3.62015431692573E-02 
855	 3.63568942255128E-02 
856	 3.64482642134869E-02 
857	 3.64123237805039E-02 
858	 3.62976105820711E-02 
859	 3.63605681986403E-02 
860	 3.63320206104541E-02 
861	 3.62485643284033E-02 
862	 3.62680358674124E-02 
863	 3.62240650491601E-02 
864	 3.62029012313899E-02 
865	 3.62736483012341E-02 
866	 3.64449454299622E-02 
867	 3.64406305652719E-02 
868	 3.64177976068079E-02 
869	 3.64286091944803E-02 
870	 3.63077060109082E-02 
871	 3.63763821317893E-02 
872	 3.64590223602674E-02 
873	 3.64081734941434E-02 
874	 3.63766247582265E-02 
875	 3.64694978268086E-02 
876	 3.65165623740365E-02 
877	 3.63737042424886E-02 
878	 3.62959508625801E-02 
879	 3.64289804637741E-02 
880	 3.65753827312348E-02 
881	 3.64656745282211E-02 
882	 3.64231240805274E-02 
883	 3.64292664805163E-02 
884	 3.64783541355426E-02 
885	 3.65751387590681E-02 
886	 3.66468938995928E-02 
887	 3.66875406813331E-02 
888	 3.66746639202111E-02 
889	 3.65766653564802E-02 
890	 3.67125024127934E-02 
891	 3.67373359273258E-02 
892	 3.65482110294978E-02 
893	 3.66444698996287E-02 
894	 3.65483375623009E-02 
895	 3.65155132472488E-02 
896	 0.036729940877413 
897	 3.67234462692892E-02 
898	 3.66846181831827E-02 
899	 3.66869238699754E-02 
900	 3.67421208391635E-02 
901	 3.67705478320385E-02 
902	 3.67353036280115E-02 
903	 3.66366434754753E-02 
904	 3.65366172752865E-02 
905	 3.66860892408797E-02 
906	 0.03681482471638 
907	 3.67655216746795E-02 
908	 3.65638675881915E-02 
909	 3.67072159754061E-02 
910	 3.68271320400203E-02 
911	 3.68079748646355E-02 
912	 3.68612410393377E-02 
913	 3.68250081030994E-02 
914	 3.68415858803778E-02 
915	 3.69161074215457E-02 
916	 3.68286495458282E-02 
917	 3.68628425266795E-02 
918	 3.68443223447791E-02 
919	 0.036727604953895 
920	 3.68650404793297E-02 
921	 3.68511101509718E-02 
922	 3.68226307514776E-02 
923	 3.69282558077668E-02 
924	 3.69702766060531E-02 
925	 3.71932346521873E-02 
926	 3.72736177849308E-02 
927	 3.69903867784729E-02 
928	 3.70759707594423E-02 
929	 3.70955364179581E-02 
930	 3.70763107569766E-02 
931	 3.71542017994476E-02 
932	 3.70355915394745E-02 
933	 3.71071780140452E-02 
934	 3.72143362949427E-02 
935	 3.70323404462851E-02 
936	 3.70664430907299E-02 
937	 3.71087178256468E-02 
938	 3.70569010287868E-02 
939	 3.69660513168344E-02 
940	 3.72155111401387E-02 
941	 0.037382895193095 
942	 3.73559990418028E-02 
943	 3.73385933998761E-02 
944	 3.72220096059914E-02 
945	 3.72070477981755E-02 
946	 3.72932405671647E-02 
947	 3.72736140919415E-02 
948	 3.74795062838441E-02 
949	 0.037577936235814 
950	 3.75188532194558E-02 
951	 0.037674577751172 
952	 3.74752048257685E-02 
953	 3.71464956380215E-02 
954	 3.71006860838261E-02 
955	 3.77138114222335E-02 
956	 3.75012463036944E-02 
957	 0.03717514816791 
958	 3.73381396432254E-02 
959	 3.75689122977728E-02 
960	 3.75905070671557E-02 
961	 3.75180268682506E-02 
962	 3.75311067091861E-02 
963	 3.77061712468623E-02 
964	 3.77372873019978E-02 
965	 3.76743430398927E-02 
966	 3.76502865802281E-02 
967	 3.77401607860241E-02 
968	 3.79628491396563E-02 
969	 3.80423311552771E-02 
970	 3.78834660696027E-02 
971	 3.80501668179843E-02 
972	 0.037879640606755 
973	 3.76616067404811E-02 
974	 3.77585620559688E-02 
975	 3.78974433094384E-02 
976	 3.80677595546522E-02 
977	 0.038041168670512 
978	 3.77858921789625E-02 
979	 3.80283465602556E-02 
980	 3.80063200399549E-02 
981	 3.78866225607469E-02 
982	 3.79666777018428E-02 
983	 3.79010695477622E-02 
984	 3.77895765774093E-02 
985	 3.79354947540118E-02 
986	 3.84170905973456E-02 
987	 3.83818597786796E-02 
988	 3.83947136208282E-02 
989	 3.83892754308574E-02 
990	 3.81730978545311E-02 
991	 3.78938882301037E-02 
992	 3.77952728996219E-02 
993	 3.80173118428207E-02 
994	 3.83584385235142E-02 
995	 3.76923816980383E-02 
996	 3.75579438240458E-02 
997	 3.79340166752488E-02 
998	 3.82059774158152E-02 
999	 3.79512989991245E-02 
1000	 3.76204412572445E-02 
1001	 3.91475713319793E-02 
1002	 3.94931692833551E-02 
1003	 3.96069241308601E-02 
1004	 3.95392007782435E-02 
1005	 3.93361272172882E-02 
1006	 3.92645011562024E-02 
1007	 3.89136374663625E-02 
1008	 3.88945405225301E-02 
1009	 3.93018697417362E-02 
1010	 0.039388494640772 
1011	 3.93920089597124E-02 
1012	 3.94135556120256E-02 
1013	 3.93077234796345E-02 
1014	 3.91933617303125E-02 
1015	 0.038919523576019 
1016	 0.038977812876305 
1017	 0.039257697603875 
1018	 3.94729466080347E-02 
1019	 3.97512071727229E-02 
1020	 3.98964334508367E-02 
1021	 3.98690534659634E-02 
1022	 3.94246219082682E-02 
1023	 3.93473183659162E-02 
1024	 3.94156185652821E-02 
1025	 3.93612318668118E-02 
1026	 3.92274791527614E-02 
1027	 3.92823545788134E-02 
1028	 3.93762612033523E-02 
1029	 3.95551121652395E-02 
1030	 3.96265678044251E-02 
1031	 3.96907820412565E-02 
1032	 3.95700032106581E-02 
1033	 3.93029064653297E-02 
1034	 3.91584263496903E-02 
1035	 0.039080630195527 
1036	 3.91958874738142E-02 
1037	 3.96024558099011E-02 
1038	 3.95974733369745E-02 
1039	 3.95306413989052E-02 
1040	 3.95346644644569E-02 
1041	 3.92165003538535E-02 
1042	 3.91112396541125E-02 
1043	 3.91840282851584E-02 
1044	 3.94157658024206E-02 
1045	 3.94176986138148E-02 
1046	 3.94420031589669E-02 
1047	 3.94727955030776E-02 
1048	 3.94458068330216E-02 
1049	 3.93899987612503E-02 
1050	 3.93205985075805E-02 
1051	 3.93980684771524E-02 
1052	 3.94313055078642E-02 
1053	 0.039428215291787 
1054	 3.94659726616566E-02 
1055	 3.94640390405795E-02 
1056	 3.93444945455524E-02 
1057	 0.039339433884376 
1058	 0.039458248393529 
1059	 3.93814523153681E-02 
1060	 3.92681253275826E-02 
1061	 3.93279920421448E-02 
1062	 3.92551081351597E-02 
1063	 3.92290562074238E-02 
1064	 3.95000084359735E-02 
1065	 3.96591827527377E-02 
1066	 0.039650022339959 
1067	 3.97584278491218E-02 
1068	 3.96203206937754E-02 
1069	 3.95635664063023E-02 
1070	 0.039600504646378 
1071	 3.97951208928933E-02 
1072	 3.97021165225916E-02 
1073	 0.039705584980646 
1074	 3.96655694219504E-02 
1075	 3.96047545505659E-02 
1076	 3.98393975230075E-02 
1077	 4.00610904084204E-02 
1078	 4.02179019382197E-02 
1079	 4.01731384674336E-02 
1080	 4.00959842947437E-02 
1081	 4.00760662657769E-02 
1082	 3.99367181255452E-02 
1083	 3.99696602026395E-02 
1084	 4.00614872874802E-02 
1085	 4.01499600880616E-02 
1086	 4.01921484044973E-02 
1087	 4.03078385367815E-02 
1088	 4.01930482904242E-02 
1089	 4.00489699633126E-02 
1090	 3.99561630216186E-02 
1091	 3.99766945142736E-02 
1092	 0.040156959329897 
1093	 4.02716009891525E-02 
1094	 0.040405363594404 
1095	 4.04309603041136E-02 
1096	 4.03509247202536E-02 
1097	 4.03984489202286E-02 
1098	 4.03611154086751E-02 
1099	 4.03371409930151E-02 
1100	 4.03868218479928E-02 
1101	 0.040295584302447 
1102	 0.040286601864249 
1103	 4.02951286212863E-02 
1104	 4.03552944223908E-02 
1105	 4.02717125687525E-02 
1106	 4.01876519176525E-02 
1107	 4.01494186780715E-02 
1108	 4.01489963631854E-02 
1109	 4.02371875915386E-02 
1110	 4.03766928647735E-02 
1111	 4.04585771635331E-02 
1112	 4.04402101783546E-02 
1113	 4.03926937756093E-02 
1114	 4.03603663874631E-02 
1115	 4.03635315239996E-02 
1116	 4.03351827988946E-02 
1117	 4.02594828189836E-02 
1118	 4.02345343173979E-02 
1119	 4.02136714256588E-02 
1120	 4.02432306397444E-02 
1121	 4.03068377399864E-02 
1122	 4.04287328881121E-02 
1123	 4.05052375600183E-02 
1124	 4.04045580974674E-02 
1125	 4.02745494462702E-02 
1126	 4.02132019399671E-02 
1127	 4.00845416490217E-02 
1128	 4.01493781139709E-02 
1129	 4.02891639172483E-02 
1130	 4.02026902786166E-02 
1131	 4.02428591544368E-02 
1132	 4.03299197981075E-02 
1133	 4.02540708336579E-02 
1134	 4.02743377505585E-02 
1135	 4.02654742557808E-02 
1136	 4.01836384748828E-02 
1137	 4.01552858507597E-02 
1138	 4.01958623667642E-02 
1139	 4.01549162449276E-02 
1140	 4.00704177294156E-02 
1141	 4.00396645638139E-02 
1142	 0.039981709269602 
1143	 3.99177000888571E-02 
1144	 3.99528330877139E-02 
1145	 4.00015907396241E-02 
1146	 3.99455632088369E-02 
1147	 3.99404565604504E-02 
1148	 3.99517430257086E-02 
1149	 3.98938631012163E-02 
1150	 3.98813363868123E-02 
1151	 3.99248416437816E-02 
1152	 3.99593299992563E-02 
1153	 4.00045768290425E-02 
1154	 4.00064152046796E-02 
1155	 4.00047291229126E-02 
1156	 4.00081627888514E-02 
1157	 4.00083397277699E-02 
1158	 3.99957144345439E-02 
1159	 3.99945073037145E-02 
1160	 3.99263352874963E-02 
1161	 0.039961850969487 
1162	 3.99167206065935E-02 
1163	 3.98809661256915E-02 
1164	 3.99656410645918E-02 
1165	 4.00091758311218E-02 
1166	 4.00091429861206E-02 
1167	 4.00351191949617E-02 
1168	 4.01239546233921E-02 
1169	 4.01167294087093E-02 
1170	 3.99958127140508E-02 
1171	 3.99786746610343E-02 
1172	 3.99881802581494E-02 
1173	 3.99546148150948E-02 
1174	 3.99445894643467E-02 
1175	 3.99506405628482E-02 
1176	 3.98910105833551E-02 
1177	 3.98867121170201E-02 
1178	 3.99321613178387E-02 
1179	 4.00140054527768E-02 
1180	 4.00653461970062E-02 
1181	 4.01489561626238E-02 
1182	 4.01744359419436E-02 
1183	 4.01606320071256E-02 
1184	 4.01261906504959E-02 
1185	 4.00851321927728E-02 
1186	 4.00554205387864E-02 
1187	 4.00344657761063E-02 
1188	 0.040000085125139 
1189	 3.99644773392758E-02 
1190	 3.99361750122999E-02 
1191	 3.98710339554029E-02 
1192	 3.98667343683866E-02 
1193	 3.99019823223473E-02 
1194	 3.99366022317817E-02 
1195	 4.00513048689611E-02 
1196	 4.00972722617451E-02 
1197	 4.01296870754794E-02 
1198	 4.00851149424718E-02 
1199	 4.00808764592745E-02 
1200	 0.04011003124933 
1201	 4.01429538736199E-02 
1202	 4.01613325648284E-02 
1203	 4.01573770991588E-02 
1204	 4.01362045474856E-02 
1205	 4.01401110006325E-02 
1206	 4.01707407557248E-02 
1207	 4.01856218407365E-02 
1208	 4.02219420912278E-02 
1209	 4.02037768860258E-02 
1210	 4.01239796495471E-02 
1211	 4.01192939899049E-02 
1212	 4.01397291757624E-02 
1213	 4.01159638191436E-02 
1214	 4.00896401041985E-02 
1215	 4.01051990968273E-02 
1216	 4.01024171184328E-02 
1217	 4.01110398229238E-02 
1218	 4.01735296907896E-02 
1219	 4.02512816995104E-02 
1220	 4.02939267382819E-02 
1221	 0.040236070850368 
1222	 4.01932665662965E-02 
1223	 4.02029988045843E-02 
1224	 4.02160219745733E-02 
1225	 4.02437900838093E-02 
1226	 4.02628523470731E-02 
1227	 4.03141817761593E-02 
1228	 4.03211931524483E-02 
1229	 4.02729446648857E-02 
1230	 4.02700869619395E-02 
1231	 4.02920103155265E-02 
1232	 4.02930467894269E-02 
1233	 4.03035945553402E-02 
1234	 4.03094735033487E-02 
1235	 4.02825627444097E-02 
1236	 4.02730931620516E-02 
1237	 0.040288411253149 
1238	 4.02913359767037E-02 
1239	 4.02874462399811E-02 
1240	 4.02871691659446E-02 
1241	 4.03128898997301E-02 
1242	 4.03262757432207E-02 
1243	 4.03103259729639E-02 
1244	 4.02887955148762E-02 
1245	 4.02727511202749E-02 
1246	 4.02079723346194E-02 
1247	 4.02018244622725E-02 
1248	 4.02385059129276E-02 
1249	 4.02595171387561E-02 
1250	 4.02828332954195E-02 
1251	 4.03221685573617E-02 
1252	 4.04078690776644E-02 
1253	 4.04229695973322E-02 
1254	 4.04286029411014E-02 
1255	 4.04072035632947E-02 
1256	 4.02798655373755E-02 
1257	 4.02373175611027E-02 
1258	 4.02442863330833E-02 
1259	 4.02241622999315E-02 
1260	 4.02409190787467E-02 
1261	 0.040237327091163 
1262	 4.01859390867673E-02 
1263	 0.04015304589366 
1264	 4.01558086117415E-02 
1265	 4.02010453870588E-02 
1266	 4.01805017800536E-02 
1267	 0.040140018389466 
1268	 0.040144627314345 
1269	 4.01417388249412E-02 
1270	 4.01208009934917E-02 
1271	 4.01436707452153E-02 
1272	 0.040131003274385 
1273	 4.00390344618132E-02 
1274	 4.00132092622448E-02 
1275	 4.00240962755529E-02 
1276	 4.00382942508198E-02 
1277	 4.00668199059566E-02 
1278	 4.01010404730157E-02 
1279	 4.01713354735922E-02 
1280	 4.02098241953036E-02 
1281	 4.02365639877397E-02 
1282	 4.02612065505112E-02 
1283	 4.02450608806946E-02 
1284	 4.02636192763211E-02 
1285	 4.02976813055862E-02 
1286	 4.03567081899107E-02 
1287	 4.03851213295812E-02 
1288	 4.04337624892997E-02 
1289	 4.04366703682671E-02 
1290	 4.03798648767498E-02 
1291	 4.03923859854886E-02 
1292	 4.04256443547287E-02 
1293	 0.040441857696548 
1294	 4.04738265449453E-02 
1295	 4.05134197389571E-02 
1296	 4.05538078795909E-02 
1297	 4.05738454255042E-02 
1298	 4.06008524788884E-02 
1299	 4.06307648000032E-02 
1300	 4.06202289487921E-02 
1301	 4.06447970520392E-02 
1302	 4.07159362562681E-02 
1303	 4.07640920905731E-02 
1304	 4.08073107108596E-02 
1305	 4.08489252932204E-02 
1306	 4.09220171837124E-02 
1307	 4.09359788720741E-02 
1308	 4.08756683153895E-02 
1309	 4.08590581132756E-02 
1310	 4.08815175542561E-02 
1311	 4.08879541708568E-02 
1312	 4.09318143993172E-02 
1313	 4.10765085137139E-02 
1314	 4.11053224596525E-02 
1315	 4.10612939818169E-02 
1316	 4.10818619777354E-02 
1317	 4.10966621104015E-02 
1318	 4.11194314019048E-02 
1319	 4.12060641080109E-02 
1320	 4.12044063530657E-02 
1321	 4.11342153073923E-02 
1322	 4.11088170599867E-02 
1323	 4.10483542327019E-02 
1324	 4.10305993728103E-02 
1325	 4.10832094279506E-02 
1326	 4.10778252300839E-02 
1327	 4.10341074059802E-02 
1328	 4.10261063283776E-02 
1329	 4.10096171827907E-02 
1330	 4.10027009944728E-02 
1331	 4.10613558354196E-02 
1332	 4.10604575446495E-02 
1333	 0.041023448127047 
1334	 4.09723105727823E-02 
1335	 4.09274744238876E-02 
1336	 4.08469188309482E-02 
1337	 4.08182541314081E-02 
1338	 4.08194399983781E-02 
1339	 4.08019721438034E-02 
1340	 4.07870673499732E-02 
1341	 4.07874102631479E-02 
1342	 4.07910521099761E-02 
1343	 4.07945915557223E-02 
1344	 4.08289187134586E-02 
1345	 4.08222754811293E-02 
1346	 4.07811776147444E-02 
1347	 0.040764321775962 
1348	 4.07499480047723E-02 
1349	 4.07239246754834E-02 
1350	 4.06997103396285E-02 
1351	 4.06780753100639E-02 
1352	 4.06507631138293E-02 
1353	 4.06140818508878E-02 
1354	 4.05649068913671E-02 
1355	 4.05412679363025E-02 
1356	 4.05238242538443E-02 
1357	 4.04995187932927E-02 
1358	 4.04881297189018E-02 
1359	 4.04850489836469E-02 
1360	 4.04804132110064E-02 
1361	 4.04669496056786E-02 
1362	 4.04876114646299E-02 
1363	 0.040478580526733 
1364	 4.04653986458477E-02 
1365	 4.04422172568225E-02 
1366	 4.03982779263784E-02 
1367	 4.03248018914454E-02 
1368	 4.02969797960238E-02 
1369	 4.02678122541611E-02 
1370	 4.02515667890618E-02 
1371	 0.040278369225971 
1372	 4.02658497186138E-02 
1373	 0.040239186288705 
1374	 4.02011094598038E-02 
1375	 4.01357508149571E-02 
1376	 4.01061355230862E-02 
1377	 4.00810292454248E-02 
1378	 4.00546776651119E-02 
1379	 4.00579582396202E-02 
1380	 4.00406223418721E-02 
1381	 4.00132990984835E-02 
1382	 3.99710509569496E-02 
1383	 0.039894961199847 
1384	 3.98588148103132E-02 
1385	 3.98574846351422E-02 
1386	 3.98147010418365E-02 
1387	 3.97726448676005E-02 
1388	 3.97303441221138E-02 
1389	 3.96208900674306E-02 
1390	 0.039562393866419 
1391	 3.95427030913751E-02 
1392	 3.95472322447329E-02 
1393	 3.95249099703058E-02 
1394	 3.95099511054422E-02 
1395	 3.94893649904009E-02 
1396	 0.039450226823517 
1397	 3.94331562813143E-02 
1398	 3.94372510910918E-02 
1399	 3.94130787884158E-02 
1400	 3.93865088957096E-02 
1401	 3.93453237198941E-02 
1402	 3.92767983566268E-02 
1403	 3.92331639587804E-02 
1404	 3.91777829047745E-02 
1405	 3.91613195407878E-02 
1406	 3.91861134181477E-02 
1407	 3.91782750671611E-02 
1408	 3.91750001232571E-02 
1409	 3.91710771299387E-02 
1410	 3.91567196230543E-02 
1411	 3.91405163058988E-02 
1412	 3.91293757220985E-02 
1413	 3.91140366374955E-02 
1414	 3.90792824447189E-02 
1415	 3.90546923516744E-02 
1416	 3.90288815989347E-02 
1417	 3.90287723977861E-02 
1418	 3.90613405138332E-02 
1419	 0.039061022705248 
1420	 3.90509441279984E-02 
1421	 3.90601051771229E-02 
1422	 3.90526815327744E-02 
1423	 3.90527582245379E-02 
1424	 3.90863822047849E-02 
1425	 3.91100922209334E-02 
1426	 3.90988348500551E-02 
1427	 3.91022677332722E-02 
1428	 3.90871671527665E-02 
1429	 3.90582889127281E-02 
1430	 3.90570818145051E-02 
1431	 3.90594972986699E-02 
1432	 3.90617851440416E-02 
1433	 3.90824966188548E-02 
1434	 3.90960960227627E-02 
1435	 3.90972823088995E-02 
1436	 3.91218907103437E-02 
1437	 3.91736399458324E-02 
1438	 3.91879010751944E-02 
1439	 0.03919923691653 
1440	 3.91895545319251E-02 
1441	 3.91327460583277E-02 
1442	 3.91310938712463E-02 
1443	 3.91508935381835E-02 
1444	 3.91584133449863E-02 
1445	 3.91898009244144E-02 
1446	 3.92072464997224E-02 
1447	 3.92086798981181E-02 
1448	 3.92130124996015E-02 
1449	 3.92185260905909E-02 
1450	 3.92240391688353E-02 
1451	 0.039229444181355 
1452	 3.92274979575431E-02 
1453	 3.92315373700449E-02 
1454	 3.92226551605346E-02 
1455	 3.91668980562987E-02 
1456	 3.91671511405968E-02 
1457	 3.92100085901945E-02 
1458	 3.92280828317952E-02 
1459	 0.039286835116518 
1460	 0.039306504370614 
1461	 3.92569420568167E-02 
1462	 3.92505235923719E-02 
1463	 3.92537251633705E-02 
1464	 3.92627169870985E-02 
1465	 3.92934941317212E-02 
1466	 0.039346134335099 
1467	 3.93212826537738E-02 
1468	 3.92969197288256E-02 
1469	 3.92893134171345E-02 
1470	 3.92780831393673E-02 
1471	 3.92923584829404E-02 
1472	 3.93541197500855E-02 
1473	 3.93840886054355E-02 
1474	 3.94077876722967E-02 
1475	 3.94156051618957E-02 
1476	 0.039421343940065 
1477	 3.94247296429097E-02 
1478	 3.94104039249204E-02 
1479	 3.93998028235344E-02 
1480	 0.039381044494996 
1481	 3.93882886203078E-02 
1482	 3.93973068594353E-02 
1483	 3.94176432253054E-02 
1484	 3.94828883830555E-02 
1485	 3.95034117797225E-02 
1486	 3.95066441819999E-02 
1487	 3.94957579228476E-02 
1488	 3.94490528737969E-02 
1489	 3.94357095912916E-02 
1490	 3.94215856314618E-02 
1491	 3.94223526261675E-02 
1492	 3.94758246576726E-02 
1493	 3.94620739414338E-02 
1494	 3.93847293133907E-02 
1495	 3.93766038002176E-02 
1496	 3.93760161551427E-02 
1497	 3.93720486901589E-02 
1498	 3.94205649275233E-02 
1499	 3.94406688250376E-02 
1500	 3.94360094648848E-02 
1501	 3.94198547363204E-02 
1502	 3.93871342746735E-02 
1503	 3.93814292355679E-02 
1504	 3.93502613483915E-02 
1505	 0.039353509876522 
1506	 3.94291108652262E-02 
1507	 3.94568895579496E-02 
1508	 3.94785196692935E-02 
1509	 3.94821311092274E-02 
1510	 3.94383739158771E-02 
1511	 3.94198404395694E-02 
1512	 3.93914649772881E-02 
1513	 0.039388518972636 
1514	 3.94519122564361E-02 
1515	 3.94530400577497E-02 
1516	 0.039401789579384 
1517	 3.93902958128319E-02 
1518	 3.93472321494592E-02 
1519	 3.93345377923174E-02 
1520	 3.93662579156823E-02 
1521	 3.94269614753261E-02 
1522	 3.94912861726725E-02 
1523	 3.94823301066826E-02 
1524	 3.94925734986383E-02 
1525	 3.94975808409791E-02 
1526	 3.94935399563251E-02 
1527	 3.94720615880157E-02 
1528	 3.94599678945274E-02 
1529	 0.039437941101324 
1530	 3.94480109035961E-02 
1531	 3.94786681062917E-02 
1532	 3.94792418128024E-02 
1533	 3.94925878414641E-02 
1534	 3.94848758102453E-02 
1535	 3.94368383483832E-02 
1536	 3.94309225578134E-02 
1537	 3.94324134328528E-02 
1538	 3.94584061114099E-02 
1539	 3.95366678508602E-02 
1540	 0.039527946655844 
1541	 3.94859771923333E-02 
1542	 3.94783601730512E-02 
1543	 0.039425853324441 
1544	 3.94119815923598E-02 
1545	 3.94558812758919E-02 
1546	 3.94676891061045E-02 
1547	 3.94729339649124E-02 
1548	 0.039445453182088 
1549	 3.93776724270238E-02 
1550	 3.93861964029801E-02 
1551	 3.94012185202791E-02 
1552	 3.94172245350654E-02 
1553	 3.95106645590059E-02 
1554	 0.039541714410319 
1555	 3.95084157123118E-02 
1556	 3.95164138500409E-02 
1557	 3.95629521150234E-02 
1558	 3.95547882444817E-02 
1559	 3.95120833976554E-02 
1560	 3.94939458467116E-02 
1561	 3.94621424045756E-02 
1562	 3.94283621990304E-02 
1563	 3.93968281426912E-02 
1564	 3.93882562743787E-02 
1565	 3.93703448343726E-02 
1566	 3.93716300273314E-02 
1567	 3.94141365917871E-02 
1568	 0.039442905879207 
1569	 3.94973108191484E-02 
1570	 3.94861380534078E-02 
1571	 3.94145245594736E-02 
1572	 3.94080905897546E-02 
1573	 3.93898680366147E-02 
1574	 3.93773225007592E-02 
1575	 3.94225045294968E-02 
1576	 3.94446430112785E-02 
1577	 3.94223744941252E-02 
1578	 3.94325504411958E-02 
1579	 3.95049490289153E-02 
1580	 3.95127095558976E-02 
1581	 3.94795362047482E-02 
1582	 0.03946099773023 
1583	 3.93948687704954E-02 
1584	 3.93807382317717E-02 
1585	 3.94297568763542E-02 
1586	 0.039426856899129 
1587	 3.94062460205112E-02 
1588	 0.039402808319322 
1589	 3.93769157704127E-02 
1590	 3.93639670483523E-02 
1591	 3.93630160914615E-02 
1592	 3.93873338880167E-02 
1593	 3.94510724520578E-02 
1594	 3.94590478645619E-02 
1595	 3.94701655607795E-02 
1596	 3.94640563183476E-02 
1597	 3.93772574426299E-02 
1598	 3.93475862457793E-02 
1599	 3.93621224350103E-02 
1600	 3.93607937375247E-02 
1601	 3.93804035680227E-02 
1602	 3.93678595076204E-02 
1603	 3.93114152953221E-02 
1604	 3.92998011933724E-02 
1605	 3.93023376785929E-02 
1606	 3.92981743211385E-02 
1607	 3.93373271667992E-02 
1608	 3.93347197452636E-02 
1609	 3.92616335883869E-02 
1610	 3.92595953695656E-02 
1611	 3.92926429151516E-02 
1612	 3.93061787038813E-02 
1613	 3.93842550852202E-02 
1614	 3.93942202886366E-02 
1615	 3.93201886717714E-02 
1616	 3.93023682516887E-02 
1617	 3.92919947983185E-02 
1618	 3.92687206034098E-02 
1619	 3.92737776872566E-02 
1620	 3.92607107420381E-02 
1621	 3.91998206800207E-02 
1622	 3.91784269581725E-02 
1623	 0.03916885005456 
1624	 3.91844367786701E-02 
1625	 3.92457377365435E-02 
1626	 0.039282443785218 
1627	 3.93269978349563E-02 
1628	 3.93613378584349E-02 
1629	 3.93960292281196E-02 
1630	 3.94007547520092E-02 
1631	 3.93689589380115E-02 
1632	 3.93707020468602E-02 
1633	 3.93581189628435E-02 
1634	 3.93577778018473E-02 
1635	 3.94486797265676E-02 
1636	 3.94309994133409E-02 
1637	 3.93046244006364E-02 
1638	 3.92481865334115E-02 
1639	 0.039131172113738 
1640	 3.91003756940721E-02 
1641	 3.92125094246368E-02 
1642	 3.92339897247444E-02 
1643	 3.92345530097951E-02 
1644	 3.92332951750445E-02 
1645	 3.91740240738961E-02 
1646	 0.03915105285801 
1647	 3.91649786945561E-02 
1648	 3.91721339992018E-02 
1649	 3.91735572250915E-02 
1650	 3.91859323472914E-02 
1651	 3.92272673310586E-02 
1652	 3.92220468978981E-02 
1653	 3.91979572671454E-02 
1654	 3.91786926736088E-02 
1655	 3.91196568876761E-02 
1656	 3.90986504186986E-02 
1657	 3.90880121695181E-02 
1658	 3.90921770741902E-02 
1659	 3.91268315889298E-02 
1660	 3.91450504406484E-02 
1661	 3.91884199406073E-02 
1662	 3.92053141233081E-02 
1663	 3.92092159114172E-02 
1664	 3.91937103353906E-02 
1665	 3.91220258131782E-02 
1666	 3.91130141625182E-02 
1667	 3.91400027284817E-02 
1668	 3.91288914571106E-02 
1669	 3.91342614698272E-02 
1670	 3.91325268139593E-02 
1671	 3.90839199832428E-02 
1672	 3.90754228702049E-02 
1673	 3.91176880030206E-02 
1674	 3.91246350656652E-02 
1675	 3.90971781044172E-02 
1676	 3.91072141282367E-02 
1677	 0.039166057820185 
1678	 3.91373758110281E-02 
1679	 3.90564348667162E-02 
1680	 3.90329050284747E-02 
1681	 3.89655934896605E-02 
1682	 3.89554786307581E-02 
1683	 3.90639573955047E-02 
1684	 3.90681728626482E-02 
1685	 3.89846480775183E-02 
1686	 3.89851188416802E-02 
1687	 3.90162093060047E-02 
1688	 3.90112014209652E-02 
1689	 3.90170594071107E-02 
1690	 3.90403513719651E-02 
1691	 3.90409238722696E-02 
1692	 3.90483318702823E-02 
1693	 3.91145265536229E-02 
1694	 3.91112896460351E-02 
1695	 3.90389315641192E-02 
1696	 3.90144970115549E-02 
1697	 3.89999273996611E-02 
1698	 3.89948464199582E-02 
1699	 3.89972324973454E-02 
1700	 3.90008754999109E-02 
1701	 3.90069101135634E-02 
1702	 3.90182864515916E-02 
1703	 3.90466600170685E-02 
1704	 0.039059940845319 
1705	 3.90805156597996E-02 
1706	 3.90671188358391E-02 
1707	 3.90253857481534E-02 
1708	 3.89974456327824E-02 
1709	 3.89422998509816E-02 
1710	 0.038977679264698 
1711	 0.039035914424911 
1712	 3.90231629698091E-02 
1713	 3.90578762265595E-02 
1714	 3.90378265119918E-02 
1715	 3.89426857996527E-02 
1716	 0.038891316487653 
1717	 3.89094808311113E-02 
1718	 3.89452981780514E-02 
1719	 3.89497776045411E-02 
1720	 3.89888493775245E-02 
1721	 3.89962228396794E-02 
1722	 3.89491868401963E-02 
1723	 3.89435413483988E-02 
1724	 0.038931559237179 
1725	 3.88996456524468E-02 
1726	 3.88954296279703E-02 
1727	 3.89577369672828E-02 
1728	 3.90166074363379E-02 
1729	 3.90240907901111E-02 
1730	 3.89835894789658E-02 
1731	 0.038920671388499 
1732	 3.89125997644027E-02 
1733	 3.88948969525789E-02 
1734	 3.88722556328253E-02 
1735	 3.88715244585703E-02 
1736	 3.88207934199692E-02 
1737	 3.88145592506113E-02 
1738	 0.03887148096806 
1739	 3.88716863742944E-02 
1740	 3.88377741507598E-02 
1741	 3.88399499506435E-02 
1742	 3.88584702576186E-02 
1743	 3.88583752366159E-02 
1744	 0.038890916812319 
1745	 3.88585758291381E-02 
1746	 3.87348337524098E-02 
1747	 3.86925487108291E-02 
1748	 3.86878122310309E-02 
1749	 3.86650308207744E-02 
1750	 3.86646093233306E-02 
1751	 3.86428240986638E-02 
1752	 3.85381632142032E-02 
1753	 3.85500270544776E-02 
1754	 3.86698562166805E-02 
1755	 3.87002485033443E-02 
1756	 3.87633613894206E-02 
1757	 3.87950961688566E-02 
1758	 3.87187987078229E-02 
1759	 3.87026234295535E-02 
1760	 3.87878652753303E-02 
1761	 3.87904199884247E-02 
1762	 3.87644469011549E-02 
1763	 0.038787430190702 
1764	 3.86493331960385E-02 
1765	 3.84536050825624E-02 
1766	 3.84260307425437E-02 
1767	 3.84579518515627E-02 
1768	 3.85072577757535E-02 
1769	 3.86619789767895E-02 
1770	 3.87986579295726E-02 
1771	 3.88231566869467E-02 
1772	 0.038827028262532 
1773	 3.87523815490466E-02 
1774	 3.85909844404866E-02 
1775	 3.85238804942687E-02 
1776	 0.038526738590924 
1777	 3.85459888456363E-02 
1778	 3.86098141213737E-02 
1779	 3.85781140801987E-02 
1780	 3.84644444872287E-02 
1781	 3.84424390929378E-02 
1782	 3.84898889131227E-02 
1783	 3.85823246771961E-02 
1784	 3.86983964750412E-02 
1785	 3.85804869147206E-02 
1786	 3.85903737818572E-02 
1787	 3.86251733281916E-02 
1788	 3.86069643373388E-02 
1789	 3.87035322801172E-02 
1790	 0.038746253523474 
1791	 3.86400875074188E-02 
1792	 3.85982872556091E-02 
1793	 3.86042783248837E-02 
1794	 3.85056766467962E-02 
1795	 3.85225050100627E-02 
1796	 3.85701598532258E-02 
1797	 3.85452302352677E-02 
1798	 3.84653785556115E-02 
1799	 3.84612450156339E-02 
1800	 3.85242354693342E-02 
1801	 3.80302804591128E-02 
1802	 3.79312654375534E-02 
1803	 3.79039964051841E-02 
1804	 3.78686325751144E-02 
1805	 3.78310758004543E-02 
1806	 3.78500253460614E-02 
1807	 3.79796822788452E-02 
1808	 3.80050684168513E-02 
1809	 3.79902716911667E-02 
1810	 3.79960084448954E-02 
1811	 3.79685707518057E-02 
1812	 3.79425200114872E-02 
1813	 3.79147029807725E-02 
1814	 3.79447596671661E-02 
1815	 3.79044667342699E-02 
1816	 3.78462469552804E-02 
1817	 0.037843458605203 
1818	 3.78547246832395E-02 
1819	 3.78766313841522E-02 
1820	 3.79872437640928E-02 
1821	 3.80150148512586E-02 
1822	 3.80128692226278E-02 
1823	 3.79846879618774E-02 
1824	 0.037942207294374 
1825	 3.78868745852064E-02 
1826	 3.79040811668749E-02 
1827	 3.80120531331377E-02 
1828	 3.80208267849821E-02 
1829	 3.80000321328419E-02 
1830	 3.80181739813506E-02 
1831	 3.80219404802181E-02 
1832	 3.79868973694678E-02 
1833	 3.80136910240957E-02 
1834	 3.80488165396254E-02 
1835	 3.80074858086574E-02 
1836	 3.79816044335213E-02 
1837	 3.79880083026809E-02 
1838	 3.80183809676687E-02 
1839	 3.80305089105404E-02 
1840	 3.80863411761537E-02 
1841	 3.80885452248204E-02 
1842	 3.80196087739459E-02 
1843	 3.80700247034447E-02 
1844	 3.80828150133164E-02 
1845	 3.79826139437769E-02 
1846	 3.79452509830808E-02 
1847	 3.79103852730096E-02 
1848	 3.78835291087888E-02 
1849	 3.78524181444735E-02 
1850	 0.03786236791116 
1851	 3.79170263852518E-02 
1852	 3.79225589055512E-02 
1853	 3.79431859735875E-02 
1854	 3.79774770267486E-02 
1855	 3.80035456747856E-02 
1856	 3.80447590728216E-02 
1857	 3.80692987431649E-02 
1858	 3.80543102771907E-02 
1859	 0.038054491520638 
1860	 3.80468110361347E-02 
1861	 3.80299840661628E-02 
1862	 3.79988952097613E-02 
1863	 3.79970378720782E-02 
1864	 3.80103798483087E-02 
1865	 3.80018123467565E-02 
1866	 3.79966203816234E-02 
1867	 3.80157769446137E-02 
1868	 3.79929080638768E-02 
1869	 3.79640516057321E-02 
1870	 3.79641404733268E-02 
1871	 3.80376325696388E-02 
1872	 3.80118867983048E-02 
1873	 3.79666155740792E-02 
1874	 3.78454411468833E-02 
1875	 3.77550085040972E-02 
1876	 3.76861844130071E-02 
1877	 3.76450147945867E-02 
1878	 3.77084965702871E-02 
1879	 3.77508929874517E-02 
1880	 3.77317847946661E-02 
1881	 3.77062552556089E-02 
1882	 3.76688422537497E-02 
1883	 3.76384255168555E-02 
1884	 3.76057987909029E-02 
1885	 3.75662665376079E-02 
1886	 3.75569779432089E-02 
1887	 3.75159453225661E-02 
1888	 0.037460598211683 
1889	 3.74396511783572E-02 
1890	 3.74070273237452E-02 
1891	 3.73765423187257E-02 
1892	 3.73576297858942E-02 
1893	 3.73224816832703E-02 
1894	 3.72504652704515E-02 
1895	 3.72039032669873E-02 
1896	 3.72288051756064E-02 
1897	 3.72639882912536E-02 
1898	 3.72896861552098E-02 
1899	 3.72910586865723E-02 
1900	 3.72618192861207E-02 
1901	 0.037178654603147 
1902	 3.70820292879207E-02 
1903	 3.70388509295015E-02 
1904	 3.69878978009831E-02 
1905	 0.036929622564821 
1906	 3.68794949577956E-02 
1907	 3.68772779849045E-02 
1908	 0.036828195448872 
1909	 0.036745254508445 
1910	 3.66849857239743E-02 
1911	 3.66372949694452E-02 
1912	 3.66017937112913E-02 
1913	 3.66219962279338E-02 
1914	 3.66436532959872E-02 
1915	 3.66142758002609E-02 
1916	 3.65383066728316E-02 
1917	 3.64694755198188E-02 
1918	 3.64653197900608E-02 
1919	 3.64822993683054E-02 
1920	 3.64898289208255E-02 
1921	 3.65402833120612E-02 
1922	 0.036528635727912 
1923	 3.64781307848627E-02 
1924	 3.65027681970257E-02 
1925	 3.64425949282745E-02 
1926	 3.64036626141205E-02 
1927	 3.63581232728853E-02 
1928	 3.63336405928573E-02 
1929	 3.62942958172467E-02 
1930	 3.63200444227565E-02 
1931	 3.63074130622647E-02 
1932	 3.62716804596469E-02 
1933	 3.62694535041772E-02 
1934	 3.62739493978279E-02 
1935	 0.036345644557991 
1936	 3.63824436858501E-02 
1937	 3.63899974504032E-02 
1938	 3.63631119260471E-02 
1939	 3.63515638041965E-02 
1940	 3.63178628407317E-02 
1941	 3.63096568712251E-02 
1942	 3.62975936272177E-02 
1943	 3.62579802907475E-02 
1944	 3.62009833082238E-02 
1945	 3.61823739457502E-02 
1946	 3.61998448924422E-02 
1947	 3.62036654213927E-02 
1948	 3.62703824487203E-02 
1949	 3.63243912207808E-02 
1950	 3.63623668364265E-02 
1951	 0.036430187148503 
1952	 3.64531845115134E-02 
1953	 3.64306396726653E-02 
1954	 3.64114859896499E-02 
1955	 3.64324765381299E-02 
1956	 3.63567570639774E-02 
1957	 0.036405368864569 
1958	 3.64523093219981E-02 
1959	 3.64218351920958E-02 
1960	 3.64374138016839E-02 
1961	 3.64379802884001E-02 
1962	 3.64102087429616E-02 
1963	 3.64156440327294E-02 
1964	 0.036428749316033 
1965	 3.64492573911127E-02 
1966	 3.65016087548254E-02 
1967	 3.65052699302007E-02 
1968	 3.65131691590645E-02 
1969	 3.65626142883098E-02 
1970	 3.65451440002637E-02 
1971	 3.65342129228031E-02 
1972	 3.65327025404515E-02 
1973	 3.65380788966469E-02 
1974	 3.65582251431706E-02 
1975	 3.66004934544368E-02 
1976	 0.036625182164613 
1977	 3.66730293314586E-02 
1978	 3.67021773338839E-02 
1979	 3.67033615532787E-02 
1980	 3.67377077526671E-02 
1981	 3.67932788481673E-02 
1982	 3.67809940804404E-02 
1983	 3.68365913580446E-02 
1984	 3.69278339537778E-02 
1985	 0.036954049326087 
1986	 3.69722755200095E-02 
1987	 3.69889950822422E-02 
1988	 3.69528817314016E-02 
1989	 3.69486631692462E-02 
1990	 3.69875618501589E-02 
1991	 3.70037630537566E-02 
1992	 3.69833541974158E-02 
1993	 3.70159884925732E-02 
1994	 3.70967702615359E-02 
1995	 3.71182091288066E-02 
1996	 3.71245505099457E-02 
1997	 3.71230964641912E-02 
1998	 3.71652656998616E-02 
1999	 3.72309578242165E-02 
2000	 3.72406003100972E-02 
2001	 3.72610287020731E-02 
2002	 3.72734392044812E-02 
2003	 3.71844116286158E-02 
2004	 3.71768508757602E-02 
2005	 3.72457664792333E-02 
2006	 3.73164359828435E-02 
2007	 3.74358791921362E-02 
2008	 3.75008312324316E-02 
2009	 3.75718204665545E-02 
2010	 3.75840860971793E-02 
2011	 3.75075156288535E-02 
2012	 3.74308898909319E-02 
2013	 3.74035982344986E-02 
2014	 3.73605462410052E-02 
2015	 3.73814884848427E-02 
2016	 3.75070144018999E-02 
2017	 3.75537273657923E-02 
2018	 3.75877682278976E-02 
2019	 3.76316277953979E-02 
2020	 3.76626344193994E-02 
2021	 3.76691770242477E-02 
2022	 3.77078841120951E-02 
2023	 3.77134183718333E-02 
2024	 3.76791119700862E-02 
2025	 0.037641762183171 
2026	 3.76390649604917E-02 
2027	 3.76519894994301E-02 
2028	 3.76740951714073E-02 
2029	 3.77214080494505E-02 
2030	 3.77630284390199E-02 
2031	 3.78199364915354E-02 
2032	 3.78547371214684E-02 
2033	 3.79069824089489E-02 
2034	 3.79245321077213E-02 
2035	 3.78987606144507E-02 
2036	 3.78596680309667E-02 
2037	 3.79339833959783E-02 
2038	 3.79584259764943E-02 
2039	 3.79895708173255E-02 
2040	 3.80981768179749E-02 
2041	 3.81206762976283E-02 
2042	 3.80472256168663E-02 
2043	 0.038043290992374 
2044	 3.80554289405601E-02 
2045	 3.80573912049202E-02 
2046	 3.80614343015813E-02 
2047	 3.80857841107052E-02 
2048	 3.81514225155441E-02 
2049	 3.81541889984379E-02 
2050	 3.81220792651825E-02 
2051	 3.81097953900741E-02 
2052	 3.80766075464047E-02 
2053	 3.80550118345019E-02 
2054	 3.80789940801081E-02 
2055	 3.81853284535133E-02 
2056	 3.82223726809229E-02 
2057	 3.82608031575941E-02 
2058	 3.82629925186601E-02 
2059	 3.81985353559366E-02 
2060	 3.82041794927831E-02 
2061	 3.82286993541866E-02 
2062	 3.82501260947689E-02 
2063	 3.83484116600838E-02 
2064	 3.83657514217269E-02 
2065	 3.83441631092153E-02 
2066	 3.82650488024131E-02 
2067	 3.81840295140032E-02 
2068	 3.82089968319086E-02 
2069	 0.038221353693436 
2070	 3.82981843360548E-02 
2071	 3.83128225835916E-02 
2072	 3.83080513071373E-02 
2073	 3.82971130551031E-02 
2074	 3.82291188869317E-02 
2075	 0.03823761163452 
2076	 3.82992522932166E-02 
2077	 3.83359393837176E-02 
2078	 3.84247209471281E-02 
2079	 3.84624859758244E-02 
2080	 3.84472206130335E-02 
2081	 3.84462082616734E-02 
2082	 3.84283853796447E-02 
2083	 0.038419628790053 
2084	 3.84304336091678E-02 
2085	 3.84100392661279E-02 
2086	 0.038417387372204 
2087	 3.84351684093581E-02 
2088	 3.84480281175184E-02 
2089	 3.84588472508986E-02 
2090	 3.84979778490462E-02 
2091	 3.85462678929259E-02 
2092	 0.038605851839015 
2093	 3.87270107799279E-02 
2094	 3.87803070320578E-02 
2095	 3.88014188320507E-02 
2096	 3.88170200315191E-02 
2097	 3.88142708507483E-02 
2098	 3.87716897544279E-02 
2099	 3.87370499057036E-02 
2100	 3.87169575844188E-02 
2101	 3.87172043646423E-02 
2102	 3.87402484150392E-02 
2103	 0.03872659620024 
2104	 3.87027608520987E-02 
2105	 3.87078869882342E-02 
2106	 0.038700040985223 
2107	 3.86959807902275E-02 
2108	 3.87285463952845E-02 
2109	 3.87571899385053E-02 
2110	 3.87742065326554E-02 
2111	 3.87751933654226E-02 
2112	 3.87890690502364E-02 
2113	 3.87939513666118E-02 
2114	 0.038751113479673 
2115	 3.87394834026958E-02 
2116	 3.87596436169927E-02 
2117	 3.87731112418758E-02 
2118	 3.87820655351073E-02 
2119	 3.87848593719685E-02 
2120	 3.88301486300558E-02 
2121	 3.89129676964276E-02 
2122	 0.038930697672935 
2123	 3.89334058072896E-02 
2124	 3.89494074149276E-02 
2125	 3.89183345715725E-02 
2126	 3.89242506008452E-02 
2127	 3.90189010138253E-02 
2128	 3.90217659184431E-02 
2129	 3.89537961492118E-02 
2130	 3.89162657519674E-02 
2131	 3.88284580815005E-02 
2132	 3.87956035004473E-02 
2133	 3.88447256534554E-02 
2134	 3.88190028323987E-02 
2135	 3.88132870310714E-02 
2136	 0.038786939519761 
2137	 3.87718652096204E-02 
2138	 3.87430902864614E-02 
2139	 3.87148004828218E-02 
2140	 3.87219340937355E-02 
2141	 3.86556588372696E-02 
2142	 3.84786263196415E-02 
2143	 3.84436185848043E-02 
2144	 3.84523980805336E-02 
2145	 0.038454462207384 
2146	 3.85749133132161E-02 
2147	 3.85972403455718E-02 
2148	 0.038541285701232 
2149	 3.85066913930265E-02 
2150	 3.84560210994516E-02 
2151	 3.84091098134637E-02 
2152	 3.83682680748369E-02 
2153	 3.82957620053419E-02 
2154	 3.82980030374499E-02 
2155	 3.83025367128656E-02 
2156	 3.82417331151053E-02 
2157	 0.03815857470775 
2158	 3.81286829159109E-02 
2159	 3.80556823271784E-02 
2160	 3.80212151682743E-02 
2161	 3.80925828303745E-02 
2162	 3.80606488060593E-02 
2163	 3.79345504475095E-02 
2164	 3.78937582253695E-02 
2165	 3.79018579599843E-02 
2166	 3.78401063870798E-02 
2167	 0.037742333442505 
2168	 3.77003155669907E-02 
2169	 3.76173835951394E-02 
2170	 3.75863403036992E-02 
2171	 3.76744489886215E-02 
2172	 3.76971886430032E-02 
2173	 3.76897350848672E-02 
2174	 3.76940140709168E-02 
2175	 3.76428667411522E-02 
2176	 3.75722662926258E-02 
2177	 3.74949853028829E-02 
2178	 0.037355260043254 
2179	 3.73110225033245E-02 
2180	 3.73098492543544E-02 
2181	 3.72815060150861E-02 
2182	 3.72857588668451E-02 
2183	 3.72908436612139E-02 
2184	 3.73052543992498E-02 
2185	 3.72645763042531E-02 
2186	 3.72644168201588E-02 
2187	 3.71659462282127E-02 
2188	 0.036867894149991 
2189	 0.036771742509787 
2190	 0.036737132025188 
2191	 0.036700656726409 
2192	 3.67915327917741E-02 
2193	 3.68284714992242E-02 
2194	 3.68427254482056E-02 
2195	 3.68357814272527E-02 
2196	 3.68346441328335E-02 
2197	 3.68059771027776E-02 
2198	 3.67184334962491E-02 
2199	 3.66740334525945E-02 
2200	 3.66627211812926E-02 
2201	 3.66999447536551E-02 
2202	 3.66772429016845E-02 
2203	 3.66351207950242E-02 
2204	 3.66464325817224E-02 
2205	 3.66775805925517E-02 
2206	 3.66442656967269E-02 
2207	 3.66384351118951E-02 
2208	 3.66073036392452E-02 
2209	 3.64771944693347E-02 
2210	 3.64097155264902E-02 
2211	 3.63614193045903E-02 
2212	 3.63619765932707E-02 
2213	 3.63944625601341E-02 
2214	 3.64115812353696E-02 
2215	 3.65438451266797E-02 
2216	 3.65500265552362E-02 
2217	 3.64102908486638E-02 
2218	 3.63723687554098E-02 
2219	 3.63359251916322E-02 
2220	 3.62988101485158E-02 
2221	 3.63386570582911E-02 
2222	 3.63276547180033E-02 
2223	 3.62253107308885E-02 
2224	 3.62322041492669E-02 
2225	 3.63091763085768E-02 
2226	 3.62926047670182E-02 
2227	 0.036295263679596 
2228	 3.62924885854627E-02 
2229	 3.63277831408948E-02 
2230	 0.036375486813495 
2231	 0.036428783248744 
2232	 3.65477698533205E-02 
2233	 3.65776451988346E-02 
2234	 0.036543004153716 
2235	 3.65091453165599E-02 
2236	 3.64250241730258E-02 
2237	 3.64105666739086E-02 
2238	 3.64170769628908E-02 
2239	 3.64212446210636E-02 
2240	 3.64901958979586E-02 
2241	 3.64999016683925E-02 
2242	 0.036420454765888 
2243	 3.64303508600097E-02 
2244	 3.64828288731409E-02 
2245	 3.65175932626589E-02 
2246	 3.65911165736153E-02 
2247	 0.036660136688496 
2248	 3.67412184907325E-02 
2249	 3.67574062836605E-02 
2250	 3.66573372607304E-02 
2251	 3.67873350376757E-02 
2252	 3.67741327471626E-02 
2253	 3.67116466207692E-02 
2254	 3.67915818002119E-02 
2255	 3.67065008878916E-02 
2256	 3.65236859210698E-02 
2257	 3.64072499488967E-02 
2258	 3.63490915735532E-02 
2259	 3.62661688313424E-02 
2260	 3.62794740480488E-02 
2261	 3.64455585222312E-02 
2262	 0.036482670196475 
2263	 3.65399292470328E-02 
2264	 3.65179389052921E-02 
2265	 3.63608162050006E-02 
2266	 3.63732489859344E-02 
2267	 3.64151951754817E-02 
2268	 3.64440882902999E-02 
2269	 3.65904177352772E-02 
2270	 3.66346636785525E-02 
2271	 3.66263454967118E-02 
2272	 3.65889124731305E-02 
2273	 3.64916091679456E-02 
2274	 3.64504686360752E-02 
2275	 3.63336405260627E-02 
2276	 3.63323451352418E-02 
2277	 3.64653575636921E-02 
2278	 3.65234730113441E-02 
2279	 3.67087093518935E-02 
2280	 3.67184660654958E-02 
2281	 0.03648583987989 
2282	 3.64414534952911E-02 
2283	 3.64591230931866E-02 
2284	 3.63248600133978E-02 
2285	 3.64967381459834E-02 
2286	 3.66650754042342E-02 
2287	 3.65147818551344E-02 
2288	 3.64903321030462E-02 
2289	 3.65151504591314E-02 
2290	 3.64969017594668E-02 
2291	 3.66988353423257E-02 
2292	 3.68475563975002E-02 
2293	 0.036784554349073 
2294	 3.66489864778186E-02 
2295	 3.64823013330199E-02 
2296	 3.63876545925865E-02 
2297	 3.63715256573518E-02 
2298	 3.64511390558906E-02 
2299	 3.65009673866064E-02 
2300	 3.66140340105026E-02 
2301	 3.66762283794305E-02 
2302	 3.67235049949349E-02 
2303	 3.67722947119045E-02 
2304	 3.68491282259784E-02 
2305	 3.68144701235664E-02 
2306	 3.66901113629508E-02 
2307	 3.66574746125128E-02 
2308	 3.65587828213784E-02 
2309	 3.65576396495362E-02 
2310	 3.67101358912738E-02 
2311	 3.67299270750588E-02 
2312	 3.66971217491344E-02 
2313	 3.67203818715851E-02 
2314	 3.67116914308627E-02 
2315	 3.67142932504137E-02 
2316	 3.67601653508647E-02 
2317	 3.68033078993515E-02 
2318	 0.036809356154217 
2319	 3.68958980346709E-02 
2320	 3.70995264983412E-02 
2321	 3.71478945462091E-02 
2322	 0.037074248438836 
2323	 3.71531041293666E-02 
2324	 3.72927871126511E-02 
2325	 3.73581854956039E-02 
2326	 0.037540798893878 
2327	 3.76088809081934E-02 
2328	 3.75012485369579E-02 
2329	 3.74136819684765E-02 
2330	 3.73010446698982E-02 
2331	 3.72520095100737E-02 
2332	 3.70669306646318E-02 
2333	 3.68439294445859E-02 
2334	 3.67263851726282E-02 
2335	 0.03660636829254 
2336	 3.66854044004812E-02 
2337	 0.036846163166119 
2338	 3.70931650158428E-02 
2339	 3.72527654295673E-02 
2340	 3.71920227666201E-02 
2341	 3.72203096966591E-02 
2342	 3.71338045012536E-02 
2343	 0.037024653418225 
2344	 3.70734773114614E-02 
2345	 0.037040981053489 
2346	 3.68077880832537E-02 
2347	 3.66662513104842E-02 
2348	 3.67145154985845E-02 
2349	 3.67677772625433E-02 
2350	 3.69212128541308E-02 
2351	 0.037091239359256 
2352	 3.71462532800487E-02 
2353	 3.70069565246576E-02 
2354	 0.036826439356137 
2355	 3.67264445847693E-02 
2356	 3.66442434147841E-02 
2357	 0.036611258077493 
2358	 3.67136319080477E-02 
2359	 3.69101052913481E-02 
2360	 3.69943688255489E-02 
2361	 3.70568082958283E-02 
2362	 3.72167582104162E-02 
2363	 3.72507661892509E-02 
2364	 3.71282046956049E-02 
2365	 0.037111061188324 
2366	 3.71443268694111E-02 
2367	 0.037158344388167 
2368	 3.71752838889683E-02 
2369	 3.72619950185477E-02 
2370	 3.72344547272192E-02 
2371	 3.70814202351626E-02 
2372	 3.71238382230789E-02 
2373	 3.71018176206975E-02 
2374	 3.70874238574641E-02 
2375	 3.72898207062049E-02 
2376	 3.72710457218753E-02 
2377	 3.71092938813987E-02 
2378	 3.68942797886302E-02 
2379	 3.65509616996083E-02 
2380	 3.66080415920315E-02 
2381	 3.69340063591042E-02 
2382	 3.70250824846087E-02 
2383	 3.72770418833486E-02 
2384	 3.71628897241644E-02 
2385	 0.036512329034187 
2386	 3.64076091647563E-02 
2387	 3.65039276754452E-02 
2388	 3.65280102675668E-02 
2389	 3.68393451525004E-02 
2390	 3.68882664534293E-02 
2391	 0.036565714955455 
2392	 3.66780003210319E-02 
2393	 3.70421408884514E-02 
2394	 3.71759795526014E-02 
2395	 3.74834085984035E-02 
2396	 3.75597058554561E-02 
2397	 3.73294729701435E-02 
2398	 3.73578107850387E-02 
2399	 3.74170929798868E-02 
2400	 3.74009528198189E-02 
2401	 3.74677647226922E-02 
2402	 3.68896270908586E-02 
2403	 3.67165602920103E-02 
2404	 3.65259395013341E-02 
2405	 3.66537447053162E-02 
2406	 3.72291037186048E-02 
2407	 3.76565445102705E-02 
2408	 3.76882573843742E-02 
2409	 3.71272291993906E-02 
2410	 3.64756150788125E-02 
2411	 3.60810440737912E-02 
2412	 0.036113820463294 
2413	 0.036757583678257 
2414	 3.76265566758988E-02 
2415	 3.82057738754025E-02 
2416	 3.81262919042629E-02 
2417	 3.76324221927772E-02 
2418	 3.71660459741384E-02 
2419	 3.66902832851793E-02 
2420	 3.64224033760495E-02 
2421	 3.66440765150109E-02 
2422	 3.66173059668361E-02 
2423	 3.63771476653829E-02 
2424	 3.67088865790838E-02 
2425	 3.70315850861511E-02 
2426	 3.71258476503904E-02 
2427	 3.71907308782514E-02 
2428	 3.71951584083316E-02 
2429	 3.72601200159394E-02 
2430	 3.72883696364371E-02 
2431	 3.73128141571778E-02 
2432	 3.74617240836448E-02 
2433	 3.74487597524222E-02 
2434	 3.71651524305102E-02 
2435	 3.71668947021344E-02 
2436	 3.66235101793239E-02 
2437	 3.60893885698767E-02 
2438	 3.62765063736362E-02 
2439	 3.63644807549925E-02 
2440	 3.70066106975246E-02 
2441	 3.71228852098312E-02 
2442	 3.65084768717867E-02 
2443	 3.63099132705935E-02 
2444	 3.58704174744475E-02 
2445	 3.53492776487181E-02 
2446	 3.56105770850366E-02 
2447	 3.56291904102333E-02 
2448	 3.55724356244592E-02 
2449	 3.62475860160252E-02 
2450	 3.60536051514426E-02 
2451	 3.59707308502658E-02 
2452	 3.61120077764096E-02 
2453	 3.59164484639281E-02 
2454	 3.60856720865184E-02 
2455	 0.035925301566662 
2456	 3.62347873999237E-02 
2457	 3.63325724959213E-02 
2458	 3.65871782460523E-02 
2459	 3.72128867648055E-02 
2460	 3.61373456436216E-02 
2461	 3.58322332445905E-02 
2462	 3.59182574277282E-02 
2463	 0.034976176550034 
2464	 3.53934832335433E-02 
2465	 3.52398288569298E-02 
2466	 3.38138185527611E-02 
2467	 3.35332469827333E-02 
2468	 3.37961933120166E-02 
2469	 3.38446293460982E-02 
2470	 3.44401760275736E-02 
2471	 3.51542584676836E-02 
2472	 3.52312663545544E-02 
2473	 3.52074811147567E-02 
2474	 3.57697908594369E-02 
2475	 3.62114878279973E-02 
2476	 0.036162342186217 
2477	 3.66781833784191E-02 
2478	 3.66126525565751E-02 
2479	 3.60057393118543E-02 
2480	 3.66700743164818E-02 
2481	 3.63188389678821E-02 
2482	 3.54754569700654E-02 
2483	 3.51786896193514E-02 
2484	 3.43329257967957E-02 
2485	 3.35530935214353E-02 
2486	 3.39989576754362E-02 
2487	 3.45337770734936E-02 
2488	 3.51824354058978E-02 
2489	 3.69154691060732E-02 
2490	 3.71552231002287E-02 
2491	 3.70094723410891E-02 
2492	 3.68045072320322E-02 
2493	 0.035153174299381 
2494	 0.03488639476649 
2495	 3.56729950980005E-02 
2496	 3.58877640948345E-02 
2497	 0.036807985812535 
2498	 3.79260191194285E-02 
2499	 3.68909832854647E-02 
2500	 3.65463422422594E-02 
