Wavelength	Tablay400073.asd
350	 0.239282102427898 
351	 0.258458993787211 
352	 0.226145546300416 
353	 0.172788207888082 
354	 0.149296431803132 
355	 0.153131002578904 
356	 0.112663601772027 
357	 2.44178563254371E-02 
358	 0.142870042308801 
359	 0.184613062619315 
360	 0.147056679811905 
361	 0.172878192393424 
362	 0.172973200056624 
363	 0.167077410492326 
364	 0.160124489266829 
365	 0.121108577480256 
366	 9.43237476861095E-02 
367	 8.45046096451147E-02 
368	 9.70318804332102E-02 
369	 0.180986169965857 
370	 0.153073808223027 
371	 7.91086168474671E-02 
372	 0.13988285643457 
373	 9.53262850398894E-02 
374	 6.79395805939192E-02 
375	 0.111464697800482 
376	 0.126841149118113 
377	 0.110845687593797 
378	 9.47184670665984E-02 
379	 0.100305840991654 
380	 0.094014880004783 
381	 0.121992126909233 
382	 0.140077129569657 
383	 0.080714404312319 
384	 8.37145151886962E-02 
385	 8.85643382020434E-02 
386	 6.46677672297176E-02 
387	 6.27523978869976E-02 
388	 8.59254974929593E-02 
389	 9.72451379383677E-02 
390	 7.44670549794803E-02 
391	 7.68360259913927E-02 
392	 7.49787604038713E-02 
393	 6.51475506053739E-02 
394	 6.10484993111668E-02 
395	 6.32621236878972E-02 
396	 5.83184257425121E-02 
397	 4.74760933942524E-02 
398	 0.057539982471723 
399	 7.78030178978558E-02 
400	 8.43835879231484E-02 
401	 6.57739800327199E-02 
402	 6.05709272083827E-02 
403	 7.48223330491566E-02 
404	 0.090470459702411 
405	 0.076506760613309 
406	 6.95070891249099E-02 
407	 7.05088522095489E-02 
408	 7.29577943029427E-02 
409	 6.53467508891884E-02 
410	 5.85664401492723E-02 
411	 5.27762892152042E-02 
412	 4.63986743497034E-02 
413	 4.56326586586855E-02 
414	 4.57535665644507E-02 
415	 4.66284880919465E-02 
416	 5.20400010540227E-02 
417	 5.20030180839821E-02 
418	 5.47841369166843E-02 
419	 6.20267500636601E-02 
420	 5.31609252836129E-02 
421	 4.08438022607986E-02 
422	 3.70056752212577E-02 
423	 4.83228432276654E-02 
424	 5.32441649645449E-02 
425	 5.15834821287189E-02 
426	 4.61036774014809E-02 
427	 4.05982252226658E-02 
428	 4.26795409934449E-02 
429	 0.046284512476087 
430	 4.55092995997598E-02 
431	 4.37520333825376E-02 
432	 0.040836192836047 
433	 3.95362560332043E-02 
434	 4.29103249289416E-02 
435	 4.25749622813424E-02 
436	 4.31054304325929E-02 
437	 4.59581396972312E-02 
438	 4.61073040100847E-02 
439	 4.33492560088287E-02 
440	 0.041690620745058 
441	 4.36976506782509E-02 
442	 4.09045040365455E-02 
443	 3.93521182246069E-02 
444	 3.93336663489942E-02 
445	 3.68185704764438E-02 
446	 3.63884220496718E-02 
447	 3.71019617711847E-02 
448	 3.81789485620685E-02 
449	 4.15530727573493E-02 
450	 4.15985082388577E-02 
451	 0.03874430466317 
452	 3.61710107973505E-02 
453	 3.77237883104108E-02 
454	 3.93808971666064E-02 
455	 3.95631399688377E-02 
456	 3.98650665797999E-02 
457	 3.94509689934478E-02 
458	 3.95440673996372E-02 
459	 3.99383341168522E-02 
460	 0.034329595786902 
461	 3.41383282926683E-02 
462	 3.77110510240693E-02 
463	 3.72708974306885E-02 
464	 3.88493122023289E-02 
465	 3.82725014236073E-02 
466	 3.54860321632534E-02 
467	 3.80462799774092E-02 
468	 3.97558447143856E-02 
469	 0.038771689431345 
470	 3.58155307903811E-02 
471	 3.62243420231688E-02 
472	 3.69370692184373E-02 
473	 3.67668096685319E-02 
474	 3.62362524750111E-02 
475	 3.59957362037685E-02 
476	 3.56287832930999E-02 
477	 3.54474219694099E-02 
478	 3.82844707732759E-02 
479	 3.72661881157869E-02 
480	 3.49612805951044E-02 
481	 0.036226909845032 
482	 3.58472878251048E-02 
483	 3.53376955506102E-02 
484	 3.54578806137811E-02 
485	 3.56308391215007E-02 
486	 3.60983938719896E-02 
487	 3.51667548201705E-02 
488	 3.26312865245755E-02 
489	 0.033888601457155 
490	 3.46972461114449E-02 
491	 3.42972920744165E-02 
492	 0.033975308538896 
493	 3.37620925714627E-02 
494	 3.40831935102866E-02 
495	 3.48179938725868E-02 
496	 3.49703410578805E-02 
497	 3.49130663963493E-02 
498	 3.49647157704498E-02 
499	 3.52245756439795E-02 
500	 0.034783928924449 
501	 3.47683566580891E-02 
502	 3.50745692494041E-02 
503	 3.45601783221041E-02 
504	 3.38665139370982E-02 
505	 3.34644523036385E-02 
506	 3.35908512409846E-02 
507	 3.42301930539453E-02 
508	 3.35440891752968E-02 
509	 3.27506026968776E-02 
510	 3.38086188245946E-02 
511	 3.37418798818072E-02 
512	 3.32883902250052E-02 
513	 3.31296719005466E-02 
514	 3.34690939443379E-02 
515	 3.33194220830437E-02 
516	 3.32338581373624E-02 
517	 3.36191941178594E-02 
518	 3.29154829921172E-02 
519	 3.24929766731327E-02 
520	 3.26990819614612E-02 
521	 0.033078693732042 
522	 3.27616106377477E-02 
523	 0.032738985439425 
524	 3.32997925908223E-02 
525	 3.28171756693332E-02 
526	 3.26816586171442E-02 
527	 3.27908288278385E-02 
528	 3.26907532891066E-02 
529	 3.30798092019049E-02 
530	 3.27920195683593E-02 
531	 3.21311768080043E-02 
532	 3.29436846962595E-02 
533	 3.28977464752202E-02 
534	 3.25955329171402E-02 
535	 0.032810077313099 
536	 3.29943666579834E-02 
537	 3.29049048715648E-02 
538	 3.26635897111604E-02 
539	 3.25680235991105E-02 
540	 3.24143603945616E-02 
541	 0.03232199844047 
542	 0.032382729406006 
543	 3.26086893304311E-02 
544	 0.032765566403566 
545	 3.28740111116116E-02 
546	 3.29481864785054E-02 
547	 3.25364001244576E-02 
548	 3.23644644494327E-02 
549	 3.24704461495353E-02 
550	 3.22837052718943E-02 
551	 3.22584322755077E-02 
552	 3.23167587902694E-02 
553	 3.23721816718012E-02 
554	 3.26044743355833E-02 
555	 3.24690804032307E-02 
556	 0.032359038988656 
557	 3.28943930329562E-02 
558	 3.28038554934254E-02 
559	 3.25056255999852E-02 
560	 3.24757487475925E-02 
561	 3.30526702255803E-02 
562	 3.30438074149277E-02 
563	 3.29375108766944E-02 
564	 3.33087411209538E-02 
565	 3.31671401368498E-02 
566	 3.32325318769359E-02 
567	 3.34394532078962E-02 
568	 3.32199823182818E-02 
569	 3.37665692139038E-02 
570	 0.034104134041515 
571	 3.37526626824357E-02 
572	 3.39462231465038E-02 
573	 3.39781292691345E-02 
574	 3.41137599246856E-02 
575	 3.47703476522701E-02 
576	 3.51646233992051E-02 
577	 3.54234411156308E-02 
578	 3.57073783514181E-02 
579	 3.61373913464522E-02 
580	 3.65085962075498E-02 
581	 3.69427333316941E-02 
582	 3.74958274752655E-02 
583	 3.77453773769283E-02 
584	 3.82770111096715E-02 
585	 3.90176759966571E-02 
586	 3.95583737486312E-02 
587	 4.03138878867466E-02 
588	 4.11150002426193E-02 
589	 4.18039834354918E-02 
590	 4.23271540184535E-02 
591	 4.31261275110889E-02 
592	 4.42507813473377E-02 
593	 4.55082237599609E-02 
594	 4.62594128372509E-02 
595	 4.72830470887939E-02 
596	 4.86308354751316E-02 
597	 4.97185133461166E-02 
598	 5.09457064608111E-02 
599	 5.23494599504863E-02 
600	 5.39393511042366E-02 
601	 5.58084973359431E-02 
602	 5.77765050925038E-02 
603	 5.98396110008966E-02 
604	 6.20710479142934E-02 
605	 6.45159842128196E-02 
606	 0.067123307788701 
607	 6.98909658856288E-02 
608	 7.28766024069203E-02 
609	 7.62101476225539E-02 
610	 0.079811346148522 
611	 8.36406973238999E-02 
612	 8.79331212510414E-02 
613	 9.25540437048126E-02 
614	 9.73981011988103E-02 
615	 0.102403162407436 
616	 0.107548294389529 
617	 0.112910137634773 
618	 0.118572369733036 
619	 0.124617766341797 
620	 0.130911015713248 
621	 0.137172118595606 
622	 0.143258069647378 
623	 0.149863873590193 
624	 0.15647574408455 
625	 0.162895956071669 
626	 0.169278848244623 
627	 0.175862937008312 
628	 0.182259289042452 
629	 0.188278412783159 
630	 0.194526573335969 
631	 0.200595239240074 
632	 0.206353123148412 
633	 0.211804967030127 
634	 0.217133632880434 
635	 0.222303522259843 
636	 0.227187646646782 
637	 0.231556321344139 
638	 0.236005134514216 
639	 0.2403122451435 
640	 0.244197638819443 
641	 0.247914397688172 
642	 0.251242944511214 
643	 0.254351643884083 
644	 0.257580431838255 
645	 0.260388685256005 
646	 0.263040621717844 
647	 0.265642946825805 
648	 0.267887483704876 
649	 0.270109986076001 
650	 0.272136817593314 
651	 0.273808823526992 
652	 0.275682170101802 
653	 0.277555791106932 
654	 0.279252611639922 
655	 0.280658725869105 
656	 0.281956850602061 
657	 0.283293717346589 
658	 0.284687782534725 
659	 0.285934612121429 
660	 0.286914884520925 
661	 0.287804117050529 
662	 0.288846224568173 
663	 0.289945813040046 
664	 0.29099064075147 
665	 0.291837471686099 
666	 0.292348263935206 
667	 0.293141625434515 
668	 0.293942697538288 
669	 0.29452191413263 
670	 0.295246994811762 
671	 0.295959182440358 
672	 0.296615233395984 
673	 0.297214290764648 
674	 0.297664274516516 
675	 0.298225996322502 
676	 0.298902219158341 
677	 0.299363592463849 
678	 0.299700029402201 
679	 0.300084022981495 
680	 0.300597453009686 
681	 0.300985537080232 
682	 0.301349341842654 
683	 0.301815738566207 
684	 0.30246244705769 
685	 0.302874289369401 
686	 0.303163228311564 
687	 0.303458935164052 
688	 0.303828501613063 
689	 0.304306574390214 
690	 0.304657056955131 
691	 0.304758078379765 
692	 0.305117062285207 
693	 0.305447672675632 
694	 0.305749303206983 
695	 0.306176646883757 
696	 0.306530398298949 
697	 0.306781037937817 
698	 0.306987614684264 
699	 0.307310191167506 
700	 0.307613868213689 
701	 0.307865479047017 
702	 0.308086240150274 
703	 0.308388403116503 
704	 0.308639017507444 
705	 0.308840840813395 
706	 0.309089673870246 
707	 0.309398451264956 
708	 0.309576388432452 
709	 0.309620554374521 
710	 0.309871291796972 
711	 0.310284455051432 
712	 0.310560736698448 
713	 0.310535809475318 
714	 0.310905481761468 
715	 0.311177249213869 
716	 0.311303362319612 
717	 0.311560560397776 
718	 0.311874387277039 
719	 0.312157562172063 
720	 0.31235159253121 
721	 0.312446170454968 
722	 0.312591340335421 
723	 0.312774994667089 
724	 0.312957749147686 
725	 0.313219465253235 
726	 0.313491983622745 
727	 0.313735700855994 
728	 0.313942552986457 
729	 0.314172349819153 
730	 0.314392814471443 
731	 0.31459016859847 
732	 0.314801315767241 
733	 0.31499530982176 
734	 0.315158782004717 
735	 0.315317345614914 
736	 0.31563214041705 
737	 0.315830198056146 
738	 0.31595799407071 
739	 0.316239380530187 
740	 0.316393822840421 
741	 0.316553217579745 
742	 0.316803728370119 
743	 0.317091862341765 
744	 0.317325793238166 
745	 0.317499535185874 
746	 0.317656682899331 
747	 0.317905903277949 
748	 0.318142634306605 
749	 0.318403322154566 
750	 0.318772428568978 
751	 0.319040115737178 
752	 0.319246433907542 
753	 0.319450829608835 
754	 0.319699619929131 
755	 0.319978919297233 
756	 0.320265819863406 
757	 0.320555398413038 
758	 0.320920024626905 
759	 0.321127486718093 
760	 0.321284105871897 
761	 0.321618825176334 
762	 0.322018517828703 
763	 0.322367194391953 
764	 0.322646930866162 
765	 0.322946193163143 
766	 0.323307304824013 
767	 0.323646938974504 
768	 0.323915466907724 
769	 0.324185979465588 
770	 0.324563325856949 
771	 0.324971944814085 
772	 0.325281922464564 
773	 0.325464715681336 
774	 0.325772390635928 
775	 0.326170997839661 
776	 0.326414532693775 
777	 0.326759891665936 
778	 0.327138773352399 
779	 0.327476812406654 
780	 0.327765205654624 
781	 0.328133516778289 
782	 0.328536976933414 
783	 0.328888059039274 
784	 0.329144508796919 
785	 0.329411025028455 
786	 0.329729177789096 
787	 0.330092508737848 
788	 0.330472752700565 
789	 0.330795302420076 
790	 0.331077521703744 
791	 0.331440003491662 
792	 0.331732780116716 
793	 0.332071884579846 
794	 0.332508881047937 
795	 0.332804828953112 
796	 0.333125753713917 
797	 0.333493040546227 
798	 0.333855161923283 
799	 0.334089156578038 
800	 0.334279980019285 
801	 0.334517022797734 
802	 0.334875390254996 
803	 0.335372616716401 
804	 0.335720177804025 
805	 0.335903550209284 
806	 0.336362004995731 
807	 0.336646734932159 
808	 0.336883722476008 
809	 0.337225956819419 
810	 0.337461897427854 
811	 0.337752318361757 
812	 0.338083368967543 
813	 0.338371256659184 
814	 0.338619408953121 
815	 0.338855167012086 
816	 0.339087662986283 
817	 0.339313593887455 
818	 0.33963155329443 
819	 0.339896739317513 
820	 0.340074319193187 
821	 0.340365418391036 
822	 0.34062451972019 
823	 0.340800135728061 
824	 0.340928899080562 
825	 0.341244135358103 
826	 0.341461068478469 
827	 0.341602118587051 
828	 0.341813001652808 
829	 0.342033725569131 
830	 0.34226387772637 
831	 0.342511034525627 
832	 0.342763815086407 
833	 0.342715338233127 
834	 0.34272929284871 
835	 0.342998739973462 
836	 0.343302877408236 
837	 0.343495574075221 
838	 0.343570286240693 
839	 0.34360438003175 
840	 0.343765552064908 
841	 0.343951346570788 
842	 0.344122266527765 
843	 0.344253748623963 
844	 0.344261704458235 
845	 0.344340550426323 
846	 0.344503805001582 
847	 0.344631189962775 
848	 0.344767968823424 
849	 0.344932676130958 
850	 0.345088030793313 
851	 0.345138971550294 
852	 0.345191490879886 
853	 0.3452504081454 
854	 0.345331104560056 
855	 0.345518022716178 
856	 0.345712243875128 
857	 0.345861858316979 
858	 0.345940626503155 
859	 0.345946233037256 
860	 0.34594224336126 
861	 0.346021298901342 
862	 0.346234570823055 
863	 0.346374051229767 
864	 0.34628728737972 
865	 0.346167809176386 
866	 0.346409322056713 
867	 0.346354242682804 
868	 0.34630665784721 
869	 0.346454427958235 
870	 0.346638247030311 
871	 0.34659844665094 
872	 0.346567702572337 
873	 0.346672420572283 
874	 0.346531147927025 
875	 0.346748639581761 
876	 0.346945019734523 
877	 0.346715356295658 
878	 0.346707450192857 
879	 0.346702761603206 
880	 0.346664561204663 
881	 0.346648774789848 
882	 0.346703719277884 
883	 0.346805485789168 
884	 0.346872864142639 
885	 0.346811767116973 
886	 0.346739576816401 
887	 0.346691762784244 
888	 0.346677381522807 
889	 0.346682235255423 
890	 0.346647667354869 
891	 0.346569765092283 
892	 0.346557789196011 
893	 0.346879156512567 
894	 0.347030194128303 
895	 0.346911126246784 
896	 0.346671051104518 
897	 0.346794678519372 
898	 0.346746822960088 
899	 0.346634042683544 
900	 0.346677143693563 
901	 0.34663704536235 
902	 0.34669166954795 
903	 0.346837607870111 
904	 0.34696329551769 
905	 0.346938486095276 
906	 0.346953080628027 
907	 0.346984281475978 
908	 0.346895709259618 
909	 0.347014858288358 
910	 0.347155689178848 
911	 0.347150531193373 
912	 0.346963924903386 
913	 0.347182334164422 
914	 0.347334705934043 
915	 0.347261324721803 
916	 0.347423553202153 
917	 0.347455293100595 
918	 0.347466865442166 
919	 0.347533695820589 
920	 0.347491945292845 
921	 0.347648248280444 
922	 0.34772914866969 
923	 0.347595374338579 
924	 0.347824982024917 
925	 0.348068133602608 
926	 0.348148086328097 
927	 0.348090735150418 
928	 0.348409130934878 
929	 0.348456472162695 
930	 0.348398580669926 
931	 0.348598862479437 
932	 0.348658113649438 
933	 0.348770668856618 
934	 0.348858996671079 
935	 0.348790586690438 
936	 0.348990502871734 
937	 0.349205166468381 
938	 0.349296908239159 
939	 0.349307450439265 
940	 0.349690088980343 
941	 0.349845011737692 
942	 0.349766821143249 
943	 0.349957086088272 
944	 0.349934154731112 
945	 0.350033240628839 
946	 0.350243460315082 
947	 0.350171117782084 
948	 0.350382882745828 
949	 0.350568652181627 
950	 0.350587888913055 
951	 0.350670170920783 
952	 0.350855831235583 
953	 0.350941965221096 
954	 0.350944858325471 
955	 0.351232538286883 
956	 0.351319851860725 
957	 0.351246737532375 
958	 0.351250062123278 
959	 0.351668011434645 
960	 0.351852197506402 
961	 0.351888399632307 
962	 0.35194294337028 
963	 0.351967153765773 
964	 0.35215646275654 
965	 0.35230365849123 
966	 0.352265667547892 
967	 0.352274402023309 
968	 0.352510611479034 
969	 0.352689603158334 
970	 0.352629735216912 
971	 0.352758216604925 
972	 0.352872580960358 
973	 0.3529152482233 
974	 0.352943023440735 
975	 0.353208901294367 
976	 0.353398557253576 
977	 0.353558569827348 
978	 0.353716338153161 
979	 0.353450930880482 
980	 0.353414937621929 
981	 0.353271201133637 
982	 0.352862960058689 
983	 0.353746795954838 
984	 0.354053333983061 
985	 0.353942875869919 
986	 0.354103137535272 
987	 0.35436794193338 
988	 0.354401222935437 
989	 0.354388561580881 
990	 0.354552185850248 
991	 0.354527583653781 
992	 0.354560254667813 
993	 0.354609823491443 
994	 0.354629075273088 
995	 0.354903742973716 
996	 0.355245164763447 
997	 0.355453936445086 
998	 0.355368833486917 
999	 0.354855226258241 
1000	 0.355145035547765 
1001	 0.356943964547984 
1002	 0.356568537600652 
1003	 0.356413917945336 
1004	 0.356419575987444 
1005	 0.356531179919027 
1006	 0.356626171316419 
1007	 0.356906610275208 
1008	 0.357064332759796 
1009	 0.357182281055014 
1010	 0.357276446330689 
1011	 0.357361380744546 
1012	 0.357388266323748 
1013	 0.357377495905213 
1014	 0.357325246722356 
1015	 0.357134683691786 
1016	 0.357076737365805 
1017	 0.357281045893203 
1018	 0.357492409956037 
1019	 0.357801658430603 
1020	 0.358178732303371 
1021	 0.358297848008448 
1022	 0.358102599101388 
1023	 0.358146053635816 
1024	 0.358249031395725 
1025	 0.35825726698167 
1026	 0.358174497249816 
1027	 0.358252897151091 
1028	 0.358375511753423 
1029	 0.358439682527375 
1030	 0.358661854180615 
1031	 0.358895160923808 
1032	 0.358825703620886 
1033	 0.358970765445964 
1034	 0.359206578119639 
1035	 0.359347385642031 
1036	 0.359404330220194 
1037	 0.359342953447046 
1038	 0.359370671356898 
1039	 0.359385710237312 
1040	 0.35944617002056 
1041	 0.359620341729057 
1042	 0.359759263651366 
1043	 0.359891932492326 
1044	 0.359886621379346 
1045	 0.35992887164513 
1046	 0.360150837400795 
1047	 0.36028666495261 
1048	 0.360229614155601 
1049	 0.360284612987587 
1050	 0.360300174612336 
1051	 0.360270669076814 
1052	 0.36029934051807 
1053	 0.360276243267417 
1054	 0.360147812392906 
1055	 0.360149087955681 
1056	 0.360170718796412 
1057	 0.360237713898072 
1058	 0.360386201825388 
1059	 0.360652132323454 
1060	 0.360613754774751 
1061	 0.36042551624148 
1062	 0.360491026516383 
1063	 0.360339044698166 
1064	 0.360253914374294 
1065	 0.360425529689934 
1066	 0.360292677555965 
1067	 0.360207073629512 
1068	 0.36025642416431 
1069	 0.360258672987329 
1070	 0.360316964661771 
1071	 0.360465260084141 
1072	 0.360561527455113 
1073	 0.360601547439095 
1074	 0.360633838311564 
1075	 0.360509994227317 
1076	 0.360272011766096 
1077	 0.36019395288582 
1078	 0.360189377969528 
1079	 0.36029908371684 
1080	 0.360578541989437 
1081	 0.36069554239359 
1082	 0.360751145201919 
1083	 0.360848324183173 
1084	 0.360882089803303 
1085	 0.36088961561533 
1086	 0.360887534454366 
1087	 0.360842990687654 
1088	 0.360901250726553 
1089	 0.360948906207476 
1090	 0.360939351511728 
1091	 0.361101301031851 
1092	 0.361169252034147 
1093	 0.361203015505256 
1094	 0.361325250049317 
1095	 0.361403858026336 
1096	 0.361485708251781 
1097	 0.361503972160239 
1098	 0.361520845671998 
1099	 0.361626220142373 
1100	 0.361712928785641 
1101	 0.361848590674373 
1102	 0.362047994361043 
1103	 0.362165696791411 
1104	 0.362229261456603 
1105	 0.36228212949873 
1106	 0.362318070732838 
1107	 0.362376605100323 
1108	 0.362541885323453 
1109	 0.362704060275975 
1110	 0.362875778652806 
1111	 0.363035420492188 
1112	 0.363219112476016 
1113	 0.363410803765923 
1114	 0.363555556358767 
1115	 0.363712679976261 
1116	 0.363812890274205 
1117	 0.363895209457918 
1118	 0.364058805684011 
1119	 0.364354556049558 
1120	 0.364534568507178 
1121	 0.36471862983125 
1122	 0.364809368774468 
1123	 0.364903650174217 
1124	 0.365049125470515 
1125	 0.365216095988162 
1126	 0.36541142061285 
1127	 0.365617777364728 
1128	 0.365708108140953 
1129	 0.365829249314624 
1130	 0.366074128436462 
1131	 0.366262478600558 
1132	 0.366414772404611 
1133	 0.366548290052387 
1134	 0.366659500309757 
1135	 0.366792207399598 
1136	 0.366946459450508 
1137	 0.367085651543967 
1138	 0.367225382283113 
1139	 0.367347287671 
1140	 0.367441935869675 
1141	 0.367565547825717 
1142	 0.36771823151361 
1143	 0.367873275467782 
1144	 0.367999292919376 
1145	 0.368062988805334 
1146	 0.368122317822351 
1147	 0.368192506958725 
1148	 0.368265293946898 
1149	 0.368351814697354 
1150	 0.368404436569068 
1151	 0.36847802299384 
1152	 0.36852755113773 
1153	 0.368603695760404 
1154	 0.368606148510671 
1155	 0.36850262697641 
1156	 0.368466174787829 
1157	 0.368414678522852 
1158	 0.368433879147193 
1159	 0.368521556222512 
1160	 0.368651102067528 
1161	 0.368648406057339 
1162	 0.368570941094555 
1163	 0.368534544394066 
1164	 0.368443336356429 
1165	 0.368421504872056 
1166	 0.368435202613741 
1167	 0.368343045746425 
1168	 0.368279373741258 
1169	 0.368214975361461 
1170	 0.368116376678046 
1171	 0.368078380658322 
1172	 0.368105759740105 
1173	 0.368091921387376 
1174	 0.368132978175654 
1175	 0.368092010501506 
1176	 0.367956871246197 
1177	 0.367850874613092 
1178	 0.367678329553015 
1179	 0.367640881849998 
1180	 0.367567527013805 
1181	 0.367421425640937 
1182	 0.367383937378361 
1183	 0.367341593426096 
1184	 0.367263413447752 
1185	 0.367224138905864 
1186	 0.367143638085138 
1187	 0.366956460058809 
1188	 0.366898744455125 
1189	 0.366912437667974 
1190	 0.366896608309922 
1191	 0.366883429315711 
1192	 0.366928729834989 
1193	 0.367007727317458 
1194	 0.367089445869345 
1195	 0.367269122345449 
1196	 0.367373492900348 
1197	 0.367456549299531 
1198	 0.367448505972592 
1199	 0.367493242031924 
1200	 0.367511454816834 
1201	 0.367604747509967 
1202	 0.367770373729644 
1203	 0.367885534842097 
1204	 0.368084701351966 
1205	 0.368294442677441 
1206	 0.368477381846435 
1207	 0.368756381692697 
1208	 0.369105224913848 
1209	 0.36948460156375 
1210	 0.369922651494452 
1211	 0.370376136089735 
1212	 0.370888104785789 
1213	 0.371405920734187 
1214	 0.37189312818636 
1215	 0.372475782093698 
1216	 0.373099880837825 
1217	 0.373778437808107 
1218	 0.374571538113491 
1219	 0.375372301579614 
1220	 0.376046596064698 
1221	 0.37679451095864 
1222	 0.377500883294162 
1223	 0.378191178631638 
1224	 0.378973571584675 
1225	 0.379904819198572 
1226	 0.380646964837557 
1227	 0.381361996652318 
1228	 0.382039993726418 
1229	 0.382593517742869 
1230	 0.383223615035825 
1231	 0.383895584844118 
1232	 0.384504752460032 
1233	 0.385095621786239 
1234	 0.385669935434373 
1235	 0.386191949339901 
1236	 0.386733250258738 
1237	 0.387318134252187 
1238	 0.387837655368043 
1239	 0.388278102733883 
1240	 0.388789102656032 
1241	 0.389333773239446 
1242	 0.389689061115259 
1243	 0.390124438222813 
1244	 0.390562726240117 
1245	 0.391037761206117 
1246	 0.391526542483381 
1247	 0.391985952966007 
1248	 0.392480617828923 
1249	 0.392932814246055 
1250	 0.393312460444486 
1251	 0.39374349430379 
1252	 0.394208227405387 
1253	 0.394644931860459 
1254	 0.395061534485942 
1255	 0.395506118194376 
1256	 0.39596553759675 
1257	 0.396417978615511 
1258	 0.396870497451472 
1259	 0.397337475082031 
1260	 0.397868052711754 
1261	 0.39829951286833 
1262	 0.398651274968579 
1263	 0.399061889075449 
1264	 0.399450611612453 
1265	 0.399745158063868 
1266	 0.400154620031847 
1267	 0.400704090495045 
1268	 0.40106404932183 
1269	 0.401355162437238 
1270	 0.401666441580158 
1271	 0.401863875373791 
1272	 0.402165090285927 
1273	 0.402556164523926 
1274	 0.40288771053778 
1275	 0.403231872011243 
1276	 0.403529101413549 
1277	 0.403786184202152 
1278	 0.404039352529603 
1279	 0.404253123156368 
1280	 0.404487004429009 
1281	 0.404726007457027 
1282	 0.40495932433091 
1283	 0.405188917674859 
1284	 0.405422690787336 
1285	 0.405656221154976 
1286	 0.40589764370696 
1287	 0.406096934344837 
1288	 0.406271770968574 
1289	 0.406482059696416 
1290	 0.406676206481037 
1291	 0.406880886856251 
1292	 0.40712823543631 
1293	 0.407335065627942 
1294	 0.407524555981488 
1295	 0.407690482680734 
1296	 0.407835695001796 
1297	 0.407987349756408 
1298	 0.408097428546232 
1299	 0.408244957618558 
1300	 0.408369887688688 
1301	 0.408584223394456 
1302	 0.408898728177535 
1303	 0.409144235909645 
1304	 0.409445972255449 
1305	 0.40969016036962 
1306	 0.409818246196112 
1307	 0.410007082904484 
1308	 0.410209750393979 
1309	 0.41045162596296 
1310	 0.41061649210311 
1311	 0.410745760154149 
1312	 0.410959304004797 
1313	 0.411150711762709 
1314	 0.411389035831751 
1315	 0.411736407296392 
1316	 0.411995633636046 
1317	 0.412221997231837 
1318	 0.412433947785659 
1319	 0.412599770010723 
1320	 0.412832724682719 
1321	 0.413073581713787 
1322	 0.413315191696714 
1323	 0.413649717142418 
1324	 0.413874318612804 
1325	 0.41400133638277 
1326	 0.414186145283342 
1327	 0.414330537096914 
1328	 0.414522543121944 
1329	 0.414802138803732 
1330	 0.415016865866584 
1331	 0.415183667439944 
1332	 0.415392675105157 
1333	 0.415606919658074 
1334	 0.41580342108826 
1335	 0.416018479820981 
1336	 0.416295542249945 
1337	 0.416466654061356 
1338	 0.416575229355646 
1339	 0.416725059241608 
1340	 0.416859603266574 
1341	 0.416979924429583 
1342	 0.417133292965191 
1343	 0.417214457864191 
1344	 0.417222883976802 
1345	 0.417273339106543 
1346	 0.417292164235039 
1347	 0.417359662788903 
1348	 0.417512914781474 
1349	 0.417550686587134 
1350	 0.417555976726422 
1351	 0.417552357670197 
1352	 0.417452063615667 
1353	 0.417408297026515 
1354	 0.417387110412861 
1355	 0.417378043098112 
1356	 0.417404158725956 
1357	 0.417399073963582 
1358	 0.417395962231627 
1359	 0.417389175980746 
1360	 0.41740040422909 
1361	 0.417319400177657 
1362	 0.417277128442406 
1363	 0.417279886850229 
1364	 0.417217694215815 
1365	 0.41712447919901 
1366	 0.417049047225023 
1367	 0.416973641648074 
1368	 0.416842074893686 
1369	 0.416713891893057 
1370	 0.416530395656755 
1371	 0.416264939717514 
1372	 0.41604018775144 
1373	 0.415777071256665 
1374	 0.415586811129221 
1375	 0.415486322314689 
1376	 0.415263230136934 
1377	 0.415038435902587 
1378	 0.414766232123055 
1379	 0.414352584553811 
1380	 0.414028429696964 
1381	 0.41377721955099 
1382	 0.413449999621261 
1383	 0.413094380037169 
1384	 0.412744363611859 
1385	 0.412345830193936 
1386	 0.411972328940264 
1387	 0.411604617740902 
1388	 0.411267454204193 
1389	 0.410932054009289 
1390	 0.41062717213254 
1391	 0.410304525982486 
1392	 0.410092702330213 
1393	 0.409984125992632 
1394	 0.40985064045473 
1395	 0.409704439071563 
1396	 0.409639415144593 
1397	 0.409458966200688 
1398	 0.409230542978163 
1399	 0.40890654836395 
1400	 0.408583399271176 
1401	 0.408075102104765 
1402	 0.407412944947867 
1403	 0.406704913095889 
1404	 0.405874753112078 
1405	 0.405031901832572 
1406	 0.404129347357289 
1407	 0.403186159249032 
1408	 0.402177150898383 
1409	 0.401160453728384 
1410	 0.400113740221127 
1411	 0.39902657162268 
1412	 0.397876945259071 
1413	 0.396784372629438 
1414	 0.395661432503914 
1415	 0.394572861711836 
1416	 0.393508806723196 
1417	 0.392483834117403 
1418	 0.391480612708323 
1419	 0.390491853489348 
1420	 0.38957290769059 
1421	 0.388635268691126 
1422	 0.387659929472879 
1423	 0.386731995447885 
1424	 0.38583969943323 
1425	 0.384924707314639 
1426	 0.384122409814405 
1427	 0.383313473541569 
1428	 0.382503511260846 
1429	 0.3817364195507 
1430	 0.380937744965877 
1431	 0.380142241264953 
1432	 0.379283332647902 
1433	 0.378434558771048 
1434	 0.377465950958656 
1435	 0.376402840318156 
1436	 0.375324139914251 
1437	 0.374174245660317 
1438	 0.373032003799688 
1439	 0.371831912023523 
1440	 0.370699285949471 
1441	 0.369502605006774 
1442	 0.368480212426923 
1443	 0.367470476052076 
1444	 0.366695876231094 
1445	 0.36598902277456 
1446	 0.36562186248147 
1447	 0.36541694427889 
1448	 0.365578591470802 
1449	 0.366152374276558 
1450	 0.366804650865948 
1451	 0.36778915391604 
1452	 0.36878820390021 
1453	 0.369920154497459 
1454	 0.371087553539695 
1455	 0.372450626410318 
1456	 0.373683957269413 
1457	 0.374939648502717 
1458	 0.376120043351318 
1459	 0.377233174511486 
1460	 0.378286214717042 
1461	 0.379281264355089 
1462	 0.380227270270167 
1463	 0.381084303339891 
1464	 0.381933221698855 
1465	 0.382735432359602 
1466	 0.38355413059843 
1467	 0.384327439186629 
1468	 0.385039104742948 
1469	 0.385740183212053 
1470	 0.386389137827567 
1471	 0.387004954382124 
1472	 0.387568843705809 
1473	 0.388158343572438 
1474	 0.388719857370896 
1475	 0.389290586856447 
1476	 0.389910713036516 
1477	 0.390418831951885 
1478	 0.390885696857877 
1479	 0.391283574844828 
1480	 0.391611959444136 
1481	 0.391899332745038 
1482	 0.392138278303992 
1483	 0.392326095235669 
1484	 0.392440235896778 
1485	 0.392549840377275 
1486	 0.392592260605047 
1487	 0.392678844789381 
1488	 0.392711434594963 
1489	 0.392872537848769 
1490	 0.393069169110842 
1491	 0.39335247237076 
1492	 0.393696853635925 
1493	 0.394172505133103 
1494	 0.394733226646766 
1495	 0.39539452218906 
1496	 0.396228676128171 
1497	 0.397048250665329 
1498	 0.397944817454817 
1499	 0.398839801109587 
1500	 0.399786338716121 
1501	 0.400707704872481 
1502	 0.401654349694049 
1503	 0.402553826476162 
1504	 0.403441926740388 
1505	 0.40428529053688 
1506	 0.405114933245639 
1507	 0.405875152183471 
1508	 0.406562748721598 
1509	 0.40723864560075 
1510	 0.407876515335758 
1511	 0.408468108736628 
1512	 0.40904282706267 
1513	 0.409563586236291 
1514	 0.410036008264933 
1515	 0.410447699789213 
1516	 0.410787871727947 
1517	 0.411116641785105 
1518	 0.411367315419028 
1519	 0.411633820448137 
1520	 0.411940363953272 
1521	 0.41216961932442 
1522	 0.412370271382836 
1523	 0.412578312790454 
1524	 0.412731529618964 
1525	 0.4128342259623 
1526	 0.41292964240662 
1527	 0.412992178815563 
1528	 0.413073205070254 
1529	 0.413145803972057 
1530	 0.413199249770126 
1531	 0.413259178884659 
1532	 0.413289210492539 
1533	 0.413258566705521 
1534	 0.41331119983193 
1535	 0.413362201928118 
1536	 0.413497128765949 
1537	 0.413695391315011 
1538	 0.413917030649979 
1539	 0.414184723876698 
1540	 0.414491396674941 
1541	 0.414813717010814 
1542	 0.415227985282937 
1543	 0.41573146742292 
1544	 0.416219544031957 
1545	 0.416740696912709 
1546	 0.417320340160103 
1547	 0.417926292758399 
1548	 0.418560857744233 
1549	 0.419271617316448 
1550	 0.419973209910744 
1551	 0.420687453051387 
1552	 0.421391825435525 
1553	 0.42214139225729 
1554	 0.422830906576715 
1555	 0.423484961851435 
1556	 0.424125623840376 
1557	 0.424735269575497 
1558	 0.425351304555904 
1559	 0.425936375644464 
1560	 0.426554780690559 
1561	 0.427197381137705 
1562	 0.427819886312035 
1563	 0.428469867069196 
1564	 0.429064384283407 
1565	 0.429606887532397 
1566	 0.430176965472682 
1567	 0.430756538859167 
1568	 0.431285356465571 
1569	 0.431791966660199 
1570	 0.432307477104259 
1571	 0.432776566142393 
1572	 0.433266745892561 
1573	 0.433800093352817 
1574	 0.43429352370997 
1575	 0.434763073457921 
1576	 0.435221420559365 
1577	 0.435618230561227 
1578	 0.436103013782442 
1579	 0.436650547374954 
1580	 0.43714066333518 
1581	 0.43768237339039 
1582	 0.438162498406764 
1583	 0.438524222922448 
1584	 0.438969035621429 
1585	 0.439464059046491 
1586	 0.439922830294473 
1587	 0.440398893397244 
1588	 0.440851841683718 
1589	 0.441255559394599 
1590	 0.441691873406819 
1591	 0.442166955563739 
1592	 0.442594285781569 
1593	 0.442987882761946 
1594	 0.44340850626365 
1595	 0.443815311886577 
1596	 0.444223386370113 
1597	 0.444631910370122 
1598	 0.445078333344128 
1599	 0.445574788425564 
1600	 0.446004585513671 
1601	 0.446457646059276 
1602	 0.446857588062421 
1603	 0.447123022247219 
1604	 0.447477015447693 
1605	 0.447864415257635 
1606	 0.448261631197028 
1607	 0.448721536925866 
1608	 0.449136978930374 
1609	 0.449538435755442 
1610	 0.449926472365378 
1611	 0.450300074404609 
1612	 0.450655203187785 
1613	 0.451000568601385 
1614	 0.451322134996548 
1615	 0.451609934544102 
1616	 0.45190308795843 
1617	 0.452202348610619 
1618	 0.452463118346967 
1619	 0.452674769219349 
1620	 0.452917912078689 
1621	 0.453146903084974 
1622	 0.453382875901474 
1623	 0.453717750423947 
1624	 0.453927955730135 
1625	 0.454009169206676 
1626	 0.454169127738819 
1627	 0.454307878335366 
1628	 0.454438949219104 
1629	 0.454623789705515 
1630	 0.454782105158495 
1631	 0.454877759214975 
1632	 0.455012785108699 
1633	 0.455165282003766 
1634	 0.455346932994788 
1635	 0.455562678695596 
1636	 0.455752854286156 
1637	 0.455992548347072 
1638	 0.456162328687446 
1639	 0.456251859903414 
1640	 0.456387479334441 
1641	 0.456521949191465 
1642	 0.456638240081471 
1643	 0.456777559680181 
1644	 0.456885552633454 
1645	 0.456983552627264 
1646	 0.457031599138732 
1647	 0.457054943892579 
1648	 0.457048643146329 
1649	 0.456935761111632 
1650	 0.456897517102131 
1651	 0.456933388143013 
1652	 0.456872874511007 
1653	 0.456847533308547 
1654	 0.45671559302389 
1655	 0.456473240689794 
1656	 0.456181443050979 
1657	 0.45580019934705 
1658	 0.455409663419091 
1659	 0.454955191603711 
1660	 0.454516713604642 
1661	 0.4540912125628 
1662	 0.453606771643964 
1663	 0.453125168736737 
1664	 0.452541925804338 
1665	 0.45186351779044 
1666	 0.451182728695594 
1667	 0.450470491374117 
1668	 0.449671862488965 
1669	 0.448828519012654 
1670	 0.447940699359895 
1671	 0.447000461972631 
1672	 0.445948269195905 
1673	 0.44486900437546 
1674	 0.443636856423518 
1675	 0.442184005851164 
1676	 0.440815261468214 
1677	 0.439450436584701 
1678	 0.437987183571818 
1679	 0.436479367504864 
1680	 0.434936753093149 
1681	 0.433337909994853 
1682	 0.431605554555563 
1683	 0.429831446076986 
1684	 0.428018148894503 
1685	 0.426051201159736 
1686	 0.424087635274125 
1687	 0.422123413261524 
1688	 0.420080964839495 
1689	 0.417965927137328 
1690	 0.415788539012632 
1691	 0.41358667028207 
1692	 0.41135689878034 
1693	 0.409034811464419 
1694	 0.406716810693276 
1695	 0.404398718296008 
1696	 0.401982426638722 
1697	 0.399516368330944 
1698	 0.396951851074672 
1699	 0.394310131706851 
1700	 0.391678489267111 
1701	 0.388939467776781 
1702	 0.386333457748799 
1703	 0.383683480959729 
1704	 0.381234696525483 
1705	 0.378871478731486 
1706	 0.376553857324325 
1707	 0.374597043303621 
1708	 0.372727247767939 
1709	 0.370976240374895 
1710	 0.36940542381569 
1711	 0.367753586560592 
1712	 0.366205307393825 
1713	 0.364746664470848 
1714	 0.363251042066442 
1715	 0.361932530054314 
1716	 0.360652072414545 
1717	 0.359341889553258 
1718	 0.358112151502418 
1719	 0.356915033891439 
1720	 0.355847493484718 
1721	 0.354833176928357 
1722	 0.353851127593644 
1723	 0.353041801438571 
1724	 0.352224788992724 
1725	 0.351477049033882 
1726	 0.350903184408595 
1727	 0.350527080246397 
1728	 0.350345123934078 
1729	 0.350381733326802 
1730	 0.350751353613904 
1731	 0.351225033734772 
1732	 0.351887221485652 
1733	 0.352742252091476 
1734	 0.353659440420963 
1735	 0.354723400603477 
1736	 0.355773283096489 
1737	 0.356727503699091 
1738	 0.357578899459507 
1739	 0.358207774458165 
1740	 0.35864591922137 
1741	 0.358962790573741 
1742	 0.35911638157439 
1743	 0.359189717177193 
1744	 0.359094245277669 
1745	 0.358988669793963 
1746	 0.3587303922589 
1747	 0.3585512883605 
1748	 0.35835879347972 
1749	 0.35823834705572 
1750	 0.358146171583355 
1751	 0.358121758014472 
1752	 0.358119888073895 
1753	 0.358288786498585 
1754	 0.358515114219395 
1755	 0.358908819615217 
1756	 0.3594415392974 
1757	 0.36008188625707 
1758	 0.360981666851042 
1759	 0.36188696346386 
1760	 0.362970999940972 
1761	 0.364155224358685 
1762	 0.365313919717328 
1763	 0.366664524390751 
1764	 0.368089380737166 
1765	 0.369666137314953 
1766	 0.371441296604773 
1767	 0.373206596240686 
1768	 0.375001991804859 
1769	 0.376741859062856 
1770	 0.378353909705036 
1771	 0.380012499089288 
1772	 0.381677864744959 
1773	 0.383255218307598 
1774	 0.384775724453337 
1775	 0.386145925707417 
1776	 0.387386176094544 
1777	 0.38860115258082 
1778	 0.389699256689555 
1779	 0.390714866368158 
1780	 0.391767941723894 
1781	 0.392760363695418 
1782	 0.393714510210626 
1783	 0.394671256842809 
1784	 0.395547186160388 
1785	 0.396214547067275 
1786	 0.396963596566576 
1787	 0.397724991477124 
1788	 0.398422254365013 
1789	 0.399125520242575 
1790	 0.399797987096995 
1791	 0.400380841834672 
1792	 0.401058323447017 
1793	 0.401782658338207 
1794	 0.402438721312974 
1795	 0.403059229289369 
1796	 0.403582282581563 
1797	 0.404120163952917 
1798	 0.404680644896113 
1799	 0.405244388026642 
1800	 0.405858529994758 
1801	 0.39857291136651 
1802	 0.399159256976205 
1803	 0.39965716330816 
1804	 0.400103303390331 
1805	 0.40055042131697 
1806	 0.400970440860837 
1807	 0.401352626101296 
1808	 0.401778231882951 
1809	 0.402190195912626 
1810	 0.402612068373433 
1811	 0.403079930320554 
1812	 0.403506097102542 
1813	 0.403861169052305 
1814	 0.404339446481615 
1815	 0.404792869045273 
1816	 0.405191080928812 
1817	 0.405578598647096 
1818	 0.405922925612182 
1819	 0.406323913627661 
1820	 0.406685078179992 
1821	 0.40711499699134 
1822	 0.407623501739223 
1823	 0.408142097491902 
1824	 0.40858893524426 
1825	 0.409081609678677 
1826	 0.409500520341393 
1827	 0.409820367802139 
1828	 0.4102098813532 
1829	 0.410642282175211 
1830	 0.411008687454781 
1831	 0.411333615155971 
1832	 0.411741430501878 
1833	 0.412037969323197 
1834	 0.41234168679495 
1835	 0.412738499410368 
1836	 0.413103702093002 
1837	 0.413455735980122 
1838	 0.413813782135286 
1839	 0.414147366604053 
1840	 0.414446821737157 
1841	 0.414771303393311 
1842	 0.415128716560601 
1843	 0.415447917039939 
1844	 0.415712865317401 
1845	 0.415928594108086 
1846	 0.416133825943229 
1847	 0.416300261708213 
1848	 0.416446346538833 
1849	 0.416628840731337 
1850	 0.41671291104807 
1851	 0.416724188409285 
1852	 0.416715660166223 
1853	 0.416701185328168 
1854	 0.416555090333555 
1855	 0.416336284487934 
1856	 0.416073065927785 
1857	 0.415670164765492 
1858	 0.415238185836988 
1859	 0.414811219975278 
1860	 0.414390343975306 
1861	 0.413880142701176 
1862	 0.413352836301182 
1863	 0.41274458609027 
1864	 0.412043303396001 
1865	 0.411273449588471 
1866	 0.410484224460081 
1867	 0.40962195771179 
1868	 0.408712923267739 
1869	 0.407675448979161 
1870	 0.40653036329472 
1871	 0.405265760141794 
1872	 0.403975980319249 
1873	 0.40257929902973 
1874	 0.401202673497189 
1875	 0.39980063725435 
1876	 0.398144624972498 
1877	 0.396493394385365 
1878	 0.39467711184864 
1879	 0.392646574279011 
1880	 0.390736135473893 
1881	 0.388725668435929 
1882	 0.386617100224302 
1883	 0.384457511788488 
1884	 0.382256057895132 
1885	 0.379743576372492 
1886	 0.377195262825019 
1887	 0.374539110564066 
1888	 0.371676064397537 
1889	 0.368960083136331 
1890	 0.366106405042764 
1891	 0.363164143705083 
1892	 0.360267711598227 
1893	 0.357282354587063 
1894	 0.354182380011647 
1895	 0.351201551297176 
1896	 0.348153065382876 
1897	 0.345006325857767 
1898	 0.342110967439295 
1899	 0.339156734950626 
1900	 0.33621301698024 
1901	 0.333402329549921 
1902	 0.330512286208567 
1903	 0.327748492527789 
1904	 0.325006500381784 
1905	 0.322275317324232 
1906	 0.31963569313729 
1907	 0.317223243630436 
1908	 0.314753396194854 
1909	 0.312443967449688 
1910	 0.310314879120057 
1911	 0.308082263137157 
1912	 0.305982874761145 
1913	 0.303908364732606 
1914	 0.301794249586379 
1915	 0.2997749493776 
1916	 0.297850543565178 
1917	 0.295881794752733 
1918	 0.294018109085461 
1919	 0.292181939451415 
1920	 0.290207061200212 
1921	 0.288310861922582 
1922	 0.286316023200161 
1923	 0.284315545203057 
1924	 0.282532374509942 
1925	 0.280714674364037 
1926	 0.27889640857287 
1927	 0.27710346050764 
1928	 0.275318002309399 
1929	 0.273465227738196 
1930	 0.271773440749476 
1931	 0.27014383754824 
1932	 0.268582769144358 
1933	 0.267204103323818 
1934	 0.265877771139107 
1935	 0.264698149439282 
1936	 0.263753642753412 
1937	 0.262911453580455 
1938	 0.262212413820031 
1939	 0.261664752754182 
1940	 0.26122878468919 
1941	 0.260995749911173 
1942	 0.260962423433927 
1943	 0.260992623977051 
1944	 0.261181855120371 
1945	 0.261461429146691 
1946	 0.261828775711169 
1947	 0.262310230269712 
1948	 0.262911919506213 
1949	 0.263695502138555 
1950	 0.264620883946309 
1951	 0.265695885174212 
1952	 0.266922594989074 
1953	 0.268308195731693 
1954	 0.269840325770155 
1955	 0.271549934953378 
1956	 0.273270301230228 
1957	 0.275059314827537 
1958	 0.276918996697918 
1959	 0.27854949491122 
1960	 0.280155074830282 
1961	 0.281631172787599 
1962	 0.282981382412987 
1963	 0.284196589402361 
1964	 0.285297586180715 
1965	 0.286282764098006 
1966	 0.287125568551086 
1967	 0.287924672238481 
1968	 0.288573638404821 
1969	 0.289239749944502 
1970	 0.289842666983903 
1971	 0.290448391642251 
1972	 0.291108978198618 
1973	 0.291783869718586 
1974	 0.292533292880132 
1975	 0.293369837014036 
1976	 0.294167174669756 
1977	 0.29500905707796 
1978	 0.295854494581195 
1979	 0.296647613830011 
1980	 0.297525111561349 
1981	 0.29857941354879 
1982	 0.299591000808296 
1983	 0.300612846936261 
1984	 0.301698488449145 
1985	 0.302735613362282 
1986	 0.303830746521492 
1987	 0.305019552530104 
1988	 0.306254287569166 
1989	 0.307658182818984 
1990	 0.309104397487404 
1991	 0.310750959704728 
1992	 0.312573065421451 
1993	 0.314634733722573 
1994	 0.316613802644186 
1995	 0.318742071970138 
1996	 0.320916846117582 
1997	 0.323048857887905 
1998	 0.325289003174598 
1999	 0.327700871917955 
2000	 0.32992204098835 
2001	 0.332216867800289 
2002	 0.334287493941178 
2003	 0.336224748130873 
2004	 0.338078337420763 
2005	 0.339747061656507 
2006	 0.34139217550755 
2007	 0.343008927879087 
2008	 0.344473678001128 
2009	 0.345841203375418 
2010	 0.347199509312609 
2011	 0.348327521749028 
2012	 0.349334196539544 
2013	 0.350339141812829 
2014	 0.351248278223769 
2015	 0.352138898630192 
2016	 0.353064432172886 
2017	 0.353816821447622 
2018	 0.354492806502862 
2019	 0.355050270435108 
2020	 0.355440320171552 
2021	 0.355794884607356 
2022	 0.356144860536333 
2023	 0.356362783085155 
2024	 0.35653588120332 
2025	 0.356671145191707 
2026	 0.356753232705459 
2027	 0.356748814142455 
2028	 0.356711388263085 
2029	 0.356636232424955 
2030	 0.356529706412042 
2031	 0.356311838979917 
2032	 0.356154903375608 
2033	 0.356026694872182 
2034	 0.355866306463219 
2035	 0.355694149210535 
2036	 0.355524765214072 
2037	 0.355354273644853 
2038	 0.355143361237693 
2039	 0.354963984094443 
2040	 0.354810995388779 
2041	 0.354647389544288 
2042	 0.35447243300738 
2043	 0.354313256226472 
2044	 0.354127839795743 
2045	 0.354007149042365 
2046	 0.353959428856481 
2047	 0.353868283630666 
2048	 0.353825752539884 
2049	 0.353722159717732 
2050	 0.353562122742669 
2051	 0.353388413381668 
2052	 0.353216941470931 
2053	 0.353004813786116 
2054	 0.352885536587931 
2055	 0.35282478148645 
2056	 0.352715760595765 
2057	 0.35264986789692 
2058	 0.352574117180745 
2059	 0.352466864062062 
2060	 0.352355577325696 
2061	 0.352244922602353 
2062	 0.352139958969704 
2063	 0.352018453655755 
2064	 0.351899364486802 
2065	 0.351751051169335 
2066	 0.351717555569344 
2067	 0.351630138235874 
2068	 0.351534014872562 
2069	 0.351482394068934 
2070	 0.351480045271478 
2071	 0.351444073712527 
2072	 0.351430208967989 
2073	 0.351379862171042 
2074	 0.351339963896614 
2075	 0.351218214994146 
2076	 0.35100060698524 
2077	 0.350852783238041 
2078	 0.350677326418383 
2079	 0.35053153375158 
2080	 0.350464029869341 
2081	 0.350344215700916 
2082	 0.350195526046444 
2083	 0.350029101667364 
2084	 0.349927092341042 
2085	 0.349788189408243 
2086	 0.349557085764874 
2087	 0.34928487247263 
2088	 0.349007113114989 
2089	 0.348634820246669 
2090	 0.34828392134922 
2091	 0.347915621314671 
2092	 0.347604777381722 
2093	 0.347300223458732 
2094	 0.346979336718268 
2095	 0.346778120385067 
2096	 0.34644281211419 
2097	 0.345976438931522 
2098	 0.345538049090862 
2099	 0.345064970074983 
2100	 0.344640889446071 
2101	 0.344246170873723 
2102	 0.343914785992896 
2103	 0.343514658621095 
2104	 0.343140591988733 
2105	 0.342667820589006 
2106	 0.342140539397649 
2107	 0.341585661951327 
2108	 0.340939930038383 
2109	 0.340345753088462 
2110	 0.339730868018336 
2111	 0.339140096984517 
2112	 0.338600726117094 
2113	 0.338002831993782 
2114	 0.337376659369558 
2115	 0.336752029861967 
2116	 0.336054676964347 
2117	 0.335463882831494 
2118	 0.334798761564906 
2119	 0.334131978076163 
2120	 0.333450094976209 
2121	 0.332729025464501 
2122	 0.332018731387912 
2123	 0.331309595092396 
2124	 0.330612109866672 
2125	 0.329844895932843 
2126	 0.329212830662523 
2127	 0.328714354039878 
2128	 0.328120994537854 
2129	 0.327555990611811 
2130	 0.326984719200218 
2131	 0.326343295394691 
2132	 0.325732554671088 
2133	 0.325123151331555 
2134	 0.324604215833976 
2135	 0.324033302324636 
2136	 0.3234500623728 
2137	 0.322905177699875 
2138	 0.322347332942789 
2139	 0.321896949427725 
2140	 0.321500760110952 
2141	 0.321127890481591 
2142	 0.32088707064434 
2143	 0.320557762328543 
2144	 0.320173123490684 
2145	 0.319847524502061 
2146	 0.319519969488413 
2147	 0.31921975329124 
2148	 0.318942701509054 
2149	 0.318724584187598 
2150	 0.318565139532509 
2151	 0.318377749125474 
2152	 0.318235356401288 
2153	 0.318083893336162 
2154	 0.317864179574042 
2155	 0.317676501504573 
2156	 0.317484614732914 
2157	 0.317288259927117 
2158	 0.317120959079018 
2159	 0.316980096563978 
2160	 0.31680547370667 
2161	 0.316670485668459 
2162	 0.316445132022375 
2163	 0.31613093551104 
2164	 0.315873147321869 
2165	 0.315583274225621 
2166	 0.315322366124084 
2167	 0.315086556428403 
2168	 0.314874407076382 
2169	 0.314626490211363 
2170	 0.314478269197442 
2171	 0.314467854863746 
2172	 0.314365883215245 
2173	 0.314274217467299 
2174	 0.31417781067977 
2175	 0.31401384801899 
2176	 0.313869209311022 
2177	 0.313786305261415 
2178	 0.313772583993062 
2179	 0.313731603828855 
2180	 0.313690514451687 
2181	 0.313685512955 
2182	 0.313712771732452 
2183	 0.313712607491095 
2184	 0.313737082566576 
2185	 0.31374526312154 
2186	 0.313760170213291 
2187	 0.313702243722004 
2188	 0.313602673087316 
2189	 0.313522371210806 
2190	 0.31341275354975 
2191	 0.313269462723968 
2192	 0.313154579536264 
2193	 0.312975745543141 
2194	 0.312709544470494 
2195	 0.312447354928507 
2196	 0.312167858201476 
2197	 0.311846947990995 
2198	 0.311626154900778 
2199	 0.311317910441835 
2200	 0.311009889436706 
2201	 0.310706104917875 
2202	 0.310432310942284 
2203	 0.310157977357562 
2204	 0.309799267447528 
2205	 0.309458373070572 
2206	 0.30906257841504 
2207	 0.308502148661966 
2208	 0.308100549472901 
2209	 0.307819021180303 
2210	 0.307420964399005 
2211	 0.307054784770808 
2212	 0.306594593019276 
2213	 0.305931037498485 
2214	 0.305477319979111 
2215	 0.305042745091092 
2216	 0.304691327686197 
2217	 0.304553724606536 
2218	 0.304313428153878 
2219	 0.304021031797939 
2220	 0.303805784773679 
2221	 0.303605336209218 
2222	 0.303419470595055 
2223	 0.303328226766694 
2224	 0.30322153226702 
2225	 0.303009488239889 
2226	 0.302779328519358 
2227	 0.302594311505599 
2228	 0.302456812848635 
2229	 0.302123422355744 
2230	 0.301803678318037 
2231	 0.301285376174635 
2232	 0.30055499306956 
2233	 0.299764350741097 
2234	 0.298918311273505 
2235	 0.29790970398827 
2236	 0.296748354985827 
2237	 0.295475986273921 
2238	 0.293994291137046 
2239	 0.292580405972937 
2240	 0.291189174519489 
2241	 0.289545511096043 
2242	 0.2879350203566 
2243	 0.285989151749978 
2244	 0.283603970058042 
2245	 0.281298695189215 
2246	 0.278811141355086 
2247	 0.276321527740102 
2248	 0.273828135876835 
2249	 0.271247375418638 
2250	 0.268561456124485 
2251	 0.265933511878521 
2252	 0.263017656882797 
2253	 0.260216467252808 
2254	 0.257326289432158 
2255	 0.254368020536219 
2256	 0.251776503002619 
2257	 0.249084550354043 
2258	 0.246473942556642 
2259	 0.24400642459277 
2260	 0.241471093957886 
2261	 0.238957312297861 
2262	 0.236348395813774 
2263	 0.233628359143645 
2264	 0.23107658222193 
2265	 0.228444158538071 
2266	 0.22603492138687 
2267	 0.223928155642948 
2268	 0.221682771695901 
2269	 0.219392456937414 
2270	 0.217287764256645 
2271	 0.215199136451962 
2272	 0.213244235448996 
2273	 0.211517850104452 
2274	 0.209724871764629 
2275	 0.208120534139106 
2276	 0.206277151836941 
2277	 0.204319708288648 
2278	 0.202378919990784 
2279	 0.200208118180193 
2280	 0.198151375747863 
2281	 0.196182126247968 
2282	 0.19417688415051 
2283	 0.192211987383502 
2284	 0.190233758478999 
2285	 0.18802716974488 
2286	 0.185875419469307 
2287	 0.18343151740328 
2288	 0.180922617929316 
2289	 0.178678935185929 
2290	 0.17622725121425 
2291	 0.173854605274884 
2292	 0.171544876080947 
2293	 0.169017980036342 
2294	 0.166814198389045 
2295	 0.164722892917955 
2296	 0.162681276775154 
2297	 0.160877795805784 
2298	 0.159214294058851 
2299	 0.157758893674849 
2300	 0.15646159265868 
2301	 0.155547158053324 
2302	 0.154909662573275 
2303	 0.154567209991936 
2304	 0.15462186423217 
2305	 0.154778157373724 
2306	 0.155125109560822 
2307	 0.155797991007815 
2308	 0.156752429293946 
2309	 0.157961117765597 
2310	 0.159555740847071 
2311	 0.161168456779231 
2312	 0.16297884225436 
2313	 0.164891425119355 
2314	 0.166999292456159 
2315	 0.1691606376124 
2316	 0.171561520105035 
2317	 0.173762635254671 
2318	 0.176076600842999 
2319	 0.178037405549729 
2320	 0.179888527240047 
2321	 0.18139651719906 
2322	 0.182578451754525 
2323	 0.183605841179609 
2324	 0.184376057974693 
2325	 0.18490711714628 
2326	 0.185118869128981 
2327	 0.185256848689621 
2328	 0.185199502785363 
2329	 0.184957634988628 
2330	 0.184627506487784 
2331	 0.184101312548785 
2332	 0.183115494240073 
2333	 0.182062370896514 
2334	 0.180895986100759 
2335	 0.179654571884464 
2336	 0.178383848391916 
2337	 0.176897013922618 
2338	 0.175412820602149 
2339	 0.173917644691384 
2340	 0.172347771258644 
2341	 0.170776556656766 
2342	 0.16920718799956 
2343	 0.167774129035965 
2344	 0.166720145538539 
2345	 0.16608611777175 
2346	 0.165637009743213 
2347	 0.165504666885181 
2348	 0.165370875253267 
2349	 0.165469604974008 
2350	 0.166411485007512 
2351	 0.167414174404785 
2352	 0.168650527817216 
2353	 0.170485745979946 
2354	 0.171956284214564 
2355	 0.173291795839565 
2356	 0.174705688501905 
2357	 0.175923654635603 
2358	 0.177042496374459 
2359	 0.178074234726527 
2360	 0.178822439310379 
2361	 0.179104226443692 
2362	 0.179167856729901 
2363	 0.178989905252064 
2364	 0.178889789249627 
2365	 0.178934800944388 
2366	 0.178972637578394 
2367	 0.178889910469659 
2368	 0.178466889847512 
2369	 0.178170647138664 
2370	 0.177749938897115 
2371	 0.177309296787922 
2372	 0.177512567516808 
2373	 0.177536871857238 
2374	 0.177388371022909 
2375	 0.177572167965869 
2376	 0.177493303999479 
2377	 0.17734431381261 
2378	 0.177221241495262 
2379	 0.176988821437704 
2380	 0.176907148050274 
2381	 0.176659397808058 
2382	 0.176338293065036 
2383	 0.176021740673249 
2384	 0.175766138069393 
2385	 0.175287050384328 
2386	 0.175141012072159 
2387	 0.175230625155334 
2388	 0.175274028886331 
2389	 0.175516861396012 
2390	 0.175541875712124 
2391	 0.175554290044798 
2392	 0.1755723153986 
2393	 0.175439988716664 
2394	 0.17535669257503 
2395	 0.175320218640785 
2396	 0.175208368032416 
2397	 0.174960348994914 
2398	 0.1748564612723 
2399	 0.174925092637064 
2400	 0.174719689253546 
2401	 0.174359832692254 
2402	 0.174306405158845 
2403	 0.174148151513281 
2404	 0.173639990569849 
2405	 0.173509208206845 
2406	 0.173553935458538 
2407	 0.173262852400424 
2408	 0.173457949029318 
2409	 0.173660026710417 
2410	 0.173210739758318 
2411	 0.172677748981496 
2412	 0.172241517467027 
2413	 0.172009700004449 
2414	 0.17208153949944 
2415	 0.172274902430642 
2416	 0.172532375372708 
2417	 0.172922550324596 
2418	 0.172931023303611 
2419	 0.172798086202263 
2420	 0.173096628984187 
2421	 0.173140109818738 
2422	 0.172880466222361 
2423	 0.172752375776932 
2424	 0.172668343434549 
2425	 0.172645833032994 
2426	 0.172810597146909 
2427	 0.17289791872268 
2428	 0.17274151727202 
2429	 0.172351068439342 
2430	 0.172110672638921 
2431	 0.172399902029336 
2432	 0.172385038125567 
2433	 0.172106850260744 
2434	 0.172133800113604 
2435	 0.171943811995168 
2436	 0.171402133137432 
2437	 0.17107035613008 
2438	 0.170800817337088 
2439	 0.17011790630873 
2440	 0.169758653591431 
2441	 0.169683052965544 
2442	 0.169370389441526 
2443	 0.169008668615673 
2444	 0.16874398114323 
2445	 0.168660625105798 
2446	 0.168577460170998 
2447	 0.169013102498072 
2448	 0.169430838081028 
2449	 0.169145845608112 
2450	 0.168553110501311 
2451	 0.168022100198839 
2452	 0.167738342596789 
2453	 0.167466720280488 
2454	 0.167245966242092 
2455	 0.166635075187952 
2456	 0.165443625423247 
2457	 0.164832076330238 
2458	 0.165136285427447 
2459	 0.165189656980478 
2460	 0.165739616821621 
2461	 0.166083757937969 
2462	 0.165172554350609 
2463	 0.164835776769316 
2464	 0.16432579518788 
2465	 0.163408358177315 
2466	 0.163364299349838 
2467	 0.163596185097119 
2468	 0.163009323139935 
2469	 0.163031424558906 
2470	 0.163631032575618 
2471	 0.162603557453218 
2472	 0.162546757030134 
2473	 0.163232766637045 
2474	 0.162938217156198 
2475	 0.163295793863197 
2476	 0.163102781957869 
2477	 0.16220026011041 
2478	 0.162000376099588 
2479	 0.16200792223905 
2480	 0.162413592652733 
2481	 0.162570927957363 
2482	 0.162278784504647 
2483	 0.162811988245327 
2484	 0.163313555682325 
2485	 0.163322166592431 
2486	 0.162477212310762 
2487	 0.161330842566177 
2488	 0.161059895173877 
2489	 0.160890141954221 
2490	 0.161269499912897 
2491	 0.162678371674147 
2492	 0.162610830131638 
2493	 0.162889309284039 
2494	 0.164153010472278 
2495	 0.164880503994035 
2496	 0.166366041984486 
2497	 0.168318893992855 
2498	 0.169610286877463 
2499	 0.169567247491426 
2500	 0.169291281315311 
