Wavelength	Tablay400076.asd
350	 0.206229913621932 
351	 0.206787601156761 
352	 0.185970423414261 
353	 0.131967764933803 
354	 0.157910345317679 
355	 0.205065168146575 
356	 0.252123000433118 
357	 0.273605694934095 
358	 0.18771589736459 
359	 0.140595119964311 
360	 0.146180285481177 
361	 0.145323137376593 
362	 0.137049910115153 
363	 0.145963595404826 
364	 0.171973688261823 
365	 0.176308517391331 
366	 0.189479332598056 
367	 0.168438434328703 
368	 0.105738747396116 
369	 0.154182799012185 
370	 0.124053419091779 
371	 6.11426592686106E-02 
372	 0.115855632141922 
373	 0.129397631908884 
374	 0.123016291375526 
375	 0.118864743343888 
376	 0.114622302357976 
377	 0.117142920667733 
378	 0.12200504528615 
379	 0.119918451506083 
380	 8.93870376456356E-02 
381	 0.101864889244656 
382	 0.138812057756869 
383	 0.130718756764866 
384	 0.103358203395592 
385	 8.47001105221642E-02 
386	 8.35383786934589E-02 
387	 0.086258066341844 
388	 0.096281872625344 
389	 0.112313112764803 
390	 0.125540219365928 
391	 0.102681576271971 
392	 8.53603160122358E-02 
393	 0.087493850712033 
394	 0.098890575865618 
395	 8.15861579619975E-02 
396	 6.77140587573294E-02 
397	 7.82339750781585E-02 
398	 0.102674678171965 
399	 9.20973556591705E-02 
400	 6.86276744536628E-02 
401	 6.46177536967627E-02 
402	 6.76517753322549E-02 
403	 7.07892119990003E-02 
404	 7.09582686670998E-02 
405	 6.89063121760236E-02 
406	 7.14663158836934E-02 
407	 7.15934493181026E-02 
408	 6.67882328827478E-02 
409	 6.64702266408952E-02 
410	 6.72117935145307E-02 
411	 6.98689593478085E-02 
412	 7.32545948117007E-02 
413	 0.059359764361856 
414	 5.71166862869649E-02 
415	 0.068561481160307 
416	 7.04442190294119E-02 
417	 6.18701713605112E-02 
418	 5.36019524612623E-02 
419	 0.053406064115515 
420	 5.88868576548537E-02 
421	 5.40088218187028E-02 
422	 4.92034458389801E-02 
423	 5.90892585015309E-02 
424	 4.89041861870725E-02 
425	 4.59276464283243E-02 
426	 5.44799766256227E-02 
427	 4.99048225379548E-02 
428	 0.050086068344732 
429	 0.05308656166293 
430	 0.053919204340362 
431	 5.06754678980052E-02 
432	 5.09538245180562E-02 
433	 5.45125374567687E-02 
434	 5.65034759902121E-02 
435	 5.13233217069614E-02 
436	 5.10106640459435E-02 
437	 5.69332414518973E-02 
438	 5.20742340012031E-02 
439	 4.90951411382259E-02 
440	 4.83578732913958E-02 
441	 4.76153972874289E-02 
442	 4.89098576600949E-02 
443	 4.90589448430328E-02 
444	 0.047482280337504 
445	 4.58129206766631E-02 
446	 4.55973311206067E-02 
447	 4.65337151458912E-02 
448	 4.80434032602739E-02 
449	 4.99292679324621E-02 
450	 5.06347962058822E-02 
451	 5.03501939367118E-02 
452	 4.97415464177558E-02 
453	 4.74904232060785E-02 
454	 4.66789140494659E-02 
455	 4.75122026628904E-02 
456	 0.046906612600051 
457	 4.62402160925457E-02 
458	 0.046272877425908 
459	 4.70521471314084E-02 
460	 4.68881255824789E-02 
461	 4.73056645366732E-02 
462	 4.71828067761956E-02 
463	 4.46892539757366E-02 
464	 4.45126552075139E-02 
465	 4.46101101599022E-02 
466	 4.44643349500492E-02 
467	 4.70366178181476E-02 
468	 0.048200937389714 
469	 4.65710910096171E-02 
470	 4.30406465663981E-02 
471	 4.34057835529978E-02 
472	 4.64916613102804E-02 
473	 4.83628364381707E-02 
474	 0.044133469971188 
475	 4.38862159755362E-02 
476	 4.42174067650111E-02 
477	 4.26271836400161E-02 
478	 4.33288952056033E-02 
479	 4.33836405902595E-02 
480	 4.37349617533533E-02 
481	 4.57868835595304E-02 
482	 4.47623381452906E-02 
483	 4.42347822792113E-02 
484	 4.50368959984526E-02 
485	 4.44036432568816E-02 
486	 4.19684464782051E-02 
487	 4.07349203677932E-02 
488	 4.24612310105972E-02 
489	 4.31905161687663E-02 
490	 4.29705651945823E-02 
491	 4.22795623149954E-02 
492	 4.18124051319059E-02 
493	 0.041074490324849 
494	 0.041515511618902 
495	 4.29202443664109E-02 
496	 4.20852437853097E-02 
497	 4.18167868516323E-02 
498	 4.14945712666041E-02 
499	 4.01990291286541E-02 
500	 4.02704851013714E-02 
501	 4.10006118027661E-02 
502	 4.14150359406764E-02 
503	 4.05737759211925E-02 
504	 4.02296043433781E-02 
505	 4.02937582902159E-02 
506	 0.040512358718603 
507	 4.12346938915877E-02 
508	 4.10209636142662E-02 
509	 4.01969774844324E-02 
510	 3.98281862589668E-02 
511	 4.00924579789759E-02 
512	 4.02579332639282E-02 
513	 4.00706542421072E-02 
514	 3.99690162605182E-02 
515	 3.99791299990783E-02 
516	 4.00401188355132E-02 
517	 4.00395949688924E-02 
518	 3.97714878436749E-02 
519	 3.97488734463711E-02 
520	 3.99035982335634E-02 
521	 3.97894319013231E-02 
522	 3.94598886627148E-02 
523	 3.95047215780246E-02 
524	 3.99749420541763E-02 
525	 3.97420251010576E-02 
526	 0.039572326623904 
527	 3.96133606493237E-02 
528	 3.97162385512661E-02 
529	 3.93027013310854E-02 
530	 0.03895837841458 
531	 3.90278349676824E-02 
532	 3.95129798628719E-02 
533	 3.96677151294893E-02 
534	 3.92217540581244E-02 
535	 3.84713841781943E-02 
536	 3.89712563159949E-02 
537	 3.92895973284349E-02 
538	 3.90444751109522E-02 
539	 3.85780801002091E-02 
540	 3.90642980027368E-02 
541	 3.91727406473059E-02 
542	 3.84886779216562E-02 
543	 3.84567766703731E-02 
544	 3.86354547834673E-02 
545	 3.87021010406182E-02 
546	 3.85001404450836E-02 
547	 3.85396228276002E-02 
548	 3.87240114825003E-02 
549	 3.87902218730815E-02 
550	 3.84062848487042E-02 
551	 3.84415684513707E-02 
552	 3.85178522206346E-02 
553	 3.83781117891659E-02 
554	 3.87097007910175E-02 
555	 3.87596808004465E-02 
556	 0.038590324675257 
557	 3.86036008185352E-02 
558	 3.86132157407096E-02 
559	 3.85201633850679E-02 
560	 3.84218455524757E-02 
561	 3.86732652344723E-02 
562	 3.89729073733836E-02 
563	 3.92312687154686E-02 
564	 3.94118363018861E-02 
565	 3.94175541623395E-02 
566	 3.96295394183436E-02 
567	 3.98653116854347E-02 
568	 3.96165475738257E-02 
569	 3.99605221285399E-02 
570	 4.02909514042471E-02 
571	 4.02599271024219E-02 
572	 4.06013375279844E-02 
573	 4.08959539785411E-02 
574	 4.11789343709219E-02 
575	 4.15746068899562E-02 
576	 4.17137487362699E-02 
577	 4.20634734517486E-02 
578	 4.27322851709631E-02 
579	 4.33695361012418E-02 
580	 4.39776643757331E-02 
581	 4.45331148782889E-02 
582	 4.51125910970521E-02 
583	 4.60841818792343E-02 
584	 0.047071079721798 
585	 4.80969529870032E-02 
586	 4.93703699568591E-02 
587	 5.04481458764159E-02 
588	 5.14851454511211E-02 
589	 5.26561423606522E-02 
590	 5.40502706384768E-02 
591	 5.53964482846392E-02 
592	 5.66895102672062E-02 
593	 0.058010690669813 
594	 5.94162629009848E-02 
595	 6.07534625745291E-02 
596	 6.20067711902513E-02 
597	 6.32755158698265E-02 
598	 6.44012643548282E-02 
599	 6.55718904019497E-02 
600	 6.68933047569815E-02 
601	 6.81382688297894E-02 
602	 6.92411963161467E-02 
603	 7.03680499894892E-02 
604	 7.17109764702261E-02 
605	 7.28643953937873E-02 
606	 7.39763892334854E-02 
607	 7.50831924502809E-02 
608	 7.60227453218468E-02 
609	 7.71091443016188E-02 
610	 7.81354574923953E-02 
611	 7.89649664667013E-02 
612	 8.01318709390018E-02 
613	 8.12928454312319E-02 
614	 8.22266023631964E-02 
615	 8.28806966877648E-02 
616	 8.39837149170254E-02 
617	 8.50022301437151E-02 
618	 8.57044037452275E-02 
619	 8.66840020359155E-02 
620	 8.77479256377137E-02 
621	 8.88021837442262E-02 
622	 8.97565585941922E-02 
623	 9.04182817009786E-02 
624	 9.12426429817229E-02 
625	 0.092280939453197 
626	 9.31891756278849E-02 
627	 9.39584612755099E-02 
628	 9.46862072096283E-02 
629	 9.55015733246609E-02 
630	 9.65858976394694E-02 
631	 9.74569541377215E-02 
632	 9.81713926571092E-02 
633	 0.099013595178218 
634	 9.99697504399576E-02 
635	 0.100910803094009 
636	 0.101795786384309 
637	 0.102703927869577 
638	 0.103572807819896 
639	 0.104327827114882 
640	 0.105016332690749 
641	 0.106089754656321 
642	 0.107114036276953 
643	 0.108002780162729 
644	 0.108893588841916 
645	 0.109788146365299 
646	 0.110673067314489 
647	 0.111556652250506 
648	 0.112490819540746 
649	 0.113388018900598 
650	 0.114323398991352 
651	 0.11537154710186 
652	 0.116396041422287 
653	 0.117351905203883 
654	 0.118278810591396 
655	 0.119277477469491 
656	 0.120347772661438 
657	 0.121495654121657 
658	 0.122655145780479 
659	 0.123598672140365 
660	 0.124628271079252 
661	 0.125686390476468 
662	 0.126642230272504 
663	 0.127726924632952 
664	 0.128926903328407 
665	 0.130182313431366 
666	 0.131397037823412 
667	 0.13227361569191 
668	 0.133264296328832 
669	 0.134632192513664 
670	 0.135772186981894 
671	 0.136970786942405 
672	 0.138165792957227 
673	 0.139215963351482 
674	 0.140498708808002 
675	 0.141771361400368 
676	 0.142957286013841 
677	 0.144237834558991 
678	 0.145436979035902 
679	 0.14665301999942 
680	 0.147958290203323 
681	 0.149140922044599 
682	 0.150411350123943 
683	 0.151778652258736 
684	 0.153147922710144 
685	 0.154546847115332 
686	 0.155933110717361 
687	 0.157283319186553 
688	 0.158611626565002 
689	 0.160066233607865 
690	 0.161515865401927 
691	 0.162846495316408 
692	 0.164257378613045 
693	 0.165695582996456 
694	 0.167129609603603 
695	 0.168546422458142 
696	 0.169960546996816 
697	 0.171387654886914 
698	 0.172838655758619 
699	 0.174315493290626 
700	 0.175848517954625 
701	 0.17738309842212 
702	 0.178872033584423 
703	 0.18038744886051 
704	 0.181911422334288 
705	 0.183433961275361 
706	 0.184962520913453 
707	 0.186636669124739 
708	 0.188298442110574 
709	 0.189855596068587 
710	 0.191382315000375 
711	 0.19295896908726 
712	 0.19456956935559 
713	 0.196173126780882 
714	 0.197772549588533 
715	 0.199325690692398 
716	 0.200892502741975 
717	 0.202576091933501 
718	 0.204112364413163 
719	 0.205744595965682 
720	 0.207518589640521 
721	 0.209029213239339 
722	 0.210681559890298 
723	 0.212432759656863 
724	 0.21413155567036 
725	 0.215772034138592 
726	 0.217400787895151 
727	 0.219016071530206 
728	 0.220591477255895 
729	 0.222235129004127 
730	 0.223886198735586 
731	 0.225505933865357 
732	 0.227123455167442 
733	 0.228788500053078 
734	 0.230436260284207 
735	 0.232015845666848 
736	 0.233655853460971 
737	 0.235312245339462 
738	 0.236937042455743 
739	 0.238491859510783 
740	 0.240058510708758 
741	 0.241706981234267 
742	 0.243376521216343 
743	 0.244822599052579 
744	 0.246357082143933 
745	 0.247967188045962 
746	 0.249542707063101 
747	 0.250965665808803 
748	 0.252449771439463 
749	 0.254026422202398 
750	 0.255607000521777 
751	 0.257123602379573 
752	 0.258566974222313 
753	 0.260000351394791 
754	 0.261563656808279 
755	 0.263108302948363 
756	 0.264562265555329 
757	 0.265933951643108 
758	 0.267383262309817 
759	 0.268852815242383 
760	 0.270305015346649 
761	 0.271713206530069 
762	 0.273074216658711 
763	 0.274449327651718 
764	 0.275879246987655 
765	 0.277372581427105 
766	 0.278802900762038 
767	 0.280128417421492 
768	 0.281378673052592 
769	 0.282695435509922 
770	 0.283951053797695 
771	 0.285207643127578 
772	 0.286562818348865 
773	 0.287955961026146 
774	 0.289218257140824 
775	 0.290408113286757 
776	 0.29174590548595 
777	 0.29300139233918 
778	 0.294223828559691 
779	 0.295440497358625 
780	 0.296567762355091 
781	 0.297806219714852 
782	 0.299052704604396 
783	 0.300181838816998 
784	 0.3013152067111 
785	 0.302422899704363 
786	 0.303547296384704 
787	 0.30474142661869 
788	 0.305838395731587 
789	 0.306872530070575 
790	 0.307907972830569 
791	 0.309012371794915 
792	 0.31002838205605 
793	 0.311079585529371 
794	 0.312217109936852 
795	 0.313173917994454 
796	 0.314078570790912 
797	 0.315015338036274 
798	 0.316025543932183 
799	 0.317031612346565 
800	 0.31791571200928 
801	 0.318763196099579 
802	 0.319785996281553 
803	 0.32079769920251 
804	 0.321748457088893 
805	 0.32262455021632 
806	 0.323442224746959 
807	 0.32422500981656 
808	 0.325010523042042 
809	 0.325827855888595 
810	 0.326690471155952 
811	 0.327444677798384 
812	 0.328137611842737 
813	 0.328907932318137 
814	 0.32984041033701 
815	 0.330577079938897 
816	 0.331141541433544 
817	 0.331893035917172 
818	 0.332684370817784 
819	 0.333398971772516 
820	 0.334005896303474 
821	 0.334604526254456 
822	 0.335356417948566 
823	 0.336103806070788 
824	 0.336702324831215 
825	 0.337345382225928 
826	 0.337905027129483 
827	 0.338432493155787 
828	 0.339037188622815 
829	 0.339661202062214 
830	 0.340220317467822 
831	 0.340763878118831 
832	 0.34142414322272 
833	 0.341889063937619 
834	 0.342237030142858 
835	 0.342618086062611 
836	 0.343189422033049 
837	 0.343706032167796 
838	 0.344152909380917 
839	 0.344592941956383 
840	 0.345140906351085 
841	 0.345575148759345 
842	 0.345922730245708 
843	 0.346292672609434 
844	 0.34661359678033 
845	 0.347074317538458 
846	 0.34758079574586 
847	 0.347873483354628 
848	 0.34821821964425 
849	 0.34859894900347 
850	 0.349001628287962 
851	 0.349446440151256 
852	 0.349757182396296 
853	 0.349963242811689 
854	 0.350175764334437 
855	 0.350584689128098 
856	 0.350806795695976 
857	 0.350982431108253 
858	 0.35130691925846 
859	 0.351522288354448 
860	 0.351833871158103 
861	 0.352175679244822 
862	 0.352383138920356 
863	 0.352613755625874 
864	 0.352855134907936 
865	 0.353073629724551 
866	 0.353239523815203 
867	 0.35346150040571 
868	 0.353625191839448 
869	 0.353725949121767 
870	 0.353942647743457 
871	 0.354306425043207 
872	 0.354582712019224 
873	 0.354665129996731 
874	 0.354856570079899 
875	 0.35499425309594 
876	 0.355113024852794 
877	 0.355276526478113 
878	 0.35542118984633 
879	 0.355732147500657 
880	 0.355951326465226 
881	 0.355785490078475 
882	 0.355948145116637 
883	 0.356168550957691 
884	 0.356336443272285 
885	 0.356502701338832 
886	 0.3566324257928 
887	 0.356643743410597 
888	 0.356629529168862 
889	 0.356852053649944 
890	 0.3570052739081 
891	 0.357186226152121 
892	 0.357354272017839 
893	 0.357126012265073 
894	 0.357235899425298 
895	 0.35747913567421 
896	 0.35757576172575 
897	 0.357726726224034 
898	 0.357689362992839 
899	 0.35764736177386 
900	 0.357828289312098 
901	 0.358078397409383 
902	 0.358018796316476 
903	 0.3579402292567 
904	 0.35826324294564 
905	 0.358144114188742 
906	 0.358208345681529 
907	 0.358427465061132 
908	 0.358356061224247 
909	 0.358596350203749 
910	 0.358794938305563 
911	 0.358824053940106 
912	 0.358876140984834 
913	 0.358996999004077 
914	 0.358988759900308 
915	 0.358968272426687 
916	 0.359459501307086 
917	 0.359286544408711 
918	 0.359008317385275 
919	 0.359123465245952 
920	 0.359331949789902 
921	 0.359592814997362 
922	 0.359716461188008 
923	 0.359641889233764 
924	 0.359668345660423 
925	 0.359891217774197 
926	 0.360113959949048 
927	 0.360168613144182 
928	 0.360353790958063 
929	 0.36047293724809 
930	 0.36058061649484 
931	 0.36077534174543 
932	 0.360878925205606 
933	 0.360903911950902 
934	 0.360890219644525 
935	 0.360907221324957 
936	 0.3610797585425 
937	 0.361353092252758 
938	 0.361592646787242 
939	 0.361666130150621 
940	 0.361741736421093 
941	 0.361946275556026 
942	 0.362112288182357 
943	 0.361942929644143 
944	 0.36219724714652 
945	 0.36252039137087 
946	 0.36266995809227 
947	 0.362679682520229 
948	 0.362547749122124 
949	 0.362682870083073 
950	 0.363022501964706 
951	 0.362919693367716 
952	 0.36290680234378 
953	 0.363025968436676 
954	 0.363226702908783 
955	 0.363445579477379 
956	 0.363405581109142 
957	 0.363474531322086 
958	 0.363823411230795 
959	 0.364059884299756 
960	 0.364090029805961 
961	 0.363984641826058 
962	 0.363954714011891 
963	 0.364358538308462 
964	 0.364347008602085 
965	 0.364391235725586 
966	 0.364825195479617 
967	 0.364887340155235 
968	 0.364996461424243 
969	 0.364966760800132 
970	 0.364719723112123 
971	 0.364833565911879 
972	 0.364949886570336 
973	 0.364922992503944 
974	 0.364864547128469 
975	 0.365413851911411 
976	 0.365752444031839 
977	 0.365470017499112 
978	 0.364772651758551 
979	 0.365144719602179 
980	 0.36559630353082 
981	 0.365695403824935 
982	 0.365527357110714 
983	 0.366201513736047 
984	 0.366245998835114 
985	 0.365918047178259 
986	 0.365922691861354 
987	 0.366237782932131 
988	 0.366282850911004 
989	 0.366229490176171 
990	 0.366364227852783 
991	 0.366326776559387 
992	 0.366294258874993 
993	 0.36653021549013 
994	 0.367009026477559 
995	 0.36665137742938 
996	 0.366949560702744 
997	 0.367211565919171 
998	 0.366642491480493 
999	 0.366810578924391 
1000	 0.36746281877121 
1001	 0.37054268287145 
1002	 0.370700253085362 
1003	 0.370622643789721 
1004	 0.370605393457109 
1005	 0.370440982609573 
1006	 0.370355561034613 
1007	 0.370203352652405 
1008	 0.370316536317752 
1009	 0.370704027631513 
1010	 0.370752709477825 
1011	 0.370769884464478 
1012	 0.370831380053979 
1013	 0.370648756790317 
1014	 0.370569910122887 
1015	 0.370579043191515 
1016	 0.370733158404003 
1017	 0.370814868564208 
1018	 0.370912875748872 
1019	 0.371123104316571 
1020	 0.371330116305957 
1021	 0.371478602623349 
1022	 0.37153793769339 
1023	 0.371642807313368 
1024	 0.371787198751947 
1025	 0.371849160046786 
1026	 0.37194832284482 
1027	 0.371921574946025 
1028	 0.37173257543928 
1029	 0.371665648134727 
1030	 0.371582104409903 
1031	 0.371335451092295 
1032	 0.371499844861138 
1033	 0.371729707775613 
1034	 0.371816064522081 
1035	 0.372069990288682 
1036	 0.372178119710206 
1037	 0.372071403563135 
1038	 0.372090211900513 
1039	 0.372207439609972 
1040	 0.372257319488922 
1041	 0.372249104415068 
1042	 0.372345628928678 
1043	 0.372503453166508 
1044	 0.372565573885391 
1045	 0.372683661254343 
1046	 0.37284000723408 
1047	 0.372722420084955 
1048	 0.372527183814543 
1049	 0.372599724473024 
1050	 0.372490185168985 
1051	 0.372502357394024 
1052	 0.372787912848257 
1053	 0.372911952066984 
1054	 0.372932636715233 
1055	 0.373035544649413 
1056	 0.373150646803904 
1057	 0.373277951721754 
1058	 0.373435874941691 
1059	 0.373540653956798 
1060	 0.373671218501738 
1061	 0.373660052422979 
1062	 0.373560482319226 
1063	 0.373575819157285 
1064	 0.373574899742415 
1065	 0.373579954846111 
1066	 0.373564656665399 
1067	 0.373376457729803 
1068	 0.373327139774532 
1069	 0.373585251278917 
1070	 0.373691325327763 
1071	 0.373842628718553 
1072	 0.373917203967288 
1073	 0.373942538789504 
1074	 0.373759091070881 
1075	 0.373575562355545 
1076	 0.373686063610686 
1077	 0.373909018279997 
1078	 0.374027796394506 
1079	 0.374055034818214 
1080	 0.374013000106868 
1081	 0.373802590674405 
1082	 0.373558757447605 
1083	 0.373525749317939 
1084	 0.373609016592888 
1085	 0.373718805624911 
1086	 0.373788216492053 
1087	 0.373892064257524 
1088	 0.373889174443498 
1089	 0.373901848971262 
1090	 0.373909352098057 
1091	 0.373845510613442 
1092	 0.373835540517905 
1093	 0.373832589405076 
1094	 0.373926805032318 
1095	 0.374156509797445 
1096	 0.374424386318489 
1097	 0.374526944963579 
1098	 0.374346320887243 
1099	 0.374175584638333 
1100	 0.374041427414955 
1101	 0.37405630899622 
1102	 0.374270258221319 
1103	 0.374397180955015 
1104	 0.374564377484344 
1105	 0.374701428185358 
1106	 0.374763077267657 
1107	 0.374751607646257 
1108	 0.374844662442344 
1109	 0.374918107455906 
1110	 0.374886125400046 
1111	 0.374960825717682 
1112	 0.375043274870931 
1113	 0.375062183093776 
1114	 0.375207393786233 
1115	 0.375366937545531 
1116	 0.375476007144672 
1117	 0.375536948748985 
1118	 0.375634833363403 
1119	 0.375735225398995 
1120	 0.375828616388782 
1121	 0.375922532050682 
1122	 0.376061693412416 
1123	 0.376127777135662 
1124	 0.376118737134636 
1125	 0.376175128372579 
1126	 0.376324652013501 
1127	 0.376563124531563 
1128	 0.376793959717646 
1129	 0.376890369011117 
1130	 0.376938767572377 
1131	 0.376981215852494 
1132	 0.376981455904665 
1133	 0.377046148434853 
1134	 0.377166581803519 
1135	 0.377245015836173 
1136	 0.377262727015313 
1137	 0.377358866005281 
1138	 0.377469247554708 
1139	 0.377571097922087 
1140	 0.377699961458406 
1141	 0.377879472762673 
1142	 0.377905844070789 
1143	 0.378049897273278 
1144	 0.378263477334901 
1145	 0.378326884068007 
1146	 0.378380328799603 
1147	 0.378513235689942 
1148	 0.378613332802814 
1149	 0.378656106800357 
1150	 0.378773971762175 
1151	 0.378898599697066 
1152	 0.378978082131816 
1153	 0.379018884384407 
1154	 0.379063760164222 
1155	 0.379063163610831 
1156	 0.379095189211453 
1157	 0.379131692056931 
1158	 0.379163031885694 
1159	 0.379196737886938 
1160	 0.379283789809244 
1161	 0.37932134945201 
1162	 0.379337058831521 
1163	 0.379468639665143 
1164	 0.379548365375953 
1165	 0.379516598018786 
1166	 0.379518325080287 
1167	 0.379453034343418 
1168	 0.379328763636319 
1169	 0.379297843508816 
1170	 0.379348646690897 
1171	 0.379372517251917 
1172	 0.37941935532639 
1173	 0.379460568796585 
1174	 0.379515867860365 
1175	 0.379562125975267 
1176	 0.379634319323461 
1177	 0.37963516425547 
1178	 0.379582887589428 
1179	 0.379535299526275 
1180	 0.379528726192264 
1181	 0.379580103900916 
1182	 0.37969244685301 
1183	 0.379749176035161 
1184	 0.379698873421612 
1185	 0.379627121619835 
1186	 0.379623513757383 
1187	 0.379625018126186 
1188	 0.379676834770467 
1189	 0.379836418821989 
1190	 0.379878814739315 
1191	 0.379842224657996 
1192	 0.379877859338436 
1193	 0.379889648484802 
1194	 0.37994789587427 
1195	 0.380087538840611 
1196	 0.380219097479933 
1197	 0.380370197458111 
1198	 0.380476364163433 
1199	 0.380609849538224 
1200	 0.38073905760582 
1201	 0.38091185369608 
1202	 0.381092667756787 
1203	 0.381341704559573 
1204	 0.381646346394307 
1205	 0.381898993006076 
1206	 0.382139991811837 
1207	 0.382410334091071 
1208	 0.382621154695689 
1209	 0.382957062331861 
1210	 0.383377289783791 
1211	 0.38379635662934 
1212	 0.384268201028711 
1213	 0.384774493920608 
1214	 0.385300264645278 
1215	 0.385852444162499 
1216	 0.386449289092212 
1217	 0.387067631562826 
1218	 0.387688983718558 
1219	 0.388364673969029 
1220	 0.389065075140857 
1221	 0.389845945921687 
1222	 0.390670678959696 
1223	 0.391438969665481 
1224	 0.392212157902367 
1225	 0.393013957373648 
1226	 0.393743944930197 
1227	 0.394438639681928 
1228	 0.395116048100431 
1229	 0.395759916713724 
1230	 0.396376014629522 
1231	 0.396949792932557 
1232	 0.397537207258365 
1233	 0.398091117947817 
1234	 0.398664971224726 
1235	 0.399272577071328 
1236	 0.399836436374786 
1237	 0.400394651998705 
1238	 0.400932017744344 
1239	 0.40142560917208 
1240	 0.401922093008061 
1241	 0.402432439148316 
1242	 0.402916714984217 
1243	 0.403464306028826 
1244	 0.404098110320874 
1245	 0.40455202738072 
1246	 0.404967626932853 
1247	 0.405370926151198 
1248	 0.405601610853289 
1249	 0.406018850990967 
1250	 0.406567099890576 
1251	 0.40701858611001 
1252	 0.407495634357202 
1253	 0.407929999399362 
1254	 0.408295919079798 
1255	 0.408696468053324 
1256	 0.409091847775334 
1257	 0.409510778270336 
1258	 0.409971062479862 
1259	 0.410388922810585 
1260	 0.410816352257572 
1261	 0.411208439860695 
1262	 0.411542013329827 
1263	 0.411883727300947 
1264	 0.412233722821374 
1265	 0.412568923435755 
1266	 0.412952415772157 
1267	 0.413336683450963 
1268	 0.413777890843151 
1269	 0.414319335981534 
1270	 0.414739888783364 
1271	 0.415135128019332 
1272	 0.415542082574934 
1273	 0.415892512176177 
1274	 0.416247406295275 
1275	 0.41660773668435 
1276	 0.4169968767516 
1277	 0.417349672879303 
1278	 0.417749269872756 
1279	 0.418262711409514 
1280	 0.418686043964677 
1281	 0.419038725864044 
1282	 0.419436929557694 
1283	 0.419845734977706 
1284	 0.420220454238539 
1285	 0.420589405242352 
1286	 0.420979672457563 
1287	 0.421352236323665 
1288	 0.421676731640064 
1289	 0.422044184834189 
1290	 0.422473728320693 
1291	 0.42281024602506 
1292	 0.423080384215381 
1293	 0.423411202964257 
1294	 0.423716403402416 
1295	 0.424059050773112 
1296	 0.424489541764256 
1297	 0.424830072607721 
1298	 0.425137009958563 
1299	 0.4254305506174 
1300	 0.425656797043871 
1301	 0.425930986754266 
1302	 0.426224505120377 
1303	 0.426505507636507 
1304	 0.426820637063318 
1305	 0.427093420184194 
1306	 0.427296015815505 
1307	 0.427554316215821 
1308	 0.427815824863584 
1309	 0.428091632309699 
1310	 0.428396660757824 
1311	 0.428769337684255 
1312	 0.429059209574726 
1313	 0.429316798276308 
1314	 0.429605056498408 
1315	 0.429874186803022 
1316	 0.430156483986462 
1317	 0.430487463498178 
1318	 0.430752433135332 
1319	 0.430960425141013 
1320	 0.431212250685751 
1321	 0.431455456505142 
1322	 0.43170936264482 
1323	 0.431986879498789 
1324	 0.432259856829152 
1325	 0.432500011754327 
1326	 0.432795385371672 
1327	 0.43313777992936 
1328	 0.433462359758914 
1329	 0.433868868740934 
1330	 0.434168563289559 
1331	 0.434371153816944 
1332	 0.434614657265386 
1333	 0.434809716132631 
1334	 0.435012707279936 
1335	 0.435278154217091 
1336	 0.435614073920907 
1337	 0.435885103756509 
1338	 0.436177876127956 
1339	 0.436397234620775 
1340	 0.436562099949128 
1341	 0.436753099618285 
1342	 0.436929821638762 
1343	 0.437084465937287 
1344	 0.437230570809281 
1345	 0.437376416554336 
1346	 0.43750025442873 
1347	 0.437618819159147 
1348	 0.437753870666541 
1349	 0.437862933217745 
1350	 0.437924685021109 
1351	 0.438018659131128 
1352	 0.438150169808563 
1353	 0.438230849529443 
1354	 0.438286476151247 
1355	 0.438348786992543 
1356	 0.438387428239891 
1357	 0.438421651393844 
1358	 0.438448346902365 
1359	 0.438498073050009 
1360	 0.438571770255856 
1361	 0.438600561334136 
1362	 0.438649439649614 
1363	 0.438684502967892 
1364	 0.438690798444664 
1365	 0.438658623881048 
1366	 0.438621973774025 
1367	 0.43859390328752 
1368	 0.438503135580848 
1369	 0.438362003363293 
1370	 0.438236532736352 
1371	 0.438069787049585 
1372	 0.43793863257499 
1373	 0.43784496151925 
1374	 0.437695491670621 
1375	 0.437540488178888 
1376	 0.437349304511742 
1377	 0.437111309229819 
1378	 0.436876661461015 
1379	 0.436654573699282 
1380	 0.436366459265014 
1381	 0.435989971440218 
1382	 0.435687487457102 
1383	 0.435379143995531 
1384	 0.435075774777786 
1385	 0.434861064989013 
1386	 0.434571219977577 
1387	 0.434201355019181 
1388	 0.433870486905814 
1389	 0.433503647417394 
1390	 0.433191030481751 
1391	 0.432898989194585 
1392	 0.432655987466852 
1393	 0.43245362053741 
1394	 0.432284526851069 
1395	 0.43215884411202 
1396	 0.432113915748962 
1397	 0.431980529022557 
1398	 0.431897367576884 
1399	 0.431657628316409 
1400	 0.431332464770724 
1401	 0.430961708158194 
1402	 0.430500293881689 
1403	 0.430018508022375 
1404	 0.429532852467972 
1405	 0.428919509155818 
1406	 0.428221292437222 
1407	 0.427477976282589 
1408	 0.42657830510847 
1409	 0.425773785883736 
1410	 0.424975464075261 
1411	 0.424172582091978 
1412	 0.423395133414057 
1413	 0.422611579818834 
1414	 0.421796281024641 
1415	 0.421015355550563 
1416	 0.420227743808091 
1417	 0.419496901401505 
1418	 0.418823521328738 
1419	 0.418134127449909 
1420	 0.417461962355795 
1421	 0.416822198044964 
1422	 0.416163678388495 
1423	 0.415554040737528 
1424	 0.415015347648431 
1425	 0.414463587644682 
1426	 0.413974074066496 
1427	 0.413471184417508 
1428	 0.412943920990512 
1429	 0.412506386788157 
1430	 0.412014588005671 
1431	 0.411514183046294 
1432	 0.410987062201921 
1433	 0.410450641874182 
1434	 0.409898354432683 
1435	 0.409333959034409 
1436	 0.408718871582519 
1437	 0.408073838669907 
1438	 0.407433881222766 
1439	 0.406726137679038 
1440	 0.406087369771398 
1441	 0.405444279318181 
1442	 0.404894068982516 
1443	 0.404324145001554 
1444	 0.403951969205436 
1445	 0.403683165508325 
1446	 0.403555045391862 
1447	 0.403520179763776 
1448	 0.403702511581314 
1449	 0.404047089671239 
1450	 0.404547744952853 
1451	 0.405302342065591 
1452	 0.406091044085041 
1453	 0.407066400089899 
1454	 0.40798553885112 
1455	 0.408938798407968 
1456	 0.4099335713917 
1457	 0.411000041552889 
1458	 0.411989493085904 
1459	 0.413013906124066 
1460	 0.413982404402021 
1461	 0.414842442003325 
1462	 0.415717260272871 
1463	 0.416630132439555 
1464	 0.417470079982954 
1465	 0.418223066019067 
1466	 0.419030220693666 
1467	 0.419759805870424 
1468	 0.420449721291913 
1469	 0.421177992887234 
1470	 0.421835831318486 
1471	 0.422515266143231 
1472	 0.423177282831771 
1473	 0.423856100848536 
1474	 0.424554246734141 
1475	 0.425193946537868 
1476	 0.425833613493856 
1477	 0.426413130318339 
1478	 0.42694474537894 
1479	 0.427434042553486 
1480	 0.427883396053233 
1481	 0.428302007624503 
1482	 0.428690064039803 
1483	 0.42901173772651 
1484	 0.429267694433517 
1485	 0.429536234154355 
1486	 0.429728616697097 
1487	 0.429977165744906 
1488	 0.43024132902806 
1489	 0.430535594240375 
1490	 0.430802163259152 
1491	 0.431181882419805 
1492	 0.431611871890616 
1493	 0.432126176645913 
1494	 0.432756529044409 
1495	 0.433384263457057 
1496	 0.434057338697319 
1497	 0.434772051602224 
1498	 0.435533508784151 
1499	 0.436302926094416 
1500	 0.43715349536016 
1501	 0.43794730667109 
1502	 0.438725094505346 
1503	 0.439486849829722 
1504	 0.440253790187179 
1505	 0.440955533076423 
1506	 0.441618171053932 
1507	 0.442260439431783 
1508	 0.442846224432424 
1509	 0.443421978205027 
1510	 0.443996179120383 
1511	 0.44452502898831 
1512	 0.445036849619589 
1513	 0.44548762763461 
1514	 0.445869071481363 
1515	 0.446249467218063 
1516	 0.446554083660286 
1517	 0.446893464611523 
1518	 0.447285277692349 
1519	 0.447617298241769 
1520	 0.447941807751254 
1521	 0.448245421116774 
1522	 0.448426364477252 
1523	 0.448564860957379 
1524	 0.448706768307157 
1525	 0.448779909516887 
1526	 0.448928587572399 
1527	 0.44911162759201 
1528	 0.449258648582884 
1529	 0.449410549430523 
1530	 0.449560876078313 
1531	 0.449708815624867 
1532	 0.449817048347975 
1533	 0.449919696810069 
1534	 0.450003677996426 
1535	 0.450023866074809 
1536	 0.450113644752299 
1537	 0.45020353850309 
1538	 0.450379844516527 
1539	 0.450591359356358 
1540	 0.450866278841095 
1541	 0.451224474552702 
1542	 0.451591064957415 
1543	 0.451998045130875 
1544	 0.452424906359913 
1545	 0.452884770464482 
1546	 0.453366106840366 
1547	 0.453893536869673 
1548	 0.454390910766994 
1549	 0.454886076393912 
1550	 0.455411289261856 
1551	 0.455927922361749 
1552	 0.456476116356864 
1553	 0.457090364236196 
1554	 0.457647362085671 
1555	 0.458207853243805 
1556	 0.458718806287321 
1557	 0.459170160580185 
1558	 0.459660304497546 
1559	 0.460150241528861 
1560	 0.460613997725447 
1561	 0.461060529312543 
1562	 0.461548524488532 
1563	 0.462044541301925 
1564	 0.462512375311716 
1565	 0.462993771090903 
1566	 0.463489624999504 
1567	 0.463940355675281 
1568	 0.464436692407859 
1569	 0.465054495471609 
1570	 0.465530098025592 
1571	 0.465944260068682 
1572	 0.466335984080182 
1573	 0.466612288235254 
1574	 0.466966032011103 
1575	 0.467329929165636 
1576	 0.467716384752856 
1577	 0.468165306001062 
1578	 0.468558116743272 
1579	 0.468901381094767 
1580	 0.469310908801434 
1581	 0.46974305380983 
1582	 0.470154514865047 
1583	 0.470654209620769 
1584	 0.471042349543458 
1585	 0.471292454652898 
1586	 0.471639960092803 
1587	 0.471999162060069 
1588	 0.472350865963394 
1589	 0.472737060293525 
1590	 0.473132326112113 
1591	 0.473522866259419 
1592	 0.473899295547653 
1593	 0.474315348600903 
1594	 0.47469236064999 
1595	 0.475006583898011 
1596	 0.475350273260652 
1597	 0.475665169032353 
1598	 0.476049725634214 
1599	 0.476512998735068 
1600	 0.476918489679356 
1601	 0.477359087743129 
1602	 0.477754616321304 
1603	 0.478090157378955 
1604	 0.478416854984718 
1605	 0.478726369183984 
1606	 0.479038290440826 
1607	 0.479310142032312 
1608	 0.479606863838459 
1609	 0.479922446587637 
1610	 0.480238374635083 
1611	 0.480584206628113 
1612	 0.480887641894165 
1613	 0.481181649539306 
1614	 0.481452593852001 
1615	 0.481686872607844 
1616	 0.481914341348676 
1617	 0.482108540693235 
1618	 0.482326508100102 
1619	 0.482574285659941 
1620	 0.482763857721479 
1621	 0.482957508656812 
1622	 0.483104622947317 
1623	 0.483172064011943 
1624	 0.483252176989384 
1625	 0.483307014543106 
1626	 0.483379817702612 
1627	 0.483426721470046 
1628	 0.483518909806401 
1629	 0.483651193367822 
1630	 0.483775496646428 
1631	 0.483926425795699 
1632	 0.484076664832299 
1633	 0.484250909275787 
1634	 0.484379304259012 
1635	 0.484507231733952 
1636	 0.484592563068447 
1637	 0.484568965266763 
1638	 0.484633113175351 
1639	 0.484731681034025 
1640	 0.484830874531013 
1641	 0.485044148253688 
1642	 0.485125271740641 
1643	 0.485130000529697 
1644	 0.48511375894379 
1645	 0.484999299611849 
1646	 0.484910505834939 
1647	 0.484854429424635 
1648	 0.48472930404777 
1649	 0.484619459207432 
1650	 0.48438009781842 
1651	 0.484048900057241 
1652	 0.483658807047676 
1653	 0.48313165334515 
1654	 0.482625673498181 
1655	 0.482143813103504 
1656	 0.481518776141012 
1657	 0.48084151110182 
1658	 0.480065258368749 
1659	 0.479119693277297 
1660	 0.478200669784251 
1661	 0.477247044903459 
1662	 0.476247611989912 
1663	 0.475185760328325 
1664	 0.474128713091183 
1665	 0.472983539176625 
1666	 0.471927977972954 
1667	 0.470959171892097 
1668	 0.46994412365035 
1669	 0.468953041444996 
1670	 0.467947144075643 
1671	 0.466899347930335 
1672	 0.465841295312499 
1673	 0.46479436653139 
1674	 0.463719772865947 
1675	 0.462598877457712 
1676	 0.461537524594984 
1677	 0.460560785830059 
1678	 0.459461861256419 
1679	 0.45834212123288 
1680	 0.45712786717538 
1681	 0.455854510424606 
1682	 0.454425159450121 
1683	 0.452891073758865 
1684	 0.451345675678996 
1685	 0.449662111081485 
1686	 0.447957889968088 
1687	 0.446297281506603 
1688	 0.444403232831346 
1689	 0.442334185321027 
1690	 0.440239731651231 
1691	 0.438029781789955 
1692	 0.435805061578488 
1693	 0.433563320816267 
1694	 0.431213204166283 
1695	 0.428768247024046 
1696	 0.426225743017167 
1697	 0.423585973015115 
1698	 0.420899693566968 
1699	 0.418088533550678 
1700	 0.415393679895519 
1701	 0.412693110676472 
1702	 0.409982325391052 
1703	 0.407236918928615 
1704	 0.404650152990323 
1705	 0.402050442982702 
1706	 0.399635292753801 
1707	 0.397528695516643 
1708	 0.395579414462269 
1709	 0.393676933693572 
1710	 0.391992111377172 
1711	 0.390325165570407 
1712	 0.388675348972015 
1713	 0.387162812897312 
1714	 0.385707276079507 
1715	 0.384410645694052 
1716	 0.383208379286144 
1717	 0.382048648358504 
1718	 0.380929135518714 
1719	 0.379795530627882 
1720	 0.378768652507834 
1721	 0.377812710095329 
1722	 0.376958831438948 
1723	 0.376271154071437 
1724	 0.375619408890605 
1725	 0.375131688355196 
1726	 0.374881495087046 
1727	 0.374790866378971 
1728	 0.374907750727057 
1729	 0.375271275046587 
1730	 0.375876562911795 
1731	 0.37669495261671 
1732	 0.377729080385445 
1733	 0.378875970321287 
1734	 0.380145609171434 
1735	 0.381484300477548 
1736	 0.382810348718015 
1737	 0.384160461471763 
1738	 0.385296924309226 
1739	 0.386218687110117 
1740	 0.386958680480786 
1741	 0.387549844846995 
1742	 0.388011598590919 
1743	 0.388258038730231 
1744	 0.388282982147572 
1745	 0.38822095384447 
1746	 0.387882135069895 
1747	 0.387639167295423 
1748	 0.387303620531247 
1749	 0.387096842021275 
1750	 0.386912258570809 
1751	 0.386814233944346 
1752	 0.386813443062315 
1753	 0.386863696778246 
1754	 0.386912849336602 
1755	 0.387139218561573 
1756	 0.387454590611233 
1757	 0.38792727336903 
1758	 0.388681359185807 
1759	 0.389472796141137 
1760	 0.390335929077142 
1761	 0.391451853784408 
1762	 0.392590302772436 
1763	 0.393895490828812 
1764	 0.395376583189876 
1765	 0.396852917479627 
1766	 0.398588714772699 
1767	 0.400489271224154 
1768	 0.402372014593469 
1769	 0.404344846816102 
1770	 0.406183262439177 
1771	 0.407852926362372 
1772	 0.409570236445092 
1773	 0.411189371297106 
1774	 0.412674427855359 
1775	 0.414188762878143 
1776	 0.415659565867493 
1777	 0.416958120034917 
1778	 0.418205837533529 
1779	 0.41937611158763 
1780	 0.420371107896056 
1781	 0.42139526173055 
1782	 0.422371689329967 
1783	 0.423195479779642 
1784	 0.424091264234268 
1785	 0.424938901272567 
1786	 0.4257238691559 
1787	 0.426483410356186 
1788	 0.427180639591099 
1789	 0.427796206457781 
1790	 0.42841392309613 
1791	 0.429034605197422 
1792	 0.42967067155646 
1793	 0.430266002893402 
1794	 0.43083696812601 
1795	 0.431365589821459 
1796	 0.431774911629265 
1797	 0.432272672414429 
1798	 0.432789888493444 
1799	 0.433176626528321 
1800	 0.433653077454924 
1801	 0.430728146990458 
1802	 0.431295389971672 
1803	 0.431775733187603 
1804	 0.432185043312371 
1805	 0.432672889357643 
1806	 0.433104700599825 
1807	 0.433427818986111 
1808	 0.433909008157674 
1809	 0.434532045388391 
1810	 0.43499406687752 
1811	 0.435480675530967 
1812	 0.43591399998488 
1813	 0.436221246591113 
1814	 0.436539153623142 
1815	 0.436868983337565 
1816	 0.437289445045073 
1817	 0.437711665131137 
1818	 0.438120807011071 
1819	 0.438571054018554 
1820	 0.439086987828693 
1821	 0.439576184414444 
1822	 0.44002042305225 
1823	 0.440627145210406 
1824	 0.441102368018737 
1825	 0.441595090625757 
1826	 0.442082133732031 
1827	 0.442519653063148 
1828	 0.442973251405286 
1829	 0.443476157651325 
1830	 0.443920335121374 
1831	 0.444314707058982 
1832	 0.44474958538042 
1833	 0.445143492748773 
1834	 0.445558788094953 
1835	 0.445982857486205 
1836	 0.446412709468356 
1837	 0.446868981860845 
1838	 0.447363347757552 
1839	 0.447797097241774 
1840	 0.44822294275199 
1841	 0.448669804615077 
1842	 0.44908027665814 
1843	 0.44953592576138 
1844	 0.450069992862896 
1845	 0.450464218434772 
1846	 0.450826303854841 
1847	 0.451177248294441 
1848	 0.451440885654745 
1849	 0.451633721475668 
1850	 0.451806551154473 
1851	 0.451948036411824 
1852	 0.45199297873467 
1853	 0.452004036579783 
1854	 0.451986068639379 
1855	 0.451955804867087 
1856	 0.451915299620647 
1857	 0.451914331554416 
1858	 0.451818646369503 
1859	 0.451630494666846 
1860	 0.451368293963281 
1861	 0.451056897044483 
1862	 0.450639011805618 
1863	 0.450233901984991 
1864	 0.449783163185948 
1865	 0.449236030790954 
1866	 0.448641597540431 
1867	 0.447918053521394 
1868	 0.447137259974482 
1869	 0.446344319183802 
1870	 0.445480429612586 
1871	 0.444611798351216 
1872	 0.443606433584033 
1873	 0.442530186716013 
1874	 0.441340211104322 
1875	 0.440053731899727 
1876	 0.438666106179969 
1877	 0.437271240309923 
1878	 0.435748628666715 
1879	 0.434128984493742 
1880	 0.432507719894174 
1881	 0.430789772134897 
1882	 0.428967977489041 
1883	 0.427137333754401 
1884	 0.425171023988033 
1885	 0.422886270100603 
1886	 0.420595870983392 
1887	 0.418174923076172 
1888	 0.415549357021622 
1889	 0.413106344342009 
1890	 0.410420070731689 
1891	 0.407597842563062 
1892	 0.404874603980512 
1893	 0.402064834675139 
1894	 0.39912243384573 
1895	 0.396297118676364 
1896	 0.393441563130736 
1897	 0.390519006201322 
1898	 0.387787099849281 
1899	 0.385019867658774 
1900	 0.382349533346088 
1901	 0.379848811224631 
1902	 0.377288190743479 
1903	 0.374844101980972 
1904	 0.372457415735568 
1905	 0.37010694409213 
1906	 0.367864715913708 
1907	 0.365812856018093 
1908	 0.363807603625996 
1909	 0.362007582542499 
1910	 0.360245442764653 
1911	 0.358529952545909 
1912	 0.356997052181687 
1913	 0.35539478943607 
1914	 0.353867318825768 
1915	 0.352442773254733 
1916	 0.351128373535784 
1917	 0.349726969173981 
1918	 0.34841336543528 
1919	 0.347185594631383 
1920	 0.345881838243779 
1921	 0.344663487100651 
1922	 0.34354182612333 
1923	 0.342392935110363 
1924	 0.341243932383927 
1925	 0.340059737016136 
1926	 0.338970944767493 
1927	 0.337937574999404 
1928	 0.336912888542542 
1929	 0.335906977670311 
1930	 0.335018917001007 
1931	 0.334144603917432 
1932	 0.333271712973613 
1933	 0.332586793865436 
1934	 0.331967741846115 
1935	 0.331351422896032 
1936	 0.330867519452747 
1937	 0.330505056397262 
1938	 0.330240258753488 
1939	 0.330060123251933 
1940	 0.330004384849485 
1941	 0.330041954552097 
1942	 0.330118055967779 
1943	 0.330298041418194 
1944	 0.330528248682397 
1945	 0.330901777944911 
1946	 0.331360503644217 
1947	 0.33182076526792 
1948	 0.332493259174514 
1949	 0.333233153732881 
1950	 0.333970203319008 
1951	 0.334768889542533 
1952	 0.335630956521887 
1953	 0.336508339820263 
1954	 0.337409963867716 
1955	 0.338515396668326 
1956	 0.339693341813997 
1957	 0.340870496895081 
1958	 0.342108491214467 
1959	 0.343283122027159 
1960	 0.344405876665248 
1961	 0.345453424830502 
1962	 0.34644163728871 
1963	 0.347390377286215 
1964	 0.348297662055682 
1965	 0.349087143172851 
1966	 0.349815189248693 
1967	 0.350514278505809 
1968	 0.351012215446845 
1969	 0.351518937674507 
1970	 0.352034168383676 
1971	 0.352530818410164 
1972	 0.353084050119233 
1973	 0.353622113678055 
1974	 0.354239200882284 
1975	 0.354954896894996 
1976	 0.355612775135049 
1977	 0.356261532446402 
1978	 0.356970839884089 
1979	 0.357694971901987 
1980	 0.358377801267302 
1981	 0.359190628680068 
1982	 0.360036882854482 
1983	 0.360870051310275 
1984	 0.361667074125863 
1985	 0.362416327144252 
1986	 0.363265364947209 
1987	 0.364171180918858 
1988	 0.365094739066151 
1989	 0.366118982592165 
1990	 0.367205578780902 
1991	 0.368382940163041 
1992	 0.369625207218241 
1993	 0.37099870064954 
1994	 0.372403605462914 
1995	 0.373950745878046 
1996	 0.375505089503411 
1997	 0.377049155080115 
1998	 0.378604238236299 
1999	 0.380218513380985 
2000	 0.381721855904743 
2001	 0.383272254234668 
2002	 0.384642125624744 
2003	 0.385867742899594 
2004	 0.387092064152607 
2005	 0.388187478185767 
2006	 0.389279554061244 
2007	 0.390352007113182 
2008	 0.391443649507567 
2009	 0.392432731338221 
2010	 0.393311553761784 
2011	 0.39407234438585 
2012	 0.394802042019307 
2013	 0.39544940542886 
2014	 0.395995848198496 
2015	 0.396526537756686 
2016	 0.397028084749655 
2017	 0.397411545462092 
2018	 0.397708169572806 
2019	 0.397972833883615 
2020	 0.398126750473906 
2021	 0.398294622109984 
2022	 0.398438159295116 
2023	 0.398540260395765 
2024	 0.398510232761179 
2025	 0.398369146772699 
2026	 0.39824473847222 
2027	 0.398004403138522 
2028	 0.397830642920167 
2029	 0.397730633371976 
2030	 0.397525462869214 
2031	 0.397302130931632 
2032	 0.397002899091938 
2033	 0.396552962207974 
2034	 0.39619270402951 
2035	 0.395813047538393 
2036	 0.395452755719175 
2037	 0.395187861793141 
2038	 0.394917488349131 
2039	 0.394586392058621 
2040	 0.394228834070079 
2041	 0.393871772726629 
2042	 0.393432431735919 
2043	 0.393102180243338 
2044	 0.392828815771623 
2045	 0.392544221264437 
2046	 0.392297520347141 
2047	 0.392066628228322 
2048	 0.391852707742942 
2049	 0.391623145014731 
2050	 0.391440144535793 
2051	 0.391209595720868 
2052	 0.390913469787583 
2053	 0.390640533754542 
2054	 0.390403453882475 
2055	 0.390173834258699 
2056	 0.389958951088504 
2057	 0.389783445701785 
2058	 0.389596943627679 
2059	 0.389411947270495 
2060	 0.389233161064009 
2061	 0.389077114237887 
2062	 0.388906645972469 
2063	 0.388733391607303 
2064	 0.388538079506912 
2065	 0.388300328996695 
2066	 0.388116798027552 
2067	 0.387936155383459 
2068	 0.387754362536689 
2069	 0.387563359254214 
2070	 0.387392983508005 
2071	 0.387184541605225 
2072	 0.386967816398465 
2073	 0.386712116837984 
2074	 0.386404088210782 
2075	 0.386146959594666 
2076	 0.385850836168623 
2077	 0.385607976764652 
2078	 0.385446807710278 
2079	 0.385247877191764 
2080	 0.385033802744768 
2081	 0.384836807372162 
2082	 0.384640856655837 
2083	 0.384472774868221 
2084	 0.384276223631427 
2085	 0.384007950019565 
2086	 0.383762474324622 
2087	 0.383468591909617 
2088	 0.383209781680613 
2089	 0.383009933926424 
2090	 0.382729387274498 
2091	 0.38241788864638 
2092	 0.382073023956263 
2093	 0.381680811745262 
2094	 0.381270228679126 
2095	 0.380796361378117 
2096	 0.380371124241269 
2097	 0.379930054993361 
2098	 0.379519978767171 
2099	 0.379175288653702 
2100	 0.378793193044419 
2101	 0.378319446429186 
2102	 0.377788192210079 
2103	 0.377268107059852 
2104	 0.376658046862737 
2105	 0.376112171008605 
2106	 0.375578292638583 
2107	 0.375080258701659 
2108	 0.374634816831403 
2109	 0.374134710232637 
2110	 0.373684005181601 
2111	 0.373151162546309 
2112	 0.372540614666315 
2113	 0.371910973135772 
2114	 0.37125018190515 
2115	 0.370566184134097 
2116	 0.369860000222709 
2117	 0.369101564291604 
2118	 0.368324053599771 
2119	 0.367530585598022 
2120	 0.366687975509311 
2121	 0.36575766101627 
2122	 0.364916630131232 
2123	 0.364058415921077 
2124	 0.363235705887885 
2125	 0.362521818427613 
2126	 0.361702698246115 
2127	 0.360811210710396 
2128	 0.359985845602044 
2129	 0.359069834164702 
2130	 0.358295793458014 
2131	 0.357623040957788 
2132	 0.356978351899017 
2133	 0.35638153488999 
2134	 0.355898884040107 
2135	 0.355406561511113 
2136	 0.354947096439675 
2137	 0.354513900842419 
2138	 0.354090671588819 
2139	 0.353778520725537 
2140	 0.35357026803988 
2141	 0.353289015009516 
2142	 0.353022140700441 
2143	 0.352820512412725 
2144	 0.352580314761381 
2145	 0.352429234561206 
2146	 0.352416193938585 
2147	 0.35237639196546 
2148	 0.352321419160384 
2149	 0.352319685803418 
2150	 0.352366304520103 
2151	 0.352439503191852 
2152	 0.352610370964521 
2153	 0.352704517014681 
2154	 0.352729988227828 
2155	 0.352767915346789 
2156	 0.352756448271444 
2157	 0.352643211908315 
2158	 0.352602878498127 
2159	 0.352597961944889 
2160	 0.352538879963769 
2161	 0.352443355729163 
2162	 0.352384546321222 
2163	 0.352321884597985 
2164	 0.35226910808088 
2165	 0.352255840965616 
2166	 0.352190133274654 
2167	 0.352087562991767 
2168	 0.352012439180933 
2169	 0.351901335165783 
2170	 0.351837886787231 
2171	 0.351807440728368 
2172	 0.351787789309465 
2173	 0.351744747232751 
2174	 0.351822437111436 
2175	 0.351954646043387 
2176	 0.351940058291847 
2177	 0.351917549953561 
2178	 0.35185184380274 
2179	 0.351844098819108 
2180	 0.351798186333409 
2181	 0.351781556186099 
2182	 0.351866076703907 
2183	 0.351837440070747 
2184	 0.351699234649702 
2185	 0.351657547497064 
2186	 0.351677201898279 
2187	 0.35158934604016 
2188	 0.351472320478725 
2189	 0.351373366544619 
2190	 0.351191488820537 
2191	 0.351045678281191 
2192	 0.351011067849237 
2193	 0.350865474066005 
2194	 0.350665888383249 
2195	 0.350421614422388 
2196	 0.350127506438187 
2197	 0.349742491217528 
2198	 0.349414380862981 
2199	 0.349066148075546 
2200	 0.348802899633408 
2201	 0.348596197278264 
2202	 0.34842543082302 
2203	 0.348330490174943 
2204	 0.348184570412005 
2205	 0.348033896613569 
2206	 0.347919373839555 
2207	 0.347884869962286 
2208	 0.347672597530658 
2209	 0.347406931091285 
2210	 0.347139431893173 
2211	 0.346736272815011 
2212	 0.346353867257988 
2213	 0.34599244439818 
2214	 0.345648423959517 
2215	 0.345241169716082 
2216	 0.344895599561142 
2217	 0.344682255035445 
2218	 0.344357973839316 
2219	 0.343933255344396 
2220	 0.343570048486459 
2221	 0.34318498765647 
2222	 0.3428422690317 
2223	 0.342492753191411 
2224	 0.342172049107332 
2225	 0.341844942852743 
2226	 0.34141227821644 
2227	 0.340929935278824 
2228	 0.34045941137214 
2229	 0.339826148772747 
2230	 0.339041875184835 
2231	 0.338263141466587 
2232	 0.337467771119596 
2233	 0.336462487463065 
2234	 0.335406274029576 
2235	 0.334136571795467 
2236	 0.332679014672688 
2237	 0.331051267808436 
2238	 0.329182838895576 
2239	 0.327298451737939 
2240	 0.325236795207972 
2241	 0.323151685449142 
2242	 0.321139524620483 
2243	 0.318840072631324 
2244	 0.316343517081973 
2245	 0.313739329429608 
2246	 0.310743634972177 
2247	 0.307949497883987 
2248	 0.305221419155127 
2249	 0.302399496764742 
2250	 0.299598250831718 
2251	 0.296862617814872 
2252	 0.293748625238882 
2253	 0.290634683837726 
2254	 0.287570834291306 
2255	 0.284488607003987 
2256	 0.28162487645282 
2257	 0.278749734148891 
2258	 0.275925276080386 
2259	 0.273191342436041 
2260	 0.270355537398818 
2261	 0.267471471081659 
2262	 0.264730242919985 
2263	 0.261896766087319 
2264	 0.25929912583441 
2265	 0.256924607023307 
2266	 0.254570670625908 
2267	 0.252399927658022 
2268	 0.250091126158716 
2269	 0.247731713628198 
2270	 0.245528102476072 
2271	 0.243303476643197 
2272	 0.2411812940638 
2273	 0.239292372582517 
2274	 0.237307394664581 
2275	 0.235278391997234 
2276	 0.233291535640121 
2277	 0.231406126178708 
2278	 0.229411305178443 
2279	 0.227303705333438 
2280	 0.22527537428631 
2281	 0.22335096230448 
2282	 0.221209634981421 
2283	 0.218993398855115 
2284	 0.21680211603985 
2285	 0.214214358846764 
2286	 0.211622540761505 
2287	 0.209225876607245 
2288	 0.206747889900825 
2289	 0.204321947779608 
2290	 0.201815650181588 
2291	 0.19923547087828 
2292	 0.196644829434997 
2293	 0.194181139444318 
2294	 0.191833725881224 
2295	 0.189337542342439 
2296	 0.186951311853638 
2297	 0.184868629535521 
2298	 0.182821021793152 
2299	 0.181251081415618 
2300	 0.180139873468472 
2301	 0.179121757652433 
2302	 0.178324850207313 
2303	 0.177847262729333 
2304	 0.17763094213863 
2305	 0.1776975766066 
2306	 0.178119627986087 
2307	 0.178724065808157 
2308	 0.179523345897705 
2309	 0.180682650187625 
2310	 0.182259187654522 
2311	 0.183891525162995 
2312	 0.18584353133076 
2313	 0.187855600772055 
2314	 0.190033206028641 
2315	 0.192210290442788 
2316	 0.194692609924905 
2317	 0.196826271453588 
2318	 0.198896524189773 
2319	 0.200722291558227 
2320	 0.202373898571084 
2321	 0.203747668190599 
2322	 0.204825019963374 
2323	 0.205816625538071 
2324	 0.20663731091495 
2325	 0.207235163255412 
2326	 0.207751283187536 
2327	 0.207895643116313 
2328	 0.207543872074981 
2329	 0.20723364757459 
2330	 0.206736920843074 
2331	 0.206136780034054 
2332	 0.205507130680268 
2333	 0.204567118240433 
2334	 0.203425806004336 
2335	 0.202179219687802 
2336	 0.200761440228401 
2337	 0.199464814295526 
2338	 0.19814275151682 
2339	 0.196593924574682 
2340	 0.195105877780968 
2341	 0.193686187901916 
2342	 0.19234294842664 
2343	 0.191146924016445 
2344	 0.190159248646744 
2345	 0.18930485732851 
2346	 0.188673438394717 
2347	 0.188661671570537 
2348	 0.189059234022109 
2349	 0.189805975138823 
2350	 0.190711648167788 
2351	 0.191819632900388 
2352	 0.19307637048955 
2353	 0.194422869931972 
2354	 0.195893508956813 
2355	 0.197283870810183 
2356	 0.198775837736837 
2357	 0.200155665774232 
2358	 0.201306944862548 
2359	 0.20221877459679 
2360	 0.202869592867988 
2361	 0.203260847343419 
2362	 0.203340631040796 
2363	 0.203444752067095 
2364	 0.203408043629176 
2365	 0.203022386163217 
2366	 0.203096716744976 
2367	 0.203177072419854 
2368	 0.202803172942053 
2369	 0.202840705801437 
2370	 0.202679986642575 
2371	 0.202323368289005 
2372	 0.202435521129283 
2373	 0.202290863845156 
2374	 0.202067083954176 
2375	 0.202264422193769 
2376	 0.20241572450225 
2377	 0.202518282351811 
2378	 0.202638297384735 
2379	 0.202607923879316 
2380	 0.202591325241761 
2381	 0.202498836539098 
2382	 0.202524522892546 
2383	 0.202722337769054 
2384	 0.202851619863885 
2385	 0.202999529298146 
2386	 0.203050077405213 
2387	 0.203093626833284 
2388	 0.203089004943494 
2389	 0.202935712594305 
2390	 0.202806828162086 
2391	 0.202641490894589 
2392	 0.20252931416266 
2393	 0.202359984190059 
2394	 0.202511338006854 
2395	 0.203000696600277 
2396	 0.203184585819101 
2397	 0.203322527118209 
2398	 0.203376263900683 
2399	 0.203159425591067 
2400	 0.203190386976828 
2401	 0.203436265745742 
2402	 0.203655531242993 
2403	 0.203977077377839 
2404	 0.204309937970709 
2405	 0.204354381728261 
2406	 0.204470211972969 
2407	 0.204577961724624 
2408	 0.204743534569985 
2409	 0.204960465091223 
2410	 0.205056663389079 
2411	 0.204775256015275 
2412	 0.204390504068068 
2413	 0.204242068103423 
2414	 0.204116988986989 
2415	 0.204173902787386 
2416	 0.204494915160568 
2417	 0.204877541290774 
2418	 0.204993976906541 
2419	 0.204939789219565 
2420	 0.204699788160163 
2421	 0.204454120000666 
2422	 0.204762373606134 
2423	 0.205382004792637 
2424	 0.205610877349651 
2425	 0.205414437117488 
2426	 0.205225943583827 
2427	 0.20503393085799 
2428	 0.20517773457962 
2429	 0.205459419060897 
2430	 0.205134447518349 
2431	 0.204656618704388 
2432	 0.204463698620755 
2433	 0.203880660076049 
2434	 0.203291991747812 
2435	 0.2034380516918 
2436	 0.203810827013277 
2437	 0.204309511093006 
2438	 0.204681914224641 
2439	 0.20469283245327 
2440	 0.204191077922671 
2441	 0.203474427774938 
2442	 0.203311221395908 
2443	 0.203169266957087 
2444	 0.203056146349081 
2445	 0.2034829422442 
2446	 0.20394597709635 
2447	 0.204151390080369 
2448	 0.204373996848595 
2449	 0.204375785766932 
2450	 0.204014971704903 
2451	 0.203414216773303 
2452	 0.202378387844549 
2453	 0.200923643255126 
2454	 0.199566976922102 
2455	 0.199261969452038 
2456	 0.199623066157615 
2457	 0.199881170906023 
2458	 0.200218352722095 
2459	 0.200378832176325 
2460	 0.200285410234724 
2461	 0.200068556952304 
2462	 0.199806930829645 
2463	 0.19899157423235 
2464	 0.198114093511081 
2465	 0.198014124139578 
2466	 0.197609326602807 
2467	 0.19751581586669 
2468	 0.197606364570053 
2469	 0.197190709198903 
2470	 0.197228348879944 
2471	 0.197474077558948 
2472	 0.197296814700491 
2473	 0.196848389835246 
2474	 0.196864412050777 
2475	 0.197293846954082 
2476	 0.197869156007149 
2477	 0.198367970108512 
2478	 0.198564974644054 
2479	 0.198783763809293 
2480	 0.197956918202612 
2481	 0.197631372008769 
2482	 0.197665722498638 
2483	 0.197171665378694 
2484	 0.197928631056679 
2485	 0.198285447754347 
2486	 0.198091015226973 
2487	 0.198414044484195 
2488	 0.198206822508181 
2489	 0.198008743732725 
2490	 0.198308751510324 
2491	 0.198154969297468 
2492	 0.197599252734526 
2493	 0.198246537609887 
2494	 0.198885619364068 
2495	 0.199861432164012 
2496	 0.202346895850795 
2497	 0.204170013397041 
2498	 0.205714993179599 
2499	 0.206223929134518 
2500	 0.205500505967645 
