Wavelength	Tablay400088.asd
350	 0.157052792057052 
351	 0.166513394088951 
352	 0.26398905032883 
353	 0.369400075518403 
354	 0.193865737568258 
355	 0.170191180049201 
356	 0.219982302657082 
357	 0.216430361013183 
358	 0.209577360496722 
359	 0.176920070206533 
360	 0.166836252657095 
361	 0.2337624486856 
362	 0.203833612254187 
363	 0.159711554799195 
364	 0.135789690750448 
365	 5.27059763187114E-02 
366	 8.31666473930617E-02 
367	 0.151035635313959 
368	 0.160996127174706 
369	 0.197449213854299 
370	 0.160111569192925 
371	 0.118016017737008 
372	 0.196015237743567 
373	 0.157791593715314 
374	 0.110810152267242 
375	 0.111565326819066 
376	 7.75506384491318E-02 
377	 0.121413860758114 
378	 0.164639967870672 
379	 0.126032367063984 
380	 0.106925416591802 
381	 0.100785147022255 
382	 0.091127188204465 
383	 6.22221325542986E-02 
384	 0.100314341875313 
385	 0.114639336473797 
386	 8.59733791442042E-02 
387	 0.120868662247453 
388	 0.131030397535392 
389	 0.122530524046773 
390	 0.120882612587844 
391	 0.126464025371319 
392	 0.111721920170802 
393	 7.84849200846898E-02 
394	 4.98611706544355E-02 
395	 6.10849111441238E-02 
396	 0.081738401725238 
397	 9.25225814131756E-02 
398	 0.10710498014915 
399	 9.77283952466666E-02 
400	 9.05558204106877E-02 
401	 0.10863902306132 
402	 0.107094941551922 
403	 9.86011064993166E-02 
404	 8.78782097188362E-02 
405	 0.075457222229066 
406	 0.100703752317905 
407	 0.108565958464773 
408	 7.76946395725434E-02 
409	 7.39860392950306E-02 
410	 7.63219663864795E-02 
411	 7.76914625801351E-02 
412	 0.07793187571285 
413	 0.095430559975284 
414	 9.32961199492434E-02 
415	 7.49169682416411E-02 
416	 7.87461633472431E-02 
417	 8.45459435182039E-02 
418	 8.27716915299838E-02 
419	 0.073934966446975 
420	 7.76160439955643E-02 
421	 7.58737342469636E-02 
422	 7.32125391359504E-02 
423	 7.98551974935832E-02 
424	 8.27352439949752E-02 
425	 8.23098885974514E-02 
426	 7.96543008331988E-02 
427	 7.52510420557783E-02 
428	 7.97808913040008E-02 
429	 8.45188389842011E-02 
430	 0.0820208171845 
431	 8.07919557050793E-02 
432	 7.82654097700572E-02 
433	 7.75939101568077E-02 
434	 8.30798305122514E-02 
435	 8.06695967804122E-02 
436	 8.28318112905827E-02 
437	 9.05139200618752E-02 
438	 8.33356007082661E-02 
439	 8.13765279428021E-02 
440	 8.32824139181049E-02 
441	 8.37743267996175E-02 
442	 8.80406446996162E-02 
443	 9.01756902295233E-02 
444	 8.94008812524215E-02 
445	 8.89204660336076E-02 
446	 8.57200645377037E-02 
447	 0.086334238310674 
448	 9.19796048223642E-02 
449	 8.98077337063337E-02 
450	 8.81945793352958E-02 
451	 8.96912495043639E-02 
452	 9.35095210733387E-02 
453	 9.24227423727312E-02 
454	 9.10508695356745E-02 
455	 9.10498654205123E-02 
456	 0.090139504776091 
457	 9.12351862026012E-02 
458	 9.19716079157766E-02 
459	 9.08133418375398E-02 
460	 9.18296267294464E-02 
461	 9.28602985162272E-02 
462	 9.36752652026628E-02 
463	 9.49205001208378E-02 
464	 9.55875938909294E-02 
465	 9.45342339901969E-02 
466	 9.24655761620729E-02 
467	 9.27854522399722E-02 
468	 9.34144767892163E-02 
469	 0.093454937253177 
470	 9.30263849668422E-02 
471	 0.095430488507717 
472	 9.44137659466694E-02 
473	 9.09288915494837E-02 
474	 9.11622272302164E-02 
475	 9.04859653509041E-02 
476	 9.12101395419434E-02 
477	 9.32876275102254E-02 
478	 8.89604818474085E-02 
479	 8.69814477710744E-02 
480	 8.78973832674307E-02 
481	 8.88862753028801E-02 
482	 8.74797980165294E-02 
483	 8.60368128983747E-02 
484	 8.55319360609464E-02 
485	 8.50124977327502E-02 
486	 0.083466822217976 
487	 8.24104187036907E-02 
488	 8.27120748192333E-02 
489	 8.15718942915145E-02 
490	 0.080150819520354 
491	 7.92206687717992E-02 
492	 7.90421090217745E-02 
493	 7.73088618976343E-02 
494	 7.62959134031376E-02 
495	 0.076780217858404 
496	 7.63752115449108E-02 
497	 0.07564469122096 
498	 0.074863309539989 
499	 0.074096048112037 
500	 7.24045672630689E-02 
501	 7.24102049244222E-02 
502	 7.32065004329808E-02 
503	 7.11113694454169E-02 
504	 7.00585078817834E-02 
505	 6.95468576850689E-02 
506	 6.86726628781814E-02 
507	 6.73304045044356E-02 
508	 6.71343550109139E-02 
509	 0.067317343774382 
510	 0.066389527888166 
511	 6.59070643229031E-02 
512	 6.44872600981574E-02 
513	 6.25927953935044E-02 
514	 6.32723408350877E-02 
515	 6.28192810679499E-02 
516	 6.15490489682796E-02 
517	 6.05388173011588E-02 
518	 5.97344299423371E-02 
519	 5.90091703708104E-02 
520	 0.058442923408882 
521	 5.81987946535431E-02 
522	 5.77447656738487E-02 
523	 5.70221698238761E-02 
524	 0.056187377372201 
525	 5.56940031670818E-02 
526	 5.48363722861407E-02 
527	 5.40111440519589E-02 
528	 5.38256537664843E-02 
529	 5.38975916889384E-02 
530	 5.33183183042371E-02 
531	 5.23727633575438E-02 
532	 5.25446211028079E-02 
533	 5.23298770775775E-02 
534	 5.19181528515821E-02 
535	 5.16606757714896E-02 
536	 5.12968623087864E-02 
537	 5.09341982731449E-02 
538	 5.07054434395443E-02 
539	 5.06790466611463E-02 
540	 5.01863434653745E-02 
541	 5.00540054314705E-02 
542	 0.050461071572185 
543	 5.03189843704519E-02 
544	 5.01669459887594E-02 
545	 5.03026932669652E-02 
546	 0.050732339723065 
547	 5.04403819137706E-02 
548	 5.04661734502443E-02 
549	 5.09407959076627E-02 
550	 5.11631969960989E-02 
551	 5.15651536006328E-02 
552	 5.19502321670863E-02 
553	 5.21806849878871E-02 
554	 5.25561673536774E-02 
555	 5.26517133779358E-02 
556	 5.27415500030639E-02 
557	 0.053296719736666 
558	 5.36173042839844E-02 
559	 0.053777582561033 
560	 5.38935387435955E-02 
561	 5.40298402715788E-02 
562	 5.43095136199804E-02 
563	 5.43979439629573E-02 
564	 5.40813032779666E-02 
565	 5.40824246633849E-02 
566	 0.053911152307664 
567	 5.35072383718056E-02 
568	 5.31438809939835E-02 
569	 5.28847280047005E-02 
570	 0.052526257658847 
571	 5.19638359732166E-02 
572	 5.13598565133736E-02 
573	 5.08872684120484E-02 
574	 5.04774325229995E-02 
575	 4.99569850994444E-02 
576	 4.91896764468557E-02 
577	 4.86197083471179E-02 
578	 4.83137809977236E-02 
579	 4.78772011394366E-02 
580	 4.72146996733761E-02 
581	 0.046573866673639 
582	 4.61619928842966E-02 
583	 4.57763088099803E-02 
584	 4.56079713127594E-02 
585	 4.52988470440035E-02 
586	 4.43554015326958E-02 
587	 4.41474999817214E-02 
588	 0.044074895199338 
589	 0.043741510252433 
590	 4.34634566896184E-02 
591	 4.34636432157931E-02 
592	 4.34920842397022E-02 
593	 4.33035841846948E-02 
594	 4.33874589257493E-02 
595	 4.35491113420546E-02 
596	 4.36444957529617E-02 
597	 4.35974011419321E-02 
598	 4.33141145644772E-02 
599	 4.31956189357204E-02 
600	 4.34062245785969E-02 
601	 4.33516833093501E-02 
602	 4.33298873141644E-02 
603	 4.33522064227906E-02 
604	 4.33275940165914E-02 
605	 0.043291699315844 
606	 4.32800943198745E-02 
607	 4.33678929376608E-02 
608	 4.36760135468921E-02 
609	 4.37196969482099E-02 
610	 4.35421592753262E-02 
611	 4.33533068574932E-02 
612	 4.33951348162659E-02 
613	 4.36033640387592E-02 
614	 4.37746183785962E-02 
615	 4.36625556119705E-02 
616	 4.35218010851523E-02 
617	 4.34544119505204E-02 
618	 4.34826974356386E-02 
619	 4.35358626373576E-02 
620	 0.043550747886081 
621	 4.35529362200255E-02 
622	 4.35852268789869E-02 
623	 4.36029581319798E-02 
624	 4.35892415812447E-02 
625	 4.35445198332644E-02 
626	 0.043487035955203 
627	 0.043501210481661 
628	 4.33983013656084E-02 
629	 4.31084180283235E-02 
630	 4.29698176383595E-02 
631	 4.28733203413733E-02 
632	 4.28166695212225E-02 
633	 4.27981221304805E-02 
634	 0.042525497721422 
635	 4.24335213908576E-02 
636	 4.25939857666868E-02 
637	 4.25646444893532E-02 
638	 0.042285998761362 
639	 4.20946702735469E-02 
640	 4.22302829997122E-02 
641	 4.22863132990703E-02 
642	 4.22975678436804E-02 
643	 4.22572391641414E-02 
644	 4.21518564141401E-02 
645	 4.20668694617969E-02 
646	 4.21747805660296E-02 
647	 4.24116505985872E-02 
648	 4.23167776614366E-02 
649	 4.23249334777692E-02 
650	 4.22867900459603E-02 
651	 4.20890170812933E-02 
652	 4.25556670605207E-02 
653	 4.28791870231839E-02 
654	 4.28860047065895E-02 
655	 4.29655442930593E-02 
656	 4.33321217900897E-02 
657	 4.36275379752355E-02 
658	 4.36953050002918E-02 
659	 4.40013360847556E-02 
660	 4.43903582326369E-02 
661	 4.47113585063309E-02 
662	 4.49203680646482E-02 
663	 4.55851351970363E-02 
664	 4.63279972827581E-02 
665	 4.69012331010139E-02 
666	 4.72758773870154E-02 
667	 4.80262132294685E-02 
668	 4.88851052653502E-02 
669	 4.96227857393361E-02 
670	 5.05583761436461E-02 
671	 5.16305732544437E-02 
672	 5.28409650926877E-02 
673	 5.41943740403465E-02 
674	 5.55495738134822E-02 
675	 5.70361117431591E-02 
676	 5.87606301985268E-02 
677	 6.07728893431399E-02 
678	 6.27808562728286E-02 
679	 6.49899850515835E-02 
680	 0.067557230300298 
681	 7.01008776725077E-02 
682	 7.29954798129403E-02 
683	 7.62030537096012E-02 
684	 7.94922398893325E-02 
685	 8.30316672148443E-02 
686	 8.68032093097671E-02 
687	 0.090747866522527 
688	 9.47891001857162E-02 
689	 9.91136748052551E-02 
690	 0.103674578936382 
691	 0.108361624841678 
692	 0.113033919534714 
693	 0.117906446820328 
694	 0.122993518550676 
695	 0.128172409743265 
696	 0.133414407724646 
697	 0.138648680536576 
698	 0.143797709989301 
699	 0.148792162153374 
700	 0.153949963004144 
701	 0.159101617962869 
702	 0.164035314451535 
703	 0.168906064844354 
704	 0.1736464928298 
705	 0.178285752035976 
706	 0.182898349624922 
707	 0.187211648954598 
708	 0.191395756458776 
709	 0.195527455637794 
710	 0.199422845018589 
711	 0.203242462659274 
712	 0.206932856251493 
713	 0.210371969249724 
714	 0.213387914234364 
715	 0.216422831850676 
716	 0.219485379764265 
717	 0.222271459126972 
718	 0.224836096069767 
719	 0.227331793282046 
720	 0.229750777085738 
721	 0.231780533991853 
722	 0.233810918077531 
723	 0.235774643540415 
724	 0.237543159774304 
725	 0.239342072613571 
726	 0.240956518004816 
727	 0.242369517911409 
728	 0.243714169715592 
729	 0.245049744844784 
730	 0.246246524827564 
731	 0.247310257929427 
732	 0.248511255560719 
733	 0.249592287671113 
734	 0.250454183782901 
735	 0.251114995411433 
736	 0.251795108050269 
737	 0.252570500546825 
738	 0.25342335912805 
739	 0.254250765370413 
740	 0.254828082448412 
741	 0.255415474128156 
742	 0.256066823560051 
743	 0.256441508766086 
744	 0.256863987271926 
745	 0.257383772443997 
746	 0.257935140219617 
747	 0.258342283968607 
748	 0.258713364962096 
749	 0.259059098230463 
750	 0.259356106794879 
751	 0.259795208575878 
752	 0.260148139598924 
753	 0.260344959544581 
754	 0.260571402470885 
755	 0.260982918659137 
756	 0.261388993299002 
757	 0.261618081516302 
758	 0.261791695133891 
759	 0.262010784337938 
760	 0.262338186082703 
761	 0.262758491163254 
762	 0.262963783896322 
763	 0.263167213121558 
764	 0.263432498174452 
765	 0.263630138242111 
766	 0.263919169846853 
767	 0.264230970987599 
768	 0.264479370302034 
769	 0.264623300352992 
770	 0.264891591532346 
771	 0.265183872541653 
772	 0.265343621125825 
773	 0.265590148442871 
774	 0.265901973225209 
775	 0.266186604605197 
776	 0.266330156466538 
777	 0.266554569781044 
778	 0.266812028206306 
779	 0.26704978811329 
780	 0.267276636530321 
781	 0.267516460529034 
782	 0.267709395887848 
783	 0.267832765982868 
784	 0.268068803884962 
785	 0.268342041179075 
786	 0.268622052020704 
787	 0.268895495858421 
788	 0.269065744415194 
789	 0.269331151483826 
790	 0.269639400389841 
791	 0.269641132321002 
792	 0.269839360419041 
793	 0.270136890950942 
794	 0.270366063969375 
795	 0.270497836981826 
796	 0.270651332988544 
797	 0.270914468288289 
798	 0.271290604846381 
799	 0.271496402079361 
800	 0.271575657650777 
801	 0.271655854847304 
802	 0.271895620250698 
803	 0.272221440717937 
804	 0.272423261065623 
805	 0.272504267434047 
806	 0.272801780485171 
807	 0.272856758144827 
808	 0.272942811711167 
809	 0.273301264043216 
810	 0.273544230025474 
811	 0.273660148694873 
812	 0.273741974776541 
813	 0.273909737867895 
814	 0.274086469299536 
815	 0.274222101596164 
816	 0.274344878052282 
817	 0.274533509726268 
818	 0.274599969825556 
819	 0.274742045197026 
820	 0.275004354853681 
821	 0.2750931732131 
822	 0.275214680399381 
823	 0.275333909039395 
824	 0.275413669138826 
825	 0.27561957986057 
826	 0.275701076401428 
827	 0.275736038382143 
828	 0.275903983134753 
829	 0.27600178337316 
830	 0.276172060747276 
831	 0.276337086809685 
832	 0.276258207883337 
833	 0.276286961721525 
834	 0.276403332631484 
835	 0.276527501489551 
836	 0.276579777581532 
837	 0.276852681250471 
838	 0.276967876962104 
839	 0.276729946309714 
840	 0.27692841244051 
841	 0.277028319354514 
842	 0.276990045017375 
843	 0.276973604502246 
844	 0.277068116752582 
845	 0.277148940353622 
846	 0.277164874373002 
847	 0.277145129732461 
848	 0.277233355960766 
849	 0.277257373675326 
850	 0.277200695062183 
851	 0.277275374839736 
852	 0.277377449654991 
853	 0.277382766450391 
854	 0.277283448427728 
855	 0.277321183542449 
856	 0.277349397523263 
857	 0.277301708975468 
858	 0.277207867328658 
859	 0.277362640198623 
860	 0.277311874975537 
861	 0.277208048498595 
862	 0.277398518761085 
863	 0.277358608391573 
864	 0.277246553012188 
865	 0.277223906582413 
866	 0.277368512062101 
867	 0.2773257934711 
868	 0.277225219194798 
869	 0.277162903561712 
870	 0.277093787529849 
871	 0.277160387842777 
872	 0.277163235376483 
873	 0.277020965503238 
874	 0.277069504530382 
875	 0.277177642676387 
876	 0.277155143765101 
877	 0.276923861912883 
878	 0.276839996815531 
879	 0.276903753510299 
880	 0.276940094248879 
881	 0.27677358761445 
882	 0.276707164275718 
883	 0.276764344090747 
884	 0.276817772505495 
885	 0.276691687946878 
886	 0.276703574683001 
887	 0.276778500526548 
888	 0.276714407926593 
889	 0.276290674610472 
890	 0.276488527066982 
891	 0.276587227787827 
892	 0.276265284729176 
893	 0.276393468038701 
894	 0.276309245949346 
895	 0.276159545357039 
896	 0.276156987892727 
897	 0.276166497028346 
898	 0.276063508588291 
899	 0.27596747263709 
900	 0.276009319550583 
901	 0.276026438293135 
902	 0.275876206137938 
903	 0.275681943572 
904	 0.27564836169706 
905	 0.275629647349322 
906	 0.275567383676498 
907	 0.275497057673685 
908	 0.275499609308045 
909	 0.275490727134672 
910	 0.275331625317746 
911	 0.275119674226142 
912	 0.275149423115032 
913	 0.275190936641612 
914	 0.275099556701997 
915	 0.274910385915362 
916	 0.274867783371747 
917	 0.274864758885979 
918	 0.274898368980544 
919	 0.274934380982439 
920	 0.274854421786978 
921	 0.2748668233563 
922	 0.274800096023675 
923	 0.274587693128464 
924	 0.274680611770635 
925	 0.274641503495321 
926	 0.274598145106401 
927	 0.274726330991825 
928	 0.274712344873241 
929	 0.274870941629603 
930	 0.274969003383423 
931	 0.274731146643295 
932	 0.274713822577101 
933	 0.274794014740564 
934	 0.274784811044991 
935	 0.274587584963429 
936	 0.274700039897441 
937	 0.274743660449461 
938	 0.274684317241135 
939	 0.27473361981061 
940	 0.274805530919584 
941	 0.274757885431833 
942	 0.274666225112558 
943	 0.274744896515961 
944	 0.274698405882634 
945	 0.274585366503448 
946	 0.274537555609487 
947	 0.274676065951938 
948	 0.274690168168489 
949	 0.274667737323503 
950	 0.274705248182197 
951	 0.274814392552714 
952	 0.274797920195786 
953	 0.274657985753591 
954	 0.274456620582243 
955	 0.274284266695854 
956	 0.274450130421223 
957	 0.274562271124682 
958	 0.274404872066646 
959	 0.274317812635834 
960	 0.274271593559751 
961	 0.274308814925545 
962	 0.274339845291271 
963	 0.274019781822726 
964	 0.273916810024162 
965	 0.27392295184456 
966	 0.273828012335458 
967	 0.273616619961876 
968	 0.273594740072833 
969	 0.273745986383676 
970	 0.273896466864417 
971	 0.273766291886138 
972	 0.273571231549622 
973	 0.273479533966256 
974	 0.273468286153749 
975	 0.273020491481793 
976	 0.273023576628396 
977	 0.273013275355554 
978	 0.272551319958351 
979	 0.27268355583674 
980	 0.272433610940849 
981	 0.272121529985594 
982	 0.272249913856348 
983	 0.272468304097602 
984	 0.272527605358461 
985	 0.272236970617775 
986	 0.271719150557026 
987	 0.271913793690494 
988	 0.271995338400624 
989	 0.271729993673051 
990	 0.271276585471203 
991	 0.271235358675922 
992	 0.271379199544984 
993	 0.271376349520237 
994	 0.27106878777324 
995	 0.270970544470369 
996	 0.271042186752766 
997	 0.270896236229893 
998	 0.270331551931379 
999	 0.270143028981654 
1000	 0.270116218428111 
1001	 0.271133764310599 
1002	 0.271214247995781 
1003	 0.271126954704062 
1004	 0.270936882200938 
1005	 0.270661708306858 
1006	 0.270388371189345 
1007	 0.269928833038399 
1008	 0.26969082819795 
1009	 0.269546952742584 
1010	 0.269400158207178 
1011	 0.26933897689984 
1012	 0.269237054282723 
1013	 0.269231937572121 
1014	 0.269084447464597 
1015	 0.268826218022063 
1016	 0.268556294797212 
1017	 0.268587945278756 
1018	 0.268230912144809 
1019	 0.267804266502197 
1020	 0.267692184645174 
1021	 0.267519608628507 
1022	 0.267236929793305 
1023	 0.267067945217656 
1024	 0.267209808843739 
1025	 0.266982102625394 
1026	 0.266444433586844 
1027	 0.266085747555742 
1028	 0.265688951333724 
1029	 0.265288103825704 
1030	 0.264939929535495 
1031	 0.26493893137225 
1032	 0.264833094832461 
1033	 0.264507592704838 
1034	 0.26409874146876 
1035	 0.263543377852125 
1036	 0.263168538083797 
1037	 0.262781155397645 
1038	 0.262470396948822 
1039	 0.262381896256669 
1040	 0.262040688399902 
1041	 0.261503169139489 
1042	 0.261101807580344 
1043	 0.260693455097078 
1044	 0.260308290346835 
1045	 0.259881870657488 
1046	 0.259550672932582 
1047	 0.259256334342621 
1048	 0.258956596334494 
1049	 0.258756391703035 
1050	 0.258445542921633 
1051	 0.257848799289101 
1052	 0.257333045093015 
1053	 0.256860608407065 
1054	 0.25635637942477 
1055	 0.255851182310198 
1056	 0.25544403196204 
1057	 0.254968109991643 
1058	 0.254374329205363 
1059	 0.254000602009673 
1060	 0.253633970987463 
1061	 0.253212749107298 
1062	 0.252911160250788 
1063	 0.252453321886381 
1064	 0.251972229972091 
1065	 0.251699244162219 
1066	 0.251476485307633 
1067	 0.251206565506089 
1068	 0.250898873743931 
1069	 0.250468399472932 
1070	 0.250008569782705 
1071	 0.249359813697703 
1072	 0.248914806735554 
1073	 0.248651796028695 
1074	 0.248331676425725 
1075	 0.248014232995573 
1076	 0.247589470608118 
1077	 0.247065520292675 
1078	 0.246607673956088 
1079	 0.246100434242763 
1080	 0.245677229404726 
1081	 0.245315251731123 
1082	 0.244847451711615 
1083	 0.244410514597415 
1084	 0.243935890925644 
1085	 0.243362271023915 
1086	 0.242855776129665 
1087	 0.242327658384046 
1088	 0.24189224168411 
1089	 0.241506813153978 
1090	 0.241076423989032 
1091	 0.240588474570592 
1092	 0.240058687687882 
1093	 0.23947444965209 
1094	 0.238899902453905 
1095	 0.238337267599123 
1096	 0.237766968145116 
1097	 0.23731056966344 
1098	 0.236830992068439 
1099	 0.236294783750772 
1100	 0.235879880508204 
1101	 0.235387516961351 
1102	 0.234716966784484 
1103	 0.234062763608761 
1104	 0.2334165911578 
1105	 0.232707715154929 
1106	 0.231981540590861 
1107	 0.23138538199606 
1108	 0.230776521399239 
1109	 0.230133212370815 
1110	 0.229491660066263 
1111	 0.228722700432332 
1112	 0.228020696696407 
1113	 0.227379281938585 
1114	 0.226637605422074 
1115	 0.22597695932268 
1116	 0.225328140445272 
1117	 0.224662168793176 
1118	 0.223956704632716 
1119	 0.22321351682017 
1120	 0.222444916899754 
1121	 0.221657039109729 
1122	 0.220823768027253 
1123	 0.220022097193871 
1124	 0.219332121542153 
1125	 0.218674557428097 
1126	 0.218003444507916 
1127	 0.217265667574024 
1128	 0.216408603199507 
1129	 0.215553120531643 
1130	 0.214799662761123 
1131	 0.214102208424215 
1132	 0.213398931945075 
1133	 0.212701780745428 
1134	 0.211994418632279 
1135	 0.211255720627892 
1136	 0.210482834526401 
1137	 0.209725854929278 
1138	 0.208958856779559 
1139	 0.208163265879178 
1140	 0.207351620393325 
1141	 0.206545608880999 
1142	 0.205657702577056 
1143	 0.204854047901033 
1144	 0.204050464796577 
1145	 0.203203837687504 
1146	 0.202472075222388 
1147	 0.201703067829946 
1148	 0.200891467343818 
1149	 0.200128917745565 
1150	 0.199330872622732 
1151	 0.198561064580685 
1152	 0.19780009053817 
1153	 0.197062249949014 
1154	 0.196294075447484 
1155	 0.195554868692874 
1156	 0.194746698083529 
1157	 0.193814744233941 
1158	 0.193036951328146 
1159	 0.192312778468572 
1160	 0.191587077162113 
1161	 0.190884515483969 
1162	 0.190195606980532 
1163	 0.189369192711914 
1164	 0.188475986002932 
1165	 0.187680765558871 
1166	 0.186893639366136 
1167	 0.186122721161384 
1168	 0.185462315851083 
1169	 0.184723343753675 
1170	 0.183926119210018 
1171	 0.183177492866784 
1172	 0.182457404261118 
1173	 0.181700947768112 
1174	 0.180950087221548 
1175	 0.180228610156146 
1176	 0.179471134312578 
1177	 0.178731264338601 
1178	 0.178007975043874 
1179	 0.177332627995929 
1180	 0.176667790776097 
1181	 0.175931348244857 
1182	 0.175226343567621 
1183	 0.17453671610241 
1184	 0.173762585106162 
1185	 0.173056168914677 
1186	 0.172324939526463 
1187	 0.171529338008947 
1188	 0.170851380371893 
1189	 0.170247583640991 
1190	 0.169603533554141 
1191	 0.169060078593979 
1192	 0.168406645570316 
1193	 0.167646119267285 
1194	 0.166953514207488 
1195	 0.166210513315361 
1196	 0.165528870990811 
1197	 0.16490124435192 
1198	 0.164286419567314 
1199	 0.163681116221316 
1200	 0.16317407385944 
1201	 0.16258942962625 
1202	 0.161962296404855 
1203	 0.161332496807843 
1204	 0.160706464522819 
1205	 0.160110537189548 
1206	 0.159562810458353 
1207	 0.15896450010018 
1208	 0.158311895917921 
1209	 0.157773956276543 
1210	 0.157288471027914 
1211	 0.156778938675738 
1212	 0.156334274375413 
1213	 0.155864676711786 
1214	 0.155314379401722 
1215	 0.154852562023819 
1216	 0.154474029637413 
1217	 0.15406797847733 
1218	 0.153639394111515 
1219	 0.153310206957434 
1220	 0.152938166613788 
1221	 0.152503908956624 
1222	 0.152120525498396 
1223	 0.151705214662759 
1224	 0.151304686573428 
1225	 0.150914061413961 
1226	 0.150516104728426 
1227	 0.150127511127497 
1228	 0.149707861289062 
1229	 0.149241112631006 
1230	 0.148845430939818 
1231	 0.148462609227902 
1232	 0.14808057959702 
1233	 0.147785034483062 
1234	 0.147400508580176 
1235	 0.146936036322346 
1236	 0.146523459185897 
1237	 0.146066660141771 
1238	 0.145674754559558 
1239	 0.145395906358984 
1240	 0.145018598222249 
1241	 0.144656054465008 
1242	 0.144330148552381 
1243	 0.143965545259686 
1244	 0.143565674525442 
1245	 0.143196367693245 
1246	 0.142820666696408 
1247	 0.142475828019995 
1248	 0.14214947867777 
1249	 0.14182347173204 
1250	 0.141537901356202 
1251	 0.141212064023529 
1252	 0.140839771459729 
1253	 0.140523309336256 
1254	 0.140246384896566 
1255	 0.139914073090818 
1256	 0.139584307570015 
1257	 0.139256893033628 
1258	 0.138825543887811 
1259	 0.138507996178796 
1260	 0.138329481275307 
1261	 0.138061941505046 
1262	 0.137793228749797 
1263	 0.137530702123749 
1264	 0.137235989091524 
1265	 0.136860463585226 
1266	 0.136561096853377 
1267	 0.136292348043727 
1268	 0.136033555529267 
1269	 0.135799306585182 
1270	 0.135540462003169 
1271	 0.135268180389048 
1272	 0.13504227715489 
1273	 0.134854383583628 
1274	 0.1346110924288 
1275	 0.134328902316422 
1276	 0.134138572334234 
1277	 0.133950757828777 
1278	 0.133775558907297 
1279	 0.133706430421491 
1280	 0.13359539038967 
1281	 0.133435891948166 
1282	 0.133290690502198 
1283	 0.133162713623476 
1284	 0.133041996217821 
1285	 0.132922376278966 
1286	 0.132773135144709 
1287	 0.132698082376193 
1288	 0.132675857775813 
1289	 0.132613444350321 
1290	 0.132569568048756 
1291	 0.132519890019295 
1292	 0.132432194872613 
1293	 0.132401521157165 
1294	 0.132404162783713 
1295	 0.132415411121369 
1296	 0.132456878129508 
1297	 0.132488183326426 
1298	 0.132536909116543 
1299	 0.132572654952618 
1300	 0.132579881165752 
1301	 0.132628737602049 
1302	 0.132682036926972 
1303	 0.132764291225363 
1304	 0.132947524682106 
1305	 0.133030338648046 
1306	 0.133036757630211 
1307	 0.133096408756613 
1308	 0.1331163264008 
1309	 0.133149279342082 
1310	 0.133245274794962 
1311	 0.133429627487111 
1312	 0.133548843837409 
1313	 0.133654694901909 
1314	 0.133791435322115 
1315	 0.133968296859945 
1316	 0.134053808503754 
1317	 0.134115835498576 
1318	 0.134177021042961 
1319	 0.13411446971873 
1320	 0.134206499262721 
1321	 0.134407484018778 
1322	 0.134558281052199 
1323	 0.134803794750199 
1324	 0.134924780356416 
1325	 0.13491592628869 
1326	 0.135004153533489 
1327	 0.135079436842733 
1328	 0.135173780603804 
1329	 0.135369982229309 
1330	 0.135489518349807 
1331	 0.135526486842967 
1332	 0.135614394447763 
1333	 0.135708704398829 
1334	 0.135807456083704 
1335	 0.13589162457265 
1336	 0.135997302517097 
1337	 0.136088953365842 
1338	 0.13616013620731 
1339	 0.136219082225342 
1340	 0.136276839756669 
1341	 0.136347131811493 
1342	 0.136361363567783 
1343	 0.136481114888274 
1344	 0.136712556493705 
1345	 0.136829851704562 
1346	 0.136925545999937 
1347	 0.137046205673437 
1348	 0.137131431190647 
1349	 0.137213876669648 
1350	 0.137328477783498 
1351	 0.137431905040371 
1352	 0.137477104809069 
1353	 0.137568324044268 
1354	 0.137727245658835 
1355	 0.137835857078414 
1356	 0.137933291178723 
1357	 0.138017233707307 
1358	 0.138036128297882 
1359	 0.138116145974079 
1360	 0.138232007520348 
1361	 0.138339078617029 
1362	 0.138441458163983 
1363	 0.13858471103209 
1364	 0.138700247076944 
1365	 0.138784067315599 
1366	 0.138898161664957 
1367	 0.139058142595583 
1368	 0.139130238597376 
1369	 0.13916100931263 
1370	 0.13921620838865 
1371	 0.139223361819086 
1372	 0.139278078722533 
1373	 0.139394082072438 
1374	 0.139442079433154 
1375	 0.139459613824942 
1376	 0.139489637732303 
1377	 0.139489879128692 
1378	 0.139515741376888 
1379	 0.139577000486071 
1380	 0.139601336341252 
1381	 0.139605417871386 
1382	 0.139620322173649 
1383	 0.139648957511888 
1384	 0.139633948677177 
1385	 0.139586125902812 
1386	 0.139560818354368 
1387	 0.139516342324895 
1388	 0.139468062037658 
1389	 0.139424845106777 
1390	 0.139401756969747 
1391	 0.139374636401148 
1392	 0.139349057036119 
1393	 0.139348906871994 
1394	 0.139354246705534 
1395	 0.139316699876671 
1396	 0.139241209091775 
1397	 0.139185732263004 
1398	 0.139110732746981 
1399	 0.139066499021874 
1400	 0.139063328423394 
1401	 0.138986530593751 
1402	 0.138897004677898 
1403	 0.138787294283647 
1404	 0.138623033644817 
1405	 0.138474228834738 
1406	 0.138335477987001 
1407	 0.138170672022276 
1408	 0.137950339442794 
1409	 0.137795169737177 
1410	 0.137703185365722 
1411	 0.137529634494272 
1412	 0.137342952425505 
1413	 0.137157661428794 
1414	 0.136872567718598 
1415	 0.136682273593302 
1416	 0.136582813570748 
1417	 0.136437847389125 
1418	 0.136326675118915 
1419	 0.136170453292912 
1420	 0.135934434875784 
1421	 0.135764023744387 
1422	 0.135615025219362 
1423	 0.135459574443055 
1424	 0.135311170239999 
1425	 0.135235193810085 
1426	 0.135057153456083 
1427	 0.134863703130042 
1428	 0.134718915230081 
1429	 0.134499789049388 
1430	 0.134311328410247 
1431	 0.134142800214492 
1432	 0.133943701753831 
1433	 0.133705950753202 
1434	 0.133519909257101 
1435	 0.133333440951644 
1436	 0.13317653333208 
1437	 0.133072004021521 
1438	 0.13292713343802 
1439	 0.132805547159509 
1440	 0.132624663063762 
1441	 0.132389742952797 
1442	 0.13217880829997 
1443	 0.131910027920908 
1444	 0.131723890439795 
1445	 0.131601934577873 
1446	 0.131454228414612 
1447	 0.13132864008398 
1448	 0.131201260002958 
1449	 0.13105374942972 
1450	 0.130933839330625 
1451	 0.130826027797042 
1452	 0.130751611900353 
1453	 0.130717677961585 
1454	 0.130657244644575 
1455	 0.130612944123796 
1456	 0.130565626619562 
1457	 0.130502234345093 
1458	 0.130437181490776 
1459	 0.13037719893504 
1460	 0.130320472713266 
1461	 0.130237770269322 
1462	 0.130186999886977 
1463	 0.130200994591163 
1464	 0.130158367597712 
1465	 0.130081189309674 
1466	 0.13002346955777 
1467	 0.12995856947988 
1468	 0.129855426046022 
1469	 0.129830464258766 
1470	 0.129812331811286 
1471	 0.129755162301066 
1472	 0.129671585629068 
1473	 0.12962813731297 
1474	 0.129575515612682 
1475	 0.129546998476091 
1476	 0.12957750450012 
1477	 0.129530126726506 
1478	 0.129446869554063 
1479	 0.12937120135124 
1480	 0.129253152789548 
1481	 0.129187655212109 
1482	 0.129151311539969 
1483	 0.129099376397863 
1484	 0.129081066459493 
1485	 0.128999309493338 
1486	 0.128868471362018 
1487	 0.128779471192736 
1488	 0.12864329571318 
1489	 0.128591107137801 
1490	 0.128620836022934 
1491	 0.128604982807008 
1492	 0.128630260288893 
1493	 0.128599113551355 
1494	 0.128502397343464 
1495	 0.12845345004316 
1496	 0.128392213157576 
1497	 0.128363000346549 
1498	 0.128376906288701 
1499	 0.128378660969185 
1500	 0.128410509294542 
1501	 0.128398379625194 
1502	 0.128343423925609 
1503	 0.128326687546301 
1504	 0.128301963148852 
1505	 0.128283646915651 
1506	 0.128316193534302 
1507	 0.128312424091457 
1508	 0.12826132503143 
1509	 0.128242474451159 
1510	 0.128223909454671 
1511	 0.12821817909495 
1512	 0.128239376410941 
1513	 0.128257785034924 
1514	 0.128296431981539 
1515	 0.128309439336654 
1516	 0.128292276047794 
1517	 0.128301623040734 
1518	 0.128314760352556 
1519	 0.128323834729854 
1520	 0.128352513885689 
1521	 0.128385040803038 
1522	 0.128384401174539 
1523	 0.128356737711024 
1524	 0.12835652124507 
1525	 0.128350256574394 
1526	 0.12836925788172 
1527	 0.128402696587563 
1528	 0.128454645897622 
1529	 0.128548422624058 
1530	 0.128556964143415 
1531	 0.128529677906709 
1532	 0.128556954854536 
1533	 0.128552809033163 
1534	 0.128579994123786 
1535	 0.1286709089202 
1536	 0.128729536219054 
1537	 0.128750909920638 
1538	 0.128810507881181 
1539	 0.128907699952863 
1540	 0.12898521667397 
1541	 0.129036343786404 
1542	 0.129146967700063 
1543	 0.129316821721803 
1544	 0.129408086948648 
1545	 0.129487403859656 
1546	 0.129581921393335 
1547	 0.12962458129691 
1548	 0.129711854823199 
1549	 0.129849057987245 
1550	 0.129970030448135 
1551	 0.130071136462208 
1552	 0.130202763267232 
1553	 0.130369535031434 
1554	 0.13051644628924 
1555	 0.130651649731954 
1556	 0.130814415453761 
1557	 0.131027864536056 
1558	 0.131150214650931 
1559	 0.131210968307306 
1560	 0.131345144159006 
1561	 0.131425105206615 
1562	 0.131588600165323 
1563	 0.131909387347146 
1564	 0.132091209038887 
1565	 0.132210393182997 
1566	 0.132357158446781 
1567	 0.132448577613351 
1568	 0.132584353679124 
1569	 0.132744971725543 
1570	 0.132930196737058 
1571	 0.133157600922817 
1572	 0.133340359632477 
1573	 0.133530795105528 
1574	 0.13371319756206 
1575	 0.133825357248373 
1576	 0.134013331432254 
1577	 0.134272187077939 
1578	 0.134487902969406 
1579	 0.134730991169952 
1580	 0.134931860703449 
1581	 0.135065513965144 
1582	 0.135251538525525 
1583	 0.135457694924177 
1584	 0.135647149700625 
1585	 0.13584692023441 
1586	 0.136053458977822 
1587	 0.136250340550552 
1588	 0.136446242041996 
1589	 0.136648660863455 
1590	 0.136862432969497 
1591	 0.137070007162294 
1592	 0.137287963243976 
1593	 0.137550763786626 
1594	 0.137772869427994 
1595	 0.137965507795221 
1596	 0.138163571484835 
1597	 0.138331546870197 
1598	 0.138526602790422 
1599	 0.138752445190232 
1600	 0.138957756728135 
1601	 0.139168550571444 
1602	 0.139365920254643 
1603	 0.139524969593947 
1604	 0.139717746662466 
1605	 0.139943078479349 
1606	 0.140138534063442 
1607	 0.140332552581994 
1608	 0.140523759668459 
1609	 0.140672298702493 
1610	 0.140861296874781 
1611	 0.141087943043762 
1612	 0.141300225373358 
1613	 0.141527131677051 
1614	 0.141741057913216 
1615	 0.141960738805684 
1616	 0.142152263467576 
1617	 0.14230967881787 
1618	 0.142483507746902 
1619	 0.142650701633373 
1620	 0.142805560943688 
1621	 0.142957762019228 
1622	 0.143127223889589 
1623	 0.143309419214514 
1624	 0.143457856509577 
1625	 0.143599229971731 
1626	 0.143741332531134 
1627	 0.143840095199996 
1628	 0.143967674637374 
1629	 0.144125378429821 
1630	 0.144276965323331 
1631	 0.144448541347761 
1632	 0.144583473125859 
1633	 0.144692813799754 
1634	 0.144824991044407 
1635	 0.144950116999388 
1636	 0.145056526266719 
1637	 0.14517602988048 
1638	 0.145277478153184 
1639	 0.145327793568345 
1640	 0.145423829702772 
1641	 0.145546103869008 
1642	 0.145663635787023 
1643	 0.145808948212991 
1644	 0.145926305301269 
1645	 0.146047524744361 
1646	 0.146133671007486 
1647	 0.146188638180578 
1648	 0.146235986569302 
1649	 0.146232342413676 
1650	 0.146264980507917 
1651	 0.146319487726791 
1652	 0.146358853141742 
1653	 0.14640493832352 
1654	 0.146454104201259 
1655	 0.146499096764729 
1656	 0.146535244633227 
1657	 0.146593432457489 
1658	 0.146610026952683 
1659	 0.146600253059419 
1660	 0.146571699964663 
1661	 0.146513884267142 
1662	 0.146444433467421 
1663	 0.146342164563088 
1664	 0.146253588855401 
1665	 0.146178438448801 
1666	 0.146063694588171 
1667	 0.145922397742534 
1668	 0.145798528376424 
1669	 0.145655317258377 
1670	 0.145514645150536 
1671	 0.145445701795227 
1672	 0.14525517880403 
1673	 0.144948957235431 
1674	 0.144698927366917 
1675	 0.144401593353843 
1676	 0.144147747549051 
1677	 0.144022437594368 
1678	 0.143737317780756 
1679	 0.143348822892299 
1680	 0.142988697924943 
1681	 0.142538252258371 
1682	 0.142135948791137 
1683	 0.141800216102307 
1684	 0.141420234847242 
1685	 0.141005571882454 
1686	 0.140591265512106 
1687	 0.14018245356544 
1688	 0.139731302308844 
1689	 0.139269283177211 
1690	 0.138763769024651 
1691	 0.138192490127064 
1692	 0.137668122911426 
1693	 0.137155520810349 
1694	 0.136612077105487 
1695	 0.136065435745326 
1696	 0.135502122533233 
1697	 0.134921455071538 
1698	 0.134293144092782 
1699	 0.133645119178529 
1700	 0.133024171400138 
1701	 0.132353461998053 
1702	 0.131703044409795 
1703	 0.131076818795447 
1704	 0.130470294074315 
1705	 0.129813827004762 
1706	 0.129339279662907 
1707	 0.128943890236622 
1708	 0.128548205376416 
1709	 0.128154422747288 
1710	 0.127700878057853 
1711	 0.127220813221036 
1712	 0.126871103362676 
1713	 0.126548391917792 
1714	 0.126246929352024 
1715	 0.126053107968054 
1716	 0.125799676327893 
1717	 0.125503363856685 
1718	 0.125234456166156 
1719	 0.12494451559647 
1720	 0.124722853095605 
1721	 0.124519426943687 
1722	 0.124339221001184 
1723	 0.124250295552578 
1724	 0.124068562910304 
1725	 0.123907659050166 
1726	 0.123874878192155 
1727	 0.123832230458711 
1728	 0.12392250347046 
1729	 0.124116781202084 
1730	 0.124201201777471 
1731	 0.124300965128421 
1732	 0.124504880365176 
1733	 0.124690100012485 
1734	 0.124975166923081 
1735	 0.125349198452775 
1736	 0.125597901821881 
1737	 0.125817759546634 
1738	 0.126074436802887 
1739	 0.126245122994154 
1740	 0.126374468286126 
1741	 0.126494669277677 
1742	 0.126543606338453 
1743	 0.126600802033234 
1744	 0.126649709543555 
1745	 0.12666875931417 
1746	 0.126721045299971 
1747	 0.126671361888264 
1748	 0.126525584959733 
1749	 0.126416851174649 
1750	 0.12623063152594 
1751	 0.126099434845778 
1752	 0.125978222868637 
1753	 0.125997685364622 
1754	 0.126078337914819 
1755	 0.126134543749185 
1756	 0.126325294648064 
1757	 0.126367018241004 
1758	 0.126438463120708 
1759	 0.126608927648876 
1760	 0.126795644517847 
1761	 0.12701332906615 
1762	 0.127270818475796 
1763	 0.127569304620481 
1764	 0.127840421872237 
1765	 0.128195550769444 
1766	 0.128690473190636 
1767	 0.129105441740194 
1768	 0.129469160257256 
1769	 0.129883293810149 
1770	 0.130223735111603 
1771	 0.130581055341268 
1772	 0.131058003048179 
1773	 0.131433626856225 
1774	 0.131689962583433 
1775	 0.132016494407531 
1776	 0.132352023595898 
1777	 0.132651392631719 
1778	 0.132992644926761 
1779	 0.133396022195293 
1780	 0.133726579756396 
1781	 0.133932440783399 
1782	 0.134163074492167 
1783	 0.134331135998325 
1784	 0.134450946938833 
1785	 0.134716296592514 
1786	 0.134969207728369 
1787	 0.135210506083245 
1788	 0.135430516288432 
1789	 0.135697470203722 
1790	 0.135877877894214 
1791	 0.135987591996825 
1792	 0.136171842680794 
1793	 0.136301882839531 
1794	 0.136479633860179 
1795	 0.136731727130041 
1796	 0.136837692191003 
1797	 0.137012000052652 
1798	 0.137250098726136 
1799	 0.137347777053618 
1800	 0.137539184845301 
1801	 0.140504846611798 
1802	 0.140808659493982 
1803	 0.141071225239165 
1804	 0.141351360556181 
1805	 0.141589726337533 
1806	 0.141804072898389 
1807	 0.141968693337877 
1808	 0.142188100043238 
1809	 0.142408541685068 
1810	 0.142615592807282 
1811	 0.142813615716135 
1812	 0.143059125321375 
1813	 0.143293016161579 
1814	 0.143568743285601 
1815	 0.14392271186229 
1816	 0.144260043836823 
1817	 0.144594193770337 
1818	 0.144969521987508 
1819	 0.145261361793855 
1820	 0.145516580152766 
1821	 0.145764161069973 
1822	 0.145931560449433 
1823	 0.146142273006865 
1824	 0.146404100374722 
1825	 0.14668375675913 
1826	 0.146996074780957 
1827	 0.147359756102457 
1828	 0.147689019015811 
1829	 0.148015988300017 
1830	 0.14837016702891 
1831	 0.148720999956529 
1832	 0.149127437673516 
1833	 0.149492558264071 
1834	 0.149813560954016 
1835	 0.150120503388987 
1836	 0.150378790035457 
1837	 0.150730383232444 
1838	 0.15115873880789 
1839	 0.151556480404199 
1840	 0.15201236092345 
1841	 0.152404841058923 
1842	 0.152764693300608 
1843	 0.153097261529046 
1844	 0.153436022260034 
1845	 0.15375709423513 
1846	 0.154129425967046 
1847	 0.154467014292182 
1848	 0.154800009969514 
1849	 0.155124141113028 
1850	 0.155477470832713 
1851	 0.155820647665364 
1852	 0.156177546418123 
1853	 0.156612709439625 
1854	 0.157019756859815 
1855	 0.157371824603997 
1856	 0.157747644946928 
1857	 0.158066912243535 
1858	 0.158339144835554 
1859	 0.158648403844084 
1860	 0.158981217988897 
1861	 0.159286866937845 
1862	 0.159596118022652 
1863	 0.159903606498704 
1864	 0.160157124612765 
1865	 0.160308696341728 
1866	 0.160525117182816 
1867	 0.160811356260094 
1868	 0.161070775125686 
1869	 0.161377744558286 
1870	 0.161624459713486 
1871	 0.161828969111633 
1872	 0.161986324529002 
1873	 0.162087377663383 
1874	 0.162202702467745 
1875	 0.162340604695699 
1876	 0.162458155233426 
1877	 0.162568657443015 
1878	 0.16268313049319 
1879	 0.162734112575245 
1880	 0.16266152365537 
1881	 0.162590392193253 
1882	 0.162486112284867 
1883	 0.162375548636782 
1884	 0.162169817363098 
1885	 0.16199144135548 
1886	 0.161807932166412 
1887	 0.161503255844745 
1888	 0.161192583713429 
1889	 0.1608409930215 
1890	 0.160354455245148 
1891	 0.159847428079561 
1892	 0.159322178764663 
1893	 0.158779302818128 
1894	 0.158193038535599 
1895	 0.157663429998821 
1896	 0.157106913295877 
1897	 0.156486760004036 
1898	 0.155925697936941 
1899	 0.155333808169465 
1900	 0.154785959548351 
1901	 0.154354104686742 
1902	 0.153903432090736 
1903	 0.153521346924883 
1904	 0.15316710095265 
1905	 0.152850574020837 
1906	 0.152514794649381 
1907	 0.152267619082186 
1908	 0.152110997648862 
1909	 0.151999660153809 
1910	 0.151930862184153 
1911	 0.151896181385465 
1912	 0.151886217049323 
1913	 0.151862804337556 
1914	 0.151873059530507 
1915	 0.151933023937034 
1916	 0.152043418347236 
1917	 0.152142447538707 
1918	 0.152298191198811 
1919	 0.152545044618789 
1920	 0.15276258753477 
1921	 0.152898867591372 
1922	 0.153050769322567 
1923	 0.153224534369177 
1924	 0.153425462322234 
1925	 0.153673868385122 
1926	 0.153901914999016 
1927	 0.15413027073322 
1928	 0.154378177686543 
1929	 0.154611916540708 
1930	 0.154870538403883 
1931	 0.155213056877952 
1932	 0.155544363618843 
1933	 0.155851800437014 
1934	 0.156194834913068 
1935	 0.156547555027024 
1936	 0.156915505525127 
1937	 0.157286680352444 
1938	 0.157672621875973 
1939	 0.158076029997097 
1940	 0.158481143148571 
1941	 0.158894191751693 
1942	 0.159394990036351 
1943	 0.159924133004556 
1944	 0.160434036420805 
1945	 0.160972748378106 
1946	 0.161502421265564 
1947	 0.162015967194787 
1948	 0.162579760364387 
1949	 0.163128086627484 
1950	 0.163696724334278 
1951	 0.164274604487013 
1952	 0.164867387220557 
1953	 0.165458934491126 
1954	 0.166099875876148 
1955	 0.166774169096686 
1956	 0.167405796499478 
1957	 0.168080935563048 
1958	 0.168809852057383 
1959	 0.169466469512627 
1960	 0.170093751297181 
1961	 0.170710968392416 
1962	 0.171288787458227 
1963	 0.171865990669304 
1964	 0.172426698700508 
1965	 0.172975501508158 
1966	 0.17350102743529 
1967	 0.174062990488029 
1968	 0.174571674865149 
1969	 0.175154285082991 
1970	 0.175709386602603 
1971	 0.176193677539469 
1972	 0.176787347280954 
1973	 0.177428217187941 
1974	 0.178029874392277 
1975	 0.178727489879662 
1976	 0.179311515011416 
1977	 0.179764877270873 
1978	 0.180283362708134 
1979	 0.180805890522745 
1980	 0.181275780629773 
1981	 0.18186872449017 
1982	 0.18251352698701 
1983	 0.183089849900305 
1984	 0.183726208171069 
1985	 0.184282306614312 
1986	 0.184725153432776 
1987	 0.185263846541809 
1988	 0.185827184486789 
1989	 0.186410496544858 
1990	 0.187052904647058 
1991	 0.187661835367086 
1992	 0.188298037032604 
1993	 0.188859274959006 
1994	 0.18937236244618 
1995	 0.189999384989407 
1996	 0.190629396165962 
1997	 0.191226602841405 
1998	 0.191853914682268 
1999	 0.192530054306301 
2000	 0.193140107174092 
2001	 0.193754627799322 
2002	 0.194325918718769 
2003	 0.194857004886207 
2004	 0.195374997712596 
2005	 0.195813657470368 
2006	 0.196303643735851 
2007	 0.196817217142401 
2008	 0.197329848818193 
2009	 0.197805758134192 
2010	 0.198292941830075 
2011	 0.198714315783822 
2012	 0.199107569272524 
2013	 0.199528263060238 
2014	 0.199985072296058 
2015	 0.200387971658593 
2016	 0.200799132014106 
2017	 0.201141152351438 
2018	 0.201418405434476 
2019	 0.201683048148686 
2020	 0.20189374493649 
2021	 0.202117490862753 
2022	 0.202310640730558 
2023	 0.202545216333727 
2024	 0.202793367776648 
2025	 0.203027563621909 
2026	 0.203233069712715 
2027	 0.203426251382608 
2028	 0.20360562333512 
2029	 0.203758076370843 
2030	 0.203894511082785 
2031	 0.204028722475756 
2032	 0.204143630007673 
2033	 0.204197541122836 
2034	 0.204298881274296 
2035	 0.204415761232303 
2036	 0.204534779374571 
2037	 0.204668799186645 
2038	 0.204785838464865 
2039	 0.204888549317485 
2040	 0.204957376741235 
2041	 0.205056194369369 
2042	 0.205171637957151 
2043	 0.20527139411351 
2044	 0.205391910514409 
2045	 0.205472013237532 
2046	 0.205499537333483 
2047	 0.205551561061765 
2048	 0.205575066674794 
2049	 0.205648003263338 
2050	 0.20574794045153 
2051	 0.205874239243373 
2052	 0.206023762317141 
2053	 0.206125416608535 
2054	 0.206273161129225 
2055	 0.206441202044515 
2056	 0.206597853708445 
2057	 0.206799467105549 
2058	 0.206927644749835 
2059	 0.206999391115773 
2060	 0.207098336598129 
2061	 0.207161068718635 
2062	 0.20725587830719 
2063	 0.207383215064252 
2064	 0.207494999583811 
2065	 0.207577844201514 
2066	 0.207717295051719 
2067	 0.207895136873616 
2068	 0.207997919599525 
2069	 0.20814293542667 
2070	 0.208325967222748 
2071	 0.208461060425201 
2072	 0.208580417645511 
2073	 0.208702128415807 
2074	 0.208814805117483 
2075	 0.208910059603595 
2076	 0.208965539504886 
2077	 0.209059952435658 
2078	 0.209176490533256 
2079	 0.209274294710617 
2080	 0.209390211825716 
2081	 0.209501033141608 
2082	 0.20963856832777 
2083	 0.209657086042973 
2084	 0.209690707088528 
2085	 0.209806888646549 
2086	 0.209923811802011 
2087	 0.210050387630271 
2088	 0.210186373128877 
2089	 0.210363302231181 
2090	 0.210514384007995 
2091	 0.210681447141212 
2092	 0.210802768738357 
2093	 0.210902889500805 
2094	 0.21100559720826 
2095	 0.211061049078165 
2096	 0.211129384118471 
2097	 0.21120488004882 
2098	 0.21128904853114 
2099	 0.211387439151644 
2100	 0.211447095978662 
2101	 0.21150817812095 
2102	 0.211600182736129 
2103	 0.211597965991042 
2104	 0.21152961906814 
2105	 0.211499706671486 
2106	 0.211400015001705 
2107	 0.211382230218218 
2108	 0.211407178226407 
2109	 0.211431997491791 
2110	 0.211542686844793 
2111	 0.211559226460486 
2112	 0.211556829226051 
2113	 0.211534864035874 
2114	 0.211445540901752 
2115	 0.211336967972748 
2116	 0.211216134807949 
2117	 0.211063458999687 
2118	 0.210930311837908 
2119	 0.210743211925554 
2120	 0.210667678066854 
2121	 0.210654704606558 
2122	 0.210620812459407 
2123	 0.210653391225871 
2124	 0.210633327665177 
2125	 0.210586882484914 
2126	 0.210551882806433 
2127	 0.2105109567173 
2128	 0.210459481653876 
2129	 0.210393422649123 
2130	 0.210338152393039 
2131	 0.210209290612558 
2132	 0.210208657304998 
2133	 0.21024776554653 
2134	 0.210387629130624 
2135	 0.210613994777802 
2136	 0.210778961048937 
2137	 0.210910757151593 
2138	 0.210998090866395 
2139	 0.211109151291876 
2140	 0.211219974534415 
2141	 0.211314036056262 
2142	 0.211329523762885 
2143	 0.21151165747832 
2144	 0.211763691674955 
2145	 0.21199058315134 
2146	 0.212370506719165 
2147	 0.212640838751174 
2148	 0.212818707700337 
2149	 0.213016531387694 
2150	 0.213195414570233 
2151	 0.213395017431691 
2152	 0.213590569244576 
2153	 0.213774620616184 
2154	 0.214019866806653 
2155	 0.214263870209611 
2156	 0.214510745448384 
2157	 0.214789683249547 
2158	 0.215007526352283 
2159	 0.215200639292676 
2160	 0.215401303907576 
2161	 0.21554411522573 
2162	 0.215762928845869 
2163	 0.216059873536467 
2164	 0.216260121950453 
2165	 0.216480205007964 
2166	 0.216637215521559 
2167	 0.216637668334711 
2168	 0.216763688414302 
2169	 0.216982508675894 
2170	 0.217107108829181 
2171	 0.217275110585745 
2172	 0.217366293143384 
2173	 0.217318336121791 
2174	 0.217306146823316 
2175	 0.217315932145446 
2176	 0.217386171984615 
2177	 0.21751345357443 
2178	 0.21771665999456 
2179	 0.217903733482877 
2180	 0.218177346615188 
2181	 0.218327930722896 
2182	 0.218476172357338 
2183	 0.218536229242263 
2184	 0.218457622417756 
2185	 0.218464285262233 
2186	 0.218456538772648 
2187	 0.218454440173387 
2188	 0.218507683104972 
2189	 0.218500766013473 
2190	 0.218418880887289 
2191	 0.218402988618289 
2192	 0.218376197042306 
2193	 0.218380593564418 
2194	 0.218520632299448 
2195	 0.218526010809931 
2196	 0.218429801823773 
2197	 0.21837422549055 
2198	 0.218377405446291 
2199	 0.218315538560501 
2200	 0.218253114650749 
2201	 0.21829197777028 
2202	 0.218188132875574 
2203	 0.217937468561984 
2204	 0.217784950608121 
2205	 0.21764449060589 
2206	 0.217497310606952 
2207	 0.217335938302554 
2208	 0.217195815611651 
2209	 0.217111484923004 
2210	 0.216937741341357 
2211	 0.216719000356674 
2212	 0.216548953677257 
2213	 0.216297482911378 
2214	 0.216134128829249 
2215	 0.216111071043024 
2216	 0.215977094655789 
2217	 0.215807176011906 
2218	 0.215657800574174 
2219	 0.215470350653169 
2220	 0.215267848307248 
2221	 0.215070480185218 
2222	 0.214908546238163 
2223	 0.214575123464086 
2224	 0.214320689656857 
2225	 0.214111904101037 
2226	 0.213730302953874 
2227	 0.213315251276378 
2228	 0.21285222004485 
2229	 0.212405215415192 
2230	 0.211831263368025 
2231	 0.211380277074011 
2232	 0.211125621107802 
2233	 0.210550342141392 
2234	 0.209900492516422 
2235	 0.209120819204453 
2236	 0.208119649014963 
2237	 0.207102278281989 
2238	 0.205982778127146 
2239	 0.204862635415616 
2240	 0.203671927544554 
2241	 0.202434103271694 
2242	 0.201234151181758 
2243	 0.199875241592269 
2244	 0.198381121803412 
2245	 0.196853615445534 
2246	 0.195173067320843 
2247	 0.193528222884977 
2248	 0.191863221982467 
2249	 0.190160392918629 
2250	 0.188429771688929 
2251	 0.186730277435017 
2252	 0.184838923082579 
2253	 0.18308594543014 
2254	 0.181234978656763 
2255	 0.179265365455024 
2256	 0.17751369707151 
2257	 0.175678459302444 
2258	 0.173949278081127 
2259	 0.172345539844073 
2260	 0.170663588999485 
2261	 0.168960750020051 
2262	 0.167333038901029 
2263	 0.165671625946892 
2264	 0.164148068483352 
2265	 0.162771246065967 
2266	 0.161312368380175 
2267	 0.159853525020769 
2268	 0.158490796999666 
2269	 0.157223214243318 
2270	 0.15583311749614 
2271	 0.154394463769314 
2272	 0.153092127502706 
2273	 0.151750940584113 
2274	 0.150458844005847 
2275	 0.14938606020515 
2276	 0.148189822481245 
2277	 0.146895855515864 
2278	 0.145623858859556 
2279	 0.14438652672732 
2280	 0.143090496949051 
2281	 0.141741863373745 
2282	 0.14035468955528 
2283	 0.138938709064839 
2284	 0.137498661765453 
2285	 0.135884577294108 
2286	 0.134416825508563 
2287	 0.132784880556666 
2288	 0.131091170529695 
2289	 0.129734560017984 
2290	 0.12817078585129 
2291	 0.126691100675229 
2292	 0.125352078598146 
2293	 0.123624783493954 
2294	 0.122002299141873 
2295	 0.120522779427181 
2296	 0.118971695306188 
2297	 0.117822397600545 
2298	 0.117035631405433 
2299	 0.116125238569308 
2300	 0.115349182271199 
2301	 0.11475963487591 
2302	 0.114039137647328 
2303	 0.11389007102068 
2304	 0.114218667127268 
2305	 0.114581699161222 
2306	 0.115285272522223 
2307	 0.11600575247247 
2308	 0.116822985484512 
2309	 0.117807768906757 
2310	 0.118909433788627 
2311	 0.120229334900781 
2312	 0.121927269533376 
2313	 0.123306842983405 
2314	 0.124703980727874 
2315	 0.126121308749352 
2316	 0.127413684722811 
2317	 0.128732022495608 
2318	 0.130303278658017 
2319	 0.131477580171017 
2320	 0.132395835119913 
2321	 0.133200886301679 
2322	 0.133816988630118 
2323	 0.134347554847148 
2324	 0.134684035317538 
2325	 0.134997626972379 
2326	 0.135265345600773 
2327	 0.135306833221817 
2328	 0.135226988694882 
2329	 0.135032325547453 
2330	 0.134595243189472 
2331	 0.134156040443173 
2332	 0.133627701144645 
2333	 0.133188427686073 
2334	 0.132599383497312 
2335	 0.131811220637684 
2336	 0.130935777909797 
2337	 0.129849496465821 
2338	 0.128767676146302 
2339	 0.127752205805301 
2340	 0.126664883221178 
2341	 0.125559812237721 
2342	 0.124688348799349 
2343	 0.123917361459398 
2344	 0.123376507613952 
2345	 0.123139934653165 
2346	 0.122850442319976 
2347	 0.122597207494522 
2348	 0.122444637089101 
2349	 0.122822731462901 
2350	 0.123682055207806 
2351	 0.124682852070449 
2352	 0.125864009189921 
2353	 0.126989728990287 
2354	 0.127944497039395 
2355	 0.128799976216137 
2356	 0.129617813331581 
2357	 0.13047631647981 
2358	 0.131135638630203 
2359	 0.131876955228265 
2360	 0.132764762604933 
2361	 0.133109848173986 
2362	 0.13342622448763 
2363	 0.133684725104686 
2364	 0.133489613435546 
2365	 0.133561318189161 
2366	 0.133619612018787 
2367	 0.133378866658984 
2368	 0.133295921962321 
2369	 0.133150914554468 
2370	 0.133140368605685 
2371	 0.133334735365698 
2372	 0.133549547301413 
2373	 0.133703155640016 
2374	 0.133695448119961 
2375	 0.133713589851304 
2376	 0.133519965649126 
2377	 0.133638052394786 
2378	 0.133936967967965 
2379	 0.13382042385699 
2380	 0.13385973136155 
2381	 0.13374703200244 
2382	 0.133657126622576 
2383	 0.133409199921787 
2384	 0.133481909269265 
2385	 0.133776011504011 
2386	 0.133874860894188 
2387	 0.133995366977663 
2388	 0.134108394369661 
2389	 0.134101454155461 
2390	 0.134213353157804 
2391	 0.134501183727989 
2392	 0.134669456425218 
2393	 0.134664074774115 
2394	 0.134927350288166 
2395	 0.135480349638521 
2396	 0.135508661534065 
2397	 0.135326178797602 
2398	 0.135277230558912 
2399	 0.134864046659748 
2400	 0.134988454376685 
2401	 0.13567864501971 
2402	 0.136066085328628 
2403	 0.136168815083407 
2404	 0.136254795376757 
2405	 0.136410957160275 
2406	 0.136576336622238 
2407	 0.136751422873675 
2408	 0.136912892958155 
2409	 0.136949893205423 
2410	 0.137187343299795 
2411	 0.137476514516198 
2412	 0.137371512678052 
2413	 0.137159656307756 
2414	 0.137033680342447 
2415	 0.136785043210994 
2416	 0.136637168022455 
2417	 0.136988027710077 
2418	 0.136970288444632 
2419	 0.136570599899532 
2420	 0.136642977293574 
2421	 0.136660047052157 
2422	 0.136667503938583 
2423	 0.136829319739731 
2424	 0.136443653808033 
2425	 0.136254345944627 
2426	 0.136569004317819 
2427	 0.136521366581461 
2428	 0.136774565043027 
2429	 0.136918979632032 
2430	 0.136589111556373 
2431	 0.136559263444019 
2432	 0.136405225070973 
2433	 0.136240609456464 
2434	 0.135958175792582 
2435	 0.135554513123396 
2436	 0.135195394032406 
2437	 0.134560829097059 
2438	 0.134078725960659 
2439	 0.133860466296257 
2440	 0.13398936784513 
2441	 0.133962494456088 
2442	 0.13366925511782 
2443	 0.133778003044914 
2444	 0.133738573916606 
2445	 0.134104400610804 
2446	 0.134768521354203 
2447	 0.134641699251107 
2448	 0.134164106420131 
2449	 0.133407263357057 
2450	 0.132647619288368 
2451	 0.132415679133496 
2452	 0.132486663084048 
2453	 0.132718311240982 
2454	 0.132744143718757 
2455	 0.132096112193542 
2456	 0.131702727253876 
2457	 0.131662991460353 
2458	 0.13108710066556 
2459	 0.13098337181856 
2460	 0.131242958539749 
2461	 0.130739654381605 
2462	 0.130299573723633 
2463	 0.129833099316261 
2464	 0.128919236720325 
2465	 0.12857912603675 
2466	 0.128796578243273 
2467	 0.129135139470593 
2468	 0.129671148204084 
2469	 0.12971972480914 
2470	 0.129174619408765 
2471	 0.128980395143432 
2472	 0.128891011112502 
2473	 0.128172267834518 
2474	 0.127618809391614 
2475	 0.128029320623177 
2476	 0.128438406293016 
2477	 0.128625032130456 
2478	 0.129177169973871 
2479	 0.129689692420502 
2480	 0.129982643875765 
2481	 0.130243472280394 
2482	 0.131416066498043 
2483	 0.130746367187493 
2484	 0.130218614659046 
2485	 0.130155328234697 
2486	 0.129189758377822 
2487	 0.129066963839359 
2488	 0.128520011378633 
2489	 0.12820653778597 
2490	 0.129615550316207 
2491	 0.130617304638339 
2492	 0.131842252125153 
2493	 0.132868534047961 
2494	 0.133668704214699 
2495	 0.13401417973436 
2496	 0.134035520444704 
2497	 0.134692155893392 
2498	 0.133995318136105 
2499	 0.133672572282888 
2500	 0.134823576381826 
