Wavelength	Tablay400109.asd
350	 0.199141084517974 
351	 0.140948130789495 
352	 6.36767341054021E-02 
353	 9.36812115918024E-02 
354	 0.218774599663934 
355	 0.148804153115973 
356	 7.13452489863481E-02 
357	 0.157489680550256 
358	 0.17247010801818 
359	 6.18753337482011E-02 
360	-1.22722926897408E-02 
361	 0.14817545195491 
362	 0.115755448567643 
363	 6.98923916468601E-02 
364	 0.105828373370485 
365	 8.39932651348621E-02 
366	 0.039958773171979 
367	 3.15631518200688E-02 
368	 0.078374163635102 
369	 8.40553755942184E-02 
370	 7.89008799956362E-02 
371	 8.82200838331619E-02 
372	 0.123342031809386 
373	 0.098984098661963 
374	 7.75986806121115E-02 
375	 8.47873457955892E-02 
376	 8.15945877720567E-02 
377	 8.87122475198966E-02 
378	 0.105588560548041 
379	 0.116462632081845 
380	 6.51084242190017E-02 
381	 5.68727733186763E-02 
382	 7.88790112318252E-02 
383	 5.45728529463395E-02 
384	 6.91748273871382E-02 
385	 8.12720525530937E-02 
386	 7.49432332674027E-02 
387	 8.98033373912548E-02 
388	 9.80468246750642E-02 
389	 7.69150064178639E-02 
390	 2.94792264567381E-02 
391	 3.43853442266226E-02 
392	 6.02329506570244E-02 
393	 7.65182903033639E-02 
394	 6.64583394690212E-02 
395	 7.27381626974748E-02 
396	 7.92975395763169E-02 
397	 7.07842637880617E-02 
398	 0.041604119312213 
399	 6.44718047140182E-02 
400	 9.34282357711404E-02 
401	 7.63528785625922E-02 
402	 7.92535418269631E-02 
403	 7.38006226599049E-02 
404	 6.16345824780909E-02 
405	 6.61693277823099E-02 
406	 7.21476858363359E-02 
407	 7.59968684836657E-02 
408	 7.66675941660494E-02 
409	 0.073960704968825 
410	 7.55399530315708E-02 
411	 7.56465557809931E-02 
412	 6.77248591284467E-02 
413	 6.18409252735684E-02 
414	 5.94561244876204E-02 
415	 6.11360287917512E-02 
416	 6.65009240615955E-02 
417	 7.25065318788584E-02 
418	 7.18948723022751E-02 
419	 6.49355949488133E-02 
420	 0.070859141337595 
421	 7.09298341252595E-02 
422	 6.73297978386615E-02 
423	 0.069423833790907 
424	 7.39557730441093E-02 
425	 7.92388345753107E-02 
426	 0.080168179375829 
427	 6.85394355603044E-02 
428	 6.90158553683651E-02 
429	 7.42708952303833E-02 
430	 7.49546488329283E-02 
431	 7.79815785991494E-02 
432	 7.69498161764621E-02 
433	 0.074257978253934 
434	 7.58901547267554E-02 
435	 7.47409627306777E-02 
436	 7.40298092408127E-02 
437	 7.45849506291117E-02 
438	 7.18985367908578E-02 
439	 0.072337265998601 
440	 7.55812227490167E-02 
441	 7.91194360201449E-02 
442	 8.07261846616301E-02 
443	 7.83054794661112E-02 
444	 7.48535781086691E-02 
445	 7.64630002611667E-02 
446	 7.56447365520031E-02 
447	 0.076786108408779 
448	 8.12413081912931E-02 
449	 8.00617157480461E-02 
450	 7.95523952074707E-02 
451	 8.00570230753741E-02 
452	 8.01232008451172E-02 
453	 8.10670527800314E-02 
454	 8.13162452463296E-02 
455	 8.13346660779916E-02 
456	 8.37878555588264E-02 
457	 8.31611988010078E-02 
458	 8.23606734568386E-02 
459	 8.38002674712354E-02 
460	 8.29280881701857E-02 
461	 8.35444153424889E-02 
462	 8.51600583330284E-02 
463	 8.52967329808171E-02 
464	 8.54903931375921E-02 
465	 8.56280561216505E-02 
466	 8.59186108251383E-02 
467	 8.72765151435678E-02 
468	 8.96134663871721E-02 
469	 9.07076429537736E-02 
470	 8.96139536501039E-02 
471	 9.29857880432552E-02 
472	 9.43420574030238E-02 
473	 9.24770991755159E-02 
474	 9.07235587011811E-02 
475	 9.24194421042555E-02 
476	 9.48267413461279E-02 
477	 9.58637637849581E-02 
478	 9.71517119074864E-02 
479	 9.69460740958614E-02 
480	 9.71017917976192E-02 
481	 9.95743794226168E-02 
482	 9.82008682885234E-02 
483	 9.83654562573588E-02 
484	 0.101143840074467 
485	 0.102109240180674 
486	 0.101735936161617 
487	 0.101981771936227 
488	 0.103983893098171 
489	 0.105509815379937 
490	 0.105966944288198 
491	 0.105999001905435 
492	 0.106788122722887 
493	 0.106911021612393 
494	 0.108023217846499 
495	 0.11001445501637 
496	 0.109312203074522 
497	 0.110621760094871 
498	 0.112212372658934 
499	 0.111760004675889 
500	 0.113378327532191 
501	 0.114583874138748 
502	 0.114908926243918 
503	 0.115768373543783 
504	 0.116581955222329 
505	 0.117352435829045 
506	 0.118144568658191 
507	 0.1189610941153 
508	 0.119846148145276 
509	 0.120603948862941 
510	 0.121110941220696 
511	 0.122629733478658 
512	 0.123050289491042 
513	 0.122508204785099 
514	 0.124242685422813 
515	 0.125541385667128 
516	 0.126383329009785 
517	 0.127154298923438 
518	 0.127099101365338 
519	 0.127676519966176 
520	 0.128986935641314 
521	 0.130156717247086 
522	 0.130659046348105 
523	 0.131494706520886 
524	 0.132962078797939 
525	 0.133595202317251 
526	 0.134218677680507 
527	 0.134845022821455 
528	 0.135336346308973 
529	 0.136262993296625 
530	 0.136781166869109 
531	 0.137001587163676 
532	 0.138059890659788 
533	 0.139208545198241 
534	 0.139881465874261 
535	 0.139991502358822 
536	 0.140606592565263 
537	 0.141531040883136 
538	 0.142398468233131 
539	 0.142783695258817 
540	 0.14264817879654 
541	 0.142586278743726 
542	 0.142899860955704 
543	 0.143361713867217 
544	 0.143556169665649 
545	 0.143710706635712 
546	 0.144075654782909 
547	 0.143977024623731 
548	 0.144171230763058 
549	 0.144535376938569 
550	 0.14420358728959 
551	 0.144336949810187 
552	 0.144447035299305 
553	 0.144159622097353 
554	 0.144155696991987 
555	 0.144122539291896 
556	 0.143988294119032 
557	 0.143797468825862 
558	 0.143685197050603 
559	 0.143175062279241 
560	 0.142345253194869 
561	 0.142100723222682 
562	 0.141585748736712 
563	 0.141071835282657 
564	 0.140848064258789 
565	 0.140101868075894 
566	 0.139444587744839 
567	 0.138847462404986 
568	 0.13785971289416 
569	 0.137182006389919 
570	 0.136733147903823 
571	 0.136265511717788 
572	 0.135425561303373 
573	 0.134667894739611 
574	 0.133930822209221 
575	 0.133005878559586 
576	 0.132060915144107 
577	 0.131115555665726 
578	 0.13017288994288 
579	 0.12922740189684 
580	 0.128305089999768 
581	 0.127359379017902 
582	 0.126308658446177 
583	 0.124990655855471 
584	 0.123821282370509 
585	 0.122850705319182 
586	 0.121874264662182 
587	 0.120660613911092 
588	 0.119270021030187 
589	 0.117860980844047 
590	 0.116679636168049 
591	 0.115635930624085 
592	 0.114548663481708 
593	 0.113279600906157 
594	 0.11198809177276 
595	 0.110880816943845 
596	 0.109835957495492 
597	 0.108486023226351 
598	 0.107314785278701 
599	 0.106110444367079 
600	 0.104749556798953 
601	 0.103638927162696 
602	 0.102504118382682 
603	 0.101310241022438 
604	 0.100141209360191 
605	 9.91349015170921E-02 
606	 9.80950788754528E-02 
607	 9.69976402698989E-02 
608	 9.60662532896016E-02 
609	 9.47714834477558E-02 
610	 9.35887880362517E-02 
611	 9.28795468428959E-02 
612	 9.17729731675462E-02 
613	 9.08364357796484E-02 
614	 8.99910964225759E-02 
615	 0.088803300889073 
616	 8.78120413511617E-02 
617	 8.68570049760892E-02 
618	 8.58513641831893E-02 
619	 8.49931425704795E-02 
620	 8.42323418340526E-02 
621	 8.34606094179552E-02 
622	 0.082585075120544 
623	 8.16964977339374E-02 
624	 8.08585912712788E-02 
625	 8.00292445982371E-02 
626	 7.90945118239234E-02 
627	 7.85145462957834E-02 
628	 7.78783900229221E-02 
629	 7.69787789560675E-02 
630	 7.65576297909375E-02 
631	 0.0759232239315 
632	 7.50386173308168E-02 
633	 7.41815592924609E-02 
634	 7.35652798299612E-02 
635	 7.30591691479286E-02 
636	 7.25493621081666E-02 
637	 0.071989637381538 
638	 7.13250200208827E-02 
639	 0.070781475280371 
640	 7.04634316779672E-02 
641	 6.98588843688835E-02 
642	 6.92922878988824E-02 
643	 6.88098643148669E-02 
644	 6.82853163668085E-02 
645	 6.77224062147998E-02 
646	 6.71769031181522E-02 
647	 0.066688263316994 
648	 6.62516839324987E-02 
649	 6.59617485895165E-02 
650	 6.56145025312028E-02 
651	 6.50487727822329E-02 
652	 6.46809977526923E-02 
653	 6.42739884221251E-02 
654	 6.38430118249929E-02 
655	 0.063593257989989 
656	 6.32012636464144E-02 
657	 6.27682864285337E-02 
658	 6.24248685503048E-02 
659	 6.22438347953522E-02 
660	 6.18425778677729E-02 
661	 6.13671615379327E-02 
662	 6.10777464620785E-02 
663	 6.06150456953454E-02 
664	 6.04496515899099E-02 
665	 6.05092477461641E-02 
666	 0.060160203618302 
667	 5.96274302443296E-02 
668	 5.92358228484757E-02 
669	 5.91146237823189E-02 
670	 5.88501646587923E-02 
671	 5.85584192144358E-02 
672	 5.82973650142445E-02 
673	 5.80790823046555E-02 
674	 5.77276532845695E-02 
675	 5.74784231926253E-02 
676	 5.73782109952175E-02 
677	 5.72115759495601E-02 
678	 5.69683225187154E-02 
679	 5.67342453942015E-02 
680	 5.65466167994512E-02 
681	 5.61874463054062E-02 
682	 5.60107063747213E-02 
683	 5.59242436878649E-02 
684	 5.56423781696507E-02 
685	 5.54777370026923E-02 
686	 5.53537822266877E-02 
687	 5.51795160964053E-02 
688	 5.48976822949694E-02 
689	 5.48194621036013E-02 
690	 5.46964864412068E-02 
691	 0.054324899289313 
692	 5.41922726809518E-02 
693	 5.40001052564246E-02 
694	 5.37732857581749E-02 
695	 5.37182664746707E-02 
696	 5.37041644414363E-02 
697	 5.35310323762259E-02 
698	 5.31871424439667E-02 
699	 5.29486895119627E-02 
700	 5.29242994503127E-02 
701	 5.29108079907546E-02 
702	 5.27182824652982E-02 
703	 5.25928948214751E-02 
704	 5.24814998895104E-02 
705	 5.23599453515455E-02 
706	 5.22319855463272E-02 
707	 5.21500055485185E-02 
708	 0.052076651917177 
709	 5.19676251441951E-02 
710	 5.17856430891752E-02 
711	 5.16092441128835E-02 
712	 5.14787317767431E-02 
713	 5.13837642336265E-02 
714	 5.11606271539461E-02 
715	 5.10541086524815E-02 
716	 5.10710938931511E-02 
717	 5.10390341226725E-02 
718	 0.050890828052824 
719	 5.07938733443798E-02 
720	 5.07694238504771E-02 
721	 5.05299361868338E-02 
722	 5.04156559058814E-02 
723	 5.04112146481911E-02 
724	 5.03941731590743E-02 
725	 5.02872336119624E-02 
726	 5.01538688103308E-02 
727	 5.00396738964572E-02 
728	 4.99710720532526E-02 
729	 4.99565520505673E-02 
730	 4.99322752140085E-02 
731	 0.049842490122749 
732	 4.96534853027001E-02 
733	 0.049580747668715 
734	 0.049569380919155 
735	 4.95163786000824E-02 
736	 4.94768093254893E-02 
737	 4.94133019933359E-02 
738	 0.049329988436603 
739	 0.049256664697671 
740	 4.91702565337473E-02 
741	 4.91290872876631E-02 
742	 4.91330576124957E-02 
743	 4.90837890995443E-02 
744	 4.90756523781095E-02 
745	 4.90570616169498E-02 
746	 4.89701134198013E-02 
747	 0.048862745248564 
748	 4.87620849725118E-02 
749	 0.048706122448102 
750	 4.87217839780168E-02 
751	 4.87291578313539E-02 
752	 4.87054158240976E-02 
753	 4.86447779316635E-02 
754	 4.85554343217387E-02 
755	 4.85862581591181E-02 
756	 4.85914017887065E-02 
757	 4.84755231531853E-02 
758	 4.85041315954319E-02 
759	 4.84195546823458E-02 
760	 4.83007286515933E-02 
761	 0.048338536244725 
762	 4.83517940504803E-02 
763	 4.83268051253433E-02 
764	 4.82735400913281E-02 
765	 4.82150353411853E-02 
766	 4.81764739776258E-02 
767	 4.81851155736899E-02 
768	 4.82162278652471E-02 
769	 0.048119002295519 
770	 0.048115960756337 
771	 4.81273555105967E-02 
772	 4.80270420111005E-02 
773	 4.80436004451987E-02 
774	 4.80441291574708E-02 
775	 4.80198663739932E-02 
776	 4.80592156088679E-02 
777	 4.80035217916222E-02 
778	 4.79560400056526E-02 
779	 4.79725333880024E-02 
780	 4.79651786540592E-02 
781	 4.79698695397568E-02 
782	 4.79750814388992E-02 
783	 4.79591446963325E-02 
784	 4.79091687321424E-02 
785	 4.78442283905418E-02 
786	 4.77668469094013E-02 
787	 4.76900972358233E-02 
788	 4.77762785058432E-02 
789	 0.047869533244201 
790	 4.78589604575501E-02 
791	 4.77341865422311E-02 
792	 4.76583190619711E-02 
793	 4.76904872646348E-02 
794	 4.77879135522701E-02 
795	 4.77301345275174E-02 
796	 4.76674986898286E-02 
797	 4.76841453857913E-02 
798	 4.77797322806952E-02 
799	 4.76709326993259E-02 
800	 4.76339455373458E-02 
801	 4.76886736369945E-02 
802	 4.76488924541308E-02 
803	 4.75444205421592E-02 
804	 4.75111123853568E-02 
805	 4.76019131876242E-02 
806	 4.77262810363112E-02 
807	 4.76613440474335E-02 
808	 4.75764466720691E-02 
809	 4.76293276831543E-02 
810	 4.76238908337559E-02 
811	 4.76310484985498E-02 
812	 4.76136194875479E-02 
813	 4.75331718315394E-02 
814	 4.76118244395022E-02 
815	 4.76366648491628E-02 
816	 4.75892522120885E-02 
817	 4.76306540360588E-02 
818	 4.76274315652617E-02 
819	 4.76295345555331E-02 
820	 4.76519669496431E-02 
821	 4.76082457382613E-02 
822	 4.77113432865256E-02 
823	 4.77972452707291E-02 
824	 4.77288579970624E-02 
825	 4.77730484201147E-02 
826	 4.78357212080597E-02 
827	 0.047841036425849 
828	 4.77607848486959E-02 
829	 4.77711188044804E-02 
830	 0.047876383676584 
831	 4.79896897090368E-02 
832	 4.79733528336838E-02 
833	 4.79158240939321E-02 
834	 4.78651865088341E-02 
835	 4.78588462577094E-02 
836	 0.047922437944405 
837	 4.80897786726512E-02 
838	 4.81717140697026E-02 
839	 4.80670502538767E-02 
840	 4.80571484529788E-02 
841	 4.81108656476828E-02 
842	 0.048140033979781 
843	 4.81013472839311E-02 
844	 4.83288404053101E-02 
845	 0.048447409869228 
846	 0.048404898928375 
847	 4.84083823224809E-02 
848	 4.84992723489497E-02 
849	 4.84763798560899E-02 
850	 4.83737370026746E-02 
851	 4.85291554747603E-02 
852	 4.86261349435079E-02 
853	 4.86409374112179E-02 
854	 4.86279595129648E-02 
855	 4.86707525580855E-02 
856	 4.87341045985299E-02 
857	 4.88382923219303E-02 
858	 0.048983059794027 
859	 4.90499637100876E-02 
860	 4.90664458802811E-02 
861	 0.04913359276837 
862	 4.93211590877139E-02 
863	 4.93040338392566E-02 
864	 0.0492721083946 
865	 4.93392970829076E-02 
866	 4.94962720290493E-02 
867	 4.95275534952053E-02 
868	 4.95791712308529E-02 
869	 4.96744982196344E-02 
870	 4.96135116332178E-02 
871	 4.97276156546492E-02 
872	 4.98242962670715E-02 
873	 4.98130001590119E-02 
874	 5.00914454220373E-02 
875	 5.02354416981097E-02 
876	 5.02684733161136E-02 
877	 5.03271737569139E-02 
878	 5.03872881701981E-02 
879	 5.06130805223748E-02 
880	 5.07534501932438E-02 
881	 5.05340777587807E-02 
882	 5.06775364233945E-02 
883	 5.08573866391129E-02 
884	 5.09576689190043E-02 
885	 5.10713284186898E-02 
886	 5.12283250035769E-02 
887	 5.13273295639095E-02 
888	 5.13452964527603E-02 
889	 5.13750532135433E-02 
890	 5.16531778938377E-02 
891	 5.18435842975997E-02 
892	 5.17810682357881E-02 
893	 5.17625583180272E-02 
894	 5.19653170163899E-02 
895	 5.21903708002434E-02 
896	 5.22896243929707E-02 
897	 5.25348237414723E-02 
898	 5.26692398539686E-02 
899	 5.27034643428796E-02 
900	 5.27727203648693E-02 
901	 5.31149482139046E-02 
902	 5.32882412888476E-02 
903	 5.32515678258671E-02 
904	 5.32189875022021E-02 
905	 5.34824740274498E-02 
906	 5.37420068156267E-02 
907	 5.38752931487167E-02 
908	 5.39419101984895E-02 
909	 5.40868537464014E-02 
910	 5.42427274411027E-02 
911	 5.43832640306758E-02 
912	 5.45526092683135E-02 
913	 5.48485296919384E-02 
914	 5.51280835637322E-02 
915	 5.53027044073099E-02 
916	 5.54174316716924E-02 
917	 5.56344634167298E-02 
918	 5.57104846371367E-02 
919	 5.56525491267843E-02 
920	 5.60589379921913E-02 
921	 5.62768915255203E-02 
922	 5.64199890808329E-02 
923	 5.66617429273689E-02 
924	 5.67798298513989E-02 
925	 5.72232877359632E-02 
926	 5.75510125259604E-02 
927	 0.057393597395388 
928	 5.76018157723943E-02 
929	 5.79316584588322E-02 
930	 5.81036372008434E-02 
931	 5.80094640118781E-02 
932	 5.83184755551426E-02 
933	 5.86265106179106E-02 
934	 5.88253345275924E-02 
935	 5.90031247326143E-02 
936	 5.92479886031295E-02 
937	 5.94831193258447E-02 
938	 5.97208745101924E-02 
939	 6.00020618206092E-02 
940	 6.00578052969556E-02 
941	 6.02961420560358E-02 
942	 6.06356272951992E-02 
943	 6.06450943761904E-02 
944	 6.11004925766549E-02 
945	 6.14394244429633E-02 
946	 6.15425919065954E-02 
947	 6.18522117433477E-02 
948	 6.18143815910941E-02 
949	 6.19693079336457E-02 
950	 6.24694962449783E-02 
951	 6.28037581254702E-02 
952	 6.29412829058306E-02 
953	 6.31493696430795E-02 
954	 6.35117252456606E-02 
955	 6.37635357687108E-02 
956	 6.39908971910034E-02 
957	 6.42568461048757E-02 
958	 6.46057500916994E-02 
959	 6.50455697908873E-02 
960	 0.065135175944536 
961	 6.53185178998014E-02 
962	 6.57480722289676E-02 
963	 6.56058609074933E-02 
964	 6.58451497342243E-02 
965	 6.61809807060222E-02 
966	 6.62853913154014E-02 
967	 6.64735188421752E-02 
968	 6.69373043866385E-02 
969	 6.74196254367918E-02 
970	 6.76652528880862E-02 
971	 6.77681487324176E-02 
972	 0.068081290383306 
973	 6.83485643685539E-02 
974	 6.84244906896068E-02 
975	 6.90499515750009E-02 
976	 6.92328578045002E-02 
977	 6.93193795980195E-02 
978	 6.97153776178816E-02 
979	 6.96007490142212E-02 
980	 6.98154952291919E-02 
981	 7.01329674440772E-02 
982	 7.02443847646847E-02 
983	 7.08302830898322E-02 
984	 7.09816294796204E-02 
985	 7.11236886328439E-02 
986	 0.07180090102002 
987	 7.23430823979014E-02 
988	 0.072584683111843 
989	 0.072752945690579 
990	 7.30510384386783E-02 
991	 7.30194705312905E-02 
992	 7.31068743726865E-02 
993	 0.07345618159107 
994	 0.073903195592722 
995	 7.36969811986274E-02 
996	 7.39448047052114E-02 
997	 7.45286696565149E-02 
998	 7.49247347214029E-02 
999	 7.49215325228676E-02 
1000	 7.49465075361535E-02 
1001	 0.075487785439819 
1002	 0.075773021386176 
1003	 7.59714998406076E-02 
1004	 7.61592313993357E-02 
1005	 7.64096681643435E-02 
1006	 0.076684870912078 
1007	 7.68555254564033E-02 
1008	 7.71004902598564E-02 
1009	 7.74742471070854E-02 
1010	 7.77909079855487E-02 
1011	 7.81317222610965E-02 
1012	 7.83628006513424E-02 
1013	 7.85386457355852E-02 
1014	 0.07876215838864 
1015	 7.89904940513621E-02 
1016	 7.89596311744308E-02 
1017	 7.92093445972916E-02 
1018	 7.96285931891755E-02 
1019	 7.98183975134454E-02 
1020	 8.02316888487707E-02 
1021	 0.080535288255952 
1022	 8.07433532716001E-02 
1023	 8.09725355588515E-02 
1024	 8.12766380611329E-02 
1025	 0.081452699409096 
1026	 8.15708418912468E-02 
1027	 8.17239566302838E-02 
1028	 8.18446348528509E-02 
1029	 8.18991063673668E-02 
1030	 8.20095483802915E-02 
1031	 0.08212111933525 
1032	 8.24179679003159E-02 
1033	 8.28061213772817E-02 
1034	 8.30448609449383E-02 
1035	 8.32997202828603E-02 
1036	 8.34429460785138E-02 
1037	 8.33460682544534E-02 
1038	 8.33826807539223E-02 
1039	 8.34098726125891E-02 
1040	 8.35028838373001E-02 
1041	 0.083675471854362 
1042	 8.38229164397554E-02 
1043	 8.39844593856934E-02 
1044	 8.41650567139311E-02 
1045	 0.084445004717525 
1046	 8.46007163103912E-02 
1047	 8.47500567416452E-02 
1048	 8.50327500381872E-02 
1049	 8.50475015113303E-02 
1050	 8.50145208569849E-02 
1051	 8.51577224226012E-02 
1052	 8.51609938404901E-02 
1053	 8.53294032232471E-02 
1054	 8.57366138337437E-02 
1055	 8.59873426846259E-02 
1056	 8.63101577140017E-02 
1057	 8.65224686213259E-02 
1058	 8.67267045130177E-02 
1059	 0.086585081145691 
1060	 8.64926085731335E-02 
1061	 8.65359047397288E-02 
1062	 8.65476910601375E-02 
1063	 8.66552375551032E-02 
1064	 0.086909842313482 
1065	 8.69985302111336E-02 
1066	 0.086922686839878 
1067	 8.70221834464793E-02 
1068	 8.70495597213678E-02 
1069	 8.69651868652558E-02 
1070	 8.70431994682201E-02 
1071	 0.087277561421291 
1072	 8.73794503178924E-02 
1073	 8.73471262427629E-02 
1074	 8.74554251981368E-02 
1075	 8.75582438429956E-02 
1076	 8.76093295584221E-02 
1077	 8.77662976363715E-02 
1078	 8.79237394692639E-02 
1079	 8.78620990653156E-02 
1080	 8.77953201847585E-02 
1081	 8.79080530851537E-02 
1082	 8.80002126902774E-02 
1083	 8.79923609247777E-02 
1084	 8.80353898330499E-02 
1085	 8.80327258586368E-02 
1086	 0.088026132230636 
1087	 8.79611144864794E-02 
1088	 8.80502465063401E-02 
1089	 8.80702767904015E-02 
1090	 8.79721063409085E-02 
1091	 8.79794173251579E-02 
1092	 8.80564049505837E-02 
1093	 0.088187373665114 
1094	 8.83544171900676E-02 
1095	 8.84087318405584E-02 
1096	 8.82727737866736E-02 
1097	 8.81115134288104E-02 
1098	 0.088073568262712 
1099	 0.088092711093201 
1100	 8.81929298090909E-02 
1101	 0.08830304098981 
1102	 8.83361265177295E-02 
1103	 8.83402994517205E-02 
1104	 8.83245570928818E-02 
1105	 8.82468033093027E-02 
1106	 8.81410377667267E-02 
1107	 8.81025961731555E-02 
1108	 8.81231016182575E-02 
1109	 8.81575172132075E-02 
1110	 8.82553370324394E-02 
1111	 8.83536955491531E-02 
1112	 8.83365223421839E-02 
1113	 8.82881299492972E-02 
1114	 0.088192302972363 
1115	 8.80790515584917E-02 
1116	 0.08806714185525 
1117	 8.81621942530386E-02 
1118	 8.82054562960664E-02 
1119	 8.82864149055817E-02 
1120	 8.83279522761037E-02 
1121	 8.83578006027446E-02 
1122	 8.83099505825341E-02 
1123	 0.088271082103089 
1124	 8.83131445874791E-02 
1125	 8.83377214399115E-02 
1126	 8.83017526166155E-02 
1127	 8.82863590703551E-02 
1128	 8.83161634398937E-02 
1129	 8.83257404934603E-02 
1130	 8.83167251887762E-02 
1131	 8.83358154551781E-02 
1132	 0.088350903188292 
1133	 0.088301489230924 
1134	 8.83368980756306E-02 
1135	 8.83721440728665E-02 
1136	 8.84668180150192E-02 
1137	 8.84444793425712E-02 
1138	 8.83345633689331E-02 
1139	 8.83225626119808E-02 
1140	 8.82828170764359E-02 
1141	 8.83199565232695E-02 
1142	 8.83851595016377E-02 
1143	 8.84152295841912E-02 
1144	 8.84442511737967E-02 
1145	 0.088440247102166 
1146	 8.84631437038695E-02 
1147	 8.84561096308645E-02 
1148	 0.088425634565856 
1149	 8.84236229801839E-02 
1150	 8.84002871667375E-02 
1151	 8.84436945734752E-02 
1152	 8.84433729422333E-02 
1153	 8.83724667362744E-02 
1154	 8.83733821832965E-02 
1155	 8.84386545108875E-02 
1156	 8.84490231204342E-02 
1157	 8.84597107779728E-02 
1158	 8.84826535966107E-02 
1159	 8.85002568040974E-02 
1160	 8.84585612285056E-02 
1161	 8.84690600770883E-02 
1162	 8.84835652360048E-02 
1163	 8.84214401464853E-02 
1164	 8.84348169790404E-02 
1165	 8.84851980780373E-02 
1166	 8.85275638103211E-02 
1167	 8.85704068840561E-02 
1168	 8.85560750788341E-02 
1169	 8.85764583969278E-02 
1170	 8.85856654437557E-02 
1171	 8.86070937985285E-02 
1172	 8.86782543437873E-02 
1173	 0.088674979033835 
1174	 8.86132986339381E-02 
1175	 8.85687175691919E-02 
1176	 8.84687317835317E-02 
1177	 8.84532827644853E-02 
1178	 8.84969102079454E-02 
1179	 8.85141333134165E-02 
1180	 0.088538093493851 
1181	 8.85960508787348E-02 
1182	 8.86268336222458E-02 
1183	 8.86651741417666E-02 
1184	 8.87665354828045E-02 
1185	 8.88458201459283E-02 
1186	 8.88682603373877E-02 
1187	 8.88484183833051E-02 
1188	 8.88525759492481E-02 
1189	 8.87910221718345E-02 
1190	 8.87990110489794E-02 
1191	 8.88568982553436E-02 
1192	 8.89126676378731E-02 
1193	 8.90293001300978E-02 
1194	 8.90709094720833E-02 
1195	 8.90651294031367E-02 
1196	 0.089088656744248 
1197	 8.90884193414275E-02 
1198	 8.90804211009216E-02 
1199	 8.90951417695795E-02 
1200	 8.91555599009211E-02 
1201	 8.92114943353806E-02 
1202	 8.92159280885643E-02 
1203	 8.92650123823909E-02 
1204	 8.93405142794931E-02 
1205	 8.94026399708188E-02 
1206	 8.94679022990275E-02 
1207	 8.95206033545329E-02 
1208	 8.95404304923238E-02 
1209	 8.96206315124436E-02 
1210	 8.97388588777286E-02 
1211	 0.089823195308743 
1212	 8.99485026468051E-02 
1213	 9.00405769977682E-02 
1214	 9.00973830793275E-02 
1215	 9.01306354432317E-02 
1216	 9.01055616600776E-02 
1217	 9.01505183045681E-02 
1218	 9.02011039100434E-02 
1219	 9.02736210888112E-02 
1220	 9.03575862597219E-02 
1221	 9.04319456201858E-02 
1222	 9.04844117915398E-02 
1223	 9.05327537098765E-02 
1224	 9.06025085464044E-02 
1225	 9.07239224296315E-02 
1226	 9.08218468602612E-02 
1227	 0.090886400877441 
1228	 9.09801262909047E-02 
1229	 9.10984023145881E-02 
1230	 9.12077989075205E-02 
1231	 0.091321493427349 
1232	 9.14443305126067E-02 
1233	 9.15867664358809E-02 
1234	 9.17005527111901E-02 
1235	 9.18130455261926E-02 
1236	 9.19112743315608E-02 
1237	 9.19680882346692E-02 
1238	 9.20515270633357E-02 
1239	 0.092135045943358 
1240	 9.22332279891018E-02 
1241	 9.23711670012096E-02 
1242	 9.24930973751894E-02 
1243	 9.25400844789084E-02 
1244	 9.25077302542929E-02 
1245	 9.26063992801255E-02 
1246	 9.27059054054036E-02 
1247	 9.28147252217848E-02 
1248	 9.30432425722281E-02 
1249	 9.31734399111882E-02 
1250	 9.32443938201675E-02 
1251	 0.09329000239112 
1252	 9.32768444431322E-02 
1253	 9.33434460686915E-02 
1254	 9.33821975855611E-02 
1255	 9.34652676736793E-02 
1256	 9.36628388904043E-02 
1257	 0.093803930076853 
1258	 9.39351795684975E-02 
1259	 9.40381649447432E-02 
1260	 9.40811871133468E-02 
1261	 0.094178760248835 
1262	 9.42629845526523E-02 
1263	 9.43928556573362E-02 
1264	 9.45168232446029E-02 
1265	 9.47022715960082E-02 
1266	 9.48282774117836E-02 
1267	 9.49193422351653E-02 
1268	 9.50259564862184E-02 
1269	 9.51316571932641E-02 
1270	 9.52348403907141E-02 
1271	 9.53083426679524E-02 
1272	 0.095438760124811 
1273	 9.56258888134344E-02 
1274	 9.57509755730128E-02 
1275	 9.58729750281719E-02 
1276	 9.59998878943908E-02 
1277	 9.60580089159124E-02 
1278	 9.61826405993842E-02 
1279	 9.63693434565035E-02 
1280	 9.65412383011026E-02 
1281	 9.67411135613065E-02 
1282	 9.69191494575325E-02 
1283	 9.70989278937027E-02 
1284	 0.097256075854957 
1285	 9.73973899103312E-02 
1286	 9.75278048380037E-02 
1287	 9.76254968142339E-02 
1288	 9.76764740582041E-02 
1289	 9.77918988680439E-02 
1290	 9.79001370375867E-02 
1291	 9.80356004822299E-02 
1292	 9.82324635149503E-02 
1293	 9.83813124587839E-02 
1294	 0.098511776256794 
1295	 9.86457162117981E-02 
1296	 9.87703416603382E-02 
1297	 9.89013646402525E-02 
1298	 9.90101348794552E-02 
1299	 9.91634257425667E-02 
1300	 9.93637452799522E-02 
1301	 9.95241119331629E-02 
1302	 9.96976487885959E-02 
1303	 0.099853942551922 
1304	 9.99574512320849E-02 
1305	 0.100093454419012 
1306	 0.100257961231422 
1307	 0.100405843095122 
1308	 0.100517393662374 
1309	 0.100706981979513 
1310	 0.100829955637397 
1311	 0.10091392022914 
1312	 0.101062676370601 
1313	 0.101211087523626 
1314	 0.101392943307266 
1315	 0.101654286545826 
1316	 0.101824715544899 
1317	 0.10196312839498 
1318	 0.10211214516271 
1319	 0.102190141924399 
1320	 0.102364536795673 
1321	 0.102607779721708 
1322	 0.102813768897841 
1323	 0.103056815051024 
1324	 0.103268227960728 
1325	 0.103452497289041 
1326	 0.103632754046255 
1327	 0.103796958652901 
1328	 0.103975677788397 
1329	 0.104133534621858 
1330	 0.10431648393982 
1331	 0.104540587127334 
1332	 0.104741874545974 
1333	 0.104908203698746 
1334	 0.105126116311884 
1335	 0.105359169453528 
1336	 0.105604073720864 
1337	 0.105834485656087 
1338	 0.106117049056039 
1339	 0.106304525042461 
1340	 0.106407829297815 
1341	 0.106597500787039 
1342	 0.106768552135614 
1343	 0.106997200398348 
1344	 0.107318737839997 
1345	 0.107557278077813 
1346	 0.107772393572415 
1347	 0.108000336255928 
1348	 0.108182906594792 
1349	 0.108422227577164 
1350	 0.108752164498332 
1351	 0.108975592320238 
1352	 0.109132582486056 
1353	 0.109346966438204 
1354	 0.109512156585974 
1355	 0.109726407171176 
1356	 0.110026521398797 
1357	 0.110296274385385 
1358	 0.110578200827878 
1359	 0.110825683369462 
1360	 0.111036902677282 
1361	 0.11128125588901 
1362	 0.111517065890547 
1363	 0.11171054398328 
1364	 0.111924653793979 
1365	 0.112151176582971 
1366	 0.112372936414535 
1367	 0.112576712513884 
1368	 0.112808336517769 
1369	 0.11306761202719 
1370	 0.113306773173028 
1371	 0.113552565168743 
1372	 0.113772580109886 
1373	 0.11397417119631 
1374	 0.114179593965776 
1375	 0.114360814579161 
1376	 0.114574396159479 
1377	 0.114815430090241 
1378	 0.115036717854015 
1379	 0.115266759991508 
1380	 0.115486743576961 
1381	 0.115670067625405 
1382	 0.115895438571152 
1383	 0.116155068102261 
1384	 0.116394412202519 
1385	 0.116657611474396 
1386	 0.116891236900773 
1387	 0.117092989994394 
1388	 0.117299381288096 
1389	 0.117498430561114 
1390	 0.117689224557386 
1391	 0.11784971146964 
1392	 0.118037297929148 
1393	 0.118264661048987 
1394	 0.118553415927944 
1395	 0.118782480607422 
1396	 0.119042280370563 
1397	 0.119267535060015 
1398	 0.119421828213067 
1399	 0.119647149479926 
1400	 0.119922877081843 
1401	 0.12015910050287 
1402	 0.120383359412666 
1403	 0.120630959157398 
1404	 0.120901247491686 
1405	 0.121118444087567 
1406	 0.121318534582541 
1407	 0.121535947542649 
1408	 0.121713679665961 
1409	 0.121916648691657 
1410	 0.122167748744913 
1411	 0.122382852253964 
1412	 0.122552900343056 
1413	 0.122768479165184 
1414	 0.123012803092817 
1415	 0.123238310054397 
1416	 0.12346084036368 
1417	 0.12370889738531 
1418	 0.123963449885807 
1419	 0.124212373387315 
1420	 0.124474557021581 
1421	 0.124745369018597 
1422	 0.125022791736411 
1423	 0.125285819533264 
1424	 0.125531840215392 
1425	 0.125833837400499 
1426	 0.126101005855753 
1427	 0.126335048237266 
1428	 0.126610488898242 
1429	 0.126869167257747 
1430	 0.127147338198726 
1431	 0.127430374656037 
1432	 0.127713847681738 
1433	 0.127994540051796 
1434	 0.1283159518487 
1435	 0.12865910471176 
1436	 0.128985398201104 
1437	 0.129351660561532 
1438	 0.129668536778245 
1439	 0.129939012083406 
1440	 0.130237591029211 
1441	 0.130541642117782 
1442	 0.130839345781409 
1443	 0.131137025873312 
1444	 0.131432290342094 
1445	 0.131701688615853 
1446	 0.132015464699455 
1447	 0.132351474557702 
1448	 0.132691571197052 
1449	 0.13306355426594 
1450	 0.133426051439472 
1451	 0.133780680929004 
1452	 0.13415084332814 
1453	 0.134554776746422 
1454	 0.134916458460433 
1455	 0.135239087554723 
1456	 0.135601393114406 
1457	 0.135958555746715 
1458	 0.136330889764889 
1459	 0.136758168279333 
1460	 0.137156367775633 
1461	 0.13754082420359 
1462	 0.137911465071287 
1463	 0.138272712878928 
1464	 0.138624536156532 
1465	 0.138948716341406 
1466	 0.139286428228799 
1467	 0.139613286309714 
1468	 0.139967129691981 
1469	 0.14037360586885 
1470	 0.140782857287971 
1471	 0.141154759845967 
1472	 0.141525311185268 
1473	 0.14190195351223 
1474	 0.142246192626766 
1475	 0.14262088609605 
1476	 0.143029856578766 
1477	 0.14342915634821 
1478	 0.143816381198101 
1479	 0.144206452763503 
1480	 0.144629265355158 
1481	 0.145003907622729 
1482	 0.145329549140371 
1483	 0.145710306044977 
1484	 0.146089995517441 
1485	 0.146487846691723 
1486	 0.146952940633738 
1487	 0.147336226384291 
1488	 0.14766921564862 
1489	 0.148036389130071 
1490	 0.148366319862038 
1491	 0.148744083211902 
1492	 0.149204919864864 
1493	 0.149573944329112 
1494	 0.149895301023515 
1495	 0.150245250556323 
1496	 0.150533154357163 
1497	 0.150891848064053 
1498	 0.151344547114501 
1499	 0.15172396124989 
1500	 0.152072974941458 
1501	 0.152453530675828 
1502	 0.152806753778811 
1503	 0.153184311606451 
1504	 0.153609220639644 
1505	 0.154018541179953 
1506	 0.154447743384403 
1507	 0.154830770425711 
1508	 0.155179903996707 
1509	 0.155545283163874 
1510	 0.155870346885256 
1511	 0.156219115290126 
1512	 0.156613609742444 
1513	 0.156981067850731 
1514	 0.15731685348841 
1515	 0.157681250560545 
1516	 0.158055925301962 
1517	 0.158429597194748 
1518	 0.158840435888438 
1519	 0.159218347284872 
1520	 0.15958320450585 
1521	 0.159922432469206 
1522	 0.160230133480753 
1523	 0.160569671174115 
1524	 0.160904192033131 
1525	 0.161224517565074 
1526	 0.161602238375394 
1527	 0.162015259586132 
1528	 0.162402472382812 
1529	 0.162813890236699 
1530	 0.163209974469745 
1531	 0.163590611129722 
1532	 0.16396624116527 
1533	 0.164341759217186 
1534	 0.164731152492379 
1535	 0.165110887855093 
1536	 0.165491144110409 
1537	 0.165884506851538 
1538	 0.166290544639935 
1539	 0.166695524269068 
1540	 0.167087498758705 
1541	 0.167486018143548 
1542	 0.167907201111692 
1543	 0.168310751655601 
1544	 0.168740286309211 
1545	 0.169219735872299 
1546	 0.16967252725303 
1547	 0.170095944288018 
1548	 0.170565921102396 
1549	 0.171077946777993 
1550	 0.171552181699468 
1551	 0.172029996536504 
1552	 0.172499967952501 
1553	 0.172943726853146 
1554	 0.173401899529297 
1555	 0.173853463193185 
1556	 0.174343638714741 
1557	 0.174841800716606 
1558	 0.175362792039468 
1559	 0.175952882270264 
1560	 0.176476225534412 
1561	 0.176979713853898 
1562	 0.177476523536751 
1563	 0.177931095396998 
1564	 0.178414932857871 
1565	 0.178902700321715 
1566	 0.179404102127825 
1567	 0.179928582352788 
1568	 0.180433657267904 
1569	 0.180962367606637 
1570	 0.181441015427046 
1571	 0.181891751506683 
1572	 0.182322961216976 
1573	 0.182679762794243 
1574	 0.183111571962558 
1575	 0.183573476864075 
1576	 0.184021301179892 
1577	 0.184478047097002 
1578	 0.184976319356593 
1579	 0.185520670518504 
1580	 0.185995179085744 
1581	 0.186462540226071 
1582	 0.186949151622769 
1583	 0.187358684377193 
1584	 0.187837017775121 
1585	 0.188426164173722 
1586	 0.188941018402381 
1587	 0.189411864949913 
1588	 0.189908793217071 
1589	 0.19039709347583 
1590	 0.190887095640937 
1591	 0.191384450024847 
1592	 0.191898712703775 
1593	 0.192423827663474 
1594	 0.192935567713338 
1595	 0.193446677243939 
1596	 0.193977884689354 
1597	 0.19449189747556 
1598	 0.195032339976876 
1599	 0.19564494825019 
1600	 0.196199250296845 
1601	 0.196701718475535 
1602	 0.197251566042268 
1603	 0.197789262930987 
1604	 0.19834742840717 
1605	 0.198988733293326 
1606	 0.199560269755905 
1607	 0.200097786042086 
1608	 0.200630928553439 
1609	 0.201109074201032 
1610	 0.20161961516186 
1611	 0.202133454490591 
1612	 0.202659205920145 
1613	 0.203230129625561 
1614	 0.203758768716054 
1615	 0.204238829121624 
1616	 0.204782665199149 
1617	 0.205351865813799 
1618	 0.205897112647622 
1619	 0.206481795197594 
1620	 0.207046021331015 
1621	 0.20756828695412 
1622	 0.208097910360946 
1623	 0.208659364548603 
1624	 0.209182002322977 
1625	 0.209652272673059 
1626	 0.210153838329275 
1627	 0.210652490611983 
1628	 0.211161930804463 
1629	 0.21170125369444 
1630	 0.2122206779519 
1631	 0.212719795547154 
1632	 0.213235570515233 
1633	 0.213742265510625 
1634	 0.214276454778469 
1635	 0.214858269220191 
1636	 0.2154027410468 
1637	 0.215916137393502 
1638	 0.216475467516652 
1639	 0.217089692587877 
1640	 0.217617640195777 
1641	 0.218103406126906 
1642	 0.2186287997554 
1643	 0.219110641364948 
1644	 0.219598222179261 
1645	 0.220152772934185 
1646	 0.220665665005863 
1647	 0.221113547421773 
1648	 0.221582169094746 
1649	 0.22205250211045 
1650	 0.222545259657619 
1651	 0.223065908337247 
1652	 0.223551734989299 
1653	 0.224071411244103 
1654	 0.22452602318794 
1655	 0.224851686233717 
1656	 0.225291073190189 
1657	 0.225792666359982 
1658	 0.226239052631388 
1659	 0.226757617072191 
1660	 0.227202218738233 
1661	 0.227536521007946 
1662	 0.227908392534549 
1663	 0.228291403664802 
1664	 0.228644502289495 
1665	 0.229008002511219 
1666	 0.229326334810543 
1667	 0.229597932807491 
1668	 0.229865485779481 
1669	 0.230109547895497 
1670	 0.230322029616003 
1671	 0.230533136916204 
1672	 0.230695447929064 
1673	 0.23077443797088 
1674	 0.230908305899209 
1675	 0.231052445251288 
1676	 0.231161829106722 
1677	 0.231320361550645 
1678	 0.231388274615387 
1679	 0.231377237381007 
1680	 0.2313476311884 
1681	 0.23123545015169 
1682	 0.231186112336386 
1683	 0.231171853178281 
1684	 0.231105167610474 
1685	 0.2310819826632 
1686	 0.230948172330646 
1687	 0.23070984609294 
1688	 0.23047115559048 
1689	 0.230177790379993 
1690	 0.229881175161292 
1691	 0.229573663535687 
1692	 0.229232303015429 
1693	 0.228847873972644 
1694	 0.228493724884563 
1695	 0.228146430392211 
1696	 0.227751599829146 
1697	 0.227382577469051 
1698	 0.226899287838594 
1699	 0.22629664870097 
1700	 0.225788409740661 
1701	 0.225251095211106 
1702	 0.224744886738756 
1703	 0.224289650532641 
1704	 0.223826110057021 
1705	 0.223317261877234 
1706	 0.222970125650791 
1707	 0.222641190592069 
1708	 0.222380880792355 
1709	 0.222141705676663 
1710	 0.221901737356893 
1711	 0.221720996085858 
1712	 0.221613675445298 
1713	 0.221589180203381 
1714	 0.22156300846279 
1715	 0.221494840509262 
1716	 0.221406397056768 
1717	 0.221311355988227 
1718	 0.221249463436639 
1719	 0.221299724072206 
1720	 0.221415635202507 
1721	 0.221537321415574 
1722	 0.221731445710248 
1723	 0.221932802340823 
1724	 0.222129995108128 
1725	 0.222373385873279 
1726	 0.222624845387431 
1727	 0.222965141420254 
1728	 0.223479765038752 
1729	 0.224087426469132 
1730	 0.224710069623523 
1731	 0.225435804356175 
1732	 0.226252754924906 
1733	 0.226978849280649 
1734	 0.227784002342023 
1735	 0.228655827197961 
1736	 0.229338101393115 
1737	 0.23011731973375 
1738	 0.231037790629966 
1739	 0.231792691844345 
1740	 0.232605581026144 
1741	 0.233180454234646 
1742	 0.233493341941343 
1743	 0.233886206418595 
1744	 0.234194920686545 
1745	 0.234465691582188 
1746	 0.234700727436267 
1747	 0.234968045341894 
1748	 0.235187341368956 
1749	 0.235431372237799 
1750	 0.235722502370075 
1751	 0.236019146682049 
1752	 0.236270261967025 
1753	 0.236612912250572 
1754	 0.237009501928662 
1755	 0.237470095048918 
1756	 0.237989241743417 
1757	 0.238487595465632 
1758	 0.239096061741459 
1759	 0.239662600156438 
1760	 0.240247768524442 
1761	 0.24094063099073 
1762	 0.241641881814086 
1763	 0.242470884063834 
1764	 0.243349517860297 
1765	 0.244220189071787 
1766	 0.245222341141295 
1767	 0.246193009413107 
1768	 0.247253218325599 
1769	 0.248358657745288 
1770	 0.249354054889507 
1771	 0.250423817092138 
1772	 0.251295842698054 
1773	 0.252094017070776 
1774	 0.253001932905781 
1775	 0.253739296418548 
1776	 0.254574271178832 
1777	 0.255475250238864 
1778	 0.256206925595947 
1779	 0.256937805206643 
1780	 0.257622046812436 
1781	 0.258235042573753 
1782	 0.258839445487659 
1783	 0.259434669471409 
1784	 0.260051287465881 
1785	 0.260540543857752 
1786	 0.261080371521048 
1787	 0.261635432761489 
1788	 0.262108596401763 
1789	 0.262600533296198 
1790	 0.26306828983923 
1791	 0.26344426093888 
1792	 0.263878173469579 
1793	 0.264310733214183 
1794	 0.264776692865887 
1795	 0.265258964529479 
1796	 0.26572801348127 
1797	 0.266118083109151 
1798	 0.266419018360481 
1799	 0.266746334991026 
1800	 0.267110284756933 
1801	 0.265244312667039 
1802	 0.265584475069137 
1803	 0.265967814132356 
1804	 0.266324954029082 
1805	 0.266614950775652 
1806	 0.266969550575802 
1807	 0.267404001807483 
1808	 0.267793749701522 
1809	 0.268134981909753 
1810	 0.268533018009279 
1811	 0.269010397384162 
1812	 0.269410913647611 
1813	 0.269808645282091 
1814	 0.270179470202525 
1815	 0.270472677182919 
1816	 0.270808929189314 
1817	 0.271158134893887 
1818	 0.271506643704336 
1819	 0.271875376048979 
1820	 0.272285611506212 
1821	 0.272674840993155 
1822	 0.273060947077166 
1823	 0.273474737824836 
1824	 0.273863619594941 
1825	 0.274214221929197 
1826	 0.274557941718442 
1827	 0.274902090998993 
1828	 0.275214846882564 
1829	 0.27544959147665 
1830	 0.275746735680539 
1831	 0.276062065082838 
1832	 0.276379619386243 
1833	 0.276622454145516 
1834	 0.276958905299292 
1835	 0.277302268402581 
1836	 0.277568712452215 
1837	 0.277885453834148 
1838	 0.278270823033168 
1839	 0.278614924280888 
1840	 0.278894311561572 
1841	 0.279257637909403 
1842	 0.279681137569734 
1843	 0.280122163489543 
1844	 0.280447964832359 
1845	 0.280682762983658 
1846	 0.280891964692678 
1847	 0.281110710919297 
1848	 0.281433241167976 
1849	 0.281883035088383 
1850	 0.282339679030562 
1851	 0.282869038852001 
1852	 0.28330710067723 
1853	 0.283880052605494 
1854	 0.284383326177679 
1855	 0.284810928618392 
1856	 0.285332695662574 
1857	 0.285772384960113 
1858	 0.286084437335631 
1859	 0.286428689386118 
1860	 0.286738713169506 
1861	 0.287090354176492 
1862	 0.287424660306959 
1863	 0.287827389298579 
1864	 0.288250189512571 
1865	 0.288565961595229 
1866	 0.28886594086066 
1867	 0.289098129639311 
1868	 0.289237821667376 
1869	 0.289469471539993 
1870	 0.28965360407828 
1871	 0.289819131552959 
1872	 0.289914816779168 
1873	 0.289992021407267 
1874	 0.290009587189452 
1875	 0.289995227066449 
1876	 0.289951469845206 
1877	 0.28998706711205 
1878	 0.289991785817207 
1879	 0.289839027545829 
1880	 0.289690896327827 
1881	 0.289456656716583 
1882	 0.289152946974566 
1883	 0.28872956731935 
1884	 0.288314053310094 
1885	 0.287787384537528 
1886	 0.287213834697158 
1887	 0.286650722653472 
1888	 0.285925885598521 
1889	 0.285149221104993 
1890	 0.284384699644713 
1891	 0.283530207078221 
1892	 0.282600309878154 
1893	 0.281653325154127 
1894	 0.280686338114171 
1895	 0.279682614975019 
1896	 0.278637608890628 
1897	 0.277651338758947 
1898	 0.27678436536725 
1899	 0.275839077552118 
1900	 0.274865704985564 
1901	 0.273937114279876 
1902	 0.272960004599328 
1903	 0.272018307430413 
1904	 0.271121600355573 
1905	 0.270248282778058 
1906	 0.269450783459823 
1907	 0.268763305552371 
1908	 0.268125182588387 
1909	 0.267552146787095 
1910	 0.267032467101904 
1911	 0.266471240636602 
1912	 0.266008432428995 
1913	 0.265669197518745 
1914	 0.265335686863578 
1915	 0.265004939616485 
1916	 0.264730283950565 
1917	 0.264392797816725 
1918	 0.2640981602276 
1919	 0.263878279667969 
1920	 0.263711662185176 
1921	 0.263672552446121 
1922	 0.26359427833865 
1923	 0.26348761337579 
1924	 0.263421120592066 
1925	 0.263355820533636 
1926	 0.263334901253146 
1927	 0.263363806921045 
1928	 0.263397272891486 
1929	 0.263443788260561 
1930	 0.263528495854224 
1931	 0.263652199695073 
1932	 0.263815512660367 
1933	 0.263986068811232 
1934	 0.264184377667932 
1935	 0.264392974296031 
1936	 0.264607838246053 
1937	 0.26488194689405 
1938	 0.265264962670796 
1939	 0.265546188442305 
1940	 0.265815452698997 
1941	 0.266071841658919 
1942	 0.266300848130652 
1943	 0.266607752944018 
1944	 0.266929764031188 
1945	 0.267283921643202 
1946	 0.267717250274665 
1947	 0.268058731011188 
1948	 0.268432750526422 
1949	 0.268923079031458 
1950	 0.269368347668578 
1951	 0.269782278501357 
1952	 0.270267590774635 
1953	 0.270810457615064 
1954	 0.271284771240661 
1955	 0.271852475045737 
1956	 0.272370536914748 
1957	 0.272861176264856 
1958	 0.273377831831035 
1959	 0.273783980364154 
1960	 0.274276182920421 
1961	 0.274735590260542 
1962	 0.275151976551194 
1963	 0.275583228899041 
1964	 0.276028603536408 
1965	 0.276449155570105 
1966	 0.276838518224038 
1967	 0.277295638243505 
1968	 0.27770966774183 
1969	 0.278164436847458 
1970	 0.278604196487852 
1971	 0.278970365138777 
1972	 0.279315338970529 
1973	 0.279660718345121 
1974	 0.280013930283786 
1975	 0.280352253691815 
1976	 0.280699036270944 
1977	 0.281062299629165 
1978	 0.281404680236527 
1979	 0.281710873576538 
1980	 0.282082720919802 
1981	 0.282410150512224 
1982	 0.282723650636597 
1983	 0.283011149847866 
1984	 0.283225075143824 
1985	 0.283482594756725 
1986	 0.283771157734329 
1987	 0.284026597568642 
1988	 0.284299047412304 
1989	 0.284520966832409 
1990	 0.284681341139281 
1991	 0.284882069412293 
1992	 0.285074718818127 
1993	 0.285285771642572 
1994	 0.285492871241625 
1995	 0.285642331286992 
1996	 0.285790531074202 
1997	 0.285937375392447 
1998	 0.286064391243028 
1999	 0.286182843153583 
2000	 0.286319516163625 
2001	 0.286487117060262 
2002	 0.286556370255543 
2003	 0.286611309546288 
2004	 0.286625079660067 
2005	 0.286489303335738 
2006	 0.286444412118616 
2007	 0.286424509978883 
2008	 0.286455718870869 
2009	 0.286488489736778 
2010	 0.286421759837172 
2011	 0.286285631750299 
2012	 0.286139064036024 
2013	 0.285965826883488 
2014	 0.285704195655549 
2015	 0.285539062591947 
2016	 0.285429149950062 
2017	 0.285250685142413 
2018	 0.285138055827331 
2019	 0.284910255596386 
2020	 0.284615960359897 
2021	 0.28421792758307 
2022	 0.283813858525317 
2023	 0.283456520003203 
2024	 0.283133062274592 
2025	 0.282879927917049 
2026	 0.282607968909923 
2027	 0.282353911600129 
2028	 0.282115543659472 
2029	 0.2819005150514 
2030	 0.281660636247482 
2031	 0.28141942003569 
2032	 0.281209615422107 
2033	 0.280986350333535 
2034	 0.280797048568491 
2035	 0.280637723804774 
2036	 0.280522147791239 
2037	 0.280421431489072 
2038	 0.280269927573154 
2039	 0.280184569453273 
2040	 0.280162743363349 
2041	 0.280082931500313 
2042	 0.28001358740121 
2043	 0.279927332180342 
2044	 0.27979307774009 
2045	 0.279697532334716 
2046	 0.279626498585703 
2047	 0.279531357061932 
2048	 0.27941929922774 
2049	 0.279339621062569 
2050	 0.27927437827487 
2051	 0.279210837894952 
2052	 0.279114286380757 
2053	 0.279019292119386 
2054	 0.278942823747778 
2055	 0.27884059373391 
2056	 0.278759047538293 
2057	 0.278737567668579 
2058	 0.278660624590594 
2059	 0.278516712315239 
2060	 0.27843306245355 
2061	 0.278403569229903 
2062	 0.278305539799208 
2063	 0.278207036691083 
2064	 0.278090505442543 
2065	 0.277892918477829 
2066	 0.277744915732004 
2067	 0.277612015638499 
2068	 0.277464820461181 
2069	 0.277354382961557 
2070	 0.277253628632524 
2071	 0.277162859304591 
2072	 0.277120582056548 
2073	 0.277035794841052 
2074	 0.276954796053048 
2075	 0.276847451544652 
2076	 0.27668958257297 
2077	 0.276565120001752 
2078	 0.276463366643046 
2079	 0.27632569815762 
2080	 0.276185091031375 
2081	 0.276043380734241 
2082	 0.275868443145176 
2083	 0.275660874028404 
2084	 0.275581120813893 
2085	 0.275535676479125 
2086	 0.275455721728827 
2087	 0.275440887475095 
2088	 0.275336710703007 
2089	 0.275134436627889 
2090	 0.275013462409542 
2091	 0.274943771086404 
2092	 0.274802028025268 
2093	 0.274621640542855 
2094	 0.274480623647438 
2095	 0.274315066078142 
2096	 0.274152251729014 
2097	 0.274011066479698 
2098	 0.273908563764215 
2099	 0.273795507146383 
2100	 0.273639250792571 
2101	 0.273429577138132 
2102	 0.273208408284253 
2103	 0.272965269295892 
2104	 0.272603898882329 
2105	 0.272357722173937 
2106	 0.272145542204926 
2107	 0.271982768528356 
2108	 0.271916526691734 
2109	 0.271772344067499 
2110	 0.271653354167843 
2111	 0.27148862278075 
2112	 0.271227925453454 
2113	 0.271022527303723 
2114	 0.27082004960863 
2115	 0.270646546708746 
2116	 0.270535863083698 
2117	 0.270392189583518 
2118	 0.270202843165963 
2119	 0.269998765339894 
2120	 0.269804726223271 
2121	 0.269535350065292 
2122	 0.269353773512238 
2123	 0.269236450789348 
2124	 0.269093162897057 
2125	 0.268991472108214 
2126	 0.268841074575252 
2127	 0.268604076834112 
2128	 0.268481936227279 
2129	 0.268432092886915 
2130	 0.268322931254097 
2131	 0.268248168959512 
2132	 0.268194069943047 
2133	 0.268141365451875 
2134	 0.267994017199627 
2135	 0.267988777472113 
2136	 0.267943349336984 
2137	 0.267884417892742 
2138	 0.26777981346993 
2139	 0.267739748269174 
2140	 0.267741767602767 
2141	 0.267684099193335 
2142	 0.267628191402625 
2143	 0.267551295084832 
2144	 0.267398073912244 
2145	 0.26731992331365 
2146	 0.267328927854982 
2147	 0.267232389186849 
2148	 0.26703732814232 
2149	 0.266975863280068 
2150	 0.266939044959141 
2151	 0.266888844132861 
2152	 0.26695622589061 
2153	 0.266974817804144 
2154	 0.266896207830665 
2155	 0.266784791948261 
2156	 0.266722665406777 
2157	 0.266715479860037 
2158	 0.26659572090415 
2159	 0.266439465295896 
2160	 0.266278334396112 
2161	 0.266003227794764 
2162	 0.265850888722537 
2163	 0.265809247615356 
2164	 0.265644990005241 
2165	 0.265500389189837 
2166	 0.265271658505024 
2167	 0.264943356569964 
2168	 0.264598927536381 
2169	 0.264172371597429 
2170	 0.263811987556948 
2171	 0.263405159859542 
2172	 0.263059685395693 
2173	 0.26280355141009 
2174	 0.262533354527793 
2175	 0.262192025329605 
2176	 0.261950489998485 
2177	 0.261663691671708 
2178	 0.261375447823823 
2179	 0.261034171538828 
2180	 0.260677443084434 
2181	 0.260316901585606 
2182	 0.259900343018212 
2183	 0.259520008476928 
2184	 0.259214008701117 
2185	 0.258775766895491 
2186	 0.258319595334128 
2187	 0.257756152897135 
2188	 0.257057999404461 
2189	 0.256372200341164 
2190	 0.255587856361543 
2191	 0.25485354113983 
2192	 0.254209196738148 
2193	 0.25341440076018 
2194	 0.252569534570857 
2195	 0.251661953106656 
2196	 0.250642305314655 
2197	 0.249548613893996 
2198	 0.248479916415322 
2199	 0.247372290190383 
2200	 0.246149138599284 
2201	 0.244890964383716 
2202	 0.243444229900188 
2203	 0.241840682245508 
2204	 0.240206908804441 
2205	 0.238435343592295 
2206	 0.236627876278811 
2207	 0.234691896980151 
2208	 0.232891908969031 
2209	 0.231034349891473 
2210	 0.229296961328141 
2211	 0.227643972394825 
2212	 0.226100078886452 
2213	 0.224523194126101 
2214	 0.223206013711523 
2215	 0.222139523670685 
2216	 0.221112995609364 
2217	 0.220225602166335 
2218	 0.219460275112332 
2219	 0.218766759821771 
2220	 0.218222604288571 
2221	 0.217864633028446 
2222	 0.217607933068366 
2223	 0.217404284017455 
2224	 0.217181550911901 
2225	 0.216933555568518 
2226	 0.216630893787419 
2227	 0.216262920191817 
2228	 0.215901884302261 
2229	 0.215337225541804 
2230	 0.214637992676395 
2231	 0.213871177679318 
2232	 0.21293738317287 
2233	 0.211997168200647 
2234	 0.211057882028486 
2235	 0.209949450547496 
2236	 0.208774031200653 
2237	 0.207431894557879 
2238	 0.205765900405226 
2239	 0.204327688764118 
2240	 0.202958573010441 
2241	 0.201407761357798 
2242	 0.200036658121743 
2243	 0.198316126988379 
2244	 0.196173342021517 
2245	 0.194149488397732 
2246	 0.1920694502635 
2247	 0.189860628085055 
2248	 0.187643455282418 
2249	 0.185283829811908 
2250	 0.182742524718586 
2251	 0.180120426822693 
2252	 0.177360186046599 
2253	 0.174771352535994 
2254	 0.172073728316261 
2255	 0.169286049133181 
2256	 0.16682446445461 
2257	 0.164200217178447 
2258	 0.161664815996662 
2259	 0.159210564406404 
2260	 0.156818260954763 
2261	 0.154358615424033 
2262	 0.15216632179081 
2263	 0.150098910522689 
2264	 0.148259095680453 
2265	 0.146594400790023 
2266	 0.145107740531017 
2267	 0.143877524137161 
2268	 0.14276484452959 
2269	 0.141800549575266 
2270	 0.140996513166435 
2271	 0.140411484642394 
2272	 0.139869899672619 
2273	 0.139546865606061 
2274	 0.139166262932744 
2275	 0.138781605951132 
2276	 0.138523752851674 
2277	 0.138350628093922 
2278	 0.138167611263386 
2279	 0.138152208663857 
2280	 0.13801339553429 
2281	 0.137822669447163 
2282	 0.137586310195211 
2283	 0.137284741503459 
2284	 0.136963519552684 
2285	 0.136681912882461 
2286	 0.136307104431123 
2287	 0.135945866503814 
2288	 0.135584939445021 
2289	 0.135032405287199 
2290	 0.134460740014324 
2291	 0.134079524231257 
2292	 0.133650535188437 
2293	 0.133184572220588 
2294	 0.132894555788145 
2295	 0.132440235576981 
2296	 0.13195388849536 
2297	 0.131557417895366 
2298	 0.131147548083663 
2299	 0.130901846407693 
2300	 0.130653820767512 
2301	 0.130757659533291 
2302	 0.131164281661538 
2303	 0.131621664655346 
2304	 0.132338268359769 
2305	 0.133023627178667 
2306	 0.133711555071889 
2307	 0.134570618739342 
2308	 0.135556735416512 
2309	 0.136625196532435 
2310	 0.137776736764423 
2311	 0.139116651776177 
2312	 0.140683786846234 
2313	 0.142204602022108 
2314	 0.144012899998878 
2315	 0.145484124403296 
2316	 0.146710494848705 
2317	 0.148000024754227 
2318	 0.149295000851836 
2319	 0.150364212695134 
2320	 0.151503311232897 
2321	 0.152280397337779 
2322	 0.152565189796818 
2323	 0.152975559013994 
2324	 0.153357185733199 
2325	 0.153515938720741 
2326	 0.153643850237211 
2327	 0.153534509934532 
2328	 0.153114856744713 
2329	 0.152564336477777 
2330	 0.151819849092827 
2331	 0.151012760754013 
2332	 0.150127469919903 
2333	 0.149196424205408 
2334	 0.147935318613166 
2335	 0.146699210116599 
2336	 0.145322849223491 
2337	 0.143758867197575 
2338	 0.142482801371631 
2339	 0.141023943771948 
2340	 0.13929069970611 
2341	 0.137730973567176 
2342	 0.13629340041889 
2343	 0.134752691454243 
2344	 0.133244615941209 
2345	 0.131855517290132 
2346	 0.130622964048302 
2347	 0.129870944225243 
2348	 0.129379756482968 
2349	 0.128867521140407 
2350	 0.128320402797575 
2351	 0.12791856200045 
2352	 0.127727905848612 
2353	 0.127834282639271 
2354	 0.128249015513051 
2355	 0.128469191148308 
2356	 0.128605664280737 
2357	 0.129037062605764 
2358	 0.129560093330609 
2359	 0.130021561613041 
2360	 0.130512996470705 
2361	 0.131040694987005 
2362	 0.131532010898469 
2363	 0.131934207335969 
2364	 0.132294074712917 
2365	 0.132653630863181 
2366	 0.132959991143757 
2367	 0.133205505390799 
2368	 0.133446007657749 
2369	 0.133821784996211 
2370	 0.134155824350717 
2371	 0.13442142465017 
2372	 0.134706504292239 
2373	 0.134690706779298 
2374	 0.134776557958507 
2375	 0.134972079364214 
2376	 0.134744554133046 
2377	 0.134782797243363 
2378	 0.134918489656194 
2379	 0.134612187072542 
2380	 0.134699552371037 
2381	 0.134956012826469 
2382	 0.134967174629993 
2383	 0.134753422751997 
2384	 0.134669812075485 
2385	 0.134527558179783 
2386	 0.134414629746242 
2387	 0.134305181776496 
2388	 0.134237860578995 
2389	 0.134229501262423 
2390	 0.134185577729132 
2391	 0.134263953201464 
2392	 0.134224826389994 
2393	 0.133970369099811 
2394	 0.13394851423429 
2395	 0.1339463599128 
2396	 0.133953395044637 
2397	 0.134220203580765 
2398	 0.134277980447797 
2399	 0.134167608668297 
2400	 0.134052381781346 
2401	 0.133838628954894 
2402	 0.133617029493083 
2403	 0.133622572599284 
2404	 0.134105875607453 
2405	 0.134364217189716 
2406	 0.13484861593601 
2407	 0.135379266720609 
2408	 0.135418306949031 
2409	 0.13591629256593 
2410	 0.136227594538971 
2411	 0.136342943391768 
2412	 0.13674574412432 
2413	 0.136931604946841 
2414	 0.137132957504461 
2415	 0.13737308406933 
2416	 0.137472193345614 
2417	 0.137584277537687 
2418	 0.137625854060595 
2419	 0.137570363524566 
2420	 0.137420196981863 
2421	 0.137261993486776 
2422	 0.137101465301282 
2423	 0.137075879698814 
2424	 0.137444872647908 
2425	 0.138115463797538 
2426	 0.138689863114636 
2427	 0.13886839330452 
2428	 0.13932111864363 
2429	 0.139369003618491 
2430	 0.139023406580749 
2431	 0.139152287535504 
2432	 0.138924507976464 
2433	 0.138832975901718 
2434	 0.139191172156591 
2435	 0.13999316904556 
2436	 0.140978601571973 
2437	 0.141314441848935 
2438	 0.14147097432781 
2439	 0.141435690831099 
2440	 0.140710355084149 
2441	 0.14015252882608 
2442	 0.140530336359516 
2443	 0.140776694379779 
2444	 0.141381897060557 
2445	 0.142680721008317 
2446	 0.143155358509269 
2447	 0.143527317017704 
2448	 0.143875036124259 
2449	 0.14392159717468 
2450	 0.144417689816886 
2451	 0.144586600324219 
2452	 0.144957097224202 
2453	 0.145862662870384 
2454	 0.145968055876878 
2455	 0.145654445857015 
2456	 0.145551554909884 
2457	 0.145385059064912 
2458	 0.14529833409496 
2459	 0.145508778005405 
2460	 0.145617763772442 
2461	 0.145121395409481 
2462	 0.14463029125303 
2463	 0.145550985108702 
2464	 0.146876465454087 
2465	 0.147497639056856 
2466	 0.148245383044963 
2467	 0.147894566139753 
2468	 0.146919342007022 
2469	 0.147132201878801 
2470	 0.147734558136094 
2471	 0.148428108220548 
2472	 0.149372576778101 
2473	 0.149803479371687 
2474	 0.149356338788366 
2475	 0.148882150985351 
2476	 0.148351181113894 
2477	 0.147568042928043 
2478	 0.147800573987351 
2479	 0.148897268731381 
2480	 0.149541492847059 
2481	 0.149916410580549 
2482	 0.149789269287769 
2483	 0.150071877268053 
2484	 0.150241085324336 
2485	 0.150347379233532 
2486	 0.150619296757214 
2487	 0.15095668551628 
2488	 0.151990688280015 
2489	 0.154770731294862 
2490	 0.156822391600646 
2491	 0.15703046896734 
2492	 0.156858716842062 
2493	 0.155370234616727 
2494	 0.153825138857856 
2495	 0.15333180188143 
2496	 0.153067680080728 
2497	 0.153225941344848 
2498	 0.153962858737004 
2499	 0.154890516893336 
2500	 0.155587732982999 
