Wavelength	Tablay400028.asd
350	 0.171020789316049 
351	 0.200367860697406 
352	 0.232158016648676 
353	 0.224344146047885 
354	 0.210395376639198 
355	 0.259197303182336 
356	 0.275053623655175 
357	 0.202175118866166 
358	 0.167590207806607 
359	 0.171047584922459 
360	 0.191449317080138 
361	 0.191455618103022 
362	 0.147329627673726 
363	 0.121945972002829 
364	 0.138254320996751 
365	 0.1492900100202 
366	 0.111171183299454 
367	 0.102798188980036 
368	 0.167193737109062 
369	 0.145903195946904 
370	 9.67952023876765E-02 
371	 7.38424170831727E-02 
372	 0.125074811227775 
373	 0.175229485399438 
374	 0.184299979331736 
375	 0.148849332247255 
376	 0.104584176272845 
377	 8.76982593503921E-02 
378	 0.107617303616841 
379	 0.143324896227866 
380	 0.109281149485737 
381	 0.117791641330125 
382	 0.153368127469894 
383	 0.130711127084451 
384	 0.109551028609702 
385	 0.105667230908544 
386	 0.114531349011259 
387	 0.11185841846819 
388	 0.111813123677264 
389	 0.111640928050573 
390	 0.110426650747988 
391	 0.131414043260397 
392	 0.137439649202725 
393	 0.115897685002583 
394	 7.72581857888701E-02 
395	 8.94191056372907E-02 
396	 0.103376746523604 
397	 9.04859106519477E-02 
398	 7.66849909787066E-02 
399	 8.77653897036336E-02 
400	 0.103239872117758 
401	 0.09912096612059 
402	 9.45083340282554E-02 
403	 9.66359238298901E-02 
404	 9.61495306391671E-02 
405	 7.65878895128483E-02 
406	 9.13963173784986E-02 
407	 9.52690024544711E-02 
408	 0.069489172496217 
409	 7.18260770352343E-02 
410	 6.96427410944867E-02 
411	 6.94324860334824E-02 
412	 8.13585850050624E-02 
413	 7.72928501969172E-02 
414	 6.58342616992518E-02 
415	 6.30727352920468E-02 
416	 8.65408726018884E-02 
417	 9.18955953237439E-02 
418	 7.80097908920055E-02 
419	 5.89762264945221E-02 
420	 6.81991316327226E-02 
421	 6.91873137444474E-02 
422	 6.31504060840124E-02 
423	 6.41103640259187E-02 
424	 0.064489251373108 
425	 6.74878516470853E-02 
426	 7.05283012450846E-02 
427	 0.06440334536958 
428	 6.31096809170674E-02 
429	 6.50007292294116E-02 
430	 6.58389743112427E-02 
431	 6.43819188400757E-02 
432	 6.58491205568261E-02 
433	 6.65312144495888E-02 
434	 5.99568060353036E-02 
435	 5.99573852773637E-02 
436	 6.17594702447597E-02 
437	 0.062534920674524 
438	 6.56697983801704E-02 
439	 0.06642439860904 
440	 6.36079641331996E-02 
441	 5.92195810620451E-02 
442	 6.31813721659287E-02 
443	 6.37240836159739E-02 
444	 6.00122465763384E-02 
445	 0.059653736086168 
446	 5.74603107700307E-02 
447	 5.80361066881659E-02 
448	 6.21167353262691E-02 
449	 5.90080143663212E-02 
450	 5.86153106231254E-02 
451	 6.09655767961576E-02 
452	 6.23580415235658E-02 
453	 0.060388682888047 
454	 5.90381686405484E-02 
455	 5.92367470841772E-02 
456	 5.82605612521233E-02 
457	 5.85460648764608E-02 
458	 5.95844030437997E-02 
459	 6.02243160512714E-02 
460	 5.91767145127425E-02 
461	 5.90746107079226E-02 
462	 5.92184487682708E-02 
463	 0.057698542226552 
464	 5.88648044465566E-02 
465	 5.96935210861073E-02 
466	 5.89111026208198E-02 
467	 5.90215842025732E-02 
468	 5.78320412036574E-02 
469	 5.65085037398576E-02 
470	 5.68786290077719E-02 
471	 6.00907116364975E-02 
472	 6.00643583106198E-02 
473	 5.70484853220243E-02 
474	 5.62131673733449E-02 
475	 5.83475380326463E-02 
476	 5.91745682407542E-02 
477	 5.69001103697301E-02 
478	 5.65716481186396E-02 
479	 5.65254147848294E-02 
480	 5.70020261691827E-02 
481	 5.83038199371172E-02 
482	 5.74144525987544E-02 
483	 5.72631923678536E-02 
484	 5.82326260720986E-02 
485	 5.75244199661922E-02 
486	 5.70591803645388E-02 
487	 5.74194970000943E-02 
488	 5.83097525782248E-02 
489	 5.78172365032614E-02 
490	 5.68114258171303E-02 
491	 5.62654245190936E-02 
492	 5.69311075159086E-02 
493	 5.69888482762262E-02 
494	 5.73432050974609E-02 
495	 5.81528682234414E-02 
496	 0.057784546413041 
497	 5.89085250389896E-02 
498	 5.96307428983395E-02 
499	 5.80235725307211E-02 
500	 5.82377963781945E-02 
501	 5.87866145502522E-02 
502	 5.91204315561909E-02 
503	 5.96177400231035E-02 
504	 5.87370370930083E-02 
505	 5.83609483192178E-02 
506	 5.96368671805301E-02 
507	 6.07990080146922E-02 
508	 6.11836947937953E-02 
509	 6.12101723013983E-02 
510	 6.16100078571844E-02 
511	 6.11667921693434E-02 
512	 6.12596715704973E-02 
513	 6.21349353730517E-02 
514	 6.23873074631736E-02 
515	 6.28160645814896E-02 
516	 6.32152124093805E-02 
517	 6.32952785985496E-02 
518	 6.32510038863756E-02 
519	 6.34527809062109E-02 
520	 6.39391326373493E-02 
521	 6.44930010157231E-02 
522	 6.47034812291458E-02 
523	 6.53816178361252E-02 
524	 6.65885242284885E-02 
525	 6.65533283350728E-02 
526	 6.69924779947462E-02 
527	 6.76733140530963E-02 
528	 6.79527624234857E-02 
529	 6.89291261186939E-02 
530	 6.94523671194053E-02 
531	 6.95505760210163E-02 
532	 7.05517659623547E-02 
533	 7.12991942728526E-02 
534	 0.071935637177343 
535	 7.27254330295032E-02 
536	 7.34611084511805E-02 
537	 7.43549016643635E-02 
538	 7.50577880693237E-02 
539	 7.51128830270142E-02 
540	 7.59471286997422E-02 
541	 7.69552484061802E-02 
542	 0.077667639606763 
543	 7.81909622997491E-02 
544	 7.87747787814077E-02 
545	 0.079350308432636 
546	 7.98633549107077E-02 
547	 8.08296505283994E-02 
548	 8.17074893226546E-02 
549	 8.22460924163121E-02 
550	 8.25138498227114E-02 
551	 0.082899942755905 
552	 8.35736548914601E-02 
553	 8.44533437178962E-02 
554	 8.49562648342078E-02 
555	 8.56362279472428E-02 
556	 8.64229019327172E-02 
557	 8.70106732762122E-02 
558	 8.76460111714717E-02 
559	 8.85540090062813E-02 
560	 8.95777731906112E-02 
561	 9.00356112010313E-02 
562	 9.07821353419051E-02 
563	 9.18163473092918E-02 
564	 9.28021888076347E-02 
565	 9.31261505557898E-02 
566	 0.093361041073678 
567	 9.36584061120744E-02 
568	 9.38679642599749E-02 
569	 9.44517535991306E-02 
570	 9.49078901995637E-02 
571	 9.50248642491333E-02 
572	 9.54717160302367E-02 
573	 9.60468645639532E-02 
574	 9.66522237618056E-02 
575	 9.71897506745752E-02 
576	 9.74515186223655E-02 
577	 9.77553086155913E-02 
578	 9.82256836950461E-02 
579	 9.87300229292758E-02 
580	 9.93651114651232E-02 
581	 9.98877438632989E-02 
582	 0.100154421181897 
583	 0.100538737697108 
584	 0.100914483920949 
585	 0.101254089090497 
586	 0.101616860446347 
587	 0.10235410058405 
588	 0.102830368119019 
589	 0.102955875845774 
590	 0.103722809313252 
591	 0.104099676401073 
592	 0.104257162205915 
593	 0.104631137777128 
594	 0.105132453427833 
595	 0.105477577240282 
596	 0.105713606915754 
597	 0.106149346059112 
598	 0.106390187591198 
599	 0.10659101347605 
600	 0.106890875784776 
601	 0.107159639588067 
602	 0.107368528460758 
603	 0.107681136632974 
604	 0.108248889623919 
605	 0.108544241308761 
606	 0.108785154824851 
607	 0.109125244597019 
608	 0.109556689733442 
609	 0.109847464722946 
610	 0.110075120759673 
611	 0.110331340973666 
612	 0.11043285300441 
613	 0.110745443606963 
614	 0.111194251689246 
615	 0.11144827922537 
616	 0.11173988586575 
617	 0.11192095543897 
618	 0.1120507449526 
619	 0.112666529850207 
620	 0.112976163887968 
621	 0.113078601726835 
622	 0.113330260879221 
623	 0.113772403332362 
624	 0.114104953819522 
625	 0.114335238566618 
626	 0.11474860446118 
627	 0.115020626956071 
628	 0.1151992052158 
629	 0.115414658147995 
630	 0.115840033646308 
631	 0.116203387589568 
632	 0.116483568498281 
633	 0.116761912523996 
634	 0.116954233573914 
635	 0.117279046536639 
636	 0.117733115657144 
637	 0.118015686080956 
638	 0.118456500062379 
639	 0.118812031012702 
640	 0.118908553833716 
641	 0.119244381332761 
642	 0.119600250857778 
643	 0.119962005838802 
644	 0.120412662816205 
645	 0.120702807542553 
646	 0.120997300342378 
647	 0.121358405905299 
648	 0.121594162953241 
649	 0.121891486687853 
650	 0.122274759798862 
651	 0.122711758054935 
652	 0.123179314543245 
653	 0.12354049314392 
654	 0.123795441634137 
655	 0.124065460647913 
656	 0.124514106910587 
657	 0.12495072851227 
658	 0.125261442867909 
659	 0.125617198473997 
660	 0.125974697406376 
661	 0.126297861465885 
662	 0.126592329890861 
663	 0.127097103286225 
664	 0.127546236653263 
665	 0.127886499616031 
666	 0.12829838687678 
667	 0.128604520344071 
668	 0.128948208218789 
669	 0.129421307022392 
670	 0.129837331741734 
671	 0.130158816339529 
672	 0.130529910410899 
673	 0.13109548243166 
674	 0.131362410561059 
675	 0.131714877678217 
676	 0.132239943179318 
677	 0.132588682697375 
678	 0.132992610185985 
679	 0.133441112454352 
680	 0.133873101408514 
681	 0.134232192772748 
682	 0.134677701839004 
683	 0.135202102193012 
684	 0.135689287595477 
685	 0.13596223845817 
686	 0.136342268617593 
687	 0.136894462486249 
688	 0.137260426177815 
689	 0.137676412856773 
690	 0.138141743604343 
691	 0.138592057218089 
692	 0.138952535336253 
693	 0.139327445941359 
694	 0.139773687281883 
695	 0.140295357885265 
696	 0.140752209849237 
697	 0.141156337342287 
698	 0.141561680566616 
699	 0.142055250894637 
700	 0.142514146537449 
701	 0.142965461119382 
702	 0.143462233632108 
703	 0.143993295178582 
704	 0.144431491769246 
705	 0.144840681962714 
706	 0.145394441957423 
707	 0.145953965569725 
708	 0.146381532011734 
709	 0.146693007788009 
710	 0.147147513851303 
711	 0.147643847092222 
712	 0.148114913363738 
713	 0.148537031173746 
714	 0.149019452318227 
715	 0.149589313165431 
716	 0.150164156218342 
717	 0.150599965124006 
718	 0.150952284570084 
719	 0.151449224753862 
720	 0.152088282984987 
721	 0.152440722030583 
722	 0.152907781354473 
723	 0.153474599404292 
724	 0.154016345052759 
725	 0.154513284895651 
726	 0.154902337092017 
727	 0.155283051356914 
728	 0.155829950455977 
729	 0.156232858528221 
730	 0.156681912185222 
731	 0.157251764502613 
732	 0.157723901597227 
733	 0.158195732571118 
734	 0.158565401689881 
735	 0.158807551370905 
736	 0.159376174987235 
737	 0.159902009089135 
738	 0.160342217159296 
739	 0.160856607487699 
740	 0.161272460115924 
741	 0.16165900677488 
742	 0.162085492221193 
743	 0.162576649713254 
744	 0.163075319506977 
745	 0.16358979113034 
746	 0.16409793120011 
747	 0.164394598964544 
748	 0.164836617021367 
749	 0.165353531261156 
750	 0.16566688858657 
751	 0.165999430226278 
752	 0.166350668685469 
753	 0.166711905043645 
754	 0.16709238594707 
755	 0.167516404137906 
756	 0.167852372644074 
757	 0.168050760369788 
758	 0.168386580965102 
759	 0.168710659230924 
760	 0.169025686954478 
761	 0.169386651579721 
762	 0.169725891175863 
763	 0.170002845231038 
764	 0.170241714666434 
765	 0.170529268561003 
766	 0.170858281701219 
767	 0.171178945726314 
768	 0.171456324970846 
769	 0.171705123386479 
770	 0.171979929218272 
771	 0.172272551845278 
772	 0.172543233959775 
773	 0.17273119657222 
774	 0.172969836382768 
775	 0.17324659867613 
776	 0.173438910905035 
777	 0.173692061541016 
778	 0.173875838432243 
779	 0.173967504677525 
780	 0.174185364608637 
781	 0.174422083778996 
782	 0.174637485524191 
783	 0.174811032673927 
784	 0.17491583713692 
785	 0.175126249026313 
786	 0.175340244817191 
787	 0.175358543073243 
788	 0.175537517198926 
789	 0.175731789066281 
790	 0.175838646855713 
791	 0.175869002645887 
792	 0.175910989198389 
793	 0.176061996929866 
794	 0.176313003408287 
795	 0.176417859062365 
796	 0.176420993321697 
797	 0.176449089002319 
798	 0.176600121606259 
799	 0.176651230405216 
800	 0.17667388249311 
801	 0.176729053256777 
802	 0.176841311562147 
803	 0.176849868824524 
804	 0.176884069575825 
805	 0.176954645121705 
806	 0.176842937883948 
807	 0.17686570894814 
808	 0.176955652936233 
809	 0.176995145101743 
810	 0.177031420165859 
811	 0.17699328076808 
812	 0.176976727632527 
813	 0.17708044218218 
814	 0.176968447644563 
815	 0.176915004927041 
816	 0.176955804992586 
817	 0.176900011503273 
818	 0.176892650531743 
819	 0.176871198563049 
820	 0.176837200430376 
821	 0.17694322700234 
822	 0.1769900036812 
823	 0.176899030953034 
824	 0.176724977486901 
825	 0.176817177026438 
826	 0.176795877419996 
827	 0.176703047648735 
828	 0.176726010843144 
829	 0.176659591210685 
830	 0.176575744576165 
831	 0.176531795675862 
832	 0.176545816259863 
833	 0.176523636388766 
834	 0.176488425915312 
835	 0.176422201878644 
836	 0.176218450310943 
837	 0.176306908141093 
838	 0.176366341344185 
839	 0.176140857795546 
840	 0.176102368262783 
841	 0.176055070768324 
842	 0.175952189456545 
843	 0.17582431007935 
844	 0.17578759281364 
845	 0.175756840289581 
846	 0.175722854689898 
847	 0.175721615574541 
848	 0.175606406252252 
849	 0.17552358439958 
850	 0.175506325140929 
851	 0.175413476397389 
852	 0.175408243636063 
853	 0.175347709010199 
854	 0.175182295944677 
855	 0.17519241370026 
856	 0.17511052667291 
857	 0.174937805923317 
858	 0.174774587265938 
859	 0.17473950734485 
860	 0.174732548880517 
861	 0.174727106680842 
862	 0.174720220045492 
863	 0.174599331468557 
864	 0.174473751655836 
865	 0.174437004371544 
866	 0.174516858526388 
867	 0.174400330850659 
868	 0.174271074778238 
869	 0.174215633766354 
870	 0.174098475442028 
871	 0.174215973589045 
872	 0.17432310877122 
873	 0.174245838590137 
874	 0.17422390182225 
875	 0.174287637332478 
876	 0.174290524205816 
877	 0.174152467282973 
878	 0.174248382123605 
879	 0.174286984151684 
880	 0.174231564022925 
881	 0.174169027589546 
882	 0.174083501856818 
883	 0.174063446625119 
884	 0.174126612395409 
885	 0.174222130181905 
886	 0.174259243811084 
887	 0.174340314524497 
888	 0.174396186388407 
889	 0.174179843155357 
890	 0.174200895505022 
891	 0.174312537654158 
892	 0.174313371007382 
893	 0.174129717680063 
894	 0.174115280490722 
895	 0.174236065080467 
896	 0.174367476290589 
897	 0.174452103702418 
898	 0.174408515260487 
899	 0.174422520841423 
900	 0.174623033679429 
901	 0.174557899636714 
902	 0.174605976588298 
903	 0.174684846309043 
904	 0.174580248854923 
905	 0.174717541384242 
906	 0.174817558129237 
907	 0.174804208618754 
908	 0.174779288733334 
909	 0.174766811779136 
910	 0.174796235532089 
911	 0.174906883371214 
912	 0.175125704233951 
913	 0.175242837543067 
914	 0.175310800462069 
915	 0.175365473361024 
916	 0.175366310205592 
917	 0.175424739571864 
918	 0.17544785696413 
919	 0.175441358773583 
920	 0.175662024076659 
921	 0.17572434464215 
922	 0.175844600321398 
923	 0.176162448745877 
924	 0.176218394992751 
925	 0.176404241021134 
926	 0.1765586505613 
927	 0.176511668365142 
928	 0.17667643662329 
929	 0.176790032687363 
930	 0.176907125281149 
931	 0.17712116674716 
932	 0.17707644214787 
933	 0.177250098146338 
934	 0.177521779047585 
935	 0.177559265318427 
936	 0.177858004883362 
937	 0.178092470040936 
938	 0.178188395101641 
939	 0.178280676617698 
940	 0.178379044372523 
941	 0.17876190010124 
942	 0.179199693471474 
943	 0.179149227704102 
944	 0.179351615085157 
945	 0.179609024863303 
946	 0.179789434526114 
947	 0.179952731821976 
948	 0.180172743768175 
949	 0.180410476266633 
950	 0.180625270827117 
951	 0.180802848085824 
952	 0.180969286352594 
953	 0.181157741756429 
954	 0.181348556293503 
955	 0.181456822287205 
956	 0.181716817137974 
957	 0.181973164794636 
958	 0.182111991225321 
959	 0.18223546230556 
960	 0.182430974107838 
961	 0.182707496076532 
962	 0.182939028647659 
963	 0.182802328267409 
964	 0.182885048353082 
965	 0.183190408706591 
966	 0.183509445088478 
967	 0.183545578891103 
968	 0.18398309833438 
969	 0.184427076641067 
970	 0.184508078759621 
971	 0.184736109901608 
972	 0.184774238859162 
973	 0.184741937041729 
974	 0.184840647822433 
975	 0.185092537097118 
976	 0.185520660627056 
977	 0.185918765171002 
978	 0.186119009455989 
979	 0.186285410669556 
980	 0.186478520851577 
981	 0.186627284686167 
982	 0.186740111997109 
983	 0.18725990046601 
984	 0.187480537713857 
985	 0.187652970669662 
986	 0.188087131831507 
987	 0.188067699259376 
988	 0.188414291784063 
989	 0.188856560267094 
990	 0.188960505378499 
991	 0.189118638846556 
992	 0.189743517125528 
993	 0.190148986240085 
994	 0.189802416909638 
995	 0.190091889296467 
996	 0.190168341645365 
997	 0.190385315294985 
998	 0.191039544315374 
999	 0.190775784412389 
1000	 0.191138091737074 
1001	 0.194377563989501 
1002	 0.194375265838439 
1003	 0.194583630019415 
1004	 0.194820868860168 
1005	 0.195233003138459 
1006	 0.19568765621964 
1007	 0.196213163545854 
1008	 0.196571782576231 
1009	 0.197057972675455 
1010	 0.19743098098575 
1011	 0.197473921730148 
1012	 0.197750615865143 
1013	 0.198197559395107 
1014	 0.198579518305501 
1015	 0.198932688147094 
1016	 0.199407707817593 
1017	 0.199827296713829 
1018	 0.200283725183132 
1019	 0.200608317899504 
1020	 0.200908127217403 
1021	 0.201237866219886 
1022	 0.201480565962248 
1023	 0.2018056363313 
1024	 0.202217021247477 
1025	 0.202612075276277 
1026	 0.203041189681311 
1027	 0.203421410066575 
1028	 0.203837628024165 
1029	 0.204138128126498 
1030	 0.204310250599372 
1031	 0.204651223996401 
1032	 0.204783115026117 
1033	 0.204979226103067 
1034	 0.20533272233771 
1035	 0.205442798142134 
1036	 0.205660244363398 
1037	 0.205936025676182 
1038	 0.206169267898875 
1039	 0.206368664743132 
1040	 0.206650998565342 
1041	 0.206981247800622 
1042	 0.207302681750119 
1043	 0.207681092723332 
1044	 0.207981084824248 
1045	 0.208250680393739 
1046	 0.208429241300935 
1047	 0.208640147546216 
1048	 0.208974077338302 
1049	 0.209292563015444 
1050	 0.20959197494862 
1051	 0.209938660782381 
1052	 0.210258000295154 
1053	 0.210625107496285 
1054	 0.211054179475253 
1055	 0.211507485605745 
1056	 0.21202662623121 
1057	 0.212458144591802 
1058	 0.212843233412403 
1059	 0.213318431505454 
1060	 0.213747606843938 
1061	 0.214070739007291 
1062	 0.214591181807275 
1063	 0.215007776656688 
1064	 0.215350454920259 
1065	 0.215918584717212 
1066	 0.216373967745504 
1067	 0.216856444405364 
1068	 0.217499947567006 
1069	 0.217952543079194 
1070	 0.218440382501768 
1071	 0.218906790978499 
1072	 0.219527027677605 
1073	 0.219985129275822 
1074	 0.220463974956649 
1075	 0.221135553252103 
1076	 0.221671238214783 
1077	 0.222295621232086 
1078	 0.222981360345398 
1079	 0.223480483487112 
1080	 0.223971862548133 
1081	 0.224360721552272 
1082	 0.224905541079623 
1083	 0.225526428389414 
1084	 0.226028361351878 
1085	 0.226795097936426 
1086	 0.227410151688648 
1087	 0.227929741283185 
1088	 0.228402230946749 
1089	 0.229067605460596 
1090	 0.229529653538017 
1091	 0.23005754592902 
1092	 0.230609182694962 
1093	 0.231111024483773 
1094	 0.2316538423065 
1095	 0.23210126444937 
1096	 0.232658073398081 
1097	 0.233210314499547 
1098	 0.233649811171859 
1099	 0.234087042064084 
1100	 0.2344316419999 
1101	 0.234733058573019 
1102	 0.235086484477966 
1103	 0.235482100306307 
1104	 0.235927810380629 
1105	 0.236391645553848 
1106	 0.236830311263017 
1107	 0.237239461842588 
1108	 0.237641079638284 
1109	 0.238051100171522 
1110	 0.238511260446076 
1111	 0.23893981851795 
1112	 0.239230265542062 
1113	 0.239588946216842 
1114	 0.239947679422287 
1115	 0.240264154720934 
1116	 0.240681642748272 
1117	 0.241099928263428 
1118	 0.241483525510318 
1119	 0.241871252436147 
1120	 0.24217879768335 
1121	 0.242402205306004 
1122	 0.2427431431099 
1123	 0.243024091049331 
1124	 0.243345155618438 
1125	 0.243794376360263 
1126	 0.243996212130582 
1127	 0.244206184142714 
1128	 0.244565748227856 
1129	 0.244816291789279 
1130	 0.245075473086758 
1131	 0.245344257345069 
1132	 0.24552887789729 
1133	 0.245710120142281 
1134	 0.245944038741889 
1135	 0.246224858194071 
1136	 0.246560630982866 
1137	 0.246867998646893 
1138	 0.247263698646366 
1139	 0.247550571059867 
1140	 0.247799004674506 
1141	 0.247924224144364 
1142	 0.248122693722866 
1143	 0.248379185861829 
1144	 0.248585326552398 
1145	 0.248851580372846 
1146	 0.249079691364424 
1147	 0.249210466700732 
1148	 0.249439857455272 
1149	 0.249788686081703 
1150	 0.250082076914871 
1151	 0.250344581141525 
1152	 0.25062676196006 
1153	 0.250887193305281 
1154	 0.251132565356213 
1155	 0.251414881281136 
1156	 0.251664599245069 
1157	 0.251850662314243 
1158	 0.252075911764774 
1159	 0.252296944507508 
1160	 0.252533303003047 
1161	 0.25286904762 
1162	 0.253198390650288 
1163	 0.25344575563959 
1164	 0.253740379908574 
1165	 0.253999300080088 
1166	 0.254222864228898 
1167	 0.25451880211377 
1168	 0.254817978873656 
1169	 0.255102763753153 
1170	 0.25536097529493 
1171	 0.255651796742837 
1172	 0.255948387702273 
1173	 0.256254320240426 
1174	 0.256619340580174 
1175	 0.256890966041299 
1176	 0.257145765609492 
1177	 0.257365272447809 
1178	 0.257496166493111 
1179	 0.257634352424026 
1180	 0.257820230204479 
1181	 0.258072049609772 
1182	 0.25840858480625 
1183	 0.258719983557418 
1184	 0.259087864662032 
1185	 0.25943925029243 
1186	 0.259738378229762 
1187	 0.260007297097973 
1188	 0.260298197383548 
1189	 0.260553391935053 
1190	 0.260828123567805 
1191	 0.261122479719176 
1192	 0.26140352594134 
1193	 0.261653262979578 
1194	 0.261932673717067 
1195	 0.262227097428384 
1196	 0.262545533804532 
1197	 0.262866650328423 
1198	 0.263254560517246 
1199	 0.263600314679407 
1200	 0.263891823544862 
1201	 0.264245761460707 
1202	 0.264530001181383 
1203	 0.2648076696398 
1204	 0.265161062276868 
1205	 0.265478103862144 
1206	 0.265750755530851 
1207	 0.266079944695589 
1208	 0.266441126820706 
1209	 0.266799372965283 
1210	 0.267156758782999 
1211	 0.267548715017291 
1212	 0.267966246504311 
1213	 0.268396313048264 
1214	 0.268857313620859 
1215	 0.269322994187022 
1216	 0.269801125540632 
1217	 0.270273983156373 
1218	 0.270745060751996 
1219	 0.27123149343776 
1220	 0.271747380093038 
1221	 0.272330183147663 
1222	 0.272901801807162 
1223	 0.273428098940625 
1224	 0.273909505635631 
1225	 0.274310021077318 
1226	 0.274765729329986 
1227	 0.275208471050083 
1228	 0.275659618037507 
1229	 0.276148209810954 
1230	 0.276588660204492 
1231	 0.276984165452714 
1232	 0.277423010085496 
1233	 0.277871013392504 
1234	 0.278299384730733 
1235	 0.27871551955792 
1236	 0.279167140423866 
1237	 0.279677639838583 
1238	 0.280103026398996 
1239	 0.280491537121224 
1240	 0.280911781102256 
1241	 0.281282548672176 
1242	 0.281582539325631 
1243	 0.281930294186558 
1244	 0.282288729230832 
1245	 0.282695906561326 
1246	 0.283135826938715 
1247	 0.283527166082944 
1248	 0.283991248150971 
1249	 0.284337641286602 
1250	 0.284541025922475 
1251	 0.284846254980968 
1252	 0.285168269950635 
1253	 0.28547967753768 
1254	 0.285819012456252 
1255	 0.286146830071317 
1256	 0.28649958531706 
1257	 0.286773706308519 
1258	 0.286979113840642 
1259	 0.28723444197825 
1260	 0.287435698808094 
1261	 0.287670947421884 
1262	 0.287957180806937 
1263	 0.288299834001853 
1264	 0.288537445785156 
1265	 0.288719646217236 
1266	 0.288946202447118 
1267	 0.289136748681527 
1268	 0.289365048933091 
1269	 0.289653472053624 
1270	 0.289872633094268 
1271	 0.290050487893884 
1272	 0.290260961570898 
1273	 0.290447454013789 
1274	 0.290670204247953 
1275	 0.29091569615745 
1276	 0.291177859051733 
1277	 0.291446518708321 
1278	 0.291747600394227 
1279	 0.292090591204783 
1280	 0.292427428696 
1281	 0.292768152322922 
1282	 0.293136627592949 
1283	 0.293502520882448 
1284	 0.293908520047324 
1285	 0.2943456497029 
1286	 0.294830934155975 
1287	 0.295288987210175 
1288	 0.29576883269138 
1289	 0.29623005010671 
1290	 0.296665538717255 
1291	 0.297145205408881 
1292	 0.297607108337779 
1293	 0.298158912789025 
1294	 0.298817034403287 
1295	 0.29937298977659 
1296	 0.299933440084312 
1297	 0.300492647817368 
1298	 0.300961073492156 
1299	 0.301511004808855 
1300	 0.302167478725816 
1301	 0.302739499757388 
1302	 0.303254893671877 
1303	 0.303822015676614 
1304	 0.304448265317875 
1305	 0.304966573347115 
1306	 0.305451379910309 
1307	 0.305935662623288 
1308	 0.306349271993455 
1309	 0.306718767078415 
1310	 0.307129443937121 
1311	 0.307575752291776 
1312	 0.308010903319945 
1313	 0.308439791292139 
1314	 0.308841012530081 
1315	 0.309276857839684 
1316	 0.30962578720248 
1317	 0.309891964244289 
1318	 0.310191597319336 
1319	 0.310468800343512 
1320	 0.310749689660261 
1321	 0.311046642767126 
1322	 0.311305484546357 
1323	 0.311546532262546 
1324	 0.31176841364861 
1325	 0.311960272310921 
1326	 0.312149910306139 
1327	 0.312305864054979 
1328	 0.312491112192354 
1329	 0.312695509793824 
1330	 0.312881556338651 
1331	 0.313125992558528 
1332	 0.3132754620838 
1333	 0.313325119324879 
1334	 0.313417995943503 
1335	 0.313494017528955 
1336	 0.3135202904022 
1337	 0.31358500767689 
1338	 0.31369495307021 
1339	 0.313741357426581 
1340	 0.313755021036368 
1341	 0.313778427425196 
1342	 0.313790345299393 
1343	 0.313792247656813 
1344	 0.313778631219924 
1345	 0.313782731570243 
1346	 0.313780332502603 
1347	 0.313787125962074 
1348	 0.313829272706874 
1349	 0.3138296816294 
1350	 0.313809600230405 
1351	 0.313782499901661 
1352	 0.313732631682146 
1353	 0.313686834586638 
1354	 0.313632766895839 
1355	 0.313587028282945 
1356	 0.313542691746218 
1357	 0.313496455745896 
1358	 0.313454405186623 
1359	 0.313410270066473 
1360	 0.313380472044249 
1361	 0.313314586756422 
1362	 0.313252489683503 
1363	 0.313205279058525 
1364	 0.313173582834676 
1365	 0.313165524626224 
1366	 0.313109369516221 
1367	 0.313058594513267 
1368	 0.31297835744974 
1369	 0.312859709908991 
1370	 0.312734007532957 
1371	 0.312577338052163 
1372	 0.312470811762308 
1373	 0.312372894414474 
1374	 0.312261031590928 
1375	 0.312196704020088 
1376	 0.312080872044 
1377	 0.311888438673916 
1378	 0.311758863771985 
1379	 0.311657842275673 
1380	 0.311538734317758 
1381	 0.311452519025511 
1382	 0.311325578218348 
1383	 0.311151512380477 
1384	 0.31100569877408 
1385	 0.310843647468613 
1386	 0.310711160909746 
1387	 0.310595088201852 
1388	 0.310499810788897 
1389	 0.310428303561454 
1390	 0.310362923319866 
1391	 0.310289696282538 
1392	 0.310270285772431 
1393	 0.310286199662067 
1394	 0.31030706118739 
1395	 0.310332748276497 
1396	 0.310396854829461 
1397	 0.310435249996102 
1398	 0.310475461937504 
1399	 0.310467413060557 
1400	 0.3104554943078 
1401	 0.310406190334503 
1402	 0.31031539507002 
1403	 0.310194497412987 
1404	 0.310061231367882 
1405	 0.309889624720435 
1406	 0.309643652220695 
1407	 0.309438969212723 
1408	 0.309229089765394 
1409	 0.309019522433409 
1410	 0.308822392737551 
1411	 0.308609073020686 
1412	 0.308362312065421 
1413	 0.308162438661243 
1414	 0.307998429906867 
1415	 0.307803960107785 
1416	 0.307582620273917 
1417	 0.307423902178727 
1418	 0.307276277537592 
1419	 0.307140916123696 
1420	 0.307053708239308 
1421	 0.306987008334871 
1422	 0.306931855480361 
1423	 0.306872235753717 
1424	 0.306831831422569 
1425	 0.306818032528349 
1426	 0.306803727397244 
1427	 0.306778915048994 
1428	 0.306747561967343 
1429	 0.306735499141447 
1430	 0.306723199442685 
1431	 0.306684745613212 
1432	 0.306677220779209 
1433	 0.306697233880347 
1434	 0.306721124520378 
1435	 0.306754804259009 
1436	 0.306775013269833 
1437	 0.306821991171853 
1438	 0.306827807594188 
1439	 0.306777225086209 
1440	 0.306789327452719 
1441	 0.306796147595458 
1442	 0.30685388700159 
1443	 0.306972706316502 
1444	 0.307070999920701 
1445	 0.307153065121394 
1446	 0.307308091935578 
1447	 0.307480161620317 
1448	 0.307703848344493 
1449	 0.307999338725942 
1450	 0.308312895121628 
1451	 0.308653662101978 
1452	 0.309021664166054 
1453	 0.309430517924817 
1454	 0.309856845676207 
1455	 0.310302036171622 
1456	 0.310779632427014 
1457	 0.31132379049718 
1458	 0.311832471947801 
1459	 0.312348218637025 
1460	 0.312854282684111 
1461	 0.313344230992181 
1462	 0.313821562570291 
1463	 0.314287973786488 
1464	 0.314762255276331 
1465	 0.315223969274623 
1466	 0.315698499433516 
1467	 0.316129922791158 
1468	 0.316582625096311 
1469	 0.317033807661012 
1470	 0.317435333877207 
1471	 0.317859866613975 
1472	 0.318290002236959 
1473	 0.31874240981027 
1474	 0.319192141268778 
1475	 0.319655978837055 
1476	 0.320177683870274 
1477	 0.320614395662578 
1478	 0.321021785038824 
1479	 0.32140119226143 
1480	 0.321716966466137 
1481	 0.322081488814404 
1482	 0.322449953301285 
1483	 0.322807232302272 
1484	 0.323167345869777 
1485	 0.323541774592007 
1486	 0.323926074867684 
1487	 0.324273629467848 
1488	 0.324619082946355 
1489	 0.324967896182705 
1490	 0.325268606269471 
1491	 0.325609003692602 
1492	 0.325979080433238 
1493	 0.326362681390081 
1494	 0.326759267903477 
1495	 0.327152988126961 
1496	 0.327587653585786 
1497	 0.327977341065992 
1498	 0.328329227865235 
1499	 0.328704941935947 
1500	 0.329061706437905 
1501	 0.329444087037982 
1502	 0.329876089121684 
1503	 0.330255173620872 
1504	 0.330621339602571 
1505	 0.330980549440011 
1506	 0.331296064385702 
1507	 0.331628860261043 
1508	 0.331988901138396 
1509	 0.332312849936567 
1510	 0.332624694368955 
1511	 0.332918694387111 
1512	 0.333156393051054 
1513	 0.333433898763121 
1514	 0.333749727311605 
1515	 0.33401880643809 
1516	 0.334276465315458 
1517	 0.334538694060625 
1518	 0.33476769811174 
1519	 0.334997835542387 
1520	 0.335244043465439 
1521	 0.335488273978235 
1522	 0.335683473849317 
1523	 0.335878466188768 
1524	 0.336098126768816 
1525	 0.33633063452706 
1526	 0.336528084767707 
1527	 0.336727154930086 
1528	 0.336923995273745 
1529	 0.337095438866458 
1530	 0.337266530388623 
1531	 0.337457600662816 
1532	 0.337616234945374 
1533	 0.337722889764302 
1534	 0.337892804352412 
1535	 0.338108193590218 
1536	 0.338251263917985 
1537	 0.338391204500508 
1538	 0.338512321716009 
1539	 0.338554570311309 
1540	 0.338684905494252 
1541	 0.338841489184118 
1542	 0.339033967699574 
1543	 0.339266191229882 
1544	 0.339509893796816 
1545	 0.339792205899177 
1546	 0.340067316370418 
1547	 0.340379143767782 
1548	 0.340631113289839 
1549	 0.340857778749306 
1550	 0.341094131500541 
1551	 0.341294996630444 
1552	 0.341518404406627 
1553	 0.341783683255928 
1554	 0.341990843304412 
1555	 0.342131811400558 
1556	 0.342355599863113 
1557	 0.342604871378101 
1558	 0.342835012194062 
1559	 0.343120877677676 
1560	 0.343356626062772 
1561	 0.343548588058751 
1562	 0.343736427105718 
1563	 0.343908432557272 
1564	 0.344094999595493 
1565	 0.344247338788561 
1566	 0.344445395849929 
1567	 0.344695554796092 
1568	 0.344913803636224 
1569	 0.345122620527158 
1570	 0.345351420225419 
1571	 0.345573704360755 
1572	 0.345811942225317 
1573	 0.346102520593231 
1574	 0.346336094253991 
1575	 0.346548777683193 
1576	 0.346751655192571 
1577	 0.346892521110196 
1578	 0.34709225424715 
1579	 0.347317300295886 
1580	 0.347541199350397 
1581	 0.347805399848577 
1582	 0.348041144042071 
1583	 0.348262123029808 
1584	 0.348480665895895 
1585	 0.348706926859856 
1586	 0.348901066399913 
1587	 0.349071771566566 
1588	 0.349242970309605 
1589	 0.34936109533301 
1590	 0.349536770946979 
1591	 0.349737943632097 
1592	 0.349950315647176 
1593	 0.350235439746738 
1594	 0.350450990911652 
1595	 0.350639810705111 
1596	 0.35082002700122 
1597	 0.350941508043995 
1598	 0.351098582405873 
1599	 0.351281147354359 
1600	 0.351446264431756 
1601	 0.351607278108453 
1602	 0.351772101284058 
1603	 0.351929696748318 
1604	 0.352091095799125 
1605	 0.352267329251903 
1606	 0.352426933882274 
1607	 0.352581567992131 
1608	 0.352721894549563 
1609	 0.352853737002859 
1610	 0.352974669876568 
1611	 0.35305990686429 
1612	 0.353175051834013 
1613	 0.35328725680484 
1614	 0.353422839846703 
1615	 0.353612733183001 
1616	 0.353760363425477 
1617	 0.353914807689311 
1618	 0.35402919887854 
1619	 0.354078889420745 
1620	 0.354167992081544 
1621	 0.3542490127778 
1622	 0.354338667849474 
1623	 0.354496663208992 
1624	 0.354571694991459 
1625	 0.354581356728498 
1626	 0.354621668147134 
1627	 0.354607207774173 
1628	 0.354636411329124 
1629	 0.354731570178803 
1630	 0.35478742862084 
1631	 0.354825757480432 
1632	 0.354875614700196 
1633	 0.354912502620829 
1634	 0.35495695836321 
1635	 0.355024247310431 
1636	 0.355081826112194 
1637	 0.35511673791832 
1638	 0.355179517708389 
1639	 0.355253241900952 
1640	 0.355334277340113 
1641	 0.355477558567549 
1642	 0.355545426513144 
1643	 0.355584156153662 
1644	 0.355596688121999 
1645	 0.355515340777264 
1646	 0.355494229146089 
1647	 0.355503773254478 
1648	 0.355488604176217 
1649	 0.355489978030802 
1650	 0.355488224205952 
1651	 0.355481503859827 
1652	 0.355450796560266 
1653	 0.355433283196048 
1654	 0.355361627797763 
1655	 0.355232728054244 
1656	 0.355104315129502 
1657	 0.354961234413907 
1658	 0.354790819665725 
1659	 0.354601650162902 
1660	 0.35438387210882 
1661	 0.354135379145063 
1662	 0.353869230116007 
1663	 0.353556037048679 
1664	 0.35327190088989 
1665	 0.353029319697558 
1666	 0.352699449881993 
1667	 0.35240471502756 
1668	 0.351962011995753 
1669	 0.35136769304415 
1670	 0.350768098265968 
1671	 0.350081620820942 
1672	 0.349384607632213 
1673	 0.34869071983471 
1674	 0.347914259237673 
1675	 0.347077277089607 
1676	 0.346204619126874 
1677	 0.345255283551183 
1678	 0.344321387141228 
1679	 0.343388862564361 
1680	 0.342353575508691 
1681	 0.341293624771524 
1682	 0.340140248163266 
1683	 0.338872177702457 
1684	 0.337628950970916 
1685	 0.336349000913887 
1686	 0.335019504744045 
1687	 0.333669088495197 
1688	 0.332232130093839 
1689	 0.330721538683568 
1690	 0.329202671862226 
1691	 0.327619846017447 
1692	 0.326062449183604 
1693	 0.324504499638205 
1694	 0.322918811829155 
1695	 0.321342932403655 
1696	 0.319659700542624 
1697	 0.317906621664097 
1698	 0.316139360708651 
1699	 0.314298243563916 
1700	 0.312507643415254 
1701	 0.310715943173554 
1702	 0.308939812263542 
1703	 0.307111994474035 
1704	 0.305432439936637 
1705	 0.303776619848396 
1706	 0.302300957147186 
1707	 0.301019334656789 
1708	 0.299773125091066 
1709	 0.298611426411638 
1710	 0.297546031784458 
1711	 0.296489829178096 
1712	 0.295589005621581 
1713	 0.29476614742517 
1714	 0.293988414818277 
1715	 0.2933029672211 
1716	 0.292608675156232 
1717	 0.29193264313308 
1718	 0.291223918415045 
1719	 0.290596498222718 
1720	 0.290065843441196 
1721	 0.289528672978165 
1722	 0.289186369369975 
1723	 0.288910240851385 
1724	 0.288622841346754 
1725	 0.288489567349058 
1726	 0.288378774768078 
1727	 0.288349921561564 
1728	 0.288514879066722 
1729	 0.28887887566169 
1730	 0.289445459528139 
1731	 0.290029226670628 
1732	 0.290730614480967 
1733	 0.291536915122574 
1734	 0.292361909061464 
1735	 0.293307324090782 
1736	 0.294189648574679 
1737	 0.294950753154706 
1738	 0.295680513189822 
1739	 0.296252762275243 
1740	 0.296742019310723 
1741	 0.297094911610761 
1742	 0.297264185383055 
1743	 0.297408754852266 
1744	 0.297465633313724 
1745	 0.297445128705025 
1746	 0.297326503071468 
1747	 0.29717371150035 
1748	 0.296866952787282 
1749	 0.296709822192906 
1750	 0.296579680254722 
1751	 0.296523802528095 
1752	 0.296557326215927 
1753	 0.296620144992844 
1754	 0.296708970724007 
1755	 0.296877517665289 
1756	 0.297092253031213 
1757	 0.29741235547133 
1758	 0.297797087439854 
1759	 0.298185299590735 
1760	 0.298749441424341 
1761	 0.299465027933085 
1762	 0.300211941160302 
1763	 0.301145256777958 
1764	 0.302159175859729 
1765	 0.303235915107853 
1766	 0.304468394333096 
1767	 0.305621832523082 
1768	 0.306802796631987 
1769	 0.308078189679314 
1770	 0.309243631143561 
1771	 0.310421734467342 
1772	 0.311592633620878 
1773	 0.312632991216264 
1774	 0.313617078382774 
1775	 0.314552598886318 
1776	 0.315496299296163 
1777	 0.316351957981514 
1778	 0.317031228653744 
1779	 0.317700785729249 
1780	 0.318278406827694 
1781	 0.318782203193471 
1782	 0.319368387103568 
1783	 0.319921334576167 
1784	 0.320453405387026 
1785	 0.320838782789345 
1786	 0.321211071628456 
1787	 0.321581151005046 
1788	 0.321869739491476 
1789	 0.322039482443184 
1790	 0.322298120863693 
1791	 0.322540350781091 
1792	 0.322749498304247 
1793	 0.323028221066671 
1794	 0.323289238313658 
1795	 0.323487393904283 
1796	 0.323660388270798 
1797	 0.323934737770231 
1798	 0.324185723943005 
1799	 0.324357551375957 
1800	 0.324690457781554 
1801	 0.337261160131328 
1802	 0.337506611775129 
1803	 0.337789313587259 
1804	 0.338066724283613 
1805	 0.338402135940093 
1806	 0.338687612204725 
1807	 0.338975773606347 
1808	 0.339257002869648 
1809	 0.339536374165382 
1810	 0.339768229237672 
1811	 0.339942868372088 
1812	 0.340206797243525 
1813	 0.340457819157038 
1814	 0.340744512906443 
1815	 0.341121092416552 
1816	 0.341455332745241 
1817	 0.341792963416955 
1818	 0.342099904143009 
1819	 0.342434040022189 
1820	 0.342803693259079 
1821	 0.34314624937043 
1822	 0.343474871403188 
1823	 0.343790602116322 
1824	 0.344145371321728 
1825	 0.344531550420742 
1826	 0.344927073787185 
1827	 0.345410333853052 
1828	 0.345784733196213 
1829	 0.346117436193704 
1830	 0.346443683133448 
1831	 0.346738462580768 
1832	 0.346983830724869 
1833	 0.347266010684063 
1834	 0.34759808002909 
1835	 0.347949247369781 
1836	 0.348311713671978 
1837	 0.348640402017556 
1838	 0.348980330523634 
1839	 0.349275550248924 
1840	 0.349504661314193 
1841	 0.349800897335329 
1842	 0.350107142108368 
1843	 0.350411225338101 
1844	 0.35080920196553 
1845	 0.3511089289461 
1846	 0.351388403334281 
1847	 0.351689929398142 
1848	 0.351975582382546 
1849	 0.352257971740943 
1850	 0.352527388569983 
1851	 0.3527771537859 
1852	 0.353046270657694 
1853	 0.353350503972822 
1854	 0.353518645795712 
1855	 0.35374367618773 
1856	 0.353929624259733 
1857	 0.354009107351608 
1858	 0.354138058395848 
1859	 0.354192939337095 
1860	 0.354177720938719 
1861	 0.354174337821122 
1862	 0.354153808095832 
1863	 0.354084634019622 
1864	 0.354041609047637 
1865	 0.353981969352326 
1866	 0.353850450651112 
1867	 0.353685856476496 
1868	 0.353492923827546 
1869	 0.353227232896829 
1870	 0.352961116403196 
1871	 0.352718663488138 
1872	 0.352392627858182 
1873	 0.352004810761704 
1874	 0.351638565832962 
1875	 0.351191055964714 
1876	 0.350575707396244 
1877	 0.349991940739579 
1878	 0.349312146982939 
1879	 0.348553045452082 
1880	 0.347842678188347 
1881	 0.34698669787502 
1882	 0.346018050072293 
1883	 0.34500715456674 
1884	 0.343963465395949 
1885	 0.342725831075969 
1886	 0.341474475337428 
1887	 0.340056756182759 
1888	 0.338399798755308 
1889	 0.336810060820911 
1890	 0.335126346641498 
1891	 0.333446919002563 
1892	 0.331775483954235 
1893	 0.329949347029796 
1894	 0.327979040811689 
1895	 0.326013207242446 
1896	 0.323983855617137 
1897	 0.321931924091898 
1898	 0.320044438766961 
1899	 0.318181062697122 
1900	 0.316344951361181 
1901	 0.314540664449243 
1902	 0.312735109789435 
1903	 0.310981405889574 
1904	 0.309282434177981 
1905	 0.307597748768574 
1906	 0.306048858255471 
1907	 0.304566414977348 
1908	 0.303097404771489 
1909	 0.301791230492201 
1910	 0.300514683406922 
1911	 0.299298232771763 
1912	 0.298292691408771 
1913	 0.297268490758878 
1914	 0.296316374174452 
1915	 0.295473042679424 
1916	 0.294770570423959 
1917	 0.294016893842382 
1918	 0.293326410401419 
1919	 0.292660302462694 
1920	 0.291984055223569 
1921	 0.291405305386275 
1922	 0.290856693264754 
1923	 0.290387526421615 
1924	 0.289978427458725 
1925	 0.289573174906025 
1926	 0.289212776869785 
1927	 0.288901599991026 
1928	 0.288629637391373 
1929	 0.288398728672408 
1930	 0.28818703825706 
1931	 0.288018001867603 
1932	 0.287838148570633 
1933	 0.287704774171561 
1934	 0.287587921812379 
1935	 0.287519069752006 
1936	 0.287609803898996 
1937	 0.287718317108243 
1938	 0.287879816947239 
1939	 0.288100021444081 
1940	 0.288408260597784 
1941	 0.288695511116103 
1942	 0.288998781214775 
1943	 0.289380750542427 
1944	 0.289755593041158 
1945	 0.290096052565033 
1946	 0.290490962493143 
1947	 0.290914302002241 
1948	 0.29141839538771 
1949	 0.292004666883114 
1950	 0.29255862834199 
1951	 0.293172607579936 
1952	 0.293751528398149 
1953	 0.294275157028001 
1954	 0.294825604844655 
1955	 0.295539427287276 
1956	 0.296259318410861 
1957	 0.297012503968902 
1958	 0.297770044335978 
1959	 0.298415350410307 
1960	 0.299083377643237 
1961	 0.29972946129107 
1962	 0.300353971617577 
1963	 0.300981602873497 
1964	 0.301607376934168 
1965	 0.302177184825892 
1966	 0.302715390108287 
1967	 0.303295130631875 
1968	 0.30377608419652 
1969	 0.304257293930025 
1970	 0.304702969696395 
1971	 0.305117730709494 
1972	 0.305590817876452 
1973	 0.30613379092466 
1974	 0.306679124297673 
1975	 0.307313646353573 
1976	 0.307867098089793 
1977	 0.308392179757302 
1978	 0.308930085832871 
1979	 0.30945699969486 
1980	 0.30996581441256 
1981	 0.310522316756566 
1982	 0.311003266554026 
1983	 0.31149614831615 
1984	 0.312063816155998 
1985	 0.312572505692514 
1986	 0.313065589505567 
1987	 0.31358791635506 
1988	 0.314078446161447 
1989	 0.314622490484147 
1990	 0.315186441773474 
1991	 0.315810268825866 
1992	 0.316489398241536 
1993	 0.317190999920428 
1994	 0.317851851518792 
1995	 0.318532950640211 
1996	 0.319161810896805 
1997	 0.319711933347697 
1998	 0.320297316280259 
1999	 0.320899511813901 
2000	 0.321481076655557 
2001	 0.322052009750363 
2002	 0.322602705263702 
2003	 0.323165520218118 
2004	 0.323674173797279 
2005	 0.324156422032655 
2006	 0.324606276598871 
2007	 0.325015251962373 
2008	 0.325372059874622 
2009	 0.325786284140952 
2010	 0.326156198704408 
2011	 0.326493551513391 
2012	 0.326776078678784 
2013	 0.327049063779883 
2014	 0.327274291109778 
2015	 0.327466641283992 
2016	 0.327638104637649 
2017	 0.327801017781045 
2018	 0.327944848562423 
2019	 0.328015277039428 
2020	 0.328035301904035 
2021	 0.328073836921299 
2022	 0.328036442235852 
2023	 0.327948385266289 
2024	 0.327845040524308 
2025	 0.32775706206813 
2026	 0.327653709400368 
2027	 0.327510453298981 
2028	 0.327365428702331 
2029	 0.327244907171194 
2030	 0.327073941893459 
2031	 0.326889943640198 
2032	 0.326660919805734 
2033	 0.326332142097662 
2034	 0.32608675913319 
2035	 0.325862720807649 
2036	 0.325584846877375 
2037	 0.325427686180313 
2038	 0.325252793406334 
2039	 0.325034034055635 
2040	 0.324796374535096 
2041	 0.32454184624967 
2042	 0.324205075756454 
2043	 0.323987494564038 
2044	 0.32382940143677 
2045	 0.323634465696922 
2046	 0.323490310028106 
2047	 0.323326238322506 
2048	 0.323091367162439 
2049	 0.322902276917267 
2050	 0.322724941995653 
2051	 0.322619703701818 
2052	 0.322494138575206 
2053	 0.322450162103272 
2054	 0.322360728352334 
2055	 0.32230115443828 
2056	 0.322194052727674 
2057	 0.322043151180751 
2058	 0.321907236142215 
2059	 0.32176920648664 
2060	 0.321625717489878 
2061	 0.321433655834291 
2062	 0.321324107935831 
2063	 0.321294681432239 
2064	 0.32119057110309 
2065	 0.32109381757571 
2066	 0.321015586823114 
2067	 0.320803066165374 
2068	 0.32064463451686 
2069	 0.320524834233567 
2070	 0.320446608723039 
2071	 0.320341903215431 
2072	 0.320268987770099 
2073	 0.320168629478559 
2074	 0.320030704138535 
2075	 0.31992912981817 
2076	 0.319850449050672 
2077	 0.319744746784013 
2078	 0.319660550539583 
2079	 0.319543573821641 
2080	 0.319392218336371 
2081	 0.319252463631048 
2082	 0.319087978581187 
2083	 0.318928501728228 
2084	 0.318829855254613 
2085	 0.318707201204822 
2086	 0.318569356218555 
2087	 0.31844034435799 
2088	 0.318300056295931 
2089	 0.318105743263876 
2090	 0.31795933244145 
2091	 0.317828343840577 
2092	 0.317729916577329 
2093	 0.317704928699299 
2094	 0.317608161637181 
2095	 0.317511296839478 
2096	 0.317377675956201 
2097	 0.317175577334304 
2098	 0.316994016244944 
2099	 0.316753145529583 
2100	 0.316512497541211 
2101	 0.316300309502664 
2102	 0.316070804941369 
2103	 0.315846522388435 
2104	 0.315668900923249 
2105	 0.315447393855034 
2106	 0.315198737459894 
2107	 0.314920326340611 
2108	 0.314641921088927 
2109	 0.314329477411606 
2110	 0.313951403665716 
2111	 0.313598541872957 
2112	 0.313231110772987 
2113	 0.312878065962488 
2114	 0.312542953916416 
2115	 0.312186567532283 
2116	 0.31187375237125 
2117	 0.31146840980335 
2118	 0.311059255657983 
2119	 0.310618979836573 
2120	 0.310192940027353 
2121	 0.309695752664025 
2122	 0.309327302887484 
2123	 0.309051855361763 
2124	 0.308693050879918 
2125	 0.30836915833659 
2126	 0.308018847652311 
2127	 0.307539007627515 
2128	 0.307210212208624 
2129	 0.307002870152679 
2130	 0.306745097745126 
2131	 0.306518734411155 
2132	 0.306300740240138 
2133	 0.306038966436748 
2134	 0.305848822865788 
2135	 0.30565000436554 
2136	 0.305455620661873 
2137	 0.305300464663707 
2138	 0.305104154812096 
2139	 0.305035008500181 
2140	 0.305084975504834 
2141	 0.305086301912839 
2142	 0.305175192202335 
2143	 0.305167770783546 
2144	 0.305076885620699 
2145	 0.305047013890776 
2146	 0.304952044415496 
2147	 0.304982109086719 
2148	 0.30514282109379 
2149	 0.305246856812964 
2150	 0.305356127063929 
2151	 0.305508116819515 
2152	 0.305716352013382 
2153	 0.30584620492448 
2154	 0.305886833445029 
2155	 0.306071539102761 
2156	 0.306203746582721 
2157	 0.30625164619122 
2158	 0.306352750547289 
2159	 0.30652238802198 
2160	 0.306677394706384 
2161	 0.306835820722675 
2162	 0.306928803831061 
2163	 0.307071874846528 
2164	 0.307097032312475 
2165	 0.306951211964867 
2166	 0.306900447145551 
2167	 0.306838869285181 
2168	 0.306806518914555 
2169	 0.306840165646892 
2170	 0.306812100957635 
2171	 0.306754847019514 
2172	 0.306710648053539 
2173	 0.306651969067647 
2174	 0.306557966466563 
2175	 0.306540588999603 
2176	 0.306516253850192 
2177	 0.306469955019264 
2178	 0.306416849706528 
2179	 0.306376263603 
2180	 0.306326407903618 
2181	 0.306287553382581 
2182	 0.306283533673438 
2183	 0.306208182618505 
2184	 0.30608970836902 
2185	 0.305992527039031 
2186	 0.305862925208773 
2187	 0.305753491530011 
2188	 0.30568164506443 
2189	 0.305570135829364 
2190	 0.305450167820715 
2191	 0.305297682952932 
2192	 0.305122073913325 
2193	 0.30492150595859 
2194	 0.304629535230966 
2195	 0.304423894674883 
2196	 0.304254468520772 
2197	 0.304089096356265 
2198	 0.303975355825862 
2199	 0.303819848659364 
2200	 0.303582297088813 
2201	 0.303276262157454 
2202	 0.302969024404611 
2203	 0.302578326933521 
2204	 0.302274056689391 
2205	 0.301966002894897 
2206	 0.30170550355081 
2207	 0.301553026954762 
2208	 0.301271222856435 
2209	 0.300968398733486 
2210	 0.300635692554139 
2211	 0.300219340630122 
2212	 0.299811064125095 
2213	 0.299392494596379 
2214	 0.298979710051019 
2215	 0.298555640888958 
2216	 0.298103580145376 
2217	 0.297639664969328 
2218	 0.29718159997659 
2219	 0.296686263834998 
2220	 0.296213964137692 
2221	 0.295789948506351 
2222	 0.295313091513039 
2223	 0.294876046051057 
2224	 0.294436943459752 
2225	 0.293854811510403 
2226	 0.293262392844857 
2227	 0.292548849422371 
2228	 0.291654938634535 
2229	 0.290852531251714 
2230	 0.290035033282328 
2231	 0.289209948987508 
2232	 0.288493062504942 
2233	 0.28747968297055 
2234	 0.286344787700771 
2235	 0.285099460570455 
2236	 0.283660955359505 
2237	 0.282168169464943 
2238	 0.280577167029162 
2239	 0.278919481376673 
2240	 0.27712405019229 
2241	 0.275268277754392 
2242	 0.273495935042725 
2243	 0.271426790166661 
2244	 0.269085497334823 
2245	 0.266762948240962 
2246	 0.264111555268303 
2247	 0.261644617629011 
2248	 0.259341530490872 
2249	 0.256905216008247 
2250	 0.254388933627159 
2251	 0.252019806923771 
2252	 0.249484011444986 
2253	 0.247006504133587 
2254	 0.244448860085241 
2255	 0.24176925326921 
2256	 0.239220845164184 
2257	 0.236558072365964 
2258	 0.234125471705189 
2259	 0.23190509116913 
2260	 0.229652555525304 
2261	 0.227470249086895 
2262	 0.225304553472128 
2263	 0.223175932510301 
2264	 0.221085494483379 
2265	 0.218955803165254 
2266	 0.217021823400965 
2267	 0.215308058126933 
2268	 0.213429832967951 
2269	 0.211634269578401 
2270	 0.209795182778904 
2271	 0.207721831500675 
2272	 0.205908151602093 
2273	 0.204298939243643 
2274	 0.202604974323656 
2275	 0.201010015989814 
2276	 0.19937810770188 
2277	 0.197699040917549 
2278	 0.196004131251344 
2279	 0.194336989844816 
2280	 0.192587234712646 
2281	 0.190772738209657 
2282	 0.188964304175903 
2283	 0.187077575548611 
2284	 0.185288154211078 
2285	 0.183440488242179 
2286	 0.181511805365772 
2287	 0.179536631345292 
2288	 0.177437389331818 
2289	 0.175419427896026 
2290	 0.173374016236578 
2291	 0.17143247479576 
2292	 0.169623571686487 
2293	 0.167682904444814 
2294	 0.165871987192563 
2295	 0.164100315621101 
2296	 0.162333202464381 
2297	 0.160903534983002 
2298	 0.159697144890677 
2299	 0.158655285772891 
2300	 0.157860747743154 
2301	 0.157244592229014 
2302	 0.156798577571357 
2303	 0.156560174264777 
2304	 0.156500462452133 
2305	 0.156776055910412 
2306	 0.157348514637702 
2307	 0.158062876093546 
2308	 0.159063566367544 
2309	 0.160283696527191 
2310	 0.161777284390359 
2311	 0.16326779105652 
2312	 0.165139071444906 
2313	 0.166721189565736 
2314	 0.168134738135182 
2315	 0.169660386578124 
2316	 0.171157179592373 
2317	 0.172667977585169 
2318	 0.174497488021524 
2319	 0.175791031109569 
2320	 0.176815731831651 
2321	 0.177752882455644 
2322	 0.178275683844293 
2323	 0.178797162043139 
2324	 0.179363894923597 
2325	 0.179703430551967 
2326	 0.179891986732274 
2327	 0.179897670688283 
2328	 0.179643546327797 
2329	 0.179359816205748 
2330	 0.178995071329801 
2331	 0.178359586696422 
2332	 0.177636276514826 
2333	 0.176939280962207 
2334	 0.175914059393639 
2335	 0.174702725379584 
2336	 0.173525856426493 
2337	 0.172178361540482 
2338	 0.170884259885765 
2339	 0.169711482423933 
2340	 0.168545420705795 
2341	 0.167475891705009 
2342	 0.166372251967413 
2343	 0.16543449287172 
2344	 0.164622041897505 
2345	 0.163884856721398 
2346	 0.1636582280583 
2347	 0.163758514965508 
2348	 0.164124732520432 
2349	 0.164841374273568 
2350	 0.165643851635457 
2351	 0.166652550290282 
2352	 0.16758587625575 
2353	 0.168570459204657 
2354	 0.169796228581239 
2355	 0.17080693014244 
2356	 0.1717377588742 
2357	 0.172827826594673 
2358	 0.173773013373608 
2359	 0.174373926913632 
2360	 0.17494247548492 
2361	 0.175366279834573 
2362	 0.175334034120194 
2363	 0.175306770920366 
2364	 0.175437820364595 
2365	 0.175403726062771 
2366	 0.175636706990806 
2367	 0.175767888818587 
2368	 0.175505106604379 
2369	 0.175384187795485 
2370	 0.175016207507259 
2371	 0.174624924942686 
2372	 0.174614753935945 
2373	 0.174567245293007 
2374	 0.174389917468806 
2375	 0.174262413405507 
2376	 0.17417194724267 
2377	 0.174050646982529 
2378	 0.174148882502666 
2379	 0.17442424238066 
2380	 0.174498705488061 
2381	 0.174607457568155 
2382	 0.174824209436447 
2383	 0.175097695026963 
2384	 0.175231666185851 
2385	 0.17551789291643 
2386	 0.17556308151043 
2387	 0.175299695696975 
2388	 0.175387964490279 
2389	 0.175653907956948 
2390	 0.175575139506878 
2391	 0.175238886131925 
2392	 0.17534464405292 
2393	 0.175471964369191 
2394	 0.175572717880359 
2395	 0.176241915632931 
2396	 0.176426497280795 
2397	 0.176062455232457 
2398	 0.176226603790251 
2399	 0.176465627626265 
2400	 0.176693701740861 
2401	 0.177305967391751 
2402	 0.177336012715573 
2403	 0.177526666453089 
2404	 0.177682938212982 
2405	 0.177231702823751 
2406	 0.177247071891641 
2407	 0.17744116588745 
2408	 0.177293104218056 
2409	 0.177459978029968 
2410	 0.177626342517944 
2411	 0.177564358309251 
2412	 0.17774041513828 
2413	 0.177928917674767 
2414	 0.17806751826431 
2415	 0.17811208660108 
2416	 0.177810742931 
2417	 0.177694277673243 
2418	 0.177698078543618 
2419	 0.177376569673073 
2420	 0.177304410228908 
2421	 0.177406668770481 
2422	 0.177036151296664 
2423	 0.176764192664181 
2424	 0.176816699222567 
2425	 0.176842188513028 
2426	 0.176963618385977 
2427	 0.177017892994264 
2428	 0.176730035261127 
2429	 0.17631190769254 
2430	 0.17615188101511 
2431	 0.176272039129375 
2432	 0.176472076567009 
2433	 0.176665073839771 
2434	 0.1768872629349 
2435	 0.176712596853784 
2436	 0.176617866920197 
2437	 0.17661895348429 
2438	 0.176228807356533 
2439	 0.176320617683067 
2440	 0.176044455452074 
2441	 0.175566725583636 
2442	 0.175587958948794 
2443	 0.175291973393115 
2444	 0.175315149874603 
2445	 0.175061841216781 
2446	 0.17414887927731 
2447	 0.173703012572895 
2448	 0.173496494999939 
2449	 0.173179253275763 
2450	 0.17310051536146 
2451	 0.172864844623354 
2452	 0.171828647525193 
2453	 0.171085617012368 
2454	 0.171171131181791 
2455	 0.170690996362227 
2456	 0.169868601979569 
2457	 0.169843140810839 
2458	 0.169589938821863 
2459	 0.169179491685115 
2460	 0.169495362059528 
2461	 0.169417958232991 
2462	 0.168952073327008 
2463	 0.169189843552567 
2464	 0.16984786750361 
2465	 0.170520337834379 
2466	 0.171036607949305 
2467	 0.170681200005776 
2468	 0.169542104114282 
2469	 0.16792795998703 
2470	 0.166960439156194 
2471	 0.166859848961211 
2472	 0.166954568814721 
2473	 0.167577747169653 
2474	 0.167633714544782 
2475	 0.167581221448196 
2476	 0.167616639140614 
2477	 0.16735518271757 
2478	 0.167860518605544 
2479	 0.167631203937012 
2480	 0.166778407301438 
2481	 0.166600385860705 
2482	 0.166421703504027 
2483	 0.165964209344392 
2484	 0.165835258842724 
2485	 0.166225885350067 
2486	 0.16692515018743 
2487	 0.167624256822991 
2488	 0.167840192586997 
2489	 0.167881039076682 
2490	 0.167531153759241 
2491	 0.167882155574431 
2492	 0.168594800998671 
2493	 0.168602076289229 
2494	 0.169166688373786 
2495	 0.169644054543096 
2496	 0.170384161189119 
2497	 0.171683587992924 
2498	 0.171662309561632 
2499	 0.170874816762992 
2500	 0.170871006703821 
