Wavelength	spectrum00017.asd
350	 8.64981058606279E-02 
351	 8.23257838144646E-02 
352	 7.81812553632133E-02 
353	 7.60620927432275E-02 
354	 7.57953558921204E-02 
355	 7.42129588046553E-02 
356	 7.15993682791302E-02 
357	 6.89209234735335E-02 
358	 0.066299612954095 
359	 6.43015579656413E-02 
360	 6.33942573874418E-02 
361	 6.36099183275361E-02 
362	 6.24800466491415E-02 
363	 0.061406455521587 
364	 6.08521177705429E-02 
365	 5.95413600692341E-02 
366	 5.93177655631532E-02 
367	 5.89465699900297E-02 
368	 0.057620098214369 
369	 5.85259167112336E-02 
370	 5.82831351785602E-02 
371	 5.68568237151382E-02 
372	 5.60890364465613E-02 
373	 5.55177831986477E-02 
374	 5.54105471992283E-02 
375	 5.54582302336974E-02 
376	 5.44644912698622E-02 
377	 5.41274991080707E-02 
378	 5.39647954267137E-02 
379	 5.31927913907768E-02 
380	 5.19098583713791E-02 
381	 5.19524414577231E-02 
382	 5.22912730222151E-02 
383	 5.05861253221296E-02 
384	 4.97833208787371E-02 
385	 5.01551908748464E-02 
386	 5.07657751100603E-02 
387	 4.94115183496511E-02 
388	 4.83142418841729E-02 
389	 4.76532908147491E-02 
390	 4.71667447800326E-02 
391	 4.72773486345176E-02 
392	 4.70126155022272E-02 
393	 4.64945623790431E-02 
394	 4.64640769930737E-02 
395	 4.57874291999702E-02 
396	 4.52393060471243E-02 
397	 4.51614759431472E-02 
398	 4.48044358267937E-02 
399	 4.42700566142981E-02 
400	 4.37832743652502E-02 
401	 4.34567542458709E-02 
402	 0.042674617183461 
403	 4.23529433824808E-02 
404	 4.23384069845568E-02 
405	 4.17447186975009E-02 
406	 4.16288430350441E-02 
407	 4.13318849555954E-02 
408	 4.06182355381506E-02 
409	 4.05755614375573E-02 
410	 4.01923577343693E-02 
411	 0.039827911839717 
412	 3.99957299891096E-02 
413	 3.96958647561068E-02 
414	 3.91449341275971E-02 
415	 3.87066974271757E-02 
416	 3.87636495633728E-02 
417	 0.038631305305101 
418	 3.84572894037611E-02 
419	 3.83502375534732E-02 
420	 3.79508492091815E-02 
421	 3.74614199352207E-02 
422	 3.72536455529774E-02 
423	 3.75575942650731E-02 
424	 3.72958875154571E-02 
425	 3.70474183604653E-02 
426	 3.70095155671906E-02 
427	 3.67977150959778E-02 
428	 3.65119452045465E-02 
429	 0.036264312504937 
430	 3.61328626846936E-02 
431	 3.60671696925076E-02 
432	 3.61707019619037E-02 
433	 3.62265750996939E-02 
434	 3.59415830491559E-02 
435	 3.60843884769385E-02 
436	 3.61511772567029E-02 
437	 0.0359344921214 
438	 3.59063022978118E-02 
439	 3.59038109681032E-02 
440	 3.58657411680482E-02 
441	 3.58021970369773E-02 
442	 0.035939417654957 
443	 3.59764944125581E-02 
444	 0.035873738693259 
445	 3.58166672779194E-02 
446	 3.58669588949109E-02 
447	 3.59668519471205E-02 
448	 0.036045034692491 
449	 3.60345634709953E-02 
450	 3.61587653068922E-02 
451	 3.62876558469186E-02 
452	 3.62398621240518E-02 
453	 3.64290561193964E-02 
454	 3.66589290770709E-02 
455	 3.68133125987271E-02 
456	 3.69176244306716E-02 
457	 3.70907108988495E-02 
458	 3.72739108648293E-02 
459	 3.74311546694604E-02 
460	 3.77246216150176E-02 
461	 3.80553083775551E-02 
462	 3.83424225336305E-02 
463	 3.85472316289952E-02 
464	 0.038869545831331 
465	 3.93149451358268E-02 
466	 3.98018683794674E-02 
467	 4.01474853506421E-02 
468	 4.06739589931091E-02 
469	 4.13058328676979E-02 
470	 4.19123746724991E-02 
471	 4.26627879821617E-02 
472	 4.34362873104896E-02 
473	 4.42075742191488E-02 
474	 4.50385899132547E-02 
475	 4.60036171955254E-02 
476	 4.70505471115457E-02 
477	 4.81406428821982E-02 
478	 4.93071885885328E-02 
479	 5.06336782974364E-02 
480	 5.20743287122208E-02 
481	 5.35550114041544E-02 
482	 0.055208815335463 
483	 5.68666425167236E-02 
484	 5.85429787814182E-02 
485	 6.04756332248748E-02 
486	 6.24922050180693E-02 
487	 0.064554477895884 
488	 6.66651789562925E-02 
489	 6.88435656088489E-02 
490	 7.12427164696205E-02 
491	 7.37941671636482E-02 
492	 7.63210768773419E-02 
493	 7.89785608804844E-02 
494	 8.17564065265637E-02 
495	 8.46310430661247E-02 
496	 8.75920904818114E-02 
497	 9.05819757169969E-02 
498	 9.36268335727261E-02 
499	 9.67642356693292E-02 
500	 9.99682232865338E-02 
501	 0.103276362127308 
502	 0.106677722044165 
503	 0.110119350773646 
504	 0.113603429561065 
505	 0.11710360710562 
506	 0.120631128992933 
507	 0.124307253347974 
508	 0.127914924545917 
509	 0.131495369176295 
510	 0.135187906412225 
511	 0.138944805009556 
512	 0.14267817274132 
513	 0.146406993478973 
514	 0.150307451640677 
515	 0.154067092822548 
516	 0.157759566147504 
517	 0.16151982908993 
518	 0.165311943081069 
519	 0.169099108186167 
520	 0.172872816647618 
521	 0.176640617722199 
522	 0.180381160813129 
523	 0.184080877733511 
524	 0.187756661397426 
525	 0.191503574684481 
526	 0.19518491052397 
527	 0.198812595846982 
528	 0.202442776040617 
529	 0.206042962869608 
530	 0.209549688878534 
531	 0.213014040591661 
532	 0.216597097984593 
533	 0.220055863379289 
534	 0.223456695705594 
535	 0.22686647563584 
536	 0.230152449321153 
537	 0.233476071645395 
538	 0.236810719668446 
539	 0.240029008576872 
540	 0.243125457350918 
541	 0.246213745783158 
542	 0.249337598840159 
543	 0.252406841949467 
544	 0.255367756498128 
545	 0.258216793609103 
546	 0.261009056076569 
547	 0.263947781949229 
548	 0.266959472321771 
549	 0.269991055475931 
550	 0.273017600501292 
551	 0.276036770971529 
552	 0.279070329521474 
553	 0.282129617910862 
554	 0.285185788667164 
555	 0.288212697839486 
556	 0.291230953573077 
557	 0.294266690050556 
558	 0.297211144580479 
559	 0.300087436195733 
560	 0.302917394320241 
561	 0.305703878818029 
562	 0.308276267405158 
563	 0.310546634406611 
564	 0.312533091450818 
565	 0.314496525759447 
566	 0.316496811238014 
567	 0.318490964343082 
568	 0.320394109539757 
569	 0.322653630939475 
570	 0.325127963714925 
571	 0.327632809632364 
572	 0.330131588724945 
573	 0.332427582609549 
574	 0.334481036648996 
575	 0.336303958500101 
576	 0.337740436536395 
577	 0.338913187944601 
578	 0.339986495731519 
579	 0.341140784104222 
580	 0.342491689937571 
581	 0.344095184000465 
582	 0.345936819115081 
583	 0.347882179375661 
584	 0.349882080058164 
585	 0.351926668419064 
586	 0.354000008329068 
587	 0.355761496517925 
588	 0.357374391649683 
589	 0.359028290344146 
590	 0.360835773339854 
591	 0.36275265324622 
592	 0.364718911471787 
593	 0.366692794497112 
594	 0.368781707446322 
595	 0.370686983789915 
596	 0.372366717686338 
597	 0.374014339323604 
598	 0.375696443971791 
599	 0.377325524299189 
600	 0.378859212219266 
601	 0.380429973342066 
602	 0.38201421644475 
603	 0.383614210737883 
604	 0.385236868665574 
605	 0.386884987012628 
606	 0.388561554237316 
607	 0.390216134761132 
608	 0.391731957749704 
609	 0.393185252934829 
610	 0.394606126234591 
611	 0.39602529943559 
612	 0.397503542556216 
613	 0.398967090632418 
614	 0.400404721910948 
615	 0.401844716170485 
616	 0.403233918196932 
617	 0.404615978743926 
618	 0.406024003369321 
619	 0.407456209050692 
620	 0.408887572357194 
621	 0.410250630047324 
622	 0.411512615881241 
623	 0.412862571921168 
624	 0.414200722337324 
625	 0.415504017680525 
626	 0.416831075705978 
627	 0.418133828672163 
628	 0.419437065097109 
629	 0.420739497006171 
630	 0.421927650659258 
631	 0.423152821891671 
632	 0.424406779405994 
633	 0.425618622064409 
634	 0.426846176884004 
635	 0.428042176500779 
636	 0.429194529695607 
637	 0.430340505766454 
638	 0.431421081578447 
639	 0.432566060911959 
640	 0.433825431815649 
641	 0.434836165983427 
642	 0.435868986714652 
643	 0.437017091407329 
644	 0.438226341945315 
645	 0.43920247570496 
646	 0.4401675122169 
647	 0.441252438559413 
648	 0.442336134038357 
649	 0.443283705189282 
650	 0.444227416527876 
651	 0.445313409000427 
652	 0.446355665018978 
653	 0.447326081405956 
654	 0.448266397934351 
655	 0.449266483093114 
656	 0.4503241735701 
657	 0.4513472410768 
658	 0.452307578045266 
659	 0.453346070837301 
660	 0.454408556860969 
661	 0.455414187558472 
662	 0.456315357384826 
663	 0.457311277681656 
664	 0.458358928495584 
665	 0.459390005222568 
666	 0.460335214389175 
667	 0.461380067838433 
668	 0.462397940842208 
669	 0.463301669857292 
670	 0.464263061598313 
671	 0.465313195305281 
672	 0.466389036512288 
673	 0.467391923043041 
674	 0.468330245283833 
675	 0.469361453233003 
676	 0.470460354284676 
677	 0.47137409654442 
678	 0.47231010853093 
679	 0.47324077126493 
680	 0.474146109110753 
681	 0.475209803675162 
682	 0.476239303225805 
683	 0.477190845468832 
684	 0.478117458572103 
685	 0.479088076209057 
686	 0.48013236696037 
687	 0.481187329757153 
688	 0.482073382873882 
689	 0.482938924165725 
690	 0.483822315011705 
691	 0.484739464325853 
692	 0.485740825146316 
693	 0.4866732088207 
694	 0.487519292362367 
695	 0.488363871035541 
696	 0.489341857280658 
697	 0.49032837059536 
698	 0.491243727252795 
699	 0.492138427023974 
700	 0.492869244520021 
701	 0.493614672512537 
702	 0.494557515514633 
703	 0.495549195595074 
704	 0.496413104722781 
705	 0.497155894053391 
706	 0.497918732857781 
707	 0.498757349525714 
708	 0.499636385808534 
709	 0.500493574848422 
710	 0.501245152119389 
711	 0.502035683474715 
712	 0.502817520885717 
713	 0.503536301076167 
714	 0.504353604346507 
715	 0.505204845999492 
716	 0.505970088017748 
717	 0.506538199944657 
718	 0.507267175222912 
719	 0.508090136947597 
720	 0.508896865775209 
721	 0.509614137453308 
722	 0.510264430888676 
723	 0.510897230229914 
724	 0.511585983605815 
725	 0.512470652460783 
726	 0.513295505645943 
727	 0.513965828006207 
728	 0.514527509411873 
729	 0.515073006499587 
730	 0.515721166475887 
731	 0.516481784061363 
732	 0.517195672376498 
733	 0.517855716978922 
734	 0.518482034820825 
735	 0.519137798339115 
736	 0.5200151513348 
737	 0.520680122725557 
738	 0.521172216413707 
739	 0.521820190240277 
740	 0.522409873480194 
741	 0.522927335511551 
742	 0.523436863238162 
743	 0.524082865157807 
744	 0.524705459611948 
745	 0.525258706617209 
746	 0.52575543042107 
747	 0.526273781684917 
748	 0.526882451269709 
749	 0.52751335158312 
750	 0.528043177751386 
751	 0.528619221495378 
752	 0.529127577547633 
753	 0.529586618222755 
754	 0.530210625346088 
755	 0.53078098251874 
756	 0.531285335304558 
757	 0.53175357878908 
758	 0.532178479949034 
759	 0.532607870877525 
760	 0.533119836356466 
761	 0.533756042771362 
762	 0.534275710101439 
763	 0.534751044629083 
764	 0.535238328780787 
765	 0.535747301381696 
766	 0.536233738190466 
767	 0.53675605492782 
768	 0.537311669695917 
769	 0.537706611793953 
770	 0.538110053944381 
771	 0.538558589859614 
772	 0.539033079322418 
773	 0.53949659156828 
774	 0.539971200507606 
775	 0.540446906105379 
776	 0.540896524569058 
777	 0.541420934602544 
778	 0.542012225457966 
779	 0.542569104171053 
780	 0.542861752918003 
781	 0.543219774919097 
782	 0.543635750889346 
783	 0.544037603473681 
784	 0.544500885620376 
785	 0.544940777213164 
786	 0.545386658718349 
787	 0.545897543315213 
788	 0.546224898764644 
789	 0.546582829267948 
790	 0.547063464160639 
791	 0.547559572573489 
792	 0.547997830147185 
793	 0.548356138350832 
794	 0.548674145194219 
795	 0.549100641672097 
796	 0.549516102450706 
797	 0.54995265221992 
798	 0.550439867605334 
799	 0.550726088346012 
800	 0.55101302960931 
801	 0.551424414933955 
802	 0.551974331484916 
803	 0.5524257850052 
804	 0.552808664517418 
805	 0.553167062133705 
806	 0.553504589542242 
807	 0.553877981458017 
808	 0.554348969753739 
809	 0.554878186744214 
810	 0.555134990459775 
811	 0.555435959069317 
812	 0.555805918804385 
813	 0.556153948029662 
814	 0.556557403927489 
815	 0.556939488388762 
816	 0.557265589814768 
817	 0.557551205205948 
818	 0.55781501771669 
819	 0.558192523815662 
820	 0.558679639759154 
821	 0.5590277412191 
822	 0.559320228050907 
823	 0.559621462415345 
824	 0.559981899063428 
825	 0.560435027111944 
826	 0.560711084552647 
827	 0.560910569592536 
828	 0.561259290082637 
829	 0.561592731253676 
830	 0.561864436861096 
831	 0.562129078355479 
832	 0.562500025715069 
833	 0.562760828899283 
834	 0.563078824982482 
835	 0.563488839135792 
836	 0.563743029505245 
837	 0.564046416366187 
838	 0.564346654166397 
839	 0.564565329943219 
840	 0.564711883736911 
841	 0.565010459052525 
842	 0.565433284514719 
843	 0.565814430537792 
844	 0.565930781801461 
845	 0.566005411450354 
846	 0.566222752305819 
847	 0.566668056881472 
848	 0.567056639566517 
849	 0.567360883440296 
850	 0.567626106403611 
851	 0.567939392463223 
852	 0.568224981256615 
853	 0.568460967131557 
854	 0.568687171682538 
855	 0.569051408106992 
856	 0.569364108233953 
857	 0.569605108068681 
858	 0.569835584010215 
859	 0.570203142399987 
860	 0.570450955925942 
861	 0.570606366219907 
862	 0.570837653563855 
863	 0.571155056110448 
864	 0.571431854904601 
865	 0.571643525159888 
866	 0.571867976001386 
867	 0.572149696151752 
868	 0.572513286820132 
869	 0.57288549729367 
870	 0.573081131128826 
871	 0.573205477922104 
872	 0.573385644384882 
873	 0.573674201352351 
874	 0.573950301421243 
875	 0.574292431353381 
876	 0.574603025654548 
877	 0.574817153015955 
878	 0.575191022858112 
879	 0.575388575663577 
880	 0.575471109238527 
881	 0.57567218106791 
882	 0.575980663049856 
883	 0.57620886206302 
884	 0.576354885141934 
885	 0.576560348564953 
886	 0.576789755514319 
887	 0.577069165918767 
888	 0.577357190828813 
889	 0.57754271793546 
890	 0.577732453936864 
891	 0.577935043342038 
892	 0.578142091559917 
893	 0.57834797054113 
894	 0.578467814260464 
895	 0.578670699810793 
896	 0.579033653987029 
897	 0.579241524061695 
898	 0.579344887215743 
899	 0.579494744127852 
900	 0.579803195593074 
901	 0.580081190355301 
902	 0.580345280819528 
903	 0.580563205101825 
904	 0.580715591723023 
905	 0.580953012687439 
906	 0.581262900575779 
907	 0.581541683868906 
908	 0.581674571479793 
909	 0.581901629554688 
910	 0.582175508449094 
911	 0.582427612248357 
912	 0.582609051101505 
913	 0.582755016304186 
914	 0.583014387965279 
915	 0.58337469679839 
916	 0.583598979541629 
917	 0.58386002479807 
918	 0.584087212382973 
919	 0.584245693910534 
920	 0.58444930020273 
921	 0.584729465629905 
922	 0.585025912697861 
923	 0.585277985972054 
924	 0.585496264787556 
925	 0.5857282236097 
926	 0.585954479771628 
927	 0.586162087362324 
928	 0.586440391069972 
929	 0.586703550761283 
930	 0.587025429766963 
931	 0.587436925826406 
932	 0.587495998609061 
933	 0.587600388785953 
934	 0.587887589688526 
935	 0.588293510254889 
936	 0.588643075098508 
937	 0.58902181124504 
938	 0.589324317341308 
939	 0.589389055220815 
940	 0.589632886566127 
941	 0.589936547369462 
942	 0.590158961454094 
943	 0.590236701865647 
944	 0.590520890011685 
945	 0.590851255215363 
946	 0.591063312589278 
947	 0.591098005168931 
948	 0.591272853914771 
949	 0.59153333748573 
950	 0.591775022976605 
951	 0.591918106002719 
952	 0.591980776394806 
953	 0.592059876777697 
954	 0.59221384136348 
955	 0.592418368955597 
956	 0.592654907891469 
957	 0.592861242633694 
958	 0.593000024749522 
959	 0.593091392082382 
960	 0.593241021376642 
961	 0.593435414324407 
962	 0.59364175392549 
963	 0.593859408065143 
964	 0.593853590636764 
965	 0.593864092334975 
966	 0.594090168638285 
967	 0.594346325518088 
968	 0.594552541866028 
969	 0.59475456363386 
970	 0.594982492860838 
971	 0.595110685002696 
972	 0.595338844685477 
973	 0.595560186467074 
974	 0.595653012262199 
975	 0.595709259829459 
976	 0.596028054695271 
977	 0.596368507731702 
978	 0.59647265161139 
979	 0.59661421397775 
980	 0.596765688258388 
981	 0.596892205243404 
982	 0.596954877233038 
983	 0.596911089605756 
984	 0.597077088675566 
985	 0.597326684178842 
986	 0.597473232234267 
987	 0.59772484757562 
988	 0.59786498511369 
989	 0.597931483073064 
990	 0.598060100583335 
991	 0.598375891295045 
992	 0.598577246567991 
993	 0.598698615696427 
994	 0.598894530572027 
995	 0.599244870851784 
996	 0.599603272602925 
997	 0.599866352313492 
998	 0.600035397197668 
999	 0.600356990379891 
1000	 0.600742395854588 
1001	 0.580696660554321 
1002	 0.580947572689344 
1003	 0.581274510532441 
1004	 0.581559703163284 
1005	 0.581824311592011 
1006	 0.582093421381988 
1007	 0.582366155969698 
1008	 0.582644952347041 
1009	 0.582905587284173 
1010	 0.583191195266807 
1011	 0.583535719778516 
1012	 0.583814045218336 
1013	 0.584041644754346 
1014	 0.584306521163351 
1015	 0.584546376017789 
1016	 0.584811082504391 
1017	 0.585142344373258 
1018	 0.585439914902038 
1019	 0.585720318243302 
1020	 0.586003533985282 
1021	 0.586296854842416 
1022	 0.586600408155626 
1023	 0.586880814889392 
1024	 0.587174651074357 
1025	 0.587437100154078 
1026	 0.587640507467396 
1027	 0.587879082055487 
1028	 0.588131815057393 
1029	 0.588383955669492 
1030	 0.588623478292536 
1031	 0.588894520835172 
1032	 0.589143666720724 
1033	 0.589390687354241 
1034	 0.589639945193804 
1035	 0.589853803411823 
1036	 0.59009753891686 
1037	 0.590373841343722 
1038	 0.590597247675919 
1039	 0.590799801219633 
1040	 0.591030439801464 
1041	 0.591232278521262 
1042	 0.59143841965857 
1043	 0.591679664689865 
1044	 0.591902776498487 
1045	 0.592052271585147 
1046	 0.592244325173317 
1047	 0.592465333092022 
1048	 0.592646670775652 
1049	 0.592799218294717 
1050	 0.592988203538904 
1051	 0.593181529889527 
1052	 0.593370878277645 
1053	 0.59358334670792 
1054	 0.593873525901193 
1055	 0.594084152821038 
1056	 0.594256639115015 
1057	 0.594434391221836 
1058	 0.594585301905744 
1059	 0.594748838879121 
1060	 0.594938600600567 
1061	 0.595122971529426 
1062	 0.595319353129322 
1063	 0.595485507492655 
1064	 0.595636346009263 
1065	 0.595810117846808 
1066	 0.595977648964687 
1067	 0.596133941866274 
1068	 0.596288115906477 
1069	 0.59641107962178 
1070	 0.596551190193325 
1071	 0.596685594376529 
1072	 0.596860448233337 
1073	 0.597012273162034 
1074	 0.597167003219001 
1075	 0.5973241319362 
1076	 0.597465915764597 
1077	 0.597634878944284 
1078	 0.597784695594861 
1079	 0.597935267167147 
1080	 0.598087200822816 
1081	 0.598219765953759 
1082	 0.598395454891682 
1083	 0.598565519481484 
1084	 0.598699315955273 
1085	 0.598839538444309 
1086	 0.598977849238566 
1087	 0.599099031625119 
1088	 0.599224608126563 
1089	 0.599374145842746 
1090	 0.599504639325291 
1091	 0.599621646998984 
1092	 0.599736809508105 
1093	 0.599847546195346 
1094	 0.599991785848799 
1095	 0.600115600605843 
1096	 0.600210489451851 
1097	 0.600336521180679 
1098	 0.600439202686181 
1099	 0.600533985042596 
1100	 0.6006646268908 
1101	 0.600786890429895 
1102	 0.600886226601558 
1103	 0.600972111061516 
1104	 0.601048668255854 
1105	 0.601120955913321 
1106	 0.601191644224825 
1107	 0.601271615559495 
1108	 0.601363212785553 
1109	 0.601437874607859 
1110	 0.60150216114558 
1111	 0.601569776435211 
1112	 0.601650476444813 
1113	 0.601757284461858 
1114	 0.60184842730014 
1115	 0.601910465010283 
1116	 0.60198488541324 
1117	 0.602031545581055 
1118	 0.602069939550162 
1119	 0.602103026357502 
1120	 0.602143950397466 
1121	 0.602172885758447 
1122	 0.602199903345784 
1123	 0.602236879253626 
1124	 0.602263333267948 
1125	 0.602291169636956 
1126	 0.602320310760976 
1127	 0.602334670248727 
1128	 0.602348145629791 
1129	 0.602349540517722 
1130	 0.602323490156747 
1131	 0.602296716498834 
1132	 0.602282081884225 
1133	 0.602251974927536 
1134	 0.60219517074871 
1135	 0.602149210373728 
1136	 0.602122310254105 
1137	 0.602052701196708 
1138	 0.601978036523855 
1139	 0.601875900094079 
1140	 0.601751771173928 
1141	 0.601594360579363 
1142	 0.601405986182794 
1143	 0.601193985300297 
1144	 0.600941272931921 
1145	 0.600653116665862 
1146	 0.600381191568279 
1147	 0.600075771016118 
1148	 0.599758551253326 
1149	 0.599455621718185 
1150	 0.59909686261373 
1151	 0.598723816180544 
1152	 0.598322293663579 
1153	 0.597884320378594 
1154	 0.597428329117924 
1155	 0.596958994842699 
1156	 0.596458289972346 
1157	 0.595927171357287 
1158	 0.595392708477146 
1159	 0.594840564754801 
1160	 0.594263664867397 
1161	 0.593675072175114 
1162	 0.593057007662645 
1163	 0.592429073935904 
1164	 0.591764018805374 
1165	 0.591089989605866 
1166	 0.590452337742514 
1167	 0.58980682818102 
1168	 0.589181349755009 
1169	 0.588562085699918 
1170	 0.587944405649358 
1171	 0.587349441519525 
1172	 0.586760623773166 
1173	 0.586197929142974 
1174	 0.585648450921742 
1175	 0.585154985262326 
1176	 0.584703953188937 
1177	 0.584261657025257 
1178	 0.583862597242708 
1179	 0.583458355329143 
1180	 0.583081064490904 
1181	 0.582705678562863 
1182	 0.582369741529298 
1183	 0.582096638520907 
1184	 0.581828592908712 
1185	 0.581586580879615 
1186	 0.581360128579093 
1187	 0.581156990366477 
1188	 0.580963852719547 
1189	 0.580791177108086 
1190	 0.580623585894501 
1191	 0.580471054130515 
1192	 0.580325129548634 
1193	 0.580188726151851 
1194	 0.580053965904382 
1195	 0.57992110684535 
1196	 0.579806069902661 
1197	 0.579700792125122 
1198	 0.579599909092683 
1199	 0.579511002264343 
1200	 0.579441344312728 
1201	 0.579373144495326 
1202	 0.579317298654018 
1203	 0.579291052016873 
1204	 0.579299251976022 
1205	 0.579372514568245 
1206	 0.579469239316916 
1207	 0.579674392796982 
1208	 0.579932723589308 
1209	 0.580307031280376 
1210	 0.580792175022978 
1211	 0.581328291104369 
1212	 0.581990845604338 
1213	 0.58265087797135 
1214	 0.583355345522684 
1215	 0.584095013110229 
1216	 0.584897132027862 
1217	 0.585676523593865 
1218	 0.586491447310786 
1219	 0.587297867455481 
1220	 0.588049269759193 
1221	 0.588837362095811 
1222	 0.589597971403776 
1223	 0.590344063459652 
1224	 0.591065255824475 
1225	 0.591779775842957 
1226	 0.592436282632866 
1227	 0.593050229354836 
1228	 0.593651872017248 
1229	 0.594215490715751 
1230	 0.594772835874496 
1231	 0.595308455998508 
1232	 0.595845091638421 
1233	 0.596358583362082 
1234	 0.59687072602561 
1235	 0.597385727461855 
1236	 0.597891313108882 
1237	 0.598380703327237 
1238	 0.598877727290931 
1239	 0.599372691902637 
1240	 0.599866911649215 
1241	 0.600394798163942 
1242	 0.600869201810287 
1243	 0.601336875152746 
1244	 0.601798024071763 
1245	 0.602239212761965 
1246	 0.60265998889845 
1247	 0.603059274946148 
1248	 0.603454876134369 
1249	 0.603806446332456 
1250	 0.604125425408274 
1251	 0.604414788041964 
1252	 0.60466132039523 
1253	 0.604908919094587 
1254	 0.605122598963666 
1255	 0.60534348000186 
1256	 0.605572635115873 
1257	 0.605779122375036 
1258	 0.605968729244305 
1259	 0.606152519524004 
1260	 0.606315761642415 
1261	 0.606481823365857 
1262	 0.606635545998023 
1263	 0.60680119054895 
1264	 0.606974360016899 
1265	 0.607155348244093 
1266	 0.607326770791379 
1267	 0.607505798387907 
1268	 0.607676447775975 
1269	 0.607835644422797 
1270	 0.607997402802698 
1271	 0.608165360539454 
1272	 0.608321644320595 
1273	 0.608469071236452 
1274	 0.608615246905846 
1275	 0.608751367554805 
1276	 0.608894162948349 
1277	 0.609031472120519 
1278	 0.60917803693712 
1279	 0.609342340116668 
1280	 0.609489865573525 
1281	 0.609631478854559 
1282	 0.609772961190821 
1283	 0.609910072656332 
1284	 0.610037051568812 
1285	 0.610158884947563 
1286	 0.610286109262202 
1287	 0.610386692050696 
1288	 0.610463969155465 
1289	 0.610552146216246 
1290	 0.610630396848533 
1291	 0.610714110816065 
1292	 0.61080653289113 
1293	 0.610882599753713 
1294	 0.610964003159749 
1295	 0.611011860602027 
1296	 0.611025800106809 
1297	 0.611061076868632 
1298	 0.611078503018016 
1299	 0.611111170078435 
1300	 0.611182967418515 
1301	 0.611212324045651 
1302	 0.611231011161204 
1303	 0.611228601610255 
1304	 0.611197643295709 
1305	 0.61116017496315 
1306	 0.611104897578383 
1307	 0.611045975062857 
1308	 0.610975917407808 
1309	 0.610902938491548 
1310	 0.610821725349847 
1311	 0.610739170766534 
1312	 0.610635958879468 
1313	 0.610523345887963 
1314	 0.610394502812676 
1315	 0.610245628141447 
1316	 0.610097714288321 
1317	 0.609942275729901 
1318	 0.609776878153319 
1319	 0.609602883749301 
1320	 0.609425965878674 
1321	 0.609252263677603 
1322	 0.609048788686043 
1323	 0.608838929364951 
1324	 0.608605364070968 
1325	 0.608338563357948 
1326	 0.608069169504952 
1327	 0.607795036922057 
1328	 0.607500217139664 
1329	 0.607196178907148 
1330	 0.606868660468995 
1331	 0.606521010402449 
1332	 0.606156374410198 
1333	 0.605781300692975 
1334	 0.605375472286936 
1335	 0.604945348494334 
1336	 0.604492139551893 
1337	 0.604025395352975 
1338	 0.603529763157706 
1339	 0.603032967474258 
1340	 0.602544142969418 
1341	 0.601997666476316 
1342	 0.601418351588696 
1343	 0.600824906745059 
1344	 0.600197960084054 
1345	 0.599552033232915 
1346	 0.598904322474123 
1347	 0.5982116739562 
1348	 0.597486548377335 
1349	 0.5967259255983 
1350	 0.595916746763708 
1351	 0.595105549522131 
1352	 0.594253794276989 
1353	 0.593412014004831 
1354	 0.592550938877242 
1355	 0.591717287386383 
1356	 0.590881844432268 
1357	 0.590065633705618 
1358	 0.589255206149132 
1359	 0.588480394017978 
1360	 0.587732641738943 
1361	 0.586996146929955 
1362	 0.58628078397906 
1363	 0.58562510510929 
1364	 0.584949586996455 
1365	 0.584290385314365 
1366	 0.583617902794106 
1367	 0.582959554675396 
1368	 0.5822649929364 
1369	 0.581568162537296 
1370	 0.580824599602175 
1371	 0.580060160472446 
1372	 0.579256203009835 
1373	 0.578432637862253 
1374	 0.577536832751507 
1375	 0.576592149163838 
1376	 0.57559725281697 
1377	 0.574523171985755 
1378	 0.573437484131566 
1379	 0.572285998506137 
1380	 0.571166929878167 
1381	 0.570012910296259 
1382	 0.568900968133648 
1383	 0.567803310140575 
1384	 0.566737174771687 
1385	 0.565740236758397 
1386	 0.564694714564591 
1387	 0.563663487414654 
1388	 0.562616713796799 
1389	 0.56156539508969 
1390	 0.560459344344917 
1391	 0.559365875602146 
1392	 0.558171090155572 
1393	 0.55696783457269 
1394	 0.555667193538685 
1395	 0.554310244728033 
1396	 0.552913533871308 
1397	 0.551433165989048 
1398	 0.549888151356809 
1399	 0.548230840962341 
1400	 0.546497786484504 
1401	 0.544665318128441 
1402	 0.542729390315203 
1403	 0.54069329097412 
1404	 0.538552453922966 
1405	 0.536382537491402 
1406	 0.534111670832281 
1407	 0.531806550460141 
1408	 0.529430920541444 
1409	 0.52706540591656 
1410	 0.52464806719871 
1411	 0.522220981937214 
1412	 0.519791453428749 
1413	 0.517372267681625 
1414	 0.514906874824037 
1415	 0.512476048025059 
1416	 0.510043579024704 
1417	 0.507657491684022 
1418	 0.505275462757234 
1419	 0.502943077689491 
1420	 0.500644911645391 
1421	 0.498427498976919 
1422	 0.4962553610898 
1423	 0.49413868869866 
1424	 0.492152855538855 
1425	 0.490094369660057 
1426	 0.488172475784771 
1427	 0.486235182163729 
1428	 0.484252870536563 
1429	 0.482367893757385 
1430	 0.480317421929556 
1431	 0.478245356731865 
1432	 0.475952155205133 
1433	 0.473555881461047 
1434	 0.470961962147573 
1435	 0.468168126104532 
1436	 0.46526518378585 
1437	 0.462142819748359 
1438	 0.459123040201329 
1439	 0.455878236260628 
1440	 0.452981458639461 
1441	 0.450024467403213 
1442	 0.447615846208228 
1443	 0.445332091030082 
1444	 0.443748010206574 
1445	 0.442582747155579 
1446	 0.442076173089614 
1447	 0.44217358193639 
1448	 0.442774015554574 
1449	 0.444144895515529 
1450	 0.445655272298723 
1451	 0.447770391195578 
1452	 0.449849107747267 
1453	 0.452295919714121 
1454	 0.454535514023793 
1455	 0.456905559896699 
1456	 0.459053708187386 
1457	 0.461097644888734 
1458	 0.462979434883157 
1459	 0.464705905424528 
1460	 0.466311492579538 
1461	 0.467733471869361 
1462	 0.469070935006718 
1463	 0.470268164631575 
1464	 0.471415197755595 
1465	 0.472440322698119 
1466	 0.473458010849954 
1467	 0.474393008585562 
1468	 0.475286331995206 
1469	 0.476149534089906 
1470	 0.476909740371345 
1471	 0.477662469554422 
1472	 0.478371692649719 
1473	 0.479051262005495 
1474	 0.479717661517056 
1475	 0.480277824904789 
1476	 0.480806880360502 
1477	 0.481196023716411 
1478	 0.481489186374676 
1479	 0.481659892817385 
1480	 0.481725200217196 
1481	 0.481677456446545 
1482	 0.481472077642868 
1483	 0.481256902338105 
1484	 0.48090099464735 
1485	 0.480630530590954 
1486	 0.480266397824376 
1487	 0.480111182768757 
1488	 0.479974425997212 
1489	 0.480072663998736 
1490	 0.480322730825017 
1491	 0.480764444556855 
1492	 0.481368056710139 
1493	 0.482186715868838 
1494	 0.483238485304595 
1495	 0.484401224896805 
1496	 0.485803927370945 
1497	 0.487231913929408 
1498	 0.488828081297721 
1499	 0.490389603055019 
1500	 0.492044568836686 
1501	 0.493639350650122 
1502	 0.495264196210465 
1503	 0.49678162330546 
1504	 0.498279021205794 
1505	 0.499663628430578 
1506	 0.500971418368329 
1507	 0.50216515986029 
1508	 0.503253859798303 
1509	 0.504254946438236 
1510	 0.505126014925545 
1511	 0.5059378957425 
1512	 0.506661603453844 
1513	 0.507329203470107 
1514	 0.507933440586548 
1515	 0.508463222863281 
1516	 0.508917913582198 
1517	 0.50931554938937 
1518	 0.509623315776116 
1519	 0.509894810648394 
1520	 0.510114470407887 
1521	 0.510289309151114 
1522	 0.510414530915148 
1523	 0.510517650749739 
1524	 0.510581835670526 
1525	 0.510602059873788 
1526	 0.510614298642043 
1527	 0.510594827156922 
1528	 0.510570008450219 
1529	 0.510523851022868 
1530	 0.510486030270577 
1531	 0.51041565238611 
1532	 0.510417621472933 
1533	 0.51042429919004 
1534	 0.510515542478642 
1535	 0.510660123134773 
1536	 0.510864086638998 
1537	 0.511105098042936 
1538	 0.511464697415151 
1539	 0.51189902940962 
1540	 0.512424302738299 
1541	 0.513044278603409 
1542	 0.513763887785583 
1543	 0.514576457368466 
1544	 0.515459446713221 
1545	 0.516458695626795 
1546	 0.517493561092058 
1547	 0.518604911134577 
1548	 0.51973235414312 
1549	 0.520934725621679 
1550	 0.522123929353028 
1551	 0.523344713695153 
1552	 0.524537227488875 
1553	 0.525737569308549 
1554	 0.526925566933927 
1555	 0.528117033983357 
1556	 0.529256203035521 
1557	 0.530384418792233 
1558	 0.531473242184477 
1559	 0.532502978013606 
1560	 0.533529546424616 
1561	 0.534551022711422 
1562	 0.535530919992571 
1563	 0.536476572932423 
1564	 0.537399838089248 
1565	 0.538291954811282 
1566	 0.539164098786511 
1567	 0.540006387800929 
1568	 0.540838426727255 
1569	 0.541637836200863 
1570	 0.542447986099067 
1571	 0.543266433775358 
1572	 0.544049261591784 
1573	 0.544829731592689 
1574	 0.545572726531359 
1575	 0.546273400423917 
1576	 0.546965897263492 
1577	 0.547626390348507 
1578	 0.548294845729807 
1579	 0.548942193456047 
1580	 0.549604589213724 
1581	 0.550289595656382 
1582	 0.550944941813301 
1583	 0.551596623494386 
1584	 0.552232150284213 
1585	 0.552835802952473 
1586	 0.553449398069533 
1587	 0.554054223072347 
1588	 0.554666166111744 
1589	 0.555272646499431 
1590	 0.555896126592488 
1591	 0.55653899944826 
1592	 0.557172464722905 
1593	 0.557806558954846 
1594	 0.55844905246321 
1595	 0.559082909640931 
1596	 0.559732383887256 
1597	 0.560407925034906 
1598	 0.561070589781254 
1599	 0.56174654074661 
1600	 0.562398501717365 
1601	 0.563024541743768 
1602	 0.563664554286827 
1603	 0.56430043766045 
1604	 0.564929243006014 
1605	 0.565562319382019 
1606	 0.566192948375865 
1607	 0.566829893949618 
1608	 0.567437660872244 
1609	 0.568048810508135 
1610	 0.568625049572509 
1611	 0.569162046019747 
1612	 0.56967995972593 
1613	 0.570153733370363 
1614	 0.57064947866634 
1615	 0.571140651965275 
1616	 0.571626849763589 
1617	 0.572137511712418 
1618	 0.572614022382622 
1619	 0.573063480408393 
1620	 0.573500146359356 
1621	 0.57391291831786 
1622	 0.57432553150544 
1623	 0.574737539491634 
1624	 0.575124402195276 
1625	 0.575488803258591 
1626	 0.575856307418984 
1627	 0.576200627820535 
1628	 0.576549165291417 
1629	 0.576895844303494 
1630	 0.577255500204125 
1631	 0.577622481321723 
1632	 0.577985102548877 
1633	 0.578378623480762 
1634	 0.578730927484316 
1635	 0.579054852378964 
1636	 0.57936911189402 
1637	 0.579660520593489 
1638	 0.579941652311123 
1639	 0.5802154291637 
1640	 0.580473224294067 
1641	 0.580725832167126 
1642	 0.58094390189031 
1643	 0.58113976057953 
1644	 0.581309175074319 
1645	 0.581436417073874 
1646	 0.581559500475328 
1647	 0.581654024639338 
1648	 0.581759738731914 
1649	 0.581880513213015 
1650	 0.581961391499112 
1651	 0.582032959929653 
1652	 0.582078433065732 
1653	 0.582098004775472 
1654	 0.582079076801027 
1655	 0.582041760430633 
1656	 0.581964908659023 
1657	 0.581839091658423 
1658	 0.58168762036515 
1659	 0.581504864286294 
1660	 0.581297762388801 
1661	 0.581070115891067 
1662	 0.580789687874993 
1663	 0.580483895790212 
1664	 0.58011457716858 
1665	 0.579701809137523 
1666	 0.579210905166207 
1667	 0.578656526505231 
1668	 0.578045935851547 
1669	 0.577365970927578 
1670	 0.57662104815363 
1671	 0.575801369699218 
1672	 0.574946092153241 
1673	 0.574036265794983 
1674	 0.573060273017492 
1675	 0.572052301303486 
1676	 0.570974176206054 
1677	 0.569802254496061 
1678	 0.568606457815447 
1679	 0.567367192592897 
1680	 0.566053182409571 
1681	 0.564700544952542 
1682	 0.563246343170321 
1683	 0.561713516535345 
1684	 0.560130469985688 
1685	 0.558465779439138 
1686	 0.556741666175555 
1687	 0.554923184329246 
1688	 0.553090407610829 
1689	 0.551200434289246 
1690	 0.549269502590187 
1691	 0.547327678118604 
1692	 0.545353743331969 
1693	 0.543340895144792 
1694	 0.541257470395325 
1695	 0.539127755017997 
1696	 0.53692014126226 
1697	 0.53464865263865 
1698	 0.53226647123659 
1699	 0.529797972933777 
1700	 0.527347061771312 
1701	 0.524770015666118 
1702	 0.522299712898807 
1703	 0.519827676015505 
1704	 0.517448788231541 
1705	 0.515099366671471 
1706	 0.512780148868606 
1707	 0.510730021399245 
1708	 0.508674502465447 
1709	 0.50664867768988 
1710	 0.504742612040536 
1711	 0.502721337146628 
1712	 0.5007758409197 
1713	 0.498824862897828 
1714	 0.496796090260675 
1715	 0.494912051612907 
1716	 0.49295189633891 
1717	 0.491014664006893 
1718	 0.489179696687621 
1719	 0.487258782070482 
1720	 0.485445105177596 
1721	 0.483701146949742 
1722	 0.482006461154661 
1723	 0.480553084924911 
1724	 0.479219053623426 
1725	 0.478049311780378 
1726	 0.477114093086305 
1727	 0.476289288854679 
1728	 0.475663868783211 
1729	 0.475212567248679 
1730	 0.474885649133649 
1731	 0.47470896673703 
1732	 0.474641605471359 
1733	 0.474603324824648 
1734	 0.474584914181963 
1735	 0.474554400769272 
1736	 0.474454000649649 
1737	 0.474276971682123 
1738	 0.474056003212379 
1739	 0.473756605888858 
1740	 0.47337102707049 
1741	 0.472945884710473 
1742	 0.47242846256033 
1743	 0.471907931932534 
1744	 0.471305247622277 
1745	 0.470768935566416 
1746	 0.470200556753683 
1747	 0.469775355050647 
1748	 0.469403074749815 
1749	 0.469157569875446 
1750	 0.468994568619969 
1751	 0.46901370591089 
1752	 0.469171512739728 
1753	 0.469462081272483 
1754	 0.469940505093734 
1755	 0.470478105218947 
1756	 0.471101978543771 
1757	 0.471875571127583 
1758	 0.472790100914195 
1759	 0.473774546512856 
1760	 0.47489691113843 
1761	 0.476111749934003 
1762	 0.477324892599548 
1763	 0.478643323458271 
1764	 0.479979695006187 
1765	 0.481323921232508 
1766	 0.482779150193466 
1767	 0.48420550288447 
1768	 0.485644425042535 
1769	 0.487079719166913 
1770	 0.488383110902742 
1771	 0.489667711334443 
1772	 0.490889029866683 
1773	 0.492014228591395 
1774	 0.493159902445988 
1775	 0.494223737194554 
1776	 0.495265771865518 
1777	 0.496306420937424 
1778	 0.497249454708783 
1779	 0.49821265495004 
1780	 0.499154564135638 
1781	 0.500070267679648 
1782	 0.501059137298763 
1783	 0.502034985446977 
1784	 0.503044532291151 
1785	 0.504088831420047 
1786	 0.505080398690295 
1787	 0.506075181415966 
1788	 0.507032011840949 
1789	 0.507969934346895 
1790	 0.508874585680726 
1791	 0.509742358374603 
1792	 0.510615905273395 
1793	 0.511438275315936 
1794	 0.512266130373947 
1795	 0.513066887718052 
1796	 0.513835337774038 
1797	 0.514681641121443 
1798	 0.515503853114921 
1799	 0.516330131694562 
1800	 0.517115895357415 
1801	 0.529013719778116 
1802	 0.530438064612336 
1803	 0.531681035485791 
1804	 0.532752242777735 
1805	 0.533834519251015 
1806	 0.534788029463877 
1807	 0.535620728957808 
1808	 0.536420400705603 
1809	 0.537137644640537 
1810	 0.537816128399776 
1811	 0.538416125014522 
1812	 0.539009486754548 
1813	 0.539553167066598 
1814	 0.540102469286801 
1815	 0.540606265296247 
1816	 0.541105643898404 
1817	 0.541614294975489 
1818	 0.542115275285485 
1819	 0.542607452572628 
1820	 0.543110640103516 
1821	 0.543594800989805 
1822	 0.544055924073208 
1823	 0.544526250015959 
1824	 0.544982157512471 
1825	 0.545434149230583 
1826	 0.545880715363033 
1827	 0.546341346952131 
1828	 0.546730483420117 
1829	 0.547095154955655 
1830	 0.547442718853984 
1831	 0.547750624996274 
1832	 0.548041554216989 
1833	 0.548282444439744 
1834	 0.548526695030995 
1835	 0.548737379135898 
1836	 0.54890782707367 
1837	 0.549113471321047 
1838	 0.549329853801136 
1839	 0.549550353666477 
1840	 0.549789331425796 
1841	 0.550008058427001 
1842	 0.550241861920525 
1843	 0.550464506076677 
1844	 0.55063084128553 
1845	 0.550753011343818 
1846	 0.550813868555658 
1847	 0.550809446145795 
1848	 0.550738754465605 
1849	 0.550624416870198 
1850	 0.550404747249927 
1851	 0.550129648301192 
1852	 0.549734741115582 
1853	 0.549194693348929 
1854	 0.548602515646791 
1855	 0.547883203722399 
1856	 0.547091918901293 
1857	 0.546241303090384 
1858	 0.545204648927987 
1859	 0.544089843637073 
1860	 0.542897237288377 
1861	 0.541523139924459 
1862	 0.539999503206221 
1863	 0.538444459576487 
1864	 0.536633053859138 
1865	 0.534708165230968 
1866	 0.532638582400851 
1867	 0.530307995099995 
1868	 0.527939166700134 
1869	 0.525421642574936 
1870	 0.522832865865118 
1871	 0.520157740554564 
1872	 0.517474921300036 
1873	 0.514720864754624 
1874	 0.511954361706608 
1875	 0.509171356867501 
1876	 0.506070993287768 
1877	 0.502985847855962 
1878	 0.4996868700377 
1879	 0.49610641524468 
1880	 0.492660504914042 
1881	 0.488947716958518 
1882	 0.484990549060807 
1883	 0.480962363287843 
1884	 0.47681921310921 
1885	 0.472222430921017 
1886	 0.467678141147334 
1887	 0.462870535714829 
1888	 0.457820680463867 
1889	 0.453061418452367 
1890	 0.448059180342574 
1891	 0.443035876457912 
1892	 0.43807446067089 
1893	 0.432870114029421 
1894	 0.427404943495346 
1895	 0.422086704114669 
1896	 0.416597245704196 
1897	 0.410956647961708 
1898	 0.405731419227475 
1899	 0.400314355580867 
1900	 0.394966182094157 
1901	 0.389793893463029 
1902	 0.38427707632748 
1903	 0.379012378745573 
1904	 0.37379959378202 
1905	 0.368583035772952 
1906	 0.363428811608867 
1907	 0.358757487536687 
1908	 0.353958071978803 
1909	 0.349303862953483 
1910	 0.344827912686786 
1911	 0.340050822244775 
1912	 0.33549002306787 
1913	 0.330927074328872 
1914	 0.326246215606036 
1915	 0.32177761118698 
1916	 0.317542115888447 
1917	 0.313131096109775 
1918	 0.308761405345357 
1919	 0.304472385267348 
1920	 0.299856151918318 
1921	 0.29537368257982 
1922	 0.290784353945151 
1923	 0.28603941395999 
1924	 0.281646080786707 
1925	 0.277100183278281 
1926	 0.272615867169381 
1927	 0.268258614008711 
1928	 0.263846199445805 
1929	 0.259283842086502 
1930	 0.254974711211656 
1931	 0.250794962475284 
1932	 0.246750735041532 
1933	 0.24326912290847 
1934	 0.239987515824202 
1935	 0.236960738731028 
1936	 0.234405418269689 
1937	 0.232106611427538 
1938	 0.23002798683937 
1939	 0.228430879496545 
1940	 0.227212427533975 
1941	 0.226350047013674 
1942	 0.225905461007886 
1943	 0.225767918523571 
1944	 0.225920180880553 
1945	 0.226399278573506 
1946	 0.227263473639413 
1947	 0.22839719079892 
1948	 0.229973959158181 
1949	 0.232005144496456 
1950	 0.234303543784149 
1951	 0.236989709281052 
1952	 0.23999092106356 
1953	 0.243296403440352 
1954	 0.246944380575645 
1955	 0.251056224449103 
1956	 0.255187695351701 
1957	 0.259422281244823 
1958	 0.263643854610113 
1959	 0.267404484144283 
1960	 0.270961400688514 
1961	 0.274162769786085 
1962	 0.276999658227898 
1963	 0.279551750480261 
1964	 0.281797095947663 
1965	 0.283736713257755 
1966	 0.285337083677356 
1967	 0.286733189244037 
1968	 0.287824404385008 
1969	 0.288883564730697 
1970	 0.289886285272959 
1971	 0.290885536157971 
1972	 0.292028192165145 
1973	 0.29321008649087 
1974	 0.294509961432785 
1975	 0.295958032226665 
1976	 0.297438116991505 
1977	 0.29897083087554 
1978	 0.3006185182958 
1979	 0.302342282538538 
1980	 0.304124319226253 
1981	 0.306133338484538 
1982	 0.308095319185014 
1983	 0.31020953555794 
1984	 0.312457252168647 
1985	 0.314652658843949 
1986	 0.31708791466501 
1987	 0.319736210750055 
1988	 0.32242538981517 
1989	 0.325561701839098 
1990	 0.329029486484861 
1991	 0.332710045212037 
1992	 0.336715378576274 
1993	 0.341046871514823 
1994	 0.345262739626977 
1995	 0.349825467339333 
1996	 0.354421946157153 
1997	 0.358994953664611 
1998	 0.363739916581999 
1999	 0.368756590240171 
2000	 0.373449221219968 
2001	 0.378345052434941 
2002	 0.382736027704445 
2003	 0.38680778982675 
2004	 0.390775629439222 
2005	 0.394398236665447 
2006	 0.397969826380335 
2007	 0.401526027125511 
2008	 0.404767852001747 
2009	 0.407819426165055 
2010	 0.410755234308144 
2011	 0.413280308226421 
2012	 0.415698685423669 
2013	 0.417973096725041 
2014	 0.420007798036629 
2015	 0.422009151410718 
2016	 0.423937486050322 
2017	 0.425682801658177 
2018	 0.427319084422979 
2019	 0.428806577203045 
2020	 0.430086107579105 
2021	 0.431316147157848 
2022	 0.432426344114284 
2023	 0.433367858023122 
2024	 0.434262470975557 
2025	 0.435015907836831 
2026	 0.43571240031138 
2027	 0.436337219031251 
2028	 0.436860504372095 
2029	 0.437244211923617 
2030	 0.437634719102267 
2031	 0.437922087962037 
2032	 0.438227690341766 
2033	 0.438527924713461 
2034	 0.438794600496198 
2035	 0.439030005238252 
2036	 0.439235117268115 
2037	 0.43943193262506 
2038	 0.439673011322123 
2039	 0.439918911887204 
2040	 0.440185598411149 
2041	 0.440453910489371 
2042	 0.440708173313719 
2043	 0.441019048473171 
2044	 0.441372791030869 
2045	 0.441716039122238 
2046	 0.442111351206254 
2047	 0.442472845837465 
2048	 0.442817518059564 
2049	 0.443156986884 
2050	 0.443513000021422 
2051	 0.443820274259252 
2052	 0.444116553765595 
2053	 0.444372388269561 
2054	 0.444605554535091 
2055	 0.444794585417431 
2056	 0.444994317461266 
2057	 0.445162750090496 
2058	 0.445355180337636 
2059	 0.445550659463649 
2060	 0.445748957588478 
2061	 0.445946949575621 
2062	 0.446160513517828 
2063	 0.446381876386451 
2064	 0.446608609942654 
2065	 0.446833377903365 
2066	 0.447088741964404 
2067	 0.447380314866102 
2068	 0.44764213950692 
2069	 0.447915278070037 
2070	 0.448221211847031 
2071	 0.448489291197929 
2072	 0.448739961444395 
2073	 0.44898072291327 
2074	 0.44922379462042 
2075	 0.449425974979024 
2076	 0.449610068652347 
2077	 0.449758614694322 
2078	 0.449881457782809 
2079	 0.449965155513693 
2080	 0.450005135300021 
2081	 0.450027135302048 
2082	 0.450030674312008 
2083	 0.449984532545916 
2084	 0.449912275742736 
2085	 0.449813588824462 
2086	 0.449658586459542 
2087	 0.449442394231118 
2088	 0.449216297207696 
2089	 0.448944204536522 
2090	 0.448663039011895 
2091	 0.448372902861394 
2092	 0.448038217742579 
2093	 0.447667292058174 
2094	 0.447282799581456 
2095	 0.446848996528179 
2096	 0.446419433311352 
2097	 0.445998827731267 
2098	 0.44553969342267 
2099	 0.445053120531082 
2100	 0.444550617193634 
2101	 0.443997399568224 
2102	 0.443393259068358 
2103	 0.442789006108233 
2104	 0.44213898281028 
2105	 0.441508490745627 
2106	 0.440875112059474 
2107	 0.440229867903049 
2108	 0.439605288722978 
2109	 0.438923467602028 
2110	 0.438212755337947 
2111	 0.437482425988856 
2112	 0.436685537969002 
2113	 0.43591484003493 
2114	 0.435152516946328 
2115	 0.434367569602154 
2116	 0.433568136071255 
2117	 0.432791428036206 
2118	 0.431970227371171 
2119	 0.431118307888723 
2120	 0.430277059768087 
2121	 0.429398781202164 
2122	 0.42857431634338 
2123	 0.427781655631939 
2124	 0.426959103809239 
2125	 0.426169710753424 
2126	 0.425338619950451 
2127	 0.424446283559512 
2128	 0.423606952687361 
2129	 0.422770418397743 
2130	 0.42194727294427 
2131	 0.421180289245489 
2132	 0.420364623927454 
2133	 0.419524645297343 
2134	 0.418702453876029 
2135	 0.417814614471145 
2136	 0.416947010904543 
2137	 0.416074111788552 
2138	 0.41518687806906 
2139	 0.414314667261412 
2140	 0.413464840906053 
2141	 0.412580715283023 
2142	 0.411707178191724 
2143	 0.410785240207859 
2144	 0.409813952308867 
2145	 0.408859587244429 
2146	 0.40785190152798 
2147	 0.406907233770445 
2148	 0.40600485046756 
2149	 0.405086109294354 
2150	 0.404222892542226 
2151	 0.40330690707609 
2152	 0.402339262311577 
2153	 0.401399378509149 
2154	 0.400429978468218 
2155	 0.399439517438482 
2156	 0.398517721236374 
2157	 0.397630285201622 
2158	 0.396733423656903 
2159	 0.3958944347094 
2160	 0.394986973097465 
2161	 0.394021202828914 
2162	 0.393122543164674 
2163	 0.392204510276984 
2164	 0.391344225013599 
2165	 0.390555854236153 
2166	 0.389745977526089 
2167	 0.388936787789496 
2168	 0.388163297287855 
2169	 0.387385613227963 
2170	 0.386664700126747 
2171	 0.385972096314357 
2172	 0.385336775545539 
2173	 0.384754655089709 
2174	 0.384200758284721 
2175	 0.383738187198009 
2176	 0.383326869989191 
2177	 0.382940612472996 
2178	 0.382612589088289 
2179	 0.382314587035869 
2180	 0.382043153175252 
2181	 0.381807375967086 
2182	 0.381638180920116 
2183	 0.381446804011028 
2184	 0.381277294828835 
2185	 0.381103944844379 
2186	 0.380949984564059 
2187	 0.380767806382814 
2188	 0.38058942631389 
2189	 0.380378482810947 
2190	 0.380136360670966 
2191	 0.379886871874928 
2192	 0.379637206766002 
2193	 0.379342518992985 
2194	 0.379021276669801 
2195	 0.378680018520547 
2196	 0.378309651043999 
2197	 0.377887516645361 
2198	 0.377495630590724 
2199	 0.37707325036045 
2200	 0.376650640095397 
2201	 0.376234346033557 
2202	 0.375767857539914 
2203	 0.375286957544977 
2204	 0.374758725369007 
2205	 0.374156550606042 
2206	 0.373595899145435 
2207	 0.373015977613973 
2208	 0.372452484657069 
2209	 0.371903638764689 
2210	 0.37136174944659 
2211	 0.370758332147987 
2212	 0.370292620449232 
2213	 0.369852427340391 
2214	 0.369532974682407 
2215	 0.369314456692462 
2216	 0.369202115180393 
2217	 0.3691515974839 
2218	 0.369262443338514 
2219	 0.369545134693403 
2220	 0.369891350587963 
2221	 0.370352193317039 
2222	 0.370941742290506 
2223	 0.371566934092874 
2224	 0.372247111911943 
2225	 0.372949309790801 
2226	 0.373657564558198 
2227	 0.374294834070875 
2228	 0.374925015457555 
2229	 0.375442185924108 
2230	 0.375936852028055 
2231	 0.376247587373909 
2232	 0.376455350110598 
2233	 0.376518599109693 
2234	 0.376430998878679 
2235	 0.376221375953826 
2236	 0.375893729223819 
2237	 0.375417549709159 
2238	 0.374773937330687 
2239	 0.374036612334332 
2240	 0.373167140953361 
2241	 0.372171935809296 
2242	 0.371071754110191 
2243	 0.369826725764519 
2244	 0.368418602850079 
2245	 0.366919502229465 
2246	 0.365232492239956 
2247	 0.363527663449768 
2248	 0.361741041060593 
2249	 0.359887153655582 
2250	 0.35799309954738 
2251	 0.356035395484351 
2252	 0.353859213572145 
2253	 0.351663857603907 
2254	 0.349362345365351 
2255	 0.346985889981212 
2256	 0.344757732842627 
2257	 0.342467240145924 
2258	 0.340218416136969 
2259	 0.338048582212817 
2260	 0.335746767087316 
2261	 0.333351968480066 
2262	 0.331084272726411 
2263	 0.328695512610371 
2264	 0.326588015686634 
2265	 0.324686719503458 
2266	 0.322774551989663 
2267	 0.321004539692211 
2268	 0.319239499586187 
2269	 0.317463690827322 
2270	 0.315839975262252 
2271	 0.314303845317251 
2272	 0.312848964197145 
2273	 0.311528675738113 
2274	 0.310229081242727 
2275	 0.30907117388606 
2276	 0.307829578251273 
2277	 0.306640634706299 
2278	 0.305369394144192 
2279	 0.303989740698916 
2280	 0.302628437256152 
2281	 0.301279751601387 
2282	 0.299857228913387 
2283	 0.298421172706019 
2284	 0.296938055480662 
2285	 0.295271918134132 
2286	 0.293598860783723 
2287	 0.291776661131416 
2288	 0.289887191692498 
2289	 0.288109855498083 
2290	 0.286156678790726 
2291	 0.284199365705569 
2292	 0.282256978012027 
2293	 0.280098712409502 
2294	 0.278010806402919 
2295	 0.276023155709854 
2296	 0.274063117008633 
2297	 0.272362394905928 
2298	 0.270828414521581 
2299	 0.269518310456918 
2300	 0.268379562295809 
2301	 0.267543218152888 
2302	 0.266922862569407 
2303	 0.26667612296546 
2304	 0.26674638201618 
2305	 0.26711695624023 
2306	 0.267859973363852 
2307	 0.26884307111611 
2308	 0.270108788716711 
2309	 0.271699051359093 
2310	 0.273730570310844 
2311	 0.275784618836894 
2312	 0.278257052265204 
2313	 0.280531915420518 
2314	 0.282927519437672 
2315	 0.285119464924042 
2316	 0.287273095029776 
2317	 0.289186587787363 
2318	 0.290978430641055 
2319	 0.292480843059928 
2320	 0.293792977798833 
2321	 0.294814285874187 
2322	 0.295485779161326 
2323	 0.296012575026271 
2324	 0.296265142460967 
2325	 0.296369117997055 
2326	 0.296296311144072 
2327	 0.296027380395935 
2328	 0.295489018941895 
2329	 0.294870060581297 
2330	 0.294109815080926 
2331	 0.293155168945623 
2332	 0.292087894691524 
2333	 0.290842445056377 
2334	 0.289322878161954 
2335	 0.287637882164381 
2336	 0.285746720960872 
2337	 0.283744861622615 
2338	 0.281800664885539 
2339	 0.279778085660826 
2340	 0.277878031077289 
2341	 0.276035443463662 
2342	 0.274140407976684 
2343	 0.272586328011068 
2344	 0.271297811511545 
2345	 0.270280045219664 
2346	 0.269721699019405 
2347	 0.269494530180217 
2348	 0.26951285612698 
2349	 0.269979074471167 
2350	 0.270738179578564 
2351	 0.271688031477803 
2352	 0.272825935461434 
2353	 0.274058810893671 
2354	 0.275221756069734 
2355	 0.276239733801392 
2356	 0.277103199611003 
2357	 0.277739285240061 
2358	 0.278246679996432 
2359	 0.278513943643644 
2360	 0.278550955570649 
2361	 0.278416599569395 
2362	 0.278058845907443 
2363	 0.277559872907697 
2364	 0.277011753630521 
2365	 0.27634253540392 
2366	 0.275590012412028 
2367	 0.274847980498178 
2368	 0.274081131091977 
2369	 0.27330518780714 
2370	 0.272500102809398 
2371	 0.271660707644431 
2372	 0.270818665370062 
2373	 0.269919703297572 
2374	 0.269058868491921 
2375	 0.268228319204934 
2376	 0.267284261567944 
2377	 0.266395424915008 
2378	 0.265554237498418 
2379	 0.264633383193898 
2380	 0.263783205951036 
2381	 0.262919693442178 
2382	 0.261966658874598 
2383	 0.260935081543528 
2384	 0.259904046847315 
2385	 0.258794715890119 
2386	 0.257714934510774 
2387	 0.256619329960113 
2388	 0.255501034035106 
2389	 0.254406974362679 
2390	 0.253233707054224 
2391	 0.252029603795836 
2392	 0.250780115912622 
2393	 0.249473512201351 
2394	 0.248169249563912 
2395	 0.246737288585042 
2396	 0.245423369928634 
2397	 0.244217475975818 
2398	 0.242878937402131 
2399	 0.241576982702774 
2400	 0.240254762141481 
2401	 0.238734380865657 
2402	 0.237410705270087 
2403	 0.236156795650587 
2404	 0.235001940385211 
2405	 0.233869506335549 
2406	 0.232501632839128 
2407	 0.231193700293486 
2408	 0.229933434092546 
2409	 0.228621615207875 
2410	 0.227568082560739 
2411	 0.226608239084632 
2412	 0.22557015636601 
2413	 0.224634413251589 
2414	 0.223594611303376 
2415	 0.22254104573135 
2416	 0.221638080979752 
2417	 0.220695365211541 
2418	 0.219894041803419 
2419	 0.219249329208165 
2420	 0.218557967336807 
2421	 0.218025324317913 
2422	 0.217462830471523 
2423	 0.216767302891018 
2424	 0.216229433391988 
2425	 0.215564118686831 
2426	 0.21487122279835 
2427	 0.214392798498885 
2428	 0.213832206948239 
2429	 0.213232191601895 
2430	 0.212747908081312 
2431	 0.212274461993355 
2432	 0.211733491556939 
2433	 0.211199165182271 
2434	 0.210760562277248 
2435	 0.210301429294702 
2436	 0.209785086284102 
2437	 0.209431423262123 
2438	 0.209081332490236 
2439	 0.208559090443884 
2440	 0.208163949183497 
2441	 0.207722223936479 
2442	 0.207114002354175 
2443	 0.206632370434986 
2444	 0.206195686446613 
2445	 0.205807325554479 
2446	 0.205505996292492 
2447	 0.205193865285384 
2448	 0.204739310127883 
2449	 0.204178191102682 
2450	 0.203672041261835 
2451	 0.203036783324173 
2452	 0.202409695586728 
2453	 0.201737441724882 
2454	 0.200854785487593 
2455	 0.200219080675009 
2456	 0.199652139963752 
2457	 0.199058243337295 
2458	 0.198594729526302 
2459	 0.197878063545503 
2460	 0.197138698027001 
2461	 0.196375471543573 
2462	 0.195436602037593 
2463	 0.194744223273207 
2464	 0.194033909844405 
2465	 0.193282538407183 
2466	 0.19267950501442 
2467	 0.191941163389086 
2468	 0.191271791227945 
2469	 0.190739792951927 
2470	 0.190155643838689 
2471	 0.189600729295273 
2472	 0.189001611294227 
2473	 0.18839064526617 
2474	 0.187911356019906 
2475	 0.187480308497859 
2476	 0.187088582652301 
2477	 0.186799632057936 
2478	 0.18656746965497 
2479	 0.18633369461933 
2480	 0.186324949156529 
2481	 0.186049724390767 
2482	 0.185576309112743 
2483	 0.185459614114023 
2484	 0.18529595629823 
2485	 0.185323967620593 
2486	 0.185370989763161 
2487	 0.18529843397297 
2488	 0.185111319528307 
2489	 0.185092562952557 
2490	 0.185302699339651 
2491	 0.185287250071072 
2492	 0.185645720304116 
2493	 0.186287612971854 
2494	 0.18653666323641 
2495	 0.186854563312925 
2496	 0.187094157679995 
2497	 0.18703371794632 
2498	 0.187023698137845 
2499	 0.187347455475095 
2500	 0.187747175115024 
