Wavelength	spectrum00009.asd
350	 0.201175456073727 
351	 0.197891991588117 
352	 0.195162191377851 
353	 0.194016379241222 
354	 0.192771027535941 
355	 0.190590360525235 
356	 0.188382303755868 
357	 0.186517999664207 
358	 0.182182234323496 
359	 0.179186372961055 
360	 0.178228853058423 
361	 0.178113046839398 
362	 0.177677528563991 
363	 0.175692404918626 
364	 0.172970819375428 
365	 0.17284417912068 
366	 0.172785945159932 
367	 0.172037706233229 
368	 0.170733615347887 
369	 0.170349824256542 
370	 0.170270152537207 
371	 0.169888098483796 
372	 0.168865524483446 
373	 0.16899881548423 
374	 0.169091170812664 
375	 0.168367748135785 
376	 0.167090358772429 
377	 0.167135314329002 
378	 0.166708021675448 
379	 0.164507299337162 
380	 0.164389635508561 
381	 0.164312338466893 
382	 0.163764877630929 
383	 0.163242471989036 
384	 0.162831004925575 
385	 0.162353582745055 
386	 0.161836530859891 
387	 0.161675871286543 
388	 0.161189520046345 
389	 0.160638814257604 
390	 0.160355103491627 
391	 0.159889046148886 
392	 0.159712000582011 
393	 0.159570099791831 
394	 0.158825902969252 
395	 0.158178087980622 
396	 0.157699561876889 
397	 0.157338051002945 
398	 0.1570048406233 
399	 0.156388733251075 
400	 0.155816837882862 
401	 0.155547640345991 
402	 0.154681808698416 
403	 0.154179135414025 
404	 0.154154532816592 
405	 0.154055838462177 
406	 0.153989972971145 
407	 0.153642823336497 
408	 0.15299267484513 
409	 0.152662616565247 
410	 0.152214882593257 
411	 0.151949819201 
412	 0.152187835243169 
413	 0.152244668310229 
414	 0.151872306405578 
415	 0.151318913782179 
416	 0.151199137301333 
417	 0.150895703507713 
418	 0.150632465757979 
419	 0.150622309641804 
420	 0.150737420334427 
421	 0.150772203868992 
422	 0.150810895833603 
423	 0.151017234423152 
424	 0.151189490372751 
425	 0.151349029071767 
426	 0.151494052252581 
427	 0.15157605658696 
428	 0.151758193450537 
429	 0.15199321864276 
430	 0.152215982411966 
431	 0.152441304266067 
432	 0.152883464700376 
433	 0.153411579235108 
434	 0.153752789314606 
435	 0.154271642815105 
436	 0.154855218475219 
437	 0.155439737684307 
438	 0.156119089232357 
439	 0.156926003048839 
440	 0.157737044747096 
441	 0.15847203067898 
442	 0.159427612534251 
443	 0.160475099556893 
444	 0.161583382444568 
445	 0.162805831613108 
446	 0.16402614832743 
447	 0.165282554883291 
448	 0.166635063449104 
449	 0.168115770385374 
450	 0.169792013630454 
451	 0.171593206722366 
452	 0.173408509167577 
453	 0.175259546408982 
454	 0.177311294184134 
455	 0.179559628779313 
456	 0.181816688905654 
457	 0.184354461895694 
458	 0.18695934062806 
459	 0.1895203420602 
460	 0.192569519103922 
461	 0.195600622766606 
462	 0.198620946140922 
463	 0.201916054287507 
464	 0.205390787996037 
465	 0.209098136247415 
466	 0.212994497484755 
467	 0.216866490658657 
468	 0.221001492649865 
469	 0.22531312919127 
470	 0.229711049363366 
471	 0.234518461354419 
472	 0.239499747754515 
473	 0.244574313381954 
474	 0.2497994075827 
475	 0.25518696995348 
476	 0.260782174599917 
477	 0.266583265921538 
478	 0.272491601842106 
479	 0.278526840099948 
480	 0.284724697902886 
481	 0.291110121407122 
482	 0.297600632377152 
483	 0.304174439690739 
484	 0.310821948525505 
485	 0.317529514650782 
486	 0.324400158093572 
487	 0.331337816003661 
488	 0.338224782074593 
489	 0.345045763006056 
490	 0.351959165926274 
491	 0.358886642379715 
492	 0.365639967418927 
493	 0.372405183971318 
494	 0.379139527181745 
495	 0.385817569929615 
496	 0.392497306128281 
497	 0.398909981533975 
498	 0.405148418011475 
499	 0.411374131472394 
500	 0.417546714404577 
501	 0.423531933547662 
502	 0.429366644748491 
503	 0.43522788038779 
504	 0.440888726742448 
505	 0.446340253594916 
506	 0.451644350692173 
507	 0.456920363784774 
508	 0.462100579590643 
509	 0.467142835289222 
510	 0.472019685055959 
511	 0.476758600011979 
512	 0.481374784804715 
513	 0.485896847200095 
514	 0.490390176138274 
515	 0.494690491640015 
516	 0.498929167620236 
517	 0.503211649620396 
518	 0.507267353643174 
519	 0.511235301828029 
520	 0.515127392352127 
521	 0.518877084595753 
522	 0.52270068311739 
523	 0.526400023193616 
524	 0.529907330016311 
525	 0.533549473003201 
526	 0.537089865781386 
527	 0.540528249723102 
528	 0.543937127323077 
529	 0.547300878716156 
530	 0.550553761026451 
531	 0.553705022155897 
532	 0.556840228989248 
533	 0.559938654792504 
534	 0.562989498972491 
535	 0.565948729215997 
536	 0.568659040679452 
537	 0.57147525126361 
538	 0.574378089954588 
539	 0.57714077727132 
540	 0.579758845669883 
541	 0.582374771901282 
542	 0.585025138699782 
543	 0.587544648667358 
544	 0.589991985219764 
545	 0.592354734765742 
546	 0.594672314729046 
547	 0.597272413148423 
548	 0.600041668208061 
549	 0.602922820817092 
550	 0.605916887942003 
551	 0.608865974508728 
552	 0.611840849208616 
553	 0.614901806556228 
554	 0.617971329229 
555	 0.620957348218217 
556	 0.623902306858999 
557	 0.626875194407858 
558	 0.629584693739161 
559	 0.632295779232822 
560	 0.635110904116159 
561	 0.637841113613222 
562	 0.640269881107729 
563	 0.642183982092681 
564	 0.64356154340739 
565	 0.644955139162145 
566	 0.646406439996426 
567	 0.647872609178662 
568	 0.649303658837546 
569	 0.651397124548847 
570	 0.653952801541662 
571	 0.656646566177524 
572	 0.659264862790618 
573	 0.661541885367633 
574	 0.663411554079829 
575	 0.664883871644594 
576	 0.665756828618613 
577	 0.66623161605674 
578	 0.666520365882401 
579	 0.666811265414666 
580	 0.667506042626465 
581	 0.668649199492011 
582	 0.670164870216995 
583	 0.671985811262033 
584	 0.673835854558542 
585	 0.675670775154013 
586	 0.677542763036643 
587	 0.678940187877816 
588	 0.680087722201309 
589	 0.681303833166055 
590	 0.682897430409643 
591	 0.684547123737251 
592	 0.686292547412883 
593	 0.688224524873215 
594	 0.690200137823361 
595	 0.691967178737832 
596	 0.693493793145314 
597	 0.694939359052678 
598	 0.696279780019241 
599	 0.697464951222723 
600	 0.698503882091053 
601	 0.699532534777984 
602	 0.700698767902323 
603	 0.701930954170048 
604	 0.703077714847103 
605	 0.704252468220492 
606	 0.705436585279197 
607	 0.706553885860048 
608	 0.707470418138418 
609	 0.70841048815347 
610	 0.709319376181122 
611	 0.710144146157342 
612	 0.711072029919126 
613	 0.71204870120815 
614	 0.712987778527324 
615	 0.713805548584246 
616	 0.714642610106763 
617	 0.715531864672501 
618	 0.716455167328345 
619	 0.717337742426192 
620	 0.718205188050049 
621	 0.719002828352331 
622	 0.719697096574312 
623	 0.720468684712614 
624	 0.721213985530193 
625	 0.72193010181514 
626	 0.722709509003117 
627	 0.723372420915512 
628	 0.724007125969273 
629	 0.724698230841229 
630	 0.725389825287583 
631	 0.726086316797082 
632	 0.726777032443904 
633	 0.727450073792226 
634	 0.728140805449847 
635	 0.72875898112012 
636	 0.729289874748332 
637	 0.729821606483102 
638	 0.730429469860959 
639	 0.731112669919161 
640	 0.73180074878871 
641	 0.732276371963216 
642	 0.732760255305653 
643	 0.733369610998696 
644	 0.734102376520269 
645	 0.734531482853591 
646	 0.734968927470193 
647	 0.735570578803547 
648	 0.736083650744569 
649	 0.736589208367204 
650	 0.737097416937356 
651	 0.737607052696401 
652	 0.738138065263006 
653	 0.738690765892212 
654	 0.73919891313133 
655	 0.739570895563629 
656	 0.740139607217407 
657	 0.740732355164469 
658	 0.741199443267382 
659	 0.741599736568065 
660	 0.742160618888659 
661	 0.74272243463083 
662	 0.743046214958828 
663	 0.743330202153454 
664	 0.743825243368697 
665	 0.744456026414715 
666	 0.744837983127484 
667	 0.745302036002667 
668	 0.745789234829499 
669	 0.74620460712297 
670	 0.746537887330809 
671	 0.747046938455157 
672	 0.747610221218015 
673	 0.747981605856951 
674	 0.748394531391306 
675	 0.748853529913463 
676	 0.749294105956986 
677	 0.749596781540003 
678	 0.749994887256112 
679	 0.750372470948452 
680	 0.750648800534833 
681	 0.751119847344592 
682	 0.751537606492718 
683	 0.751894116283108 
684	 0.752301141949246 
685	 0.752653281272384 
686	 0.753089704061397 
687	 0.753614420089326 
688	 0.754014968263169 
689	 0.754282933417344 
690	 0.754564294298366 
691	 0.754983276183138 
692	 0.755434941878199 
693	 0.755855904016365 
694	 0.756192557294323 
695	 0.756431645885866 
696	 0.756819260410933 
697	 0.757283133766734 
698	 0.757723441699333 
699	 0.758068929716317 
700	 0.758321888611032 
701	 0.758596794352527 
702	 0.758992326302871 
703	 0.759432347311972 
704	 0.75978613163733 
705	 0.76004981335287 
706	 0.760315103154009 
707	 0.760636245057706 
708	 0.760989726280224 
709	 0.761331934071119 
710	 0.761601789100626 
711	 0.761994769703283 
712	 0.76239118408204 
713	 0.762661507214593 
714	 0.763046746163537 
715	 0.763418589098155 
716	 0.763672221206742 
717	 0.763770538940936 
718	 0.764115534339622 
719	 0.764502053550789 
720	 0.764782603774859 
721	 0.765057304528811 
722	 0.765271232301218 
723	 0.765541043760609 
724	 0.765974099261483 
725	 0.766472193392808 
726	 0.766799115058328 
727	 0.76693181611441 
728	 0.76702778050917 
729	 0.767335313237675 
730	 0.767725120950665 
731	 0.768046741331002 
732	 0.768203195314942 
733	 0.76851054471994 
734	 0.768924206998545 
735	 0.769312659263715 
736	 0.769685018131138 
737	 0.769919332901402 
738	 0.770103930014223 
739	 0.770429603429866 
740	 0.770642400017214 
741	 0.770812423434758 
742	 0.771017503921901 
743	 0.771286048296022 
744	 0.771562325577148 
745	 0.771764875634281 
746	 0.771876409453539 
747	 0.772084854686253 
748	 0.772448793024404 
749	 0.772845422113043 
750	 0.773071344877758 
751	 0.773209683419784 
752	 0.773326675648264 
753	 0.773514551693992 
754	 0.77389095120279 
755	 0.774246681093961 
756	 0.774447227197815 
757	 0.774498475229105 
758	 0.774714396087275 
759	 0.775026648873438 
760	 0.775370329017487 
761	 0.775656936897933 
762	 0.775690447042488 
763	 0.775762714329109 
764	 0.775998291304356 
765	 0.776298334749782 
766	 0.776650712208149 
767	 0.776972812059493 
768	 0.777172365606736 
769	 0.777123442785333 
770	 0.777227995815731 
771	 0.77754047256708 
772	 0.777928894116309 
773	 0.778122895861627 
774	 0.778240746905609 
775	 0.778379009820584 
776	 0.778592295526185 
777	 0.778837885540916 
778	 0.779236482835805 
779	 0.779688908712597 
780	 0.779695164883779 
781	 0.779713195003301 
782	 0.779864347138205 
783	 0.780126425643249 
784	 0.780349257964271 
785	 0.780560156093137 
786	 0.780785172591653 
787	 0.781024326608969 
788	 0.781083514161444 
789	 0.781187703059181 
790	 0.781431578810399 
791	 0.781705551391746 
792	 0.78195118384649 
793	 0.782140977659365 
794	 0.782281324386696 
795	 0.782419262781702 
796	 0.782641604983777 
797	 0.782896852277918 
798	 0.783087825475562 
799	 0.783194689670645 
800	 0.783307269938731 
801	 0.783514482229427 
802	 0.783866916714336 
803	 0.784134797337632 
804	 0.784323964517125 
805	 0.784498337898061 
806	 0.784750983327303 
807	 0.784958728647314 
808	 0.785212349132643 
809	 0.785548419187388 
810	 0.785684694799435 
811	 0.78580050966418 
812	 0.786004415911832 
813	 0.786323420477489 
814	 0.786546589306627 
815	 0.786690645900098 
816	 0.786803435565716 
817	 0.786940182981679 
818	 0.787043443730816 
819	 0.787205655866689 
820	 0.787438258641649 
821	 0.787589127061468 
822	 0.787752265183176 
823	 0.787927442808934 
824	 0.788107159365119 
825	 0.788349880685267 
826	 0.788484509206157 
827	 0.788621380347464 
828	 0.788929041031194 
829	 0.789114644835477 
830	 0.789160285004401 
831	 0.789193087831583 
832	 0.78941324782079 
833	 0.789528299973153 
834	 0.789728029711785 
835	 0.790022518791862 
836	 0.790050586030632 
837	 0.790125158684339 
838	 0.790280872376664 
839	 0.790452963779021 
840	 0.790481391542315 
841	 0.790731127987746 
842	 0.791087577233334 
843	 0.791280100636735 
844	 0.791367163483962 
845	 0.791363033837191 
846	 0.791405659226968 
847	 0.791677666319835 
848	 0.791976968003176 
849	 0.792209659646742 
850	 0.792377724208769 
851	 0.79258159544126 
852	 0.792773368980953 
853	 0.793001610242752 
854	 0.793287422299534 
855	 0.793559364166599 
856	 0.793836304459727 
857	 0.793974973211458 
858	 0.793942437848935 
859	 0.794275508103157 
860	 0.794442131343141 
861	 0.794441449553869 
862	 0.794544329471115 
863	 0.79478319454106 
864	 0.794943768834499 
865	 0.795026159434245 
866	 0.795217767179564 
867	 0.795441561076441 
868	 0.795701859162561 
869	 0.79593189161243 
870	 0.795971087274534 
871	 0.796020258941879 
872	 0.796195921029047 
873	 0.796501566337399 
874	 0.796754169148143 
875	 0.796962626391395 
876	 0.79708735893758 
877	 0.797152221340478 
878	 0.797431125103403 
879	 0.79760962270764 
880	 0.797688628418683 
881	 0.797826524506499 
882	 0.798075403759932 
883	 0.798378449075939 
884	 0.7985890360623 
885	 0.798561190053009 
886	 0.798623426617318 
887	 0.798822195731869 
888	 0.799084042174919 
889	 0.799252074628834 
890	 0.799409390718712 
891	 0.799585100755238 
892	 0.799753134343368 
893	 0.799812481171957 
894	 0.799869241374048 
895	 0.800058974517214 
896	 0.800404757843742 
897	 0.800649699013171 
898	 0.800782006333704 
899	 0.800921486309687 
900	 0.801187677342885 
901	 0.801485090595378 
902	 0.801826470459554 
903	 0.802025628697312 
904	 0.801938809983156 
905	 0.802127865060184 
906	 0.802424325810019 
907	 0.802693698881325 
908	 0.802896741697885 
909	 0.803277207939256 
910	 0.803645394462994 
911	 0.8039119859002 
912	 0.804135708501918 
913	 0.804275592589455 
914	 0.804478855142049 
915	 0.804799615894473 
916	 0.805126094701202 
917	 0.805348882665548 
918	 0.80548804106011 
919	 0.805640469671646 
920	 0.805971919580308 
921	 0.806310114009946 
922	 0.806483466665222 
923	 0.806483996556889 
924	 0.80668314007739 
925	 0.80697581308577 
926	 0.807222040437594 
927	 0.80733859287941 
928	 0.807475861032872 
929	 0.807712320428555 
930	 0.808049912528126 
931	 0.808392051308089 
932	 0.808423009200758 
933	 0.808481101577458 
934	 0.808735518489177 
935	 0.809173910965419 
936	 0.809505082966748 
937	 0.809773203439289 
938	 0.8099278040823 
939	 0.809903225143896 
940	 0.810022144628443 
941	 0.810224634631569 
942	 0.810424798914278 
943	 0.810577857242634 
944	 0.8109212420134 
945	 0.811177834168046 
946	 0.811285724467128 
947	 0.81146124892119 
948	 0.811649297009012 
949	 0.811924688054891 
950	 0.812222529292777 
951	 0.812310511046788 
952	 0.812313610719614 
953	 0.812321269919456 
954	 0.812421198508911 
955	 0.812687317737186 
956	 0.812926231942095 
957	 0.813141608459692 
958	 0.813342530269479 
959	 0.813474393448646 
960	 0.813568610007221 
961	 0.81378227572286 
962	 0.814133052157838 
963	 0.814325434518395 
964	 0.814396610226373 
965	 0.814542967609206 
966	 0.814903095527277 
967	 0.815389317832368 
968	 0.815674365118215 
969	 0.815864663901014 
970	 0.816108716863199 
971	 0.816299268205068 
972	 0.816452101894775 
973	 0.816620487677206 
974	 0.816856106339437 
975	 0.817168161376259 
976	 0.817514299106742 
977	 0.817813419612792 
978	 0.818023092084778 
979	 0.818242687724404 
980	 0.818465271466428 
981	 0.818598893244721 
982	 0.818615100672821 
983	 0.818773804353648 
984	 0.8189312268394 
985	 0.819039862655288 
986	 0.819132442973391 
987	 0.819383218272032 
988	 0.819634302677556 
989	 0.819838011339646 
990	 0.819994777458987 
991	 0.820089299878821 
992	 0.820412580474527 
993	 0.820709976420937 
994	 0.820764449262281 
995	 0.821205429589246 
996	 0.821568394291101 
997	 0.821769670146778 
998	 0.821907554803621 
999	 0.822160527350807 
1000	 0.822402363432458 
1001	 0.793552955777739 
1002	 0.793734892852188 
1003	 0.793962946741634 
1004	 0.794127978470991 
1005	 0.794286384460348 
1006	 0.794441553368466 
1007	 0.794549512547311 
1008	 0.794700769126303 
1009	 0.794879374337897 
1010	 0.795058805075222 
1011	 0.795256915699397 
1012	 0.795434298940485 
1013	 0.795621215087078 
1014	 0.795777677450301 
1015	 0.795882855360243 
1016	 0.796037353954174 
1017	 0.796199297508133 
1018	 0.796359585974343 
1019	 0.796555385921688 
1020	 0.79671860170735 
1021	 0.796897753710245 
1022	 0.797062699247821 
1023	 0.79727245358541 
1024	 0.797522862599661 
1025	 0.797730067515309 
1026	 0.797922813748716 
1027	 0.798137789864684 
1028	 0.798338263798019 
1029	 0.798574780264722 
1030	 0.798792626468326 
1031	 0.799001838786344 
1032	 0.799189978113295 
1033	 0.799374285356705 
1034	 0.799581780034582 
1035	 0.799779671465827 
1036	 0.799968770141444 
1037	 0.800145594992658 
1038	 0.800317693563543 
1039	 0.800472303679501 
1040	 0.800649471576866 
1041	 0.800831312092077 
1042	 0.80099478019694 
1043	 0.801155404327354 
1044	 0.80135331971698 
1045	 0.801493365284934 
1046	 0.801652785362559 
1047	 0.80182468941156 
1048	 0.801921567698533 
1049	 0.801989077425584 
1050	 0.802089201794721 
1051	 0.802195937866512 
1052	 0.802323419442685 
1053	 0.802462073910381 
1054	 0.802662325942816 
1055	 0.802785785764128 
1056	 0.802895185224896 
1057	 0.802961393351759 
1058	 0.802966201289 
1059	 0.80299884047575 
1060	 0.803056057430707 
1061	 0.803085675962401 
1062	 0.803165198016278 
1063	 0.803242093555729 
1064	 0.803246942408305 
1065	 0.803299587682459 
1066	 0.80338194220423 
1067	 0.803438815837359 
1068	 0.803511180836287 
1069	 0.803590089191984 
1070	 0.80365907459201 
1071	 0.803716867006557 
1072	 0.803776377381235 
1073	 0.803840015524626 
1074	 0.803916031926725 
1075	 0.80398415464304 
1076	 0.804036578950577 
1077	 0.804096974569553 
1078	 0.804122746782512 
1079	 0.804157399848783 
1080	 0.804230889134748 
1081	 0.804289169571071 
1082	 0.804345396506652 
1083	 0.804416273839456 
1084	 0.804458114414511 
1085	 0.804531577457951 
1086	 0.804611579629225 
1087	 0.804710969228966 
1088	 0.80478915279493 
1089	 0.804877733800761 
1090	 0.804925653714858 
1091	 0.804987802651246 
1092	 0.805030554133618 
1093	 0.805072784277243 
1094	 0.805163739612514 
1095	 0.805218027305844 
1096	 0.805301321292288 
1097	 0.805395157941374 
1098	 0.805474624417984 
1099	 0.805559528992049 
1100	 0.805622120150674 
1101	 0.805695783360825 
1102	 0.805751852204164 
1103	 0.80579073899672 
1104	 0.805808273742244 
1105	 0.805840501865407 
1106	 0.805883824039432 
1107	 0.805932930796675 
1108	 0.805988257972897 
1109	 0.806067948547002 
1110	 0.806127504834299 
1111	 0.806176355018697 
1112	 0.806258570896883 
1113	 0.80633327291699 
1114	 0.806414124327818 
1115	 0.806480992643128 
1116	 0.806529342142747 
1117	 0.806584754292071 
1118	 0.806619701241461 
1119	 0.806636389298917 
1120	 0.806655409705496 
1121	 0.806666113017851 
1122	 0.806664177542345 
1123	 0.806686524632165 
1124	 0.80671317604136 
1125	 0.806741977172498 
1126	 0.806775910282239 
1127	 0.806781977457365 
1128	 0.806778066519547 
1129	 0.806769082707552 
1130	 0.806752389583527 
1131	 0.806746775274667 
1132	 0.806751363301027 
1133	 0.806768378417681 
1134	 0.806788091887211 
1135	 0.806813246838112 
1136	 0.806856788197627 
1137	 0.806870988900313 
1138	 0.806880965598701 
1139	 0.806886023429714 
1140	 0.806873886719972 
1141	 0.80686811468428 
1142	 0.806849658318184 
1143	 0.806796552662037 
1144	 0.806737194781488 
1145	 0.806656206895415 
1146	 0.806570407191995 
1147	 0.806498116527203 
1148	 0.806408363970949 
1149	 0.806312362337408 
1150	 0.806213475566553 
1151	 0.806084404670357 
1152	 0.805954613138706 
1153	 0.805820796804937 
1154	 0.805663533899212 
1155	 0.805504304690208 
1156	 0.805316112220009 
1157	 0.805100458128653 
1158	 0.804869908578806 
1159	 0.804614053882666 
1160	 0.804353935910967 
1161	 0.804077192222048 
1162	 0.80375954660013 
1163	 0.803461284984883 
1164	 0.803147151005938 
1165	 0.802826120585556 
1166	 0.802558384260786 
1167	 0.802298190228 
1168	 0.802045967167227 
1169	 0.801815063869658 
1170	 0.801600826018051 
1171	 0.801412574319635 
1172	 0.801259755190395 
1173	 0.801093251194572 
1174	 0.800939437133742 
1175	 0.800790770259697 
1176	 0.800622946474678 
1177	 0.800492444044698 
1178	 0.800383016510465 
1179	 0.800295990879269 
1180	 0.800230092329476 
1181	 0.800170326729779 
1182	 0.800149569509157 
1183	 0.800173934015766 
1184	 0.800232581607246 
1185	 0.800303190985805 
1186	 0.800379772253536 
1187	 0.800466120197559 
1188	 0.800574151279297 
1189	 0.800718332451361 
1190	 0.800824284165512 
1191	 0.800927978017775 
1192	 0.801031121770846 
1193	 0.801106055365797 
1194	 0.801197361812569 
1195	 0.801313979970454 
1196	 0.801415786465561 
1197	 0.801511128597102 
1198	 0.8016061105729 
1199	 0.801680561576749 
1200	 0.801735060713755 
1201	 0.801796059643294 
1202	 0.801843013876036 
1203	 0.801904095082114 
1204	 0.801995907856427 
1205	 0.802083080041719 
1206	 0.802160608463754 
1207	 0.802277562941871 
1208	 0.802394651641608 
1209	 0.802575847009519 
1210	 0.80280817983816 
1211	 0.803047586823239 
1212	 0.803360703422348 
1213	 0.803620257942077 
1214	 0.803868214833704 
1215	 0.804116564561912 
1216	 0.804353826881426 
1217	 0.80457790315484 
1218	 0.804809052367245 
1219	 0.805017793877053 
1220	 0.805178660868255 
1221	 0.805339686256328 
1222	 0.805478069048083 
1223	 0.805612779791812 
1224	 0.805761135011353 
1225	 0.805925681610114 
1226	 0.806062308099662 
1227	 0.806193129818634 
1228	 0.806317228946442 
1229	 0.806411587127519 
1230	 0.806534765243717 
1231	 0.806655542849921 
1232	 0.806807936660228 
1233	 0.806986342131765 
1234	 0.807163200635424 
1235	 0.807362376736655 
1236	 0.807558724986199 
1237	 0.807738005782028 
1238	 0.807951738976013 
1239	 0.808183579360251 
1240	 0.808435656227154 
1241	 0.808710127702191 
1242	 0.808960319202134 
1243	 0.809202772161745 
1244	 0.809438398830821 
1245	 0.809658785893998 
1246	 0.809870129924037 
1247	 0.810068535296986 
1248	 0.810250654078003 
1249	 0.81042943902648 
1250	 0.810595774308007 
1251	 0.810759161160452 
1252	 0.810921332818888 
1253	 0.811068475803141 
1254	 0.811206967957762 
1255	 0.811337019828602 
1256	 0.811455435448273 
1257	 0.811565933848735 
1258	 0.811669253055599 
1259	 0.811763184334874 
1260	 0.811830575790191 
1261	 0.811915518663278 
1262	 0.81199923636699 
1263	 0.812089735072864 
1264	 0.812190992553971 
1265	 0.81230791455385 
1266	 0.812421674790576 
1267	 0.812541448981611 
1268	 0.812657398438468 
1269	 0.812783507526012 
1270	 0.812889394829273 
1271	 0.81299563367607 
1272	 0.813076442554959 
1273	 0.813132886579344 
1274	 0.813190795945723 
1275	 0.813225484500991 
1276	 0.813274378045971 
1277	 0.813335464196709 
1278	 0.813378912182268 
1279	 0.813409546104876 
1280	 0.813450017401099 
1281	 0.813491468216416 
1282	 0.813522419356282 
1283	 0.813554642790107 
1284	 0.813586134045781 
1285	 0.813612416014473 
1286	 0.813622684980084 
1287	 0.813642810501205 
1288	 0.813666736306371 
1289	 0.81369484761373 
1290	 0.813719254168662 
1291	 0.813753523926612 
1292	 0.813796328393842 
1293	 0.813843528536619 
1294	 0.813903615325422 
1295	 0.813945390647352 
1296	 0.813990731506447 
1297	 0.814023496503435 
1298	 0.814042930185457 
1299	 0.814054718469512 
1300	 0.814068806649324 
1301	 0.814061577765142 
1302	 0.814014994459764 
1303	 0.813998261435665 
1304	 0.813981126888935 
1305	 0.813971561067074 
1306	 0.813983140605149 
1307	 0.813992318355937 
1308	 0.813994821660544 
1309	 0.814010445696089 
1310	 0.814021670027098 
1311	 0.814046151944296 
1312	 0.814041787811521 
1313	 0.814044027345728 
1314	 0.813990465414358 
1315	 0.813896917917787 
1316	 0.813811052389865 
1317	 0.813681576169811 
1318	 0.813588616287786 
1319	 0.813512513057601 
1320	 0.813431159044055 
1321	 0.813357014040195 
1322	 0.813277655084457 
1323	 0.813197170912901 
1324	 0.813116226128157 
1325	 0.813047500654446 
1326	 0.812952490555798 
1327	 0.812850070371426 
1328	 0.812733961071384 
1329	 0.81259996476363 
1330	 0.812453553508162 
1331	 0.812296689511123 
1332	 0.812129558082533 
1333	 0.811951120871138 
1334	 0.811756218165633 
1335	 0.811552651876491 
1336	 0.811339437947573 
1337	 0.811121918082379 
1338	 0.810884732422806 
1339	 0.810667654661052 
1340	 0.810467670112386 
1341	 0.810231237603068 
1342	 0.810003883333399 
1343	 0.809726679500791 
1344	 0.809416117946937 
1345	 0.809080936084506 
1346	 0.808715135473992 
1347	 0.808333448385925 
1348	 0.807907805272013 
1349	 0.80750429982303 
1350	 0.807097499348064 
1351	 0.806680508621542 
1352	 0.80627195655843 
1353	 0.805843477086188 
1354	 0.805372444507729 
1355	 0.804940041180143 
1356	 0.804496240283783 
1357	 0.804092741233138 
1358	 0.803704557823316 
1359	 0.803363438676616 
1360	 0.803053768910826 
1361	 0.802782067431097 
1362	 0.802569780727788 
1363	 0.802393221056901 
1364	 0.802227750837624 
1365	 0.802103544763712 
1366	 0.801971562845183 
1367	 0.801842652074924 
1368	 0.801741376285061 
1369	 0.80166407622837 
1370	 0.801580157389146 
1371	 0.801522187142239 
1372	 0.801438234793649 
1373	 0.801357708970813 
1374	 0.801241478679275 
1375	 0.801131752159166 
1376	 0.80095080603076 
1377	 0.800715926164217 
1378	 0.800465933004631 
1379	 0.800137642757044 
1380	 0.79985731520674 
1381	 0.799546607669458 
1382	 0.799305106395404 
1383	 0.79910049060585 
1384	 0.79892351623693 
1385	 0.798850970687935 
1386	 0.79869959496282 
1387	 0.798545095109723 
1388	 0.79835903763239 
1389	 0.798148295728895 
1390	 0.797879922234287 
1391	 0.797579349727163 
1392	 0.797236111526522 
1393	 0.796855918165335 
1394	 0.796422920138662 
1395	 0.795988479507054 
1396	 0.795539714392362 
1397	 0.795077388895363 
1398	 0.79459297382601 
1399	 0.794089996932276 
1400	 0.79358597447692 
1401	 0.793031277749988 
1402	 0.792443122850972 
1403	 0.79182489569169 
1404	 0.791173705711446 
1405	 0.790499677747896 
1406	 0.789804966483591 
1407	 0.789066580414409 
1408	 0.788280179429797 
1409	 0.787491210269396 
1410	 0.786666992319886 
1411	 0.785836221698404 
1412	 0.784987015142602 
1413	 0.784153913255758 
1414	 0.783290591411398 
1415	 0.782465511389998 
1416	 0.781672564783769 
1417	 0.780871057526203 
1418	 0.780070224129934 
1419	 0.779291355960607 
1420	 0.778512354004485 
1421	 0.777763798646359 
1422	 0.777041337914201 
1423	 0.776335864421533 
1424	 0.775660844808485 
1425	 0.774974555482546 
1426	 0.774343661103526 
1427	 0.77372295880117 
1428	 0.773109838325661 
1429	 0.772521928591619 
1430	 0.771887367290839 
1431	 0.771251846831753 
1432	 0.770552969787199 
1433	 0.769816251626139 
1434	 0.769048198527115 
1435	 0.768235677999856 
1436	 0.767397109491705 
1437	 0.766516868192283 
1438	 0.765648941756383 
1439	 0.764722112809244 
1440	 0.763873767592837 
1441	 0.762999486775706 
1442	 0.762269245784159 
1443	 0.761554548157925 
1444	 0.761044011464953 
1445	 0.760655493152356 
1446	 0.760432665675877 
1447	 0.760379332779026 
1448	 0.760445502569723 
1449	 0.760681979816129 
1450	 0.760998760131362 
1451	 0.761496930636106 
1452	 0.761979816732564 
1453	 0.762590325287176 
1454	 0.763129001641995 
1455	 0.76369142720451 
1456	 0.764188699080464 
1457	 0.76465994404479 
1458	 0.765075656027308 
1459	 0.765424988606305 
1460	 0.765757460587387 
1461	 0.76605099591338 
1462	 0.766309818624928 
1463	 0.76653576275374 
1464	 0.76673828672417 
1465	 0.766891001860492 
1466	 0.767037948100751 
1467	 0.767181605564758 
1468	 0.767312673750504 
1469	 0.767438910003313 
1470	 0.767544664116767 
1471	 0.767656282667296 
1472	 0.767755542931623 
1473	 0.767859342393045 
1474	 0.76798765184948 
1475	 0.768045871089144 
1476	 0.768086779617279 
1477	 0.76807597621051 
1478	 0.76801306912443 
1479	 0.767924934693574 
1480	 0.76781751373789 
1481	 0.767643925550054 
1482	 0.7674061435111 
1483	 0.767162548218361 
1484	 0.766854245675191 
1485	 0.766578444589473 
1486	 0.766277100891242 
1487	 0.766036308430414 
1488	 0.765779369578271 
1489	 0.765627834161066 
1490	 0.76554238302642 
1491	 0.765507813561633 
1492	 0.765541087039883 
1493	 0.765630854621314 
1494	 0.765782269079059 
1495	 0.765971530770435 
1496	 0.766234674182844 
1497	 0.766511566804206 
1498	 0.76683901319263 
1499	 0.767161390028018 
1500	 0.767504105213537 
1501	 0.767861850953564 
1502	 0.768231713769977 
1503	 0.768604417507724 
1504	 0.769011690397876 
1505	 0.769394831052549 
1506	 0.769778022189705 
1507	 0.77013925301934 
1508	 0.770481828130193 
1509	 0.770818361623216 
1510	 0.77113933073658 
1511	 0.771448222730323 
1512	 0.771773656834632 
1513	 0.772047251325232 
1514	 0.772289812970876 
1515	 0.772504622645351 
1516	 0.772667291585612 
1517	 0.772822304422091 
1518	 0.772955790594409 
1519	 0.773075236113658 
1520	 0.773167671436554 
1521	 0.773262260350255 
1522	 0.773350135891905 
1523	 0.773438425668505 
1524	 0.773519929404538 
1525	 0.773606177782335 
1526	 0.773672619689905 
1527	 0.773729817781647 
1528	 0.773766075490771 
1529	 0.773780797787346 
1530	 0.773810950460041 
1531	 0.7738177808708 
1532	 0.773868602630958 
1533	 0.773940058227008 
1534	 0.774026275736161 
1535	 0.774124267464009 
1536	 0.774259789456508 
1537	 0.774407155616214 
1538	 0.774611758467659 
1539	 0.774857741624572 
1540	 0.77514114111831 
1541	 0.775480273706288 
1542	 0.775819769815774 
1543	 0.776195279965358 
1544	 0.776566659454327 
1545	 0.776938039782979 
1546	 0.777345273450493 
1547	 0.777785217345628 
1548	 0.778209916189579 
1549	 0.77865101827816 
1550	 0.77909336940776 
1551	 0.779524441755245 
1552	 0.779972791131928 
1553	 0.78045303467607 
1554	 0.780903347533152 
1555	 0.781348138005642 
1556	 0.781780531638492 
1557	 0.782197717122984 
1558	 0.782612841463455 
1559	 0.783012090215952 
1560	 0.783424409307458 
1561	 0.783841057947622 
1562	 0.784251168978636 
1563	 0.784672874027683 
1564	 0.78507272413786 
1565	 0.785466276208922 
1566	 0.785836481014713 
1567	 0.786191566611478 
1568	 0.786529073810221 
1569	 0.786827966401002 
1570	 0.787149942957196 
1571	 0.787464326314885 
1572	 0.787789974104415 
1573	 0.788132939005436 
1574	 0.788467739712453 
1575	 0.788806980846403 
1576	 0.789135227865283 
1577	 0.789462517209609 
1578	 0.789778488386087 
1579	 0.790080909980776 
1580	 0.790382125776473 
1581	 0.790663470117284 
1582	 0.790968210964331 
1583	 0.791284741214503 
1584	 0.791597611591905 
1585	 0.791924559283954 
1586	 0.792245315159673 
1587	 0.792556259502158 
1588	 0.792872516300629 
1589	 0.793193552420926 
1590	 0.793514272283138 
1591	 0.79383487904327 
1592	 0.79415713714539 
1593	 0.794481282373756 
1594	 0.79480580475326 
1595	 0.795124396324602 
1596	 0.795455217862151 
1597	 0.795786768391664 
1598	 0.796134198481412 
1599	 0.796499394052308 
1600	 0.796864357269544 
1601	 0.79723288892178 
1602	 0.797615723992268 
1603	 0.798009944169718 
1604	 0.798404067978806 
1605	 0.798812155184445 
1606	 0.799217508582441 
1607	 0.799627328630525 
1608	 0.800027447201485 
1609	 0.800430171390006 
1610	 0.800823401362448 
1611	 0.801200132725051 
1612	 0.801578601822911 
1613	 0.80196362590991 
1614	 0.802327828351158 
1615	 0.802685207257414 
1616	 0.803031288618879 
1617	 0.80336437933343 
1618	 0.803682307901377 
1619	 0.80398628058773 
1620	 0.804276460124213 
1621	 0.804546269657912 
1622	 0.804809747602041 
1623	 0.805053023950286 
1624	 0.805309807383002 
1625	 0.805568521345528 
1626	 0.805819619753043 
1627	 0.806066278469539 
1628	 0.806322706181392 
1629	 0.806564506872891 
1630	 0.806831662272585 
1631	 0.807132031889221 
1632	 0.807419754779095 
1633	 0.807724901482716 
1634	 0.808009340684182 
1635	 0.808285092795666 
1636	 0.808541901884338 
1637	 0.808777431202753 
1638	 0.809009659742941 
1639	 0.809217925323228 
1640	 0.809443584929253 
1641	 0.809681957650421 
1642	 0.809903253465091 
1643	 0.810121737523765 
1644	 0.810339321459312 
1645	 0.810551485618309 
1646	 0.810752306958159 
1647	 0.810957459026951 
1648	 0.811141128175452 
1649	 0.811312321646088 
1650	 0.811457195176677 
1651	 0.811583801929974 
1652	 0.811692993012385 
1653	 0.811782258745842 
1654	 0.81184364227367 
1655	 0.81187990618194 
1656	 0.811904675744553 
1657	 0.811901009701202 
1658	 0.811885625460723 
1659	 0.811867031723159 
1660	 0.811818136451416 
1661	 0.811745506186442 
1662	 0.811650158952163 
1663	 0.811540306707426 
1664	 0.811390105650154 
1665	 0.811221759462779 
1666	 0.810992664543485 
1667	 0.810720744326921 
1668	 0.810401253476357 
1669	 0.81002505125519 
1670	 0.80961430000216 
1671	 0.809145764104935 
1672	 0.808660794054065 
1673	 0.808121958749966 
1674	 0.80759746923417 
1675	 0.807062427983829 
1676	 0.806532893510436 
1677	 0.806007599074904 
1678	 0.805468529795697 
1679	 0.804911751478773 
1680	 0.804361430200869 
1681	 0.803798580028678 
1682	 0.803258184531788 
1683	 0.802708485516765 
1684	 0.802223550126324 
1685	 0.801774317534057 
1686	 0.801343965119808 
1687	 0.800944364863545 
1688	 0.800593457778652 
1689	 0.800264636954418 
1690	 0.799982676688667 
1691	 0.799789857197588 
1692	 0.79956697114994 
1693	 0.79935878002139 
1694	 0.799144557034334 
1695	 0.798934754912337 
1696	 0.798697901391237 
1697	 0.798469866049046 
1698	 0.798200924863762 
1699	 0.797894753753366 
1700	 0.797598728136249 
1701	 0.797290734346847 
1702	 0.796948691977294 
1703	 0.796601444815372 
1704	 0.796219212994212 
1705	 0.795789306439968 
1706	 0.795369765566712 
1707	 0.794959227034676 
1708	 0.79447754519006 
1709	 0.793956992558292 
1710	 0.79342615037592 
1711	 0.792843729797684 
1712	 0.792286741401741 
1713	 0.791681938658209 
1714	 0.79094914157095 
1715	 0.790192225549037 
1716	 0.789391351868963 
1717	 0.788573094369782 
1718	 0.787787221538786 
1719	 0.786960983071146 
1720	 0.786147059903079 
1721	 0.785353056309544 
1722	 0.784577243779101 
1723	 0.783885093796644 
1724	 0.783197110965907 
1725	 0.782553117361305 
1726	 0.781974003369996 
1727	 0.781399944297493 
1728	 0.780914050068121 
1729	 0.78046116833409 
1730	 0.780037590502326 
1731	 0.779703011526266 
1732	 0.779388101961058 
1733	 0.779082054305312 
1734	 0.778805016866866 
1735	 0.778540057699437 
1736	 0.778300646691965 
1737	 0.778074753397864 
1738	 0.77787396177512 
1739	 0.777683125213739 
1740	 0.77748632795714 
1741	 0.777325933248676 
1742	 0.777194195197997 
1743	 0.777077862793904 
1744	 0.776953875687059 
1745	 0.776894902664185 
1746	 0.776878068129091 
1747	 0.776909648757783 
1748	 0.777005227744174 
1749	 0.777130310503791 
1750	 0.777296804245611 
1751	 0.77749580300507 
1752	 0.777747240878808 
1753	 0.777998223721641 
1754	 0.778270031250437 
1755	 0.778543550491821 
1756	 0.778829487376005 
1757	 0.779106747251922 
1758	 0.779429840834474 
1759	 0.779784726640057 
1760	 0.78012396106458 
1761	 0.78047809942952 
1762	 0.780805137445051 
1763	 0.781086736661023 
1764	 0.781364890064588 
1765	 0.781661884581561 
1766	 0.781985466645999 
1767	 0.782309273154374 
1768	 0.782621946463085 
1769	 0.782908698086625 
1770	 0.783175443447145 
1771	 0.783437633471791 
1772	 0.78370525875711 
1773	 0.783995991342367 
1774	 0.784309814869544 
1775	 0.784621144067326 
1776	 0.784914144881273 
1777	 0.785181526751872 
1778	 0.785431341738745 
1779	 0.785702883175763 
1780	 0.785988790086847 
1781	 0.786269007462081 
1782	 0.786549552014858 
1783	 0.786834467402801 
1784	 0.787145925594587 
1785	 0.78753493841338 
1786	 0.787893818903259 
1787	 0.788233533389821 
1788	 0.788584007716784 
1789	 0.788942442122945 
1790	 0.789291684413367 
1791	 0.789654263597757 
1792	 0.790019218864866 
1793	 0.790367711571708 
1794	 0.79068895937492 
1795	 0.791034691468067 
1796	 0.791353800979976 
1797	 0.791673742139251 
1798	 0.792009607350843 
1799	 0.792352363733968 
1800	 0.792679169098639 
1801	 0.811459173401998 
1802	 0.812736807699693 
1803	 0.81379894571389 
1804	 0.814694729285158 
1805	 0.815554663570236 
1806	 0.816282040469443 
1807	 0.816863579037696 
1808	 0.817412528059775 
1809	 0.817859716143311 
1810	 0.818281762469797 
1811	 0.818622276538593 
1812	 0.818948398815774 
1813	 0.819232974606291 
1814	 0.819507787642223 
1815	 0.819722151588327 
1816	 0.819950506118532 
1817	 0.820174557000094 
1818	 0.820375007093935 
1819	 0.820587212834493 
1820	 0.820803805270427 
1821	 0.821021266346947 
1822	 0.82122109609552 
1823	 0.821473268736239 
1824	 0.821699001447631 
1825	 0.821911997403777 
1826	 0.822133268438888 
1827	 0.82235602639562 
1828	 0.822551913600581 
1829	 0.8227445259625 
1830	 0.822934983002836 
1831	 0.823113369265059 
1832	 0.823279553259916 
1833	 0.823428845006049 
1834	 0.823592674137169 
1835	 0.823731846016344 
1836	 0.823877149685401 
1837	 0.824061950292344 
1838	 0.824272216404587 
1839	 0.824489966584193 
1840	 0.824756960526872 
1841	 0.824980702311043 
1842	 0.825203869580187 
1843	 0.825421270544156 
1844	 0.825594813265037 
1845	 0.825771768263467 
1846	 0.825897811000841 
1847	 0.825967559640118 
1848	 0.826019914712169 
1849	 0.826037052571899 
1850	 0.826012410497527 
1851	 0.825962999221399 
1852	 0.825875610904362 
1853	 0.825727884420913 
1854	 0.825552492277052 
1855	 0.825316151102761 
1856	 0.825060416034508 
1857	 0.824752152184871 
1858	 0.824368078139053 
1859	 0.823924292659874 
1860	 0.823437694939212 
1861	 0.822834342428317 
1862	 0.822154143694618 
1863	 0.821410414510989 
1864	 0.820508953307434 
1865	 0.819581233338172 
1866	 0.818519627580255 
1867	 0.817333634341455 
1868	 0.816115800392009 
1869	 0.814853592120954 
1870	 0.813697764201079 
1871	 0.812561928814124 
1872	 0.811535414186601 
1873	 0.810605752940865 
1874	 0.809732252406461 
1875	 0.808932925477214 
1876	 0.808059562912112 
1877	 0.807201247624242 
1878	 0.806311423418246 
1879	 0.805278652569489 
1880	 0.804250367944697 
1881	 0.803101772417044 
1882	 0.801839782385861 
1883	 0.80051781011355 
1884	 0.79914079690697 
1885	 0.797625297814771 
1886	 0.796129824504681 
1887	 0.794544785315522 
1888	 0.792896456878858 
1889	 0.791347804778742 
1890	 0.789709288750452 
1891	 0.78805924526842 
1892	 0.786439355826344 
1893	 0.78471992267132 
1894	 0.782896655530474 
1895	 0.78112433955078 
1896	 0.779297419095412 
1897	 0.777339619953227 
1898	 0.775502705104091 
1899	 0.773615242467526 
1900	 0.771744964875647 
1901	 0.769967594245561 
1902	 0.768127754433753 
1903	 0.76639366052941 
1904	 0.764690427511412 
1905	 0.76299416354186 
1906	 0.76137609649027 
1907	 0.759946075368542 
1908	 0.758477690710808 
1909	 0.757099105022786 
1910	 0.755813889554784 
1911	 0.754424020051017 
1912	 0.75312173877632 
1913	 0.751844173594358 
1914	 0.750505115388329 
1915	 0.749257629590813 
1916	 0.748088072267435 
1917	 0.746897522050838 
1918	 0.745748956923106 
1919	 0.744689266948328 
1920	 0.743583868515015 
1921	 0.742550619248603 
1922	 0.741528360471695 
1923	 0.740499673497253 
1924	 0.739582416061941 
1925	 0.73865295085484 
1926	 0.737742227908529 
1927	 0.736869643119973 
1928	 0.73599870296883 
1929	 0.73510794517995 
1930	 0.734284221045399 
1931	 0.73350165507982 
1932	 0.732769715604827 
1933	 0.732173021578833 
1934	 0.731638449744118 
1935	 0.731128260392718 
1936	 0.730667053681576 
1937	 0.730275857053729 
1938	 0.729912983929983 
1939	 0.729643021634556 
1940	 0.729436956013513 
1941	 0.729349583223031 
1942	 0.729340452092347 
1943	 0.729360751153138 
1944	 0.729449540085477 
1945	 0.729641732357998 
1946	 0.729895711342106 
1947	 0.730149931899961 
1948	 0.730484218272878 
1949	 0.730887919783063 
1950	 0.731360715542355 
1951	 0.731882991996384 
1952	 0.732507425118485 
1953	 0.733219051975797 
1954	 0.734014858830299 
1955	 0.734898012728496 
1956	 0.735789625840492 
1957	 0.736699321406884 
1958	 0.737571844671563 
1959	 0.738353428955354 
1960	 0.739071124852102 
1961	 0.739740887813388 
1962	 0.740345489776042 
1963	 0.740917735986228 
1964	 0.741419579047072 
1965	 0.741912402282328 
1966	 0.742382824449397 
1967	 0.742815418833106 
1968	 0.743184064597388 
1969	 0.743582524389474 
1970	 0.743938220047442 
1971	 0.744263150800894 
1972	 0.744657228917199 
1973	 0.745051835605274 
1974	 0.745464208028984 
1975	 0.745911169988985 
1976	 0.746359010685938 
1977	 0.746796636214707 
1978	 0.747271251188874 
1979	 0.747755574147202 
1980	 0.748294701438302 
1981	 0.748855249163711 
1982	 0.749395870584018 
1983	 0.749983489144941 
1984	 0.750571555648652 
1985	 0.75114972399262 
1986	 0.751832545746546 
1987	 0.752542460866409 
1988	 0.753266254308674 
1989	 0.7540717448914 
1990	 0.754945365989625 
1991	 0.755862159508893 
1992	 0.756831201233703 
1993	 0.757892417612521 
1994	 0.758941118510037 
1995	 0.760045919098167 
1996	 0.761184167972515 
1997	 0.762349496328967 
1998	 0.763546759465589 
1999	 0.764818019420016 
2000	 0.766026522580547 
2001	 0.76729090065614 
2002	 0.768433038014215 
2003	 0.76950715610192 
2004	 0.770561705328452 
2005	 0.771525612356219 
2006	 0.772496522512416 
2007	 0.773473188596751 
2008	 0.774409816643222 
2009	 0.775287730868742 
2010	 0.776150874647269 
2011	 0.776914029157968 
2012	 0.777607543458772 
2013	 0.778285415204858 
2014	 0.778913116248069 
2015	 0.779511148542891 
2016	 0.780092936210644 
2017	 0.780604640555434 
2018	 0.781057048727407 
2019	 0.781475374649576 
2020	 0.781819769696119 
2021	 0.782184039999065 
2022	 0.782501672829513 
2023	 0.782730949259265 
2024	 0.78294598078192 
2025	 0.783133326917042 
2026	 0.783287740463361 
2027	 0.783427548437257 
2028	 0.783510246144386 
2029	 0.783527010466129 
2030	 0.783543380552919 
2031	 0.78351555029707 
2032	 0.783490097551543 
2033	 0.783444987762411 
2034	 0.783406600882387 
2035	 0.783351706026059 
2036	 0.783292407269363 
2037	 0.783274845031621 
2038	 0.783295786533852 
2039	 0.783331471528656 
2040	 0.783392218837685 
2041	 0.783492777662681 
2042	 0.78360703124815 
2043	 0.783768982159124 
2044	 0.78399243024728 
2045	 0.78422356384951 
2046	 0.784489611048319 
2047	 0.784764645997842 
2048	 0.785064381560128 
2049	 0.785368157821311 
2050	 0.785672882200524 
2051	 0.786005177920838 
2052	 0.786366271471154 
2053	 0.786745886970948 
2054	 0.787145090451895 
2055	 0.7875837593023 
2056	 0.788008391620884 
2057	 0.788433046487713 
2058	 0.788880033898924 
2059	 0.789336576870655 
2060	 0.789810262707638 
2061	 0.790311004625512 
2062	 0.790808344165611 
2063	 0.791317528416596 
2064	 0.79182680943025 
2065	 0.792329387540836 
2066	 0.792848367156206 
2067	 0.793418369331097 
2068	 0.793959937251168 
2069	 0.794480448986519 
2070	 0.795012775083581 
2071	 0.795510696885501 
2072	 0.795969701095998 
2073	 0.796422483682913 
2074	 0.796857984701868 
2075	 0.797300905066395 
2076	 0.797728055865195 
2077	 0.798147275692171 
2078	 0.798602816454698 
2079	 0.79899176757542 
2080	 0.799320172772484 
2081	 0.799660223542799 
2082	 0.799973517914536 
2083	 0.800278853967066 
2084	 0.800601574193704 
2085	 0.800887896375587 
2086	 0.801132215658082 
2087	 0.801355586366296 
2088	 0.801514104614185 
2089	 0.801600022463494 
2090	 0.801700688818516 
2091	 0.801756980416527 
2092	 0.80181191099129 
2093	 0.801844479886856 
2094	 0.801900381324182 
2095	 0.801950019599195 
2096	 0.802002736309341 
2097	 0.802075475505855 
2098	 0.802156741413634 
2099	 0.802203158929743 
2100	 0.802215418437999 
2101	 0.802235904744496 
2102	 0.802242584886581 
2103	 0.802252740127247 
2104	 0.802259810853256 
2105	 0.802266718870861 
2106	 0.802271211597814 
2107	 0.802277348415988 
2108	 0.802263272871935 
2109	 0.802283345045133 
2110	 0.802346556832548 
2111	 0.802366387428058 
2112	 0.802386329217264 
2113	 0.80240008789314 
2114	 0.802365524611851 
2115	 0.802357267101782 
2116	 0.802353908080035 
2117	 0.802382508883967 
2118	 0.802406376518298 
2119	 0.80244270161198 
2120	 0.802465335129921 
2121	 0.802509842344482 
2122	 0.802504474364691 
2123	 0.802478285010514 
2124	 0.802431171779814 
2125	 0.802372816076753 
2126	 0.802260505938902 
2127	 0.802109881544982 
2128	 0.801941536856575 
2129	 0.801717992916365 
2130	 0.801490496637641 
2131	 0.80130215058857 
2132	 0.801011743493406 
2133	 0.800646996258382 
2134	 0.800267868997682 
2135	 0.799832236685703 
2136	 0.799361400247882 
2137	 0.798833557588766 
2138	 0.798265384463739 
2139	 0.797684416909922 
2140	 0.797037958612272 
2141	 0.796388315066108 
2142	 0.79576272919267 
2143	 0.795056589579576 
2144	 0.794272111751712 
2145	 0.793502577096185 
2146	 0.792695457973729 
2147	 0.791891676785336 
2148	 0.791088042915673 
2149	 0.790258033526403 
2150	 0.789423859621737 
2151	 0.788556436925433 
2152	 0.78764096060036 
2153	 0.786743203582405 
2154	 0.78582054929557 
2155	 0.784894593599905 
2156	 0.784002788277771 
2157	 0.783146853732713 
2158	 0.782243336945888 
2159	 0.781367084893028 
2160	 0.780400841644833 
2161	 0.77934838244517 
2162	 0.778359698370181 
2163	 0.777296318612907 
2164	 0.776356758530217 
2165	 0.775505839665032 
2166	 0.774650107609802 
2167	 0.773863222347073 
2168	 0.77306210948524 
2169	 0.772217158457408 
2170	 0.771461376405727 
2171	 0.770758205286778 
2172	 0.770071609267762 
2173	 0.769431798906903 
2174	 0.768841281983961 
2175	 0.768262841963373 
2176	 0.767696484770076 
2177	 0.767209892570465 
2178	 0.766799716778115 
2179	 0.766396104794894 
2180	 0.766035014012266 
2181	 0.765695364600249 
2182	 0.765386823285581 
2183	 0.765085350847255 
2184	 0.764818833333051 
2185	 0.76454973137141 
2186	 0.764287498030444 
2187	 0.764044957547081 
2188	 0.763790823147565 
2189	 0.7635979576461 
2190	 0.763472166798349 
2191	 0.763310429571936 
2192	 0.763178701947604 
2193	 0.76303785153336 
2194	 0.762858461615188 
2195	 0.762704879639317 
2196	 0.762578181091159 
2197	 0.762459164261615 
2198	 0.762282708140448 
2199	 0.762131625040078 
2200	 0.761978790964545 
2201	 0.761808943418437 
2202	 0.761638567756944 
2203	 0.761485004446708 
2204	 0.761320587141002 
2205	 0.761126110260903 
2206	 0.760962831263361 
2207	 0.760807237490975 
2208	 0.760681508268073 
2209	 0.76054912808154 
2210	 0.760480518114033 
2211	 0.760462610057238 
2212	 0.760470058946031 
2213	 0.760528626593501 
2214	 0.760594130435601 
2215	 0.76068393249608 
2216	 0.760789087944732 
2217	 0.760894512918536 
2218	 0.761047841972256 
2219	 0.761233834384453 
2220	 0.761454966103533 
2221	 0.761720503442718 
2222	 0.762025450793097 
2223	 0.762323083794577 
2224	 0.762615263550823 
2225	 0.762887398419566 
2226	 0.763132863968511 
2227	 0.763365113799286 
2228	 0.763589474602301 
2229	 0.763773395678959 
2230	 0.76395172216264 
2231	 0.764042659240195 
2232	 0.764082428038317 
2233	 0.764074691595963 
2234	 0.763993825166044 
2235	 0.763891203100927 
2236	 0.763752221875226 
2237	 0.76357476279364 
2238	 0.763340057763036 
2239	 0.763090476517126 
2240	 0.762819419147094 
2241	 0.762504016240469 
2242	 0.762173946418128 
2243	 0.76177714107213 
2244	 0.761300477492493 
2245	 0.760819938830742 
2246	 0.760271048372533 
2247	 0.759741928947457 
2248	 0.759262693645937 
2249	 0.758690346071758 
2250	 0.758043386978337 
2251	 0.757412169966177 
2252	 0.756757714443573 
2253	 0.756076819581039 
2254	 0.755449534224569 
2255	 0.75483893131391 
2256	 0.7542330311092 
2257	 0.753684797627283 
2258	 0.753164542623524 
2259	 0.752700620010174 
2260	 0.752241081591092 
2261	 0.751793262363345 
2262	 0.751404210881084 
2263	 0.751049052356319 
2264	 0.750747641194941 
2265	 0.750509924193484 
2266	 0.750265831422031 
2267	 0.750057417870141 
2268	 0.749877626720172 
2269	 0.749711370833184 
2270	 0.74957792151421 
2271	 0.749496479491849 
2272	 0.74941113879344 
2273	 0.749304425651896 
2274	 0.749285941560529 
2275	 0.749336740378908 
2276	 0.749379679674901 
2277	 0.749502443932642 
2278	 0.749581213363621 
2279	 0.749626369342461 
2280	 0.749683214838801 
2281	 0.749754872262687 
2282	 0.749811669615327 
2283	 0.749860819651506 
2284	 0.749895228250768 
2285	 0.749947618758813 
2286	 0.750027368232947 
2287	 0.750203142157223 
2288	 0.750415285957862 
2289	 0.750649819953319 
2290	 0.750932335970049 
2291	 0.751187861529062 
2292	 0.75149954859876 
2293	 0.751853298530481 
2294	 0.752177333670111 
2295	 0.752506622838489 
2296	 0.752808771095863 
2297	 0.753082644978311 
2298	 0.75332026302967 
2299	 0.753562892860188 
2300	 0.753767204571387 
2301	 0.754005833948136 
2302	 0.75425360861424 
2303	 0.754495403975803 
2304	 0.754747869151107 
2305	 0.755017718994195 
2306	 0.755263421644879 
2307	 0.755573097814966 
2308	 0.755922394234728 
2309	 0.756294286036296 
2310	 0.756721318609434 
2311	 0.757145764418849 
2312	 0.757568608676418 
2313	 0.758034937493614 
2314	 0.758542588109494 
2315	 0.759036527210268 
2316	 0.759563636992376 
2317	 0.760084981764239 
2318	 0.760632317920124 
2319	 0.761124209506646 
2320	 0.761596238647476 
2321	 0.762055322962493 
2322	 0.762504608777327 
2323	 0.762855062167933 
2324	 0.763110871809054 
2325	 0.763444448802394 
2326	 0.763746377827225 
2327	 0.764024460722799 
2328	 0.764377804596891 
2329	 0.764664903172149 
2330	 0.764862559340231 
2331	 0.765068839538779 
2332	 0.765250712214536 
2333	 0.765424844876298 
2334	 0.765572534512663 
2335	 0.765694668958758 
2336	 0.765829553702018 
2337	 0.765905351191508 
2338	 0.765909702967316 
2339	 0.765821869544831 
2340	 0.765761785166147 
2341	 0.76572544503347 
2342	 0.765639803290364 
2343	 0.765626141004927 
2344	 0.765593993600487 
2345	 0.765539320230537 
2346	 0.765593443210565 
2347	 0.765662271289829 
2348	 0.765742634142542 
2349	 0.76585447688148 
2350	 0.765942647116054 
2351	 0.766075999397828 
2352	 0.766195844914284 
2353	 0.766286782163172 
2354	 0.766439133902901 
2355	 0.766587168406367 
2356	 0.766703201572089 
2357	 0.766881726465168 
2358	 0.767021912248836 
2359	 0.767047210322225 
2360	 0.767141766759658 
2361	 0.76721529815569 
2362	 0.767126510998937 
2363	 0.76703263566117 
2364	 0.767016180493711 
2365	 0.766951025626425 
2366	 0.766923441932115 
2367	 0.76699956085776 
2368	 0.766952902009098 
2369	 0.766843691842595 
2370	 0.766780253963527 
2371	 0.766720160529691 
2372	 0.766690706600689 
2373	 0.766645328734598 
2374	 0.766534586714842 
2375	 0.7663965958511 
2376	 0.766177827978572 
2377	 0.765952469648272 
2378	 0.765766730154376 
2379	 0.765347903619221 
2380	 0.76492668174636 
2381	 0.764673414412458 
2382	 0.764391480253204 
2383	 0.764176111113792 
2384	 0.763921483209373 
2385	 0.763625575759803 
2386	 0.763355417007055 
2387	 0.763048595355871 
2388	 0.762810337517421 
2389	 0.762702035746659 
2390	 0.762470771428311 
2391	 0.762177883704033 
2392	 0.761940746583989 
2393	 0.761671794567581 
2394	 0.76146331200363 
2395	 0.761317312586045 
2396	 0.7610900051818 
2397	 0.760871390220246 
2398	 0.760616179829488 
2399	 0.760320485014478 
2400	 0.760013258471647 
2401	 0.759678265867318 
2402	 0.75918965557238 
2403	 0.758758343803319 
2404	 0.758319527470871 
2405	 0.757934148082542 
2406	 0.757496892690405 
2407	 0.757151412526257 
2408	 0.756848067455831 
2409	 0.756454994166393 
2410	 0.756227002695561 
2411	 0.756010617223663 
2412	 0.755681802094475 
2413	 0.755475831086532 
2414	 0.75533968544972 
2415	 0.755089458823613 
2416	 0.754771495334009 
2417	 0.754540998949408 
2418	 0.754177664458937 
2419	 0.753716902042309 
2420	 0.753572795639168 
2421	 0.753366521882749 
2422	 0.752925638078677 
2423	 0.752648622781711 
2424	 0.752442643444231 
2425	 0.752112547479354 
2426	 0.751747519105225 
2427	 0.751473820023829 
2428	 0.75103927048441 
2429	 0.750504869798769 
2430	 0.750318104927823 
2431	 0.750124663390338 
2432	 0.749731561301015 
2433	 0.749449737203194 
2434	 0.749129376334695 
2435	 0.748812412307878 
2436	 0.748725146863436 
2437	 0.748635548407104 
2438	 0.748340000129402 
2439	 0.747937524457311 
2440	 0.747431294930458 
2441	 0.746892171364059 
2442	 0.746463081717267 
2443	 0.746065092975688 
2444	 0.745657679715646 
2445	 0.745159220850151 
2446	 0.74459625817674 
2447	 0.744126068710701 
2448	 0.743733055858724 
2449	 0.743388066071325 
2450	 0.743073701988219 
2451	 0.74264091457732 
2452	 0.742012748286484 
2453	 0.741576044196012 
2454	 0.741391116017553 
2455	 0.741106663990484 
2456	 0.740913334186238 
2457	 0.740739912149165 
2458	 0.740274420802446 
2459	 0.739868737285206 
2460	 0.739488714236604 
2461	 0.739005965351902 
2462	 0.738652856425043 
2463	 0.738495924709365 
2464	 0.738525671803774 
2465	 0.738183274247668 
2466	 0.737726907091166 
2467	 0.737336093109576 
2468	 0.736501687994222 
2469	 0.73601349987845 
2470	 0.735892891743817 
2471	 0.735548856575273 
2472	 0.735543978398993 
2473	 0.73589743557342 
2474	 0.735869302830813 
2475	 0.735686875593458 
2476	 0.735732831124747 
2477	 0.735547457491566 
2478	 0.735274690665136 
2479	 0.735261550132049 
2480	 0.734937872974058 
2481	 0.734700004143219 
2482	 0.73476157307361 
2483	 0.734117955769092 
2484	 0.733908107050796 
2485	 0.734051193168737 
2486	 0.733818128657272 
2487	 0.73391162489098 
2488	 0.734042901972466 
2489	 0.733976315645778 
2490	 0.734084410207778 
2491	 0.7341842038173 
2492	 0.73417394842519 
2493	 0.734442223813878 
2494	 0.734757844974109 
2495	 0.734706290012808 
2496	 0.73474027648224 
2497	 0.734738094953385 
2498	 0.734645903344044 
2499	 0.735273824494777 
2500	 0.735701310227365 
