Wavelength	Tablay400019.asd
350	 0.274978377739149 
351	 0.258236591194333 
352	 0.250636824692972 
353	 0.260426088251685 
354	 0.271887767423571 
355	 0.250528394487989 
356	 0.245399345361128 
357	 0.282507812343652 
358	 0.248150841759715 
359	 0.198332136642014 
360	 0.18616332069005 
361	 0.237362313173936 
362	 0.214133378634614 
363	 0.195500991809855 
364	 0.209849875341966 
365	 0.182924166663137 
366	 0.183089041537373 
367	 0.185093154493955 
368	 0.164674433945465 
369	 0.177553215316718 
370	 0.163982872517682 
371	 0.145030082860924 
372	 0.177372604787006 
373	 0.165834759125556 
374	 0.152725827046926 
375	 0.157364312076419 
376	 0.149460390567415 
377	 0.165169944005091 
378	 0.17932886707214 
379	 0.164565505982078 
380	 0.141895431771606 
381	 0.137333715319262 
382	 0.140296981386482 
383	 0.122688450603061 
384	 0.12331553800487 
385	 0.131418279766169 
386	 0.139005618416021 
387	 0.151290731542016 
388	 0.13902406236701 
389	 0.125737849924394 
390	 0.133608464507942 
391	 0.134471066907645 
392	 0.128476793798444 
393	 0.11956497328605 
394	 0.113370362465059 
395	 0.111920814864906 
396	 0.11523393953346 
397	 0.11726940655989 
398	 0.102410888190325 
399	 9.12676407965997E-02 
400	 9.44261363509892E-02 
401	 0.110098073902909 
402	 0.104129191848209 
403	 9.23376957125256E-02 
404	 8.62457969586317E-02 
405	 9.13146656068617E-02 
406	 9.82717395047213E-02 
407	 9.72792850888981E-02 
408	 8.77533574299837E-02 
409	 8.52600957683763E-02 
410	 0.085807635743355 
411	 8.79963710848585E-02 
412	 8.94824286615929E-02 
413	 8.03908239245539E-02 
414	 7.77424985083709E-02 
415	 8.23709377100019E-02 
416	 8.05782270040657E-02 
417	 7.70508876079626E-02 
418	 0.074075494109056 
419	 7.30913678963627E-02 
420	 7.54139513228582E-02 
421	 7.14134112633129E-02 
422	 6.67729932686565E-02 
423	 7.06150010302835E-02 
424	 7.23232662444083E-02 
425	 7.05098790560387E-02 
426	 6.72448934134173E-02 
427	 6.72905649054096E-02 
428	 6.74365800083326E-02 
429	 6.61647401964451E-02 
430	 6.36986456926347E-02 
431	 6.42660224326352E-02 
432	 0.063158999686926 
433	 0.061674446830046 
434	 6.35160475191285E-02 
435	 0.062752429301439 
436	 6.29267670895086E-02 
437	 0.064509231229831 
438	 6.17948607607921E-02 
439	 6.05325481459422E-02 
440	 6.12053507077277E-02 
441	 6.24324242516797E-02 
442	 6.18903118960775E-02 
443	 6.16554189514971E-02 
444	 6.16617930181753E-02 
445	 6.02186217654089E-02 
446	 5.79567492127542E-02 
447	 5.75881879923019E-02 
448	 5.98249060595618E-02 
449	 6.10290452436923E-02 
450	 5.92444293563087E-02 
451	 0.057483345433648 
452	 5.93153074027866E-02 
453	 5.90095990892267E-02 
454	 0.058033255500747 
455	 5.75603181886655E-02 
456	 5.78959753758493E-02 
457	 5.82223094914094E-02 
458	 5.83840520106119E-02 
459	 5.83017213267535E-02 
460	 5.75053662475119E-02 
461	 5.74452481919819E-02 
462	 5.79994069129498E-02 
463	 5.82172391634878E-02 
464	 0.058202498514309 
465	 5.73134154032438E-02 
466	 5.60555857472896E-02 
467	 0.056724049604554 
468	 5.72738230411632E-02 
469	 5.70728686489529E-02 
470	 5.63607014596141E-02 
471	 5.71028943987011E-02 
472	 0.057639874019159 
473	 5.74652545421062E-02 
474	 5.70782989587917E-02 
475	 5.67901745992136E-02 
476	 5.70016316303949E-02 
477	 5.76010460411984E-02 
478	 0.057409305405526 
479	 5.72677260185082E-02 
480	 5.72087194363809E-02 
481	 5.71266678807887E-02 
482	 5.79706736577542E-02 
483	 5.85496413104473E-02 
484	 0.058548151560458 
485	 5.87633543574829E-02 
486	 5.96563972474459E-02 
487	 6.03066035937767E-02 
488	 6.02131874962173E-02 
489	 0.061111229506416 
490	 0.061808945340324 
491	 6.24964914106098E-02 
492	 6.39054573517728E-02 
493	 6.39032718461584E-02 
494	 6.44992032287511E-02 
495	 6.63901861452193E-02 
496	 6.74474531402322E-02 
497	 6.88143430794982E-02 
498	 7.01713449094616E-02 
499	 7.10834739466569E-02 
500	 7.24298973233114E-02 
501	 7.40115401626631E-02 
502	 7.54675046293186E-02 
503	 7.64295787841453E-02 
504	 7.81695480944183E-02 
505	 8.02620039450854E-02 
506	 8.21446500189491E-02 
507	 8.36297807149705E-02 
508	 8.53866882347539E-02 
509	 8.74061438739645E-02 
510	 8.94070706369639E-02 
511	 9.16363602726129E-02 
512	 0.093604533177393 
513	 9.52424186479146E-02 
514	 9.70584452476261E-02 
515	 9.93049049970184E-02 
516	 0.101755065487809 
517	 0.104077346695257 
518	 0.106056903743557 
519	 0.108200743315485 
520	 0.110594702107951 
521	 0.113012823748226 
522	 0.115272095920103 
523	 0.11766191347638 
524	 0.120264185749333 
525	 0.122640646092317 
526	 0.124927460389583 
527	 0.127249922944295 
528	 0.129691008498046 
529	 0.132104943256468 
530	 0.13423508461689 
531	 0.136322023666441 
532	 0.139082197425789 
533	 0.141729835249095 
534	 0.144057750595381 
535	 0.146191183842188 
536	 0.14880115333841 
537	 0.151391147118858 
538	 0.153832870574043 
539	 0.156208925888829 
540	 0.158501436097142 
541	 0.160786034283467 
542	 0.163105864521519 
543	 0.165431079827131 
544	 0.167791156256758 
545	 0.170177227996296 
546	 0.172537328427826 
547	 0.174691246790208 
548	 0.176796993302938 
549	 0.178915654441024 
550	 0.181006645885019 
551	 0.183108083324364 
552	 0.185188544651152 
553	 0.187244601990559 
554	 0.189386020574697 
555	 0.191387235845408 
556	 0.193281458872627 
557	 0.195212906198503 
558	 0.197140351163192 
559	 0.199085516418858 
560	 0.200992343825813 
561	 0.202690848799916 
562	 0.204502866989166 
563	 0.206271607963781 
564	 0.207853886017346 
565	 0.209665408406058 
566	 0.211531880946349 
567	 0.21334962699245 
568	 0.215089192165668 
569	 0.216867109916538 
570	 0.218577449285823 
571	 0.220233023376195 
572	 0.222210473347903 
573	 0.223873900767072 
574	 0.225379537214333 
575	 0.227089540609699 
576	 0.22856211611626 
577	 0.230130483968557 
578	 0.231859004923953 
579	 0.23345702816363 
580	 0.234806481089437 
581	 0.236121841593887 
582	 0.237577907189629 
583	 0.238942692973418 
584	 0.240369672041707 
585	 0.241870244157969 
586	 0.243352588200845 
587	 0.24458523863516 
588	 0.245820961434706 
589	 0.247215132886119 
590	 0.24867581052681 
591	 0.250092696325535 
592	 0.251462868654932 
593	 0.252813259625842 
594	 0.254114683497498 
595	 0.255371985216639 
596	 0.256626756657712 
597	 0.2579399308432 
598	 0.259159406348642 
599	 0.260383089289282 
600	 0.261693568547377 
601	 0.263045427426542 
602	 0.264190734147139 
603	 0.265269637176765 
604	 0.26653648881345 
605	 0.267741558614302 
606	 0.26889331795831 
607	 0.270025693038288 
608	 0.271173148562156 
609	 0.272337491119456 
610	 0.273387824538973 
611	 0.274298515187063 
612	 0.275486804184055 
613	 0.276704041794991 
614	 0.277808301088895 
615	 0.27876309359642 
616	 0.279783033405642 
617	 0.280789933141017 
618	 0.281753118984873 
619	 0.282803198718784 
620	 0.283889447142758 
621	 0.284876085637112 
622	 0.285682848139104 
623	 0.286619878378558 
624	 0.287583969745575 
625	 0.288514877694629 
626	 0.289409092356541 
627	 0.290229232891087 
628	 0.290953323982912 
629	 0.291683521299628 
630	 0.292864567527061 
631	 0.293800216569582 
632	 0.294436125309109 
633	 0.29505143097304 
634	 0.295997954819162 
635	 0.296881015392394 
636	 0.297562488544676 
637	 0.298300787259855 
638	 0.299022193547346 
639	 0.299715164796325 
640	 0.300370236959733 
641	 0.300935608873128 
642	 0.301589356645931 
643	 0.302323820412607 
644	 0.303005033866843 
645	 0.303501030507734 
646	 0.30404571034128 
647	 0.304713145833033 
648	 0.305242922073821 
649	 0.305822894659208 
650	 0.306371264617384 
651	 0.30680119648635 
652	 0.307343777455078 
653	 0.307924076315614 
654	 0.308497167816579 
655	 0.309048929628877 
656	 0.309545706375194 
657	 0.310032877562306 
658	 0.310563477552977 
659	 0.311195930578555 
660	 0.311724986234804 
661	 0.312164165894673 
662	 0.312618549711404 
663	 0.313171246117621 
664	 0.313746122097152 
665	 0.314282938700476 
666	 0.314752224903467 
667	 0.315173539358432 
668	 0.315673281927215 
669	 0.316294913764261 
670	 0.316829417696265 
671	 0.317339160406121 
672	 0.317828021852556 
673	 0.318295044031427 
674	 0.318853925505008 
675	 0.319381967147754 
676	 0.319851480569183 
677	 0.320371047005307 
678	 0.320892189087129 
679	 0.321350079481972 
680	 0.321740150207523 
681	 0.322246958850147 
682	 0.32277219017463 
683	 0.323271718087222 
684	 0.323742540354204 
685	 0.324247832443837 
686	 0.324789051265316 
687	 0.325297962496415 
688	 0.325622465285873 
689	 0.326037608656537 
690	 0.326549819400565 
691	 0.327062193456141 
692	 0.327389235936279 
693	 0.327753066079554 
694	 0.328207857614923 
695	 0.328686780435794 
696	 0.329119739800545 
697	 0.329535643780677 
698	 0.329949455691706 
699	 0.330332500254599 
700	 0.330753847392605 
701	 0.331179650362166 
702	 0.331562898663026 
703	 0.331922144323274 
704	 0.332308077353432 
705	 0.332702899257239 
706	 0.33304971831104 
707	 0.333418302540877 
708	 0.333792422246177 
709	 0.334153728596512 
710	 0.334497453758099 
711	 0.33485787660183 
712	 0.335219927930464 
713	 0.335570144873265 
714	 0.335974740095786 
715	 0.33631175443278 
716	 0.336574694433197 
717	 0.336853040975263 
718	 0.337283677132519 
719	 0.337686587341653 
720	 0.337976009892459 
721	 0.338296284162119 
722	 0.33866835691766 
723	 0.339007360993463 
724	 0.3392571583099 
725	 0.339623359315823 
726	 0.339962531710043 
727	 0.340266951826838 
728	 0.34062035056588 
729	 0.340939114552021 
730	 0.341272189555259 
731	 0.341630030307717 
732	 0.341930629777311 
733	 0.342284682089997 
734	 0.342662898878552 
735	 0.343003929212129 
736	 0.343286743412833 
737	 0.343588754503999 
738	 0.343917846993878 
739	 0.344235251667605 
740	 0.344566034545714 
741	 0.344849215083133 
742	 0.345095575575583 
743	 0.345434677486828 
744	 0.345750226119111 
745	 0.346046777081363 
746	 0.346363350378406 
747	 0.346751789028184 
748	 0.347068778310654 
749	 0.347346154498709 
750	 0.347704501634399 
751	 0.348081962060029 
752	 0.348442144884277 
753	 0.34878975469745 
754	 0.349178214012528 
755	 0.349564412194412 
756	 0.349917993134775 
757	 0.350245527848002 
758	 0.350637868729182 
759	 0.35110326363775 
760	 0.351576828410998 
761	 0.351975678408541 
762	 0.35234977371489 
763	 0.352802419988002 
764	 0.353289645738607 
765	 0.353624141330456 
766	 0.353990893917962 
767	 0.354388689079558 
768	 0.354799541095316 
769	 0.355258385510597 
770	 0.35566597825714 
771	 0.35606329038341 
772	 0.356521236678858 
773	 0.356980037588146 
774	 0.357405802206663 
775	 0.357805707787101 
776	 0.358220073856086 
777	 0.358661857426485 
778	 0.359127073545945 
779	 0.359583479488333 
780	 0.359955896873337 
781	 0.360356308831856 
782	 0.360820193383075 
783	 0.36133281847666 
784	 0.361808669043431 
785	 0.362195735333765 
786	 0.362551086699475 
787	 0.362981517744256 
788	 0.363447426385265 
789	 0.363919460078193 
790	 0.364369292709707 
791	 0.364774558509326 
792	 0.365169012585001 
793	 0.365606338004014 
794	 0.36609735913102 
795	 0.366548007458047 
796	 0.366964523104539 
797	 0.367351939963178 
798	 0.367731651300614 
799	 0.368187715653611 
800	 0.36859853708049 
801	 0.368996556331561 
802	 0.369511397121061 
803	 0.369922440957812 
804	 0.37028156534295 
805	 0.370660053164201 
806	 0.371098826409127 
807	 0.37147485444421 
808	 0.371839425545713 
809	 0.372257230605684 
810	 0.372702744198612 
811	 0.373088747481466 
812	 0.373434200353448 
813	 0.373807103447576 
814	 0.374234146808368 
815	 0.374613735295687 
816	 0.37493479178786 
817	 0.375268784667036 
818	 0.375571100002733 
819	 0.375885753287784 
820	 0.376235181958296 
821	 0.376587863251965 
822	 0.376913583484751 
823	 0.377199296721521 
824	 0.377457544021072 
825	 0.377756655249005 
826	 0.378030533244906 
827	 0.378294549580227 
828	 0.378587949229268 
829	 0.378855581881418 
830	 0.379113561275004 
831	 0.379353677387758 
832	 0.379553770086548 
833	 0.379822678901293 
834	 0.380033457527761 
835	 0.380176781643715 
836	 0.380469972565295 
837	 0.380741988385154 
838	 0.380961941266931 
839	 0.381132999128526 
840	 0.38123368897351 
841	 0.381468793430856 
842	 0.381681667961649 
843	 0.381684093961587 
844	 0.381910795477698 
845	 0.382157665284332 
846	 0.382338579886718 
847	 0.382488722072556 
848	 0.382716010590189 
849	 0.382888973743917 
850	 0.382976610443366 
851	 0.383103726373596 
852	 0.383228964143298 
853	 0.383359300268382 
854	 0.383512710877179 
855	 0.383721766847417 
856	 0.383817817397933 
857	 0.383857595960678 
858	 0.383958985283236 
859	 0.384179622007215 
860	 0.384301621589834 
861	 0.384351379058102 
862	 0.384456065804386 
863	 0.384479805229292 
864	 0.38456908288343 
865	 0.384713536540522 
866	 0.384767389160665 
867	 0.384809304804546 
868	 0.384834416450945 
869	 0.384866760079516 
870	 0.384975525923363 
871	 0.384990530681921 
872	 0.385060692619627 
873	 0.385245785275862 
874	 0.385261613392681 
875	 0.38521950420532 
876	 0.385218588839968 
877	 0.385296445013069 
878	 0.385271007217899 
879	 0.385366398227377 
880	 0.3854700736447 
881	 0.385380792692681 
882	 0.385374981162301 
883	 0.385354695666841 
884	 0.385320121985678 
885	 0.385344875268839 
886	 0.385329325151869 
887	 0.385370983970742 
888	 0.385461341453635 
889	 0.385457903407675 
890	 0.38545335937218 
891	 0.385403636059154 
892	 0.385317740376722 
893	 0.385327110431989 
894	 0.385326649952361 
895	 0.38533451904479 
896	 0.385371317806975 
897	 0.385391403873375 
898	 0.385321827360837 
899	 0.38531930100884 
900	 0.385488648251555 
901	 0.385437664241665 
902	 0.385390761453115 
903	 0.385394200426241 
904	 0.385411058875933 
905	 0.385503756342758 
906	 0.385574807662055 
907	 0.385560295158992 
908	 0.385469547655443 
909	 0.385570845374092 
910	 0.385727734700691 
911	 0.385787293535003 
912	 0.385666393493513 
913	 0.38567951857858 
914	 0.385814053803126 
915	 0.385957336682954 
916	 0.385955470167153 
917	 0.386023492266554 
918	 0.386090112854456 
919	 0.386076134844581 
920	 0.38599660562826 
921	 0.386080054135047 
922	 0.386214177697301 
923	 0.386291075751496 
924	 0.386472757432092 
925	 0.386522136269011 
926	 0.386515710280402 
927	 0.386591733530335 
928	 0.386735960880351 
929	 0.386732213549474 
930	 0.386660074850959 
931	 0.386727357524179 
932	 0.387092330856832 
933	 0.387294679099297 
934	 0.387356246483571 
935	 0.387531774427058 
936	 0.387686009891709 
937	 0.387818840653446 
938	 0.387926451256762 
939	 0.388009781584826 
940	 0.388124585449722 
941	 0.388324012974254 
942	 0.388473304500678 
943	 0.388361462189198 
944	 0.388494195190514 
945	 0.388657081312142 
946	 0.388740797379983 
947	 0.388836660287087 
948	 0.388941595253777 
949	 0.389038375689856 
950	 0.389153833666617 
951	 0.38934817457769 
952	 0.389236398789157 
953	 0.389268944430848 
954	 0.38955708895631 
955	 0.389530228849482 
956	 0.389594081162271 
957	 0.389699980038886 
958	 0.38978043561661 
959	 0.389891377269359 
960	 0.389964702620971 
961	 0.390024054045687 
962	 0.390105063351726 
963	 0.390221719011851 
964	 0.390231800590597 
965	 0.39026722436462 
966	 0.390427877112135 
967	 0.39058375626255 
968	 0.390542007913164 
969	 0.390502639003128 
970	 0.390618855461274 
971	 0.390605042798 
972	 0.390925760790271 
973	 0.39119796768795 
974	 0.391088334565235 
975	 0.391135711833372 
976	 0.39118333317478 
977	 0.391208232707771 
978	 0.391265060713366 
979	 0.391562207239105 
980	 0.391528435337294 
981	 0.391545017081738 
982	 0.391957927598212 
983	 0.391917014578931 
984	 0.391934672140549 
985	 0.392135087829975 
986	 0.392416472633476 
987	 0.392422098986506 
988	 0.392539926585207 
989	 0.392733253265376 
990	 0.392806624493821 
991	 0.392573877358403 
992	 0.392648108004083 
993	 0.392899927409236 
994	 0.392998634587691 
995	 0.392984270744544 
996	 0.392913215333228 
997	 0.392948623976308 
998	 0.393185142621897 
999	 0.393416246909795 
1000	 0.393460997162483 
1001	 0.390328056993754 
1002	 0.390473584927641 
1003	 0.390556649166389 
1004	 0.39059989762517 
1005	 0.390708854044537 
1006	 0.390749542800869 
1007	 0.390633845416524 
1008	 0.390667786671124 
1009	 0.390793967991519 
1010	 0.390906986829171 
1011	 0.391086318767056 
1012	 0.391164412864605 
1013	 0.391232098601072 
1014	 0.391259803275315 
1015	 0.391208831228363 
1016	 0.391129533366184 
1017	 0.391089235853338 
1018	 0.39112029177866 
1019	 0.391163711919022 
1020	 0.391301678733331 
1021	 0.391419671785792 
1022	 0.391587996540942 
1023	 0.391704746932131 
1024	 0.391796684471234 
1025	 0.391875829249651 
1026	 0.391975780395673 
1027	 0.392052325549017 
1028	 0.392123326237255 
1029	 0.392150812984897 
1030	 0.392169925350978 
1031	 0.39205157874592 
1032	 0.392057639172503 
1033	 0.392245008109331 
1034	 0.392460775177792 
1035	 0.392652141970998 
1036	 0.392760621066861 
1037	 0.392758052486062 
1038	 0.392857101203711 
1039	 0.39296022829644 
1040	 0.393050409991719 
1041	 0.393203631661535 
1042	 0.393314153048237 
1043	 0.393362353840639 
1044	 0.393409123732271 
1045	 0.393608636555903 
1046	 0.393808476081015 
1047	 0.393864692697734 
1048	 0.393996467337568 
1049	 0.394098637718989 
1050	 0.393997376083601 
1051	 0.393911267665262 
1052	 0.393974365962065 
1053	 0.39404750188808 
1054	 0.394151084960996 
1055	 0.394206643279993 
1056	 0.394313940158298 
1057	 0.394368811997824 
1058	 0.394333009254616 
1059	 0.394334398325577 
1060	 0.394464501085922 
1061	 0.394584039126679 
1062	 0.394605824980697 
1063	 0.394730383891353 
1064	 0.39479651849652 
1065	 0.394743768116806 
1066	 0.394776010704726 
1067	 0.394781555961145 
1068	 0.394738629878196 
1069	 0.394768343048696 
1070	 0.394783096031622 
1071	 0.394794436283466 
1072	 0.394802373928742 
1073	 0.394849469404185 
1074	 0.394819327564477 
1075	 0.39478952535648 
1076	 0.39475330642701 
1077	 0.394641861168657 
1078	 0.394636013521375 
1079	 0.39466826882361 
1080	 0.394589305816683 
1081	 0.394610653782493 
1082	 0.3946852447069 
1083	 0.39461408638333 
1084	 0.394606419090732 
1085	 0.394716337666963 
1086	 0.394775781864132 
1087	 0.394789123163565 
1088	 0.394851032702024 
1089	 0.394927693206088 
1090	 0.394957946046765 
1091	 0.394997632713834 
1092	 0.395004503386784 
1093	 0.395045769802939 
1094	 0.395087183418324 
1095	 0.395094788648802 
1096	 0.39519571598277 
1097	 0.395353758917699 
1098	 0.395494016103264 
1099	 0.395579704490179 
1100	 0.395614392802204 
1101	 0.395643606471484 
1102	 0.395668468949683 
1103	 0.395719891899237 
1104	 0.395780672615822 
1105	 0.39589885627174 
1106	 0.396053255596715 
1107	 0.396161388816481 
1108	 0.396264289087822 
1109	 0.396439671592364 
1110	 0.396586652363088 
1111	 0.396729238169367 
1112	 0.396921025751816 
1113	 0.397106131959215 
1114	 0.397233084472426 
1115	 0.397365204631022 
1116	 0.397554283207638 
1117	 0.397698081724955 
1118	 0.397856531440873 
1119	 0.398074542706252 
1120	 0.398230740953133 
1121	 0.39833937820957 
1122	 0.398461833710277 
1123	 0.398620797357051 
1124	 0.398805014351424 
1125	 0.399006302053723 
1126	 0.399177095290464 
1127	 0.399300650950612 
1128	 0.399365247723121 
1129	 0.399453097847383 
1130	 0.399619433566095 
1131	 0.399801745070158 
1132	 0.40000233106012 
1133	 0.400181478185044 
1134	 0.400298348620269 
1135	 0.40044927147692 
1136	 0.400618455215025 
1137	 0.40073369503942 
1138	 0.400864096512133 
1139	 0.400968746254753 
1140	 0.401020202024101 
1141	 0.401048843164943 
1142	 0.401152604342287 
1143	 0.401153315310614 
1144	 0.401169250317977 
1145	 0.401240280837154 
1146	 0.401239731013 
1147	 0.401249066125335 
1148	 0.401302039273213 
1149	 0.401305968580012 
1150	 0.4013093267453 
1151	 0.401344934211664 
1152	 0.401287297338886 
1153	 0.401092714616604 
1154	 0.401021095964055 
1155	 0.400969330959592 
1156	 0.400904256311997 
1157	 0.400930122526958 
1158	 0.400893519617234 
1159	 0.400812432187405 
1160	 0.400688556280864 
1161	 0.400607696282622 
1162	 0.400483305259382 
1163	 0.400367055379606 
1164	 0.4002086998829 
1165	 0.400040328221466 
1166	 0.399923339806281 
1167	 0.399776048839478 
1168	 0.399699047927137 
1169	 0.399593069085725 
1170	 0.399504916759518 
1171	 0.399363929260662 
1172	 0.399184802962186 
1173	 0.399016024596046 
1174	 0.398834342246692 
1175	 0.398652779684371 
1176	 0.39848043010473 
1177	 0.398301485690281 
1178	 0.398108867620607 
1179	 0.397900649007991 
1180	 0.397716264908792 
1181	 0.397557174969512 
1182	 0.397399974450321 
1183	 0.397199886579093 
1184	 0.397037507271928 
1185	 0.396872084475957 
1186	 0.396705280085796 
1187	 0.396535190503618 
1188	 0.396412742808019 
1189	 0.396282081672663 
1190	 0.396207188308415 
1191	 0.396203707607466 
1192	 0.396178760484888 
1193	 0.396191822846178 
1194	 0.396165425390304 
1195	 0.396098890129467 
1196	 0.396066469873781 
1197	 0.396016331416391 
1198	 0.396000006556038 
1199	 0.396062802488237 
1200	 0.396142048659859 
1201	 0.396202630845097 
1202	 0.396288528152137 
1203	 0.396349873501908 
1204	 0.396468764977462 
1205	 0.396646451369048 
1206	 0.396867998680783 
1207	 0.397158956057717 
1208	 0.397527817365452 
1209	 0.397900156122885 
1210	 0.398312744175359 
1211	 0.398778221647045 
1212	 0.399218825702264 
1213	 0.399811379879694 
1214	 0.400514506413292 
1215	 0.401271949877603 
1216	 0.402165741070287 
1217	 0.403044140974753 
1218	 0.403969953652448 
1219	 0.40491272746261 
1220	 0.405839868301965 
1221	 0.406818250732713 
1222	 0.407795580742882 
1223	 0.408797963760875 
1224	 0.409766106113892 
1225	 0.410751866017409 
1226	 0.411671865975789 
1227	 0.412549125072456 
1228	 0.413411683496753 
1229	 0.414241283900101 
1230	 0.415070469444813 
1231	 0.415892756143727 
1232	 0.416682731280475 
1233	 0.417468781280001 
1234	 0.418197812449861 
1235	 0.418866052604945 
1236	 0.419538400391725 
1237	 0.420176531500085 
1238	 0.420814235127534 
1239	 0.421435670047859 
1240	 0.422077970147075 
1241	 0.422705564914796 
1242	 0.4232616810047 
1243	 0.423817933695904 
1244	 0.42433892184881 
1245	 0.424877369263384 
1246	 0.425396707124181 
1247	 0.425938671323046 
1248	 0.426504525962285 
1249	 0.427048001512894 
1250	 0.427610666861544 
1251	 0.428113308508241 
1252	 0.428545311381151 
1253	 0.429040631229476 
1254	 0.429542311139943 
1255	 0.430035308264147 
1256	 0.430581236725545 
1257	 0.431082684908871 
1258	 0.431539219529862 
1259	 0.431994415490348 
1260	 0.432411121652706 
1261	 0.432871460628741 
1262	 0.433335734068796 
1263	 0.433821448924915 
1264	 0.434321433356549 
1265	 0.434882388817477 
1266	 0.43536968570718 
1267	 0.435837795743612 
1268	 0.436283405933927 
1269	 0.436673869687621 
1270	 0.437117943623554 
1271	 0.437582191416645 
1272	 0.438022488468147 
1273	 0.438494756314133 
1274	 0.438911267402188 
1275	 0.439279455551779 
1276	 0.43964884172089 
1277	 0.439993158979438 
1278	 0.440339376724425 
1279	 0.440666321238815 
1280	 0.441008709271987 
1281	 0.441359348571711 
1282	 0.441701023907883 
1283	 0.442076752955166 
1284	 0.44239684171299 
1285	 0.442687299497825 
1286	 0.442944472277828 
1287	 0.443212375946887 
1288	 0.443441257126634 
1289	 0.443699775670392 
1290	 0.443990284946229 
1291	 0.444230179181932 
1292	 0.444441569633948 
1293	 0.444667135068563 
1294	 0.444886743708109 
1295	 0.445085476672431 
1296	 0.445281503864762 
1297	 0.445468525140055 
1298	 0.445595458828214 
1299	 0.44579203528718 
1300	 0.446032803853228 
1301	 0.446258261425459 
1302	 0.446526154070829 
1303	 0.446757791838044 
1304	 0.446952549766332 
1305	 0.447164982962967 
1306	 0.447395166516694 
1307	 0.447592972471329 
1308	 0.44779301674135 
1309	 0.447951892057956 
1310	 0.448141943110034 
1311	 0.448309066747319 
1312	 0.448502482824078 
1313	 0.448725846334073 
1314	 0.448932001144427 
1315	 0.449125828377192 
1316	 0.449333745984359 
1317	 0.449550985501989 
1318	 0.449767727094686 
1319	 0.449996495852536 
1320	 0.450204885215888 
1321	 0.450406241665685 
1322	 0.450607559735948 
1323	 0.450784458361155 
1324	 0.450985964577886 
1325	 0.451217576140531 
1326	 0.451417569773665 
1327	 0.451611739239053 
1328	 0.451803112329151 
1329	 0.451987610533083 
1330	 0.452150440067606 
1331	 0.452301094276379 
1332	 0.452449548380575 
1333	 0.452578761753516 
1334	 0.452701931217922 
1335	 0.452821852916158 
1336	 0.452952211755333 
1337	 0.453052786176841 
1338	 0.453130437736729 
1339	 0.453214883092478 
1340	 0.453307200245741 
1341	 0.453352074856877 
1342	 0.453389182208153 
1343	 0.453386114749607 
1344	 0.453323965614462 
1345	 0.453288037336401 
1346	 0.453266187663292 
1347	 0.453187738597027 
1348	 0.453078007156175 
1349	 0.452976009779762 
1350	 0.452848174194516 
1351	 0.452701788136212 
1352	 0.452546903168738 
1353	 0.452399061198886 
1354	 0.452204948510464 
1355	 0.452054223445336 
1356	 0.451994305866701 
1357	 0.451840402796104 
1358	 0.451652536657482 
1359	 0.451444619829438 
1360	 0.451192934307967 
1361	 0.450899033307017 
1362	 0.450597963371123 
1363	 0.450318380460042 
1364	 0.450013536755322 
1365	 0.44969605077747 
1366	 0.449341882769267 
1367	 0.44898321775067 
1368	 0.448581998165189 
1369	 0.448143789667154 
1370	 0.447675690693506 
1371	 0.44719495104017 
1372	 0.446657403652953 
1373	 0.44607460741343 
1374	 0.445455435820902 
1375	 0.444782887154158 
1376	 0.44410109699997 
1377	 0.443383543874638 
1378	 0.442641801991167 
1379	 0.441876313326025 
1380	 0.441090998164674 
1381	 0.440308554283572 
1382	 0.439441298840537 
1383	 0.438514543767079 
1384	 0.4375756451609 
1385	 0.436548778762482 
1386	 0.435559640013834 
1387	 0.434577614597546 
1388	 0.433614621147226 
1389	 0.432624923123253 
1390	 0.431701973500731 
1391	 0.430814494633885 
1392	 0.429942449483092 
1393	 0.429236591006026 
1394	 0.428527273268857 
1395	 0.427803691841091 
1396	 0.427160972256473 
1397	 0.426407353292686 
1398	 0.425621934486076 
1399	 0.424738360562016 
1400	 0.423843411639496 
1401	 0.422767459551101 
1402	 0.421556651474313 
1403	 0.420283115538906 
1404	 0.418885301328012 
1405	 0.417456550647938 
1406	 0.415957195916415 
1407	 0.414412000291498 
1408	 0.412757774418714 
1409	 0.411152324884535 
1410	 0.409489229643936 
1411	 0.407897380495554 
1412	 0.406328333401414 
1413	 0.404815597547463 
1414	 0.403344833820535 
1415	 0.401908216936208 
1416	 0.400496783205127 
1417	 0.399142790908882 
1418	 0.397852980862408 
1419	 0.39656438483754 
1420	 0.395293025046713 
1421	 0.394092432048415 
1422	 0.392901307707667 
1423	 0.391781570164486 
1424	 0.390790846790163 
1425	 0.389744091767349 
1426	 0.388773617731151 
1427	 0.387851743008417 
1428	 0.386901416309249 
1429	 0.386055972605371 
1430	 0.385200191638842 
1431	 0.384382660437476 
1432	 0.383522814138112 
1433	 0.382693971232671 
1434	 0.381787527021244 
1435	 0.380828947547903 
1436	 0.379865853619253 
1437	 0.378864332782915 
1438	 0.377879901371401 
1439	 0.376859122242238 
1440	 0.375902440965568 
1441	 0.374904545042497 
1442	 0.374069082629102 
1443	 0.373255035726271 
1444	 0.372649006781581 
1445	 0.372128313759217 
1446	 0.371875980661019 
1447	 0.371776459673028 
1448	 0.371950669837366 
1449	 0.372396149733541 
1450	 0.373015189965914 
1451	 0.373932408405191 
1452	 0.374899147996614 
1453	 0.376109163511158 
1454	 0.377265836537126 
1455	 0.378537624090348 
1456	 0.37973691714534 
1457	 0.380944067671249 
1458	 0.382101798381846 
1459	 0.383222601542516 
1460	 0.38430833645797 
1461	 0.385369924387288 
1462	 0.386370499926155 
1463	 0.387303375040719 
1464	 0.38823137491757 
1465	 0.389117535311945 
1466	 0.389993221470231 
1467	 0.390827913998854 
1468	 0.391624123755598 
1469	 0.392392469138307 
1470	 0.393136707454885 
1471	 0.39389387035918 
1472	 0.394657056954864 
1473	 0.395406564491947 
1474	 0.396166684364643 
1475	 0.396860014699194 
1476	 0.397530639618954 
1477	 0.398171384252547 
1478	 0.398765763098685 
1479	 0.399326419548018 
1480	 0.39989215048539 
1481	 0.400356000359902 
1482	 0.400740883094203 
1483	 0.401100765687508 
1484	 0.401396217087794 
1485	 0.401671571521136 
1486	 0.401877682013952 
1487	 0.402135121658669 
1488	 0.402324691843161 
1489	 0.402651517175117 
1490	 0.403042056060435 
1491	 0.403494356214036 
1492	 0.403990741054063 
1493	 0.404618703818281 
1494	 0.405326470546728 
1495	 0.406126736265901 
1496	 0.407101860913529 
1497	 0.408046545692245 
1498	 0.409050733572277 
1499	 0.410058884332567 
1500	 0.411099206481055 
1501	 0.412131350306913 
1502	 0.413195185818925 
1503	 0.414219420509694 
1504	 0.415267639084151 
1505	 0.41622774150844 
1506	 0.417153466777032 
1507	 0.418010995035486 
1508	 0.418768619499845 
1509	 0.419520174019609 
1510	 0.420226453811984 
1511	 0.420906321210549 
1512	 0.421571454355517 
1513	 0.422190193143011 
1514	 0.422780301755909 
1515	 0.423318510503694 
1516	 0.423807968898152 
1517	 0.42425741202051 
1518	 0.424664953908771 
1519	 0.425017848116892 
1520	 0.425306945967913 
1521	 0.425575327290458 
1522	 0.425811697049061 
1523	 0.4260266659622 
1524	 0.426214715028333 
1525	 0.426393519895781 
1526	 0.426535781121213 
1527	 0.426636916044612 
1528	 0.426721556217973 
1529	 0.426779978645894 
1530	 0.426844583346036 
1531	 0.426892464581701 
1532	 0.42691862750713 
1533	 0.426921725861359 
1534	 0.426971151372048 
1535	 0.426979242480453 
1536	 0.427096911220596 
1537	 0.427277218050466 
1538	 0.427513069168556 
1539	 0.427804745314745 
1540	 0.428142807587837 
1541	 0.428547547329554 
1542	 0.42898175374378 
1543	 0.429445094234658 
1544	 0.429980217417835 
1545	 0.430581952184862 
1546	 0.431203266829646 
1547	 0.431883547338141 
1548	 0.432577470119937 
1549	 0.433300592767896 
1550	 0.434037366117618 
1551	 0.434825317970832 
1552	 0.435575145897531 
1553	 0.436338186249551 
1554	 0.437057682128587 
1555	 0.437728620091383 
1556	 0.438439175435219 
1557	 0.439149311668867 
1558	 0.439851004464879 
1559	 0.440582639262761 
1560	 0.441275376010912 
1561	 0.441943954740458 
1562	 0.442591102201953 
1563	 0.443225241232009 
1564	 0.443835629121143 
1565	 0.444390587651825 
1566	 0.444986562466053 
1567	 0.445599574197637 
1568	 0.446188284715852 
1569	 0.446774636665104 
1570	 0.447368212978393 
1571	 0.447963747319509 
1572	 0.448525809976117 
1573	 0.449085287562491 
1574	 0.449635669874986 
1575	 0.450142883613885 
1576	 0.450665573081141 
1577	 0.451203969268176 
1578	 0.451732538573786 
1579	 0.452257805501146 
1580	 0.45276379845191 
1581	 0.453254538367155 
1582	 0.4537545016315 
1583	 0.454238784885845 
1584	 0.454730965316518 
1585	 0.455249949489945 
1586	 0.45574262645561 
1587	 0.456203056143462 
1588	 0.456687984872839 
1589	 0.457173734865193 
1590	 0.457663844165399 
1591	 0.45817111647255 
1592	 0.45867707217958 
1593	 0.459171298634273 
1594	 0.459686500020145 
1595	 0.460248835207406 
1596	 0.4607513804927 
1597	 0.461239693717926 
1598	 0.4617103343278 
1599	 0.462123696856902 
1600	 0.46255841155604 
1601	 0.462976273450363 
1602	 0.463433780607858 
1603	 0.463928317860987 
1604	 0.464393568722677 
1605	 0.464878378122317 
1606	 0.465344216833595 
1607	 0.465790309090421 
1608	 0.466217338599608 
1609	 0.466620991525308 
1610	 0.467044792388747 
1611	 0.467469021206693 
1612	 0.467867510902938 
1613	 0.468282114691688 
1614	 0.468669465567991 
1615	 0.469048342527992 
1616	 0.469358811363053 
1617	 0.469621981097985 
1618	 0.469877667606769 
1619	 0.470028249259873 
1620	 0.470252326762203 
1621	 0.470540065676292 
1622	 0.470786840590251 
1623	 0.471080463719563 
1624	 0.471295358279952 
1625	 0.471443223563153 
1626	 0.471582255342887 
1627	 0.471650953042032 
1628	 0.471749807354652 
1629	 0.471840896549907 
1630	 0.471952855509487 
1631	 0.472085464951542 
1632	 0.472219040607606 
1633	 0.472359573773918 
1634	 0.47251098015003 
1635	 0.472699121682821 
1636	 0.472838355142968 
1637	 0.472943299708201 
1638	 0.473073703637107 
1639	 0.473212619291051 
1640	 0.473302598146448 
1641	 0.473431337835964 
1642	 0.473474046925372 
1643	 0.473398278174636 
1644	 0.473359843975082 
1645	 0.473286018297337 
1646	 0.473230850778749 
1647	 0.473212574922444 
1648	 0.473152420117042 
1649	 0.473110104801857 
1650	 0.47298711756341 
1651	 0.472797999637086 
1652	 0.472600273762443 
1653	 0.47236525481821 
1654	 0.472091427301074 
1655	 0.471795285955451 
1656	 0.471455563231732 
1657	 0.471041740915585 
1658	 0.470630081585598 
1659	 0.470234464663102 
1660	 0.469765047152081 
1661	 0.469281779612701 
1662	 0.468708883258939 
1663	 0.468070789563791 
1664	 0.467332769615798 
1665	 0.46651942963776 
1666	 0.465598143393347 
1667	 0.46457028760178 
1668	 0.463478537361162 
1669	 0.462317525751624 
1670	 0.461041568496558 
1671	 0.459645764811532 
1672	 0.458186250611413 
1673	 0.456643134505012 
1674	 0.454988698104607 
1675	 0.45326714068859 
1676	 0.451453475402596 
1677	 0.44950195819971 
1678	 0.447524076433817 
1679	 0.445479148181905 
1680	 0.443345043646285 
1681	 0.441167682372414 
1682	 0.438819975797802 
1683	 0.436357188379969 
1684	 0.433844679719 
1685	 0.431217318590856 
1686	 0.42850806650633 
1687	 0.425661705608842 
1688	 0.422832024335184 
1689	 0.419928621351456 
1690	 0.416989346468302 
1691	 0.414074411882228 
1692	 0.411126579756676 
1693	 0.408115438886589 
1694	 0.405065085212229 
1695	 0.401993497743815 
1696	 0.398839916780106 
1697	 0.395582193675834 
1698	 0.392322976740214 
1699	 0.389066000492204 
1700	 0.38580809726225 
1701	 0.382487652466183 
1702	 0.379238273521917 
1703	 0.375897982086814 
1704	 0.372814204697568 
1705	 0.369821680660198 
1706	 0.366925983403449 
1707	 0.364411069654913 
1708	 0.362035014329129 
1709	 0.359790527629904 
1710	 0.357815385961212 
1711	 0.355884157499397 
1712	 0.354095955997701 
1713	 0.352355945698961 
1714	 0.350640477798402 
1715	 0.349128737246467 
1716	 0.347579243903779 
1717	 0.346128095704727 
1718	 0.344807090088809 
1719	 0.343439339524394 
1720	 0.342205134815213 
1721	 0.341007031970702 
1722	 0.339878802170653 
1723	 0.33900155886581 
1724	 0.338205730426889 
1725	 0.33761269366406 
1726	 0.337296849938209 
1727	 0.337107003053048 
1728	 0.337105830495049 
1729	 0.337384133445288 
1730	 0.337931373783064 
1731	 0.338671146576686 
1732	 0.339715267515016 
1733	 0.340893882658968 
1734	 0.342130915826254 
1735	 0.343482973146961 
1736	 0.344804509227404 
1737	 0.346096634546505 
1738	 0.347282762463141 
1739	 0.348188338632309 
1740	 0.34890292857074 
1741	 0.34942326911203 
1742	 0.349702312475812 
1743	 0.349857254828248 
1744	 0.349790812176915 
1745	 0.349675477887246 
1746	 0.349373046761754 
1747	 0.349103535018309 
1748	 0.348725718600092 
1749	 0.348477333623007 
1750	 0.348245692723259 
1751	 0.348093111030563 
1752	 0.348002196527003 
1753	 0.348012631691605 
1754	 0.348078065858524 
1755	 0.348258734164207 
1756	 0.348511815534925 
1757	 0.348971189904929 
1758	 0.34961450911827 
1759	 0.350417052000908 
1760	 0.351391998307236 
1761	 0.352537475800848 
1762	 0.353795564285923 
1763	 0.355226868296953 
1764	 0.356762699520744 
1765	 0.35846508507225 
1766	 0.360277649987167 
1767	 0.362054226210495 
1768	 0.363989428818349 
1769	 0.365932908622475 
1770	 0.367775345693797 
1771	 0.369733130407518 
1772	 0.371603765907941 
1773	 0.373318996176471 
1774	 0.375031131438782 
1775	 0.376571148562709 
1776	 0.378038444343328 
1777	 0.379481602062365 
1778	 0.380737039687218 
1779	 0.381967069301911 
1780	 0.383162895836896 
1781	 0.384227288627806 
1782	 0.38531771135768 
1783	 0.386327364521307 
1784	 0.387230219141843 
1785	 0.388083080386354 
1786	 0.388828167984997 
1787	 0.389455004816242 
1788	 0.390129580616645 
1789	 0.390756901896112 
1790	 0.391410200243718 
1791	 0.392106151362116 
1792	 0.392709284954399 
1793	 0.393257746008647 
1794	 0.393713989270385 
1795	 0.394187290604636 
1796	 0.394732797395941 
1797	 0.395242204931374 
1798	 0.395795552989429 
1799	 0.396397531185302 
1800	 0.396889279819536 
1801	 0.392268425420188 
1802	 0.392698585502478 
1803	 0.393146792508831 
1804	 0.393565586946982 
1805	 0.39406426679984 
1806	 0.394510637970135 
1807	 0.39496362724915 
1808	 0.395392878542851 
1809	 0.395807284454978 
1810	 0.396200580850045 
1811	 0.396538640152063 
1812	 0.396938908756243 
1813	 0.397340333835372 
1814	 0.397789383739358 
1815	 0.398224544159653 
1816	 0.398665182165509 
1817	 0.399128533073777 
1818	 0.399573858309358 
1819	 0.400044657135561 
1820	 0.400576505793199 
1821	 0.401078124556424 
1822	 0.401556623848318 
1823	 0.402060731144172 
1824	 0.402571831937259 
1825	 0.403060882798116 
1826	 0.403553085126795 
1827	 0.404051983789071 
1828	 0.40451835818414 
1829	 0.404991042427646 
1830	 0.405419653028737 
1831	 0.405792966184642 
1832	 0.406193929363727 
1833	 0.406609408434941 
1834	 0.407039526053675 
1835	 0.407487552030596 
1836	 0.407936377552303 
1837	 0.408346041723356 
1838	 0.408699026376235 
1839	 0.409080588103017 
1840	 0.409467442090017 
1841	 0.409839390945647 
1842	 0.410206312799028 
1843	 0.410590465565398 
1844	 0.410932548057601 
1845	 0.411258889352941 
1846	 0.411575984673129 
1847	 0.411822514647732 
1848	 0.412034706908844 
1849	 0.41222805820736 
1850	 0.412340933008542 
1851	 0.412382388353545 
1852	 0.412420186396712 
1853	 0.412385134158392 
1854	 0.412300376364692 
1855	 0.412184070121791 
1856	 0.4119703141381 
1857	 0.411665852455918 
1858	 0.411296109327079 
1859	 0.410911672189252 
1860	 0.410504502183665 
1861	 0.409996860198707 
1862	 0.40944728061301 
1863	 0.408851952151308 
1864	 0.408089423463901 
1865	 0.407246915425024 
1866	 0.406365620866556 
1867	 0.405350913712336 
1868	 0.404271089731681 
1869	 0.403072441902521 
1870	 0.401796354165989 
1871	 0.400446949121824 
1872	 0.399006324415563 
1873	 0.39746555613059 
1874	 0.395899966741724 
1875	 0.39425386052071 
1876	 0.392368532561853 
1877	 0.390514063077721 
1878	 0.388526841944338 
1879	 0.386353237855759 
1880	 0.384254358573989 
1881	 0.381987038118075 
1882	 0.379563454009172 
1883	 0.377110483953135 
1884	 0.374567794924325 
1885	 0.37167603804641 
1886	 0.368780448753086 
1887	 0.36566420138852 
1888	 0.36232352831523 
1889	 0.359145391569176 
1890	 0.35584190855392 
1891	 0.352553529305226 
1892	 0.34924233407535 
1893	 0.345779669202554 
1894	 0.342160909513599 
1895	 0.338631935876562 
1896	 0.334949415297287 
1897	 0.331251579392446 
1898	 0.327865373783444 
1899	 0.324349757266819 
1900	 0.32089770535853 
1901	 0.317588943053115 
1902	 0.314075327904472 
1903	 0.310783181737314 
1904	 0.307567136965652 
1905	 0.304404346755283 
1906	 0.301275381805521 
1907	 0.298524820573168 
1908	 0.295749155721655 
1909	 0.293092803839836 
1910	 0.290656554795556 
1911	 0.288109111630957 
1912	 0.285719929911239 
1913	 0.283413024041171 
1914	 0.281141978180694 
1915	 0.279061419369877 
1916	 0.277185871120185 
1917	 0.275305963659721 
1918	 0.273533104400932 
1919	 0.271864962677947 
1920	 0.270110630442387 
1921	 0.268491030185947 
1922	 0.266888534119343 
1923	 0.265282618061552 
1924	 0.26388325567837 
1925	 0.262469264734403 
1926	 0.261141125576053 
1927	 0.259949978764621 
1928	 0.258748036216935 
1929	 0.257533242346053 
1930	 0.256448412115292 
1931	 0.255446928342004 
1932	 0.254454391531812 
1933	 0.253678377172663 
1934	 0.252997527693962 
1935	 0.25238438835642 
1936	 0.251932188279195 
1937	 0.251550670614498 
1938	 0.251259543463734 
1939	 0.251067440815406 
1940	 0.250974473137514 
1941	 0.250972554843704 
1942	 0.251069103886341 
1943	 0.251238379982373 
1944	 0.251481425548038 
1945	 0.251804687343089 
1946	 0.252183666447252 
1947	 0.252596216654618 
1948	 0.253121319659769 
1949	 0.253715535117893 
1950	 0.254366485754617 
1951	 0.255078469838692 
1952	 0.255908804058474 
1953	 0.256812338780708 
1954	 0.257799789926952 
1955	 0.258932838099013 
1956	 0.260066262556998 
1957	 0.261244397001962 
1958	 0.262453307506857 
1959	 0.263599419300935 
1960	 0.264757956225682 
1961	 0.265823458452822 
1962	 0.266825540815043 
1963	 0.267777322292187 
1964	 0.268678215986776 
1965	 0.269503400368172 
1966	 0.27027932378976 
1967	 0.2709877386225 
1968	 0.271596907120077 
1969	 0.272198197406004 
1970	 0.272766305025956 
1971	 0.273359306178627 
1972	 0.274032247562078 
1973	 0.274676473132579 
1974	 0.275363796492194 
1975	 0.27611517306578 
1976	 0.276850639046813 
1977	 0.277568549937917 
1978	 0.278347959651652 
1979	 0.27917255384744 
1980	 0.279982862258097 
1981	 0.280849222313901 
1982	 0.281670100070181 
1983	 0.282488848402544 
1984	 0.283372142306766 
1985	 0.284205743992043 
1986	 0.285093442610624 
1987	 0.286071526816106 
1988	 0.287065849275934 
1989	 0.288179909508265 
1990	 0.289395911427621 
1991	 0.290692674922338 
1992	 0.292077107666401 
1993	 0.29355836327182 
1994	 0.295095812287823 
1995	 0.29676772914073 
1996	 0.298396336882494 
1997	 0.300048122018546 
1998	 0.301764567776633 
1999	 0.303521429798895 
2000	 0.305243667315301 
2001	 0.307143803448567 
2002	 0.308781201821914 
2003	 0.310297390089462 
2004	 0.311760246248147 
2005	 0.313032161161416 
2006	 0.314328687894015 
2007	 0.31563710385901 
2008	 0.316843940116111 
2009	 0.317972602709113 
2010	 0.319085766931098 
2011	 0.319996914504224 
2012	 0.320829350406491 
2013	 0.321619607815841 
2014	 0.322302990406511 
2015	 0.322975520081831 
2016	 0.323642261088859 
2017	 0.324197191639335 
2018	 0.324694670141571 
2019	 0.325117502009091 
2020	 0.325454107011809 
2021	 0.32570433381801 
2022	 0.325905398322538 
2023	 0.326051459757521 
2024	 0.326122624731631 
2025	 0.326141002116623 
2026	 0.326147440749952 
2027	 0.32611719013535 
2028	 0.326052408697764 
2029	 0.325965318647928 
2030	 0.325835323814174 
2031	 0.32566620603559 
2032	 0.325453943333993 
2033	 0.325144467401732 
2034	 0.324898476994223 
2035	 0.324660940831129 
2036	 0.324399753384992 
2037	 0.324153194655819 
2038	 0.323912459191198 
2039	 0.323641467828943 
2040	 0.323316631256233 
2041	 0.323033234327878 
2042	 0.322760499362026 
2043	 0.322495970175153 
2044	 0.32222941468538 
2045	 0.321979273479169 
2046	 0.321764713503074 
2047	 0.321520662559515 
2048	 0.32125232236026 
2049	 0.321016555772111 
2050	 0.320781704106798 
2051	 0.320559348802489 
2052	 0.32034810242756 
2053	 0.32014791121299 
2054	 0.319941432034635 
2055	 0.319717767877108 
2056	 0.319507185754449 
2057	 0.319319704680867 
2058	 0.319113855148617 
2059	 0.318895976974204 
2060	 0.318692378742128 
2061	 0.318486837609666 
2062	 0.31828307717661 
2063	 0.318090698703501 
2064	 0.31789037865183 
2065	 0.317678715016894 
2066	 0.317481398592571 
2067	 0.317272221462129 
2068	 0.317082788917266 
2069	 0.316918284907045 
2070	 0.316801593820406 
2071	 0.316607763061808 
2072	 0.316401928650543 
2073	 0.316194992600846 
2074	 0.315938523980283 
2075	 0.315700305673568 
2076	 0.315491361877881 
2077	 0.315255140914364 
2078	 0.314971027649289 
2079	 0.314725101311809 
2080	 0.314514381629902 
2081	 0.314273426725553 
2082	 0.314048339529048 
2083	 0.313785953442329 
2084	 0.313479592188099 
2085	 0.313210326951307 
2086	 0.312922865522677 
2087	 0.312626597160667 
2088	 0.312330681270371 
2089	 0.312008256111289 
2090	 0.311738799451761 
2091	 0.31154134644294 
2092	 0.311250000971494 
2093	 0.310961091230091 
2094	 0.310633111491208 
2095	 0.310176572122322 
2096	 0.30980027102874 
2097	 0.309487609425452 
2098	 0.309121629021432 
2099	 0.308756359238229 
2100	 0.308433730993339 
2101	 0.308023574408674 
2102	 0.307569326961565 
2103	 0.307100286967745 
2104	 0.306570395826112 
2105	 0.306065213213929 
2106	 0.30553984313581 
2107	 0.305035523455251 
2108	 0.304576708144375 
2109	 0.304046757853805 
2110	 0.303501376385892 
2111	 0.302928881189837 
2112	 0.302268925547511 
2113	 0.301652825408148 
2114	 0.301074794848764 
2115	 0.30044981092849 
2116	 0.299819887919383 
2117	 0.299170727455757 
2118	 0.298485838533078 
2119	 0.297748620859318 
2120	 0.2970371836956 
2121	 0.296286403928433 
2122	 0.295607222876578 
2123	 0.294954959482476 
2124	 0.294303804440077 
2125	 0.29370936125682 
2126	 0.293078450827779 
2127	 0.292405139239021 
2128	 0.291787528949578 
2129	 0.291184067515925 
2130	 0.290597990359197 
2131	 0.290058208242014 
2132	 0.289513604864055 
2133	 0.288961977593489 
2134	 0.288434370715354 
2135	 0.287939545276096 
2136	 0.287475573287862 
2137	 0.286980397363595 
2138	 0.286469928220652 
2139	 0.286028843882417 
2140	 0.285591047167307 
2141	 0.285184725831919 
2142	 0.284871052399731 
2143	 0.284503666544483 
2144	 0.284107713484369 
2145	 0.283734812959462 
2146	 0.28333368895092 
2147	 0.283010176097065 
2148	 0.282724569816164 
2149	 0.282457883696316 
2150	 0.282273893118576 
2151	 0.282060805580869 
2152	 0.281818192610071 
2153	 0.281628283110471 
2154	 0.281462050803341 
2155	 0.281277874801862 
2156	 0.281111134100296 
2157	 0.280978026460016 
2158	 0.280803058136047 
2159	 0.280589398424859 
2160	 0.280440476804023 
2161	 0.280317273741031 
2162	 0.280181800983168 
2163	 0.280097381410955 
2164	 0.279952906062838 
2165	 0.279766950819625 
2166	 0.279577581330731 
2167	 0.279366208233566 
2168	 0.279163315003633 
2169	 0.278957395449674 
2170	 0.278736957067142 
2171	 0.278476005595083 
2172	 0.278268472740395 
2173	 0.278101529664088 
2174	 0.277897991860181 
2175	 0.277685607579944 
2176	 0.277531300607399 
2177	 0.277361183501962 
2178	 0.277147013313174 
2179	 0.277009085845326 
2180	 0.276936044935841 
2181	 0.276834088649271 
2182	 0.276732748974481 
2183	 0.276654853197337 
2184	 0.276610108960854 
2185	 0.27652651979786 
2186	 0.276463852477795 
2187	 0.276349195865036 
2188	 0.276187025746639 
2189	 0.276023803596328 
2190	 0.27582524696083 
2191	 0.275646321754492 
2192	 0.275475321030888 
2193	 0.27527533947359 
2194	 0.275043737939062 
2195	 0.274847517905491 
2196	 0.274674062057467 
2197	 0.274477544406213 
2198	 0.274242836890065 
2199	 0.273962357982218 
2200	 0.273693903739429 
2201	 0.273354440048608 
2202	 0.273067756309571 
2203	 0.272859960554778 
2204	 0.272528728718789 
2205	 0.272108635580714 
2206	 0.271742256554476 
2207	 0.271332760457981 
2208	 0.27098049174736 
2209	 0.270714586764925 
2210	 0.270353926451159 
2211	 0.269978649851361 
2212	 0.269564199559907 
2213	 0.269015580896976 
2214	 0.268612905102915 
2215	 0.268260450462184 
2216	 0.267918732476159 
2217	 0.267686960388716 
2218	 0.267401019629972 
2219	 0.267077257426031 
2220	 0.266777614902287 
2221	 0.266454349423964 
2222	 0.266190763422559 
2223	 0.265969824065197 
2224	 0.265706581258947 
2225	 0.265511742081739 
2226	 0.265317499777991 
2227	 0.265042346410936 
2228	 0.264779688039025 
2229	 0.264362993404893 
2230	 0.263849594734003 
2231	 0.263250331971077 
2232	 0.262571271240413 
2233	 0.261761413763934 
2234	 0.260838195305989 
2235	 0.259841180238022 
2236	 0.258741290870272 
2237	 0.257516262270907 
2238	 0.256210129185069 
2239	 0.254772953126872 
2240	 0.253145129164597 
2241	 0.251488170210795 
2242	 0.249813495356037 
2243	 0.247931900805804 
2244	 0.245891833790384 
2245	 0.243786203184551 
2246	 0.241448902471342 
2247	 0.23914011512046 
2248	 0.236754118644902 
2249	 0.234400990541898 
2250	 0.232109314451948 
2251	 0.229705516949753 
2252	 0.227112703721341 
2253	 0.22462363936724 
2254	 0.221884432403665 
2255	 0.219124582944416 
2256	 0.21666843602949 
2257	 0.214128102463635 
2258	 0.211702858249022 
2259	 0.209427718833339 
2260	 0.207087475038976 
2261	 0.204748003402233 
2262	 0.20245518298012 
2263	 0.200115403346452 
2264	 0.197986323582203 
2265	 0.195960296418232 
2266	 0.193990537959006 
2267	 0.192256608009319 
2268	 0.190357010835116 
2269	 0.18841566214121 
2270	 0.186533181524164 
2271	 0.184534390119242 
2272	 0.18276100336233 
2273	 0.181178543733446 
2274	 0.179513642929591 
2275	 0.177993783316461 
2276	 0.176365316605233 
2277	 0.174636208649075 
2278	 0.172940586969499 
2279	 0.171211643388123 
2280	 0.169503875779727 
2281	 0.167841068266273 
2282	 0.166105286760914 
2283	 0.164419907920724 
2284	 0.162588249622112 
2285	 0.160546281312363 
2286	 0.158625815174155 
2287	 0.15649978824951 
2288	 0.154354155392946 
2289	 0.152410338229457 
2290	 0.150358589776669 
2291	 0.148388754155489 
2292	 0.146441262492778 
2293	 0.144223986738726 
2294	 0.142039185135027 
2295	 0.140026256091269 
2296	 0.138075780192512 
2297	 0.136393041620905 
2298	 0.135016694851302 
2299	 0.133688874411595 
2300	 0.132423666300398 
2301	 0.131530862332998 
2302	 0.130880590857549 
2303	 0.130478413899422 
2304	 0.130426809024528 
2305	 0.130459392585147 
2306	 0.130625796344425 
2307	 0.131137375884085 
2308	 0.131941638707938 
2309	 0.132872443096599 
2310	 0.134128586844107 
2311	 0.135433648220142 
2312	 0.136890745240649 
2313	 0.138417806048525 
2314	 0.140191596385764 
2315	 0.141855103212709 
2316	 0.143521610398088 
2317	 0.145163772235704 
2318	 0.146881739548298 
2319	 0.148394338920054 
2320	 0.149952224341079 
2321	 0.151177581610048 
2322	 0.152147924210523 
2323	 0.1529503281177 
2324	 0.153483964687741 
2325	 0.153907302756389 
2326	 0.154201034924447 
2327	 0.154261381122891 
2328	 0.154073891899577 
2329	 0.153797177382856 
2330	 0.153281399087137 
2331	 0.152700347176725 
2332	 0.152208094319914 
2333	 0.151468211404398 
2334	 0.150525409877909 
2335	 0.149538935892383 
2336	 0.148366558429788 
2337	 0.147150229795178 
2338	 0.145988307157811 
2339	 0.144651986465957 
2340	 0.143250498823702 
2341	 0.141887879739904 
2342	 0.140553193542989 
2343	 0.139456908572285 
2344	 0.138563393076703 
2345	 0.13783820032606 
2346	 0.137378271300869 
2347	 0.137210489476134 
2348	 0.137252591987279 
2349	 0.137514867333401 
2350	 0.138074971265664 
2351	 0.138922507146152 
2352	 0.139996820194537 
2353	 0.141252553322591 
2354	 0.142398272289385 
2355	 0.143496881739947 
2356	 0.14452720663726 
2357	 0.145354090349308 
2358	 0.146253442846796 
2359	 0.146982280883223 
2360	 0.147464975244236 
2361	 0.147843729280097 
2362	 0.147982532722821 
2363	 0.148053534196156 
2364	 0.148160304100902 
2365	 0.14816148014277 
2366	 0.148156705046414 
2367	 0.148069859108478 
2368	 0.147913768950933 
2369	 0.14783800044419 
2370	 0.147651658099255 
2371	 0.147419327751572 
2372	 0.147296197710502 
2373	 0.147073077046144 
2374	 0.146928195664222 
2375	 0.147017649814273 
2376	 0.146936663041167 
2377	 0.146854450232841 
2378	 0.146780594619521 
2379	 0.146545202512366 
2380	 0.146424830669163 
2381	 0.146378168698295 
2382	 0.146405458868178 
2383	 0.146590635389691 
2384	 0.146647755770143 
2385	 0.146743003353862 
2386	 0.146792446368559 
2387	 0.146760620081884 
2388	 0.14672581551899 
2389	 0.14664997610477 
2390	 0.146565771310551 
2391	 0.146422683823369 
2392	 0.146487442952079 
2393	 0.146719182482472 
2394	 0.14675918870627 
2395	 0.146787168179954 
2396	 0.14674291275646 
2397	 0.146612041251888 
2398	 0.146408312396714 
2399	 0.14614294504336 
2400	 0.145973473733045 
2401	 0.145622233184426 
2402	 0.145612772641616 
2403	 0.145877378380395 
2404	 0.146264909565277 
2405	 0.146286199306162 
2406	 0.146163727693204 
2407	 0.145989552493613 
2408	 0.145533015370618 
2409	 0.145372321960656 
2410	 0.145474332784933 
2411	 0.14527317763587 
2412	 0.14520655275863 
2413	 0.145252147647965 
2414	 0.144995768403069 
2415	 0.144989076771424 
2416	 0.145116365605401 
2417	 0.144997963939875 
2418	 0.145087555135062 
2419	 0.145065707699884 
2420	 0.144783924028256 
2421	 0.144639304274743 
2422	 0.144464296611159 
2423	 0.144379016811594 
2424	 0.144124464560335 
2425	 0.14387546690824 
2426	 0.144042381186214 
2427	 0.143909994065717 
2428	 0.143893015853671 
2429	 0.143994636666898 
2430	 0.143773897472777 
2431	 0.143765856348208 
2432	 0.143649412803 
2433	 0.143462120505557 
2434	 0.14311724187341 
2435	 0.142529335930427 
2436	 0.142271610506035 
2437	 0.14204102488335 
2438	 0.141833228868625 
2439	 0.142034250328728 
2440	 0.142118739588244 
2441	 0.141858492167222 
2442	 0.141538355912063 
2443	 0.140998130181453 
2444	 0.140496373175283 
2445	 0.140230218842208 
2446	 0.140024270289017 
2447	 0.139732204197232 
2448	 0.139193750564968 
2449	 0.1388920798064 
2450	 0.138953914488021 
2451	 0.138643750952397 
2452	 0.138619710888087 
2453	 0.138617775332481 
2454	 0.138022846816749 
2455	 0.137823315012549 
2456	 0.137261767927745 
2457	 0.136630725463922 
2458	 0.136418249094276 
2459	 0.135965838554233 
2460	 0.135769316640646 
2461	 0.135471852289059 
2462	 0.134824795843992 
2463	 0.134207138347791 
2464	 0.133818945288131 
2465	 0.133714893831375 
2466	 0.133523455910239 
2467	 0.13349662583 
2468	 0.133456129098162 
2469	 0.133028940049795 
2470	 0.132643237419771 
2471	 0.132128927752101 
2472	 0.131710948741457 
2473	 0.131454072867514 
2474	 0.13140296509301 
2475	 0.131937654629178 
2476	 0.132003121259109 
2477	 0.131738760796121 
2478	 0.131627494466582 
2479	 0.131039884748156 
2480	 0.13103628603918 
2481	 0.130811238071268 
2482	 0.130382374316724 
2483	 0.130194453449686 
2484	 0.129848992992799 
2485	 0.13037657342966 
2486	 0.131059358169466 
2487	 0.131625747526791 
2488	 0.132495068248084 
2489	 0.132410268832062 
2490	 0.131642405181363 
2491	 0.131497331261313 
2492	 0.131712399031691 
2493	 0.131755716673138 
2494	 0.132252110025487 
2495	 0.133247901588354 
2496	 0.13318017749602 
2497	 0.13343219868123 
2498	 0.134711662849428 
2499	 0.135002323975229 
2500	 0.13551675091913 
