Wavelength	Tablay400008.asd
350	 0.255249869883809 
351	 0.248104488109553 
352	 0.208746691267358 
353	 0.17088371930735 
354	 0.203982843037102 
355	 0.220910181458618 
356	 0.210353595715929 
357	 0.189050464957635 
358	 0.19405270556883 
359	 0.19503828087461 
360	 0.18914433239301 
361	 0.186536940805412 
362	 0.168773331473419 
363	 0.172192921526635 
364	 0.193408424521287 
365	 0.169758458166872 
366	 0.159594987237987 
367	 0.162916559714192 
368	 0.166560051106488 
369	 0.165663968226545 
370	 0.151266913643971 
371	 0.141320472043204 
372	 0.160918796431782 
373	 0.160044620889188 
374	 0.149139190076623 
375	 0.137516589911902 
376	 0.124331598315208 
377	 0.120341467396419 
378	 0.127195722714838 
379	 0.137994000148037 
380	 0.12604997197095 
381	 0.129484981689726 
382	 0.138718934628296 
383	 0.121205208956868 
384	 0.114441529607003 
385	 0.111218461009958 
386	 0.108234354483993 
387	 0.115805129685118 
388	 0.124559381039873 
389	 0.12590721538085 
390	 0.116077782386691 
391	 0.103628534953965 
392	 0.105008250401675 
393	 0.114878652348623 
394	 0.114745487035912 
395	 0.107092095790769 
396	 9.81647206590592E-02 
397	 9.26210973723493E-02 
398	 9.21017752349626E-02 
399	 9.70710356568086E-02 
400	 0.101230655822388 
401	 9.94476656863781E-02 
402	 9.76382531998522E-02 
403	 9.68347105924814E-02 
404	 9.66509672920982E-02 
405	 9.56849949202708E-02 
406	 0.091328358027575 
407	 0.090554238899266 
408	 9.42641387365524E-02 
409	 8.94785729334257E-02 
410	 8.56292903472492E-02 
411	 8.48260790987074E-02 
412	 0.086196677726163 
413	 8.75014350543677E-02 
414	 8.48580938108273E-02 
415	 8.11604255383843E-02 
416	 8.43657336805489E-02 
417	 8.51370937637843E-02 
418	 8.31395423227193E-02 
419	 8.07460426687923E-02 
420	 8.33373448802425E-02 
421	 8.07540212187394E-02 
422	 7.77136571000513E-02 
423	 8.18206274294467E-02 
424	 7.85035583616984E-02 
425	 7.68239306432108E-02 
426	 7.90846030293762E-02 
427	 7.84349619535459E-02 
428	 7.90467843808284E-02 
429	 7.97746444697799E-02 
430	 0.079308815063312 
431	 0.078916211429775 
432	 7.91000295325483E-02 
433	 7.96779954988568E-02 
434	 8.00596739214064E-02 
435	 7.96125948894989E-02 
436	 8.03081460216023E-02 
437	 8.19489716476378E-02 
438	 8.06649558866452E-02 
439	 8.08616709248138E-02 
440	 8.17669721521204E-02 
441	 8.16887793019517E-02 
442	 8.13754614834189E-02 
443	 8.15459501532996E-02 
444	 0.082106697368719 
445	 8.23766693732935E-02 
446	 8.27756876025994E-02 
447	 8.25827442748879E-02 
448	 8.21628825484794E-02 
449	 8.48226151464147E-02 
450	 0.085821002861874 
451	 8.61347500047632E-02 
452	 8.80864524227104E-02 
453	 8.84540767632777E-02 
454	 8.80908168913425E-02 
455	 0.088119980010466 
456	 8.95728511652371E-02 
457	 9.00308385411408E-02 
458	 0.090980472167775 
459	 9.34107577802446E-02 
460	 9.45712297288251E-02 
461	 9.46805735590237E-02 
462	 9.48498185486595E-02 
463	 9.64355515446248E-02 
464	 9.83307035707971E-02 
465	 9.95786023479301E-02 
466	 0.100295428196943 
467	 0.102134739267418 
468	 0.103706934706236 
469	 0.104771252886852 
470	 0.105590049246369 
471	 0.106938080564251 
472	 0.10890149648302 
473	 0.11086310580251 
474	 0.111861209165784 
475	 0.113753716073821 
476	 0.115667250485374 
477	 0.117056728303149 
478	 0.11899482608271 
479	 0.120999864896094 
480	 0.12300248209256 
481	 0.125028320414992 
482	 0.126792174982078 
483	 0.128718048863537 
484	 0.130870983931387 
485	 0.132870282835488 
486	 0.135027726357114 
487	 0.137017763730061 
488	 0.138660318086256 
489	 0.140597450694336 
490	 0.142705765074086 
491	 0.144765194790861 
492	 0.146560791751808 
493	 0.148511804017768 
494	 0.150583452655306 
495	 0.152660687127098 
496	 0.154609280031836 
497	 0.156294435538618 
498	 0.157974609636371 
499	 0.159892232508589 
500	 0.161625343727039 
501	 0.163413430641985 
502	 0.165164629257694 
503	 0.166533095342173 
504	 0.168248837022019 
505	 0.170066518861514 
506	 0.171756579912118 
507	 0.173579635699141 
508	 0.17517935648674 
509	 0.176693422026153 
510	 0.178376889920685 
511	 0.179706260339051 
512	 0.181019835868054 
513	 0.18253971928663 
514	 0.184256277840706 
515	 0.185799031474483 
516	 0.187276762591219 
517	 0.188819841120166 
518	 0.190149655159715 
519	 0.191518231294688 
520	 0.192902090771506 
521	 0.194123763628914 
522	 0.195578128695211 
523	 0.197118286349663 
524	 0.198614384680947 
525	 0.200156681841482 
526	 0.201428923614089 
527	 0.202595879849585 
528	 0.203945858411082 
529	 0.205410254742493 
530	 0.206790562405598 
531	 0.208065474359376 
532	 0.209395622087446 
533	 0.21071956066493 
534	 0.211913182254053 
535	 0.212965210128975 
536	 0.214212354908245 
537	 0.215505098602078 
538	 0.216766859148981 
539	 0.21796761294868 
540	 0.219109896886882 
541	 0.220239572943271 
542	 0.221392859781019 
543	 0.222580268739878 
544	 0.223847496288702 
545	 0.224997902980355 
546	 0.225912975154639 
547	 0.227132789018513 
548	 0.228383736660032 
549	 0.229602049955213 
550	 0.230926182730806 
551	 0.232187617879802 
552	 0.233417040515526 
553	 0.234677942143561 
554	 0.236039574315372 
555	 0.237227331187785 
556	 0.238276933147911 
557	 0.239362559226465 
558	 0.240440159057777 
559	 0.241498861669676 
560	 0.242537803077718 
561	 0.243571904616063 
562	 0.244394658681528 
563	 0.245174175116111 
564	 0.246061498281132 
565	 0.246719861684874 
566	 0.247426176373592 
567	 0.248200426023799 
568	 0.248885311901058 
569	 0.249689653606782 
570	 0.250635662391461 
571	 0.251659965502839 
572	 0.252590604488614 
573	 0.253484766350071 
574	 0.254258236207565 
575	 0.25483379461071 
576	 0.255438198089095 
577	 0.256064037749189 
578	 0.256641601787003 
579	 0.257056671573802 
580	 0.257481293334598 
581	 0.257984670959923 
582	 0.258568998368064 
583	 0.259124163604427 
584	 0.259667615286188 
585	 0.260183299174416 
586	 0.26065102424747 
587	 0.26117162754448 
588	 0.261696229900873 
589	 0.262219807008216 
590	 0.262836966316304 
591	 0.263507736188977 
592	 0.264168471909972 
593	 0.264801667872075 
594	 0.265641672913691 
595	 0.266390183242779 
596	 0.267024782629958 
597	 0.267763877520943 
598	 0.268385194597665 
599	 0.268890773490824 
600	 0.269343959906579 
601	 0.269866578529574 
602	 0.270229918528188 
603	 0.270527780433531 
604	 0.270949909884195 
605	 0.271297501774687 
606	 0.271632791105403 
607	 0.271983454620294 
608	 0.272308741209799 
609	 0.272630534851024 
610	 0.272957904973705 
611	 0.273283789804835 
612	 0.273540663705719 
613	 0.273911550641939 
614	 0.274351867818704 
615	 0.274681754812632 
616	 0.274971161595854 
617	 0.275282176883899 
618	 0.275615287348451 
619	 0.275860889472553 
620	 0.276108654037792 
621	 0.276434029893823 
622	 0.276842787492822 
623	 0.27704418109139 
624	 0.277242641690801 
625	 0.277532512699534 
626	 0.277875148005774 
627	 0.278094269436656 
628	 0.278257227792265 
629	 0.278471413696966 
630	 0.278839749136939 
631	 0.279079534012295 
632	 0.279203971018101 
633	 0.279356152802629 
634	 0.279524980300093 
635	 0.279746708750946 
636	 0.2799924258154 
637	 0.28015346786565 
638	 0.280301534351346 
639	 0.28047727325019 
640	 0.280687943595002 
641	 0.280863227506613 
642	 0.28101535962349 
643	 0.281140520210546 
644	 0.281236113890877 
645	 0.281391429537568 
646	 0.281575835966531 
647	 0.281749116285929 
648	 0.281884888904476 
649	 0.28193339370231 
650	 0.282000161274296 
651	 0.282182170464249 
652	 0.282337266384246 
653	 0.282417613227871 
654	 0.282464432920578 
655	 0.28258096333102 
656	 0.282724157927203 
657	 0.282779860405929 
658	 0.282746188903932 
659	 0.282882149988604 
660	 0.283013357152566 
661	 0.283075797435851 
662	 0.283070770837093 
663	 0.283120001121053 
664	 0.28323250154835 
665	 0.283360237435965 
666	 0.283412342581185 
667	 0.283492530417102 
668	 0.283505106231501 
669	 0.283424540431116 
670	 0.283501466620857 
671	 0.283605299547102 
672	 0.283678162574157 
673	 0.283695315411243 
674	 0.283633905239676 
675	 0.283595450265322 
676	 0.283626689560156 
677	 0.283695367812255 
678	 0.283722513486882 
679	 0.283724043703304 
680	 0.283721678517301 
681	 0.283659093333331 
682	 0.283708138360654 
683	 0.283805967045524 
684	 0.283774947419191 
685	 0.283650767095721 
686	 0.283592512675717 
687	 0.283642933909427 
688	 0.283667336727973 
689	 0.283703810021481 
690	 0.283669208723519 
691	 0.283543705438621 
692	 0.283621730667442 
693	 0.283653795153995 
694	 0.283634289496657 
695	 0.283687599290537 
696	 0.283566387642949 
697	 0.283480234979583 
698	 0.283531809876265 
699	 0.283576145454888 
700	 0.283605156836642 
701	 0.283593318545455 
702	 0.283525702674389 
703	 0.283402289377139 
704	 0.283403832344087 
705	 0.28349371416645 
706	 0.283490317925073 
707	 0.283410469381595 
708	 0.283342043527569 
709	 0.283325477496046 
710	 0.283304682266612 
711	 0.283313514627345 
712	 0.283329571688057 
713	 0.283314059087326 
714	 0.283225010224663 
715	 0.283158080325282 
716	 0.283163778079591 
717	 0.283239213121473 
718	 0.283243012043693 
719	 0.283163145858598 
720	 0.283062736261164 
721	 0.283091067778506 
722	 0.283201856667482 
723	 0.283315022237973 
724	 0.283355598354482 
725	 0.283320175531153 
726	 0.283299383383854 
727	 0.283305082340845 
728	 0.283303152032119 
729	 0.283445449714217 
730	 0.283505410999497 
731	 0.283419380207859 
732	 0.283461390466393 
733	 0.283603291820624 
734	 0.283759316970095 
735	 0.283848725460999 
736	 0.283908961593413 
737	 0.283920299166681 
738	 0.283904107060783 
739	 0.28391054898818 
740	 0.283983409072213 
741	 0.284073940580388 
742	 0.284129396585301 
743	 0.284109861914508 
744	 0.284131618578872 
745	 0.284209671076629 
746	 0.284311936481257 
747	 0.284355947143779 
748	 0.284419143178516 
749	 0.284513900839586 
750	 0.284614196621259 
751	 0.28472333623007 
752	 0.284833918814962 
753	 0.284940613560909 
754	 0.28504226311768 
755	 0.285197221019302 
756	 0.285344821000252 
757	 0.285448877963644 
758	 0.285630410939917 
759	 0.285773768215013 
760	 0.285879654526057 
761	 0.286008117068664 
762	 0.286209837604277 
763	 0.286403731212043 
764	 0.286548608109721 
765	 0.286663594861033 
766	 0.286861441611498 
767	 0.287082732820847 
768	 0.287258721150763 
769	 0.287372523541436 
770	 0.287548591499721 
771	 0.287770305033974 
772	 0.287971085159286 
773	 0.288132266280026 
774	 0.288327616384921 
775	 0.288559547738954 
776	 0.288768865705003 
777	 0.288935493584424 
778	 0.289113259935799 
779	 0.289323743325234 
780	 0.289514719441102 
781	 0.289713524106149 
782	 0.289916320412747 
783	 0.29010918382681 
784	 0.290268580363434 
785	 0.290458500083923 
786	 0.290651416437439 
787	 0.290785371341905 
788	 0.290966276757954 
789	 0.291171786404987 
790	 0.291371819053762 
791	 0.291544057179266 
792	 0.291679266357104 
793	 0.29185310210674 
794	 0.292102182467395 
795	 0.292334930234611 
796	 0.292522745402361 
797	 0.292707226066247 
798	 0.292931022367336 
799	 0.293086791379458 
800	 0.293241541106603 
801	 0.293454689479604 
802	 0.293753425738215 
803	 0.293984259726603 
804	 0.294186377832848 
805	 0.294398202123942 
806	 0.29461470787438 
807	 0.294809614122484 
808	 0.29502934646283 
809	 0.295288925721412 
810	 0.295451340260082 
811	 0.295673071317158 
812	 0.295895957982385 
813	 0.296012068983307 
814	 0.296220473556711 
815	 0.296414442671432 
816	 0.296571562884832 
817	 0.296753146321732 
818	 0.296890753005468 
819	 0.297015706717877 
820	 0.297165163733995 
821	 0.297360284390775 
822	 0.297527489424605 
823	 0.297656758252958 
824	 0.297765084397746 
825	 0.29788639967985 
826	 0.298025822641505 
827	 0.298150419063812 
828	 0.298222293807804 
829	 0.298281842547426 
830	 0.298366696126679 
831	 0.298450990328846 
832	 0.298470640378935 
833	 0.298585101004543 
834	 0.298667057844484 
835	 0.298677984368097 
836	 0.298776459627835 
837	 0.298872402199881 
838	 0.29894624786433 
839	 0.298996037735923 
840	 0.299010788317016 
841	 0.299110196722468 
842	 0.299209482379217 
843	 0.299192140986098 
844	 0.299229784992479 
845	 0.299296028983712 
846	 0.299367643751452 
847	 0.299430940759516 
848	 0.299490729089446 
849	 0.299533753590251 
850	 0.29959223901549 
851	 0.299746327393963 
852	 0.299824861024568 
853	 0.299878530024369 
854	 0.299958989663494 
855	 0.300012051647604 
856	 0.30015589072866 
857	 0.300280642139984 
858	 0.300276612072186 
859	 0.300302910237171 
860	 0.300350543268245 
861	 0.300404862490421 
862	 0.300442592783686 
863	 0.300417510276028 
864	 0.300446387588301 
865	 0.30052018862139 
866	 0.30052746245442 
867	 0.300583940554129 
868	 0.300592421903585 
869	 0.300542813346046 
870	 0.30057481316721 
871	 0.300615063318426 
872	 0.30059535751567 
873	 0.300510853485673 
874	 0.300485564651895 
875	 0.300533226235808 
876	 0.300561824409069 
877	 0.300491578042355 
878	 0.300416512305982 
879	 0.300334344152534 
880	 0.300265088915256 
881	 0.300234631659907 
882	 0.300256952664703 
883	 0.300242804717922 
884	 0.300170239643684 
885	 0.300083613272279 
886	 0.300067309817722 
887	 0.300032767883935 
888	 0.299978202474559 
889	 0.300013102070536 
890	 0.300029901979766 
891	 0.299944243174564 
892	 0.299784156734599 
893	 0.299746794744841 
894	 0.29981989606073 
895	 0.299843280472381 
896	 0.299743881511158 
897	 0.299778438888255 
898	 0.299745425257339 
899	 0.299704183363673 
900	 0.299763144214928 
901	 0.299874608460587 
902	 0.299940560369256 
903	 0.299933569199325 
904	 0.299885547801313 
905	 0.299879591052426 
906	 0.300001364892153 
907	 0.300161038178293 
908	 0.300185970712499 
909	 0.30028342853299 
910	 0.300359472042213 
911	 0.300415562719469 
912	 0.300551756489454 
913	 0.300505856201157 
914	 0.300538933499427 
915	 0.300728138873301 
916	 0.30080294045783 
917	 0.300822514675945 
918	 0.30083366450999 
919	 0.300864640239908 
920	 0.300903444504882 
921	 0.301008740427336 
922	 0.301094457930878 
923	 0.301108039093041 
924	 0.30117222220114 
925	 0.301300545758214 
926	 0.301399435203932 
927	 0.301395046463836 
928	 0.301404844873648 
929	 0.301424649236951 
930	 0.301473632339094 
931	 0.301557135270702 
932	 0.30158870462337 
933	 0.301724400329892 
934	 0.301821321616293 
935	 0.301690246003838 
936	 0.301815280500256 
937	 0.301965269476212 
938	 0.302024359744279 
939	 0.302016482565847 
940	 0.302100296597099 
941	 0.302205323049301 
942	 0.302298600407372 
943	 0.302387394295685 
944	 0.302355430837995 
945	 0.302387977153139 
946	 0.302503015200857 
947	 0.302523565864988 
948	 0.302542263401222 
949	 0.302586145598838 
950	 0.302665922545479 
951	 0.302773647256434 
952	 0.302768882155736 
953	 0.302780261467298 
954	 0.302916201773324 
955	 0.30316105935045 
956	 0.303045631445329 
957	 0.302971395522568 
958	 0.303151235237118 
959	 0.303163307884142 
960	 0.303348942641791 
961	 0.30354060899769 
962	 0.303609473818766 
963	 0.303735555501143 
964	 0.303791718474295 
965	 0.303836096604362 
966	 0.303938572690473 
967	 0.304081124127276 
968	 0.304348786996334 
969	 0.304601811896442 
970	 0.304725026898959 
971	 0.304829615269902 
972	 0.304926951095135 
973	 0.305058062615997 
974	 0.305228065441085 
975	 0.305327348929186 
976	 0.3055481351772 
977	 0.305690388398331 
978	 0.305628519720685 
979	 0.305838104908524 
980	 0.306118363858235 
981	 0.306300729502441 
982	 0.306356147853222 
983	 0.306687980847187 
984	 0.306721299508143 
985	 0.306645164525307 
986	 0.306803337714647 
987	 0.307096665072718 
988	 0.307188605033413 
989	 0.307227590508198 
990	 0.307405252310141 
991	 0.307403535495552 
992	 0.307265757644468 
993	 0.307289019634562 
994	 0.307631299906535 
995	 0.307677402440394 
996	 0.307938617967402 
997	 0.30814749405067 
998	 0.308005553201977 
999	 0.308072823485532 
1000	 0.307968126939938 
1001	 0.292920430664058 
1002	 0.292865890663494 
1003	 0.292862402029022 
1004	 0.292838656548858 
1005	 0.292846549692556 
1006	 0.292890414698441 
1007	 0.292963700753116 
1008	 0.292956695919854 
1009	 0.292953330763377 
1010	 0.29295429393803 
1011	 0.292873416004161 
1012	 0.292834818034137 
1013	 0.292867686847871 
1014	 0.29287702488809 
1015	 0.29286803307012 
1016	 0.292837988149119 
1017	 0.292817546009177 
1018	 0.292775955790858 
1019	 0.292774160218903 
1020	 0.292744573274227 
1021	 0.292780852176576 
1022	 0.292926745445124 
1023	 0.292972785386571 
1024	 0.292964931759261 
1025	 0.293027077344259 
1026	 0.293080856564954 
1027	 0.293148235643146 
1028	 0.293298786417957 
1029	 0.293354740928728 
1030	 0.293405997085541 
1031	 0.293506106743294 
1032	 0.293606575406218 
1033	 0.29377686518225 
1034	 0.293930558661686 
1035	 0.294035839105335 
1036	 0.294181080575792 
1037	 0.294366738598116 
1038	 0.294489954699546 
1039	 0.294589934445436 
1040	 0.294682964731277 
1041	 0.294741013668043 
1042	 0.294786314695583 
1043	 0.294801410848655 
1044	 0.294912457528353 
1045	 0.294983465246028 
1046	 0.294962992055138 
1047	 0.295050506254559 
1048	 0.295068436503196 
1049	 0.294967751941269 
1050	 0.295005763103082 
1051	 0.295062958390546 
1052	 0.2950541018059 
1053	 0.295045064481644 
1054	 0.295073189552143 
1055	 0.295037849277672 
1056	 0.294934395570582 
1057	 0.294880335575445 
1058	 0.294853948808772 
1059	 0.294763995869749 
1060	 0.294736345413066 
1061	 0.294692436880029 
1062	 0.294594104614643 
1063	 0.294587828557823 
1064	 0.294523000472769 
1065	 0.294347014631833 
1066	 0.294271338434193 
1067	 0.294254297540814 
1068	 0.294193462268552 
1069	 0.294173634857596 
1070	 0.294097304516733 
1071	 0.294000473701667 
1072	 0.293798923632638 
1073	 0.293655566279489 
1074	 0.293586954185045 
1075	 0.293547890529951 
1076	 0.29350838122052 
1077	 0.293439437454859 
1078	 0.293329625754102 
1079	 0.293244980343447 
1080	 0.293179403587118 
1081	 0.293031530563344 
1082	 0.292915268982755 
1083	 0.292859565995292 
1084	 0.292781946886709 
1085	 0.292756779525227 
1086	 0.29270815060005 
1087	 0.292674491506397 
1088	 0.29254596110736 
1089	 0.292456934503754 
1090	 0.292421093303015 
1091	 0.292400357378127 
1092	 0.292445346232158 
1093	 0.29246542115656 
1094	 0.292438084319362 
1095	 0.292441823898139 
1096	 0.292398547514127 
1097	 0.292319569667114 
1098	 0.292294824551668 
1099	 0.292322815706234 
1100	 0.292358610646106 
1101	 0.292422295147337 
1102	 0.292537294138469 
1103	 0.292606857710491 
1104	 0.29264753351972 
1105	 0.292666795333904 
1106	 0.292729416427616 
1107	 0.292765212522262 
1108	 0.292802276701893 
1109	 0.292856887024401 
1110	 0.292893902864135 
1111	 0.292955615646237 
1112	 0.293026942440008 
1113	 0.293122142292603 
1114	 0.293262554833862 
1115	 0.293388809894916 
1116	 0.293490829032328 
1117	 0.293594169912624 
1118	 0.293712489997749 
1119	 0.293823399063355 
1120	 0.293935430375647 
1121	 0.294055835132413 
1122	 0.294201873751079 
1123	 0.294321855232481 
1124	 0.294446729614034 
1125	 0.294602525454522 
1126	 0.294748570913645 
1127	 0.294910697845581 
1128	 0.295071136918464 
1129	 0.295215521122337 
1130	 0.295361142655701 
1131	 0.295530358030536 
1132	 0.295678540865248 
1133	 0.295805142490819 
1134	 0.295971519362236 
1135	 0.296120731945385 
1136	 0.296253858414091 
1137	 0.296384049011068 
1138	 0.296515439312442 
1139	 0.296639543386434 
1140	 0.296750801914239 
1141	 0.296858379716373 
1142	 0.296974633579327 
1143	 0.297102009573552 
1144	 0.29721363916082 
1145	 0.297310568752636 
1146	 0.297439948727592 
1147	 0.297567514690973 
1148	 0.297677305037998 
1149	 0.297783353556619 
1150	 0.297874205977481 
1151	 0.297955356321232 
1152	 0.298036652182517 
1153	 0.298120941107091 
1154	 0.298211031638616 
1155	 0.298316237823836 
1156	 0.298378467680148 
1157	 0.298410791844138 
1158	 0.298461615731952 
1159	 0.298491268327795 
1160	 0.298515839159136 
1161	 0.29862128145802 
1162	 0.298748232693743 
1163	 0.2988235749278 
1164	 0.298881498341078 
1165	 0.298888317122959 
1166	 0.298876578457395 
1167	 0.298884808847269 
1168	 0.298927164532722 
1169	 0.298986688763997 
1170	 0.299102260095219 
1171	 0.299140536621014 
1172	 0.299165056832047 
1173	 0.299185448353562 
1174	 0.29916160090472 
1175	 0.299154315734837 
1176	 0.29915307734409 
1177	 0.29915564334451 
1178	 0.299165832571732 
1179	 0.299149725426114 
1180	 0.299118696373259 
1181	 0.299101175457547 
1182	 0.299062939146894 
1183	 0.299002852033182 
1184	 0.298972757266168 
1185	 0.298953883321763 
1186	 0.298927718636642 
1187	 0.298896712766942 
1188	 0.298870147440535 
1189	 0.298836330074708 
1190	 0.298827959922614 
1191	 0.298839233822403 
1192	 0.298830993260336 
1193	 0.29881873039227 
1194	 0.298828697345055 
1195	 0.298840475141733 
1196	 0.298853444753431 
1197	 0.298884323172528 
1198	 0.298918320675652 
1199	 0.298956635109893 
1200	 0.298993323729708 
1201	 0.299075203674068 
1202	 0.299161717695409 
1203	 0.299225148526963 
1204	 0.299329435376556 
1205	 0.299462174339828 
1206	 0.29962912539799 
1207	 0.299791907502103 
1208	 0.299965998340476 
1209	 0.300169073282942 
1210	 0.300360097091696 
1211	 0.300609395485704 
1212	 0.300929098207569 
1213	 0.301243819804998 
1214	 0.301575648957969 
1215	 0.301931229811903 
1216	 0.302298882489076 
1217	 0.302686033137225 
1218	 0.303098567990464 
1219	 0.30353552356683 
1220	 0.303965885747857 
1221	 0.304439141839032 
1222	 0.30489442508928 
1223	 0.305342128905145 
1224	 0.3058027883747 
1225	 0.306272301088452 
1226	 0.306722456012358 
1227	 0.307186160749224 
1228	 0.307609304755615 
1229	 0.308005637539743 
1230	 0.308397116003919 
1231	 0.308772588186732 
1232	 0.309139069733827 
1233	 0.309495479342716 
1234	 0.309831812772088 
1235	 0.310143333070489 
1236	 0.310455761191846 
1237	 0.31076977210355 
1238	 0.31105842648557 
1239	 0.311314057535999 
1240	 0.311594561279911 
1241	 0.311866923933025 
1242	 0.312107345020213 
1243	 0.312365515036006 
1244	 0.312627842115027 
1245	 0.312903376611018 
1246	 0.313178968069792 
1247	 0.313463394397565 
1248	 0.313773436693509 
1249	 0.314065609040168 
1250	 0.31433963820917 
1251	 0.314637139151654 
1252	 0.314933027712283 
1253	 0.315253554319264 
1254	 0.315614072918136 
1255	 0.315946035327508 
1256	 0.316282434061154 
1257	 0.316615293949726 
1258	 0.316920667981537 
1259	 0.317246154578612 
1260	 0.3175746860794 
1261	 0.317921828152559 
1262	 0.318297329570972 
1263	 0.318674157464372 
1264	 0.319007552826336 
1265	 0.319343471697171 
1266	 0.319646449801034 
1267	 0.319894635064922 
1268	 0.320168979818302 
1269	 0.320446825977682 
1270	 0.320716896086598 
1271	 0.320991140947259 
1272	 0.321233751445758 
1273	 0.321469254799541 
1274	 0.321678465667029 
1275	 0.321858991845447 
1276	 0.322024562897999 
1277	 0.322158538815373 
1278	 0.322302235534254 
1279	 0.322446971180863 
1280	 0.32256284776933 
1281	 0.322665208733143 
1282	 0.322764538223919 
1283	 0.322836771529299 
1284	 0.322905269146626 
1285	 0.322970186779668 
1286	 0.323040182364233 
1287	 0.323098769446737 
1288	 0.323133794745981 
1289	 0.323197877194411 
1290	 0.323282294762558 
1291	 0.323340539694788 
1292	 0.323399834336064 
1293	 0.323449344767988 
1294	 0.323483930877594 
1295	 0.323512885227749 
1296	 0.32352641324941 
1297	 0.323562647342435 
1298	 0.323592969080013 
1299	 0.323636393273169 
1300	 0.323706932770949 
1301	 0.323767578894052 
1302	 0.323810770507095 
1303	 0.32388058531111 
1304	 0.323952531478283 
1305	 0.324051542670371 
1306	 0.324182246932583 
1307	 0.324313632964545 
1308	 0.324456931748468 
1309	 0.32462536418467 
1310	 0.324756467472536 
1311	 0.324874838313044 
1312	 0.325005004263177 
1313	 0.325113678922087 
1314	 0.325259014059333 
1315	 0.325412779875138 
1316	 0.325603974997263 
1317	 0.325828608250777 
1318	 0.326044159540881 
1319	 0.326299794335959 
1320	 0.326516968346351 
1321	 0.326703318080719 
1322	 0.326913121392039 
1323	 0.327114006267147 
1324	 0.327335251945186 
1325	 0.327579133015414 
1326	 0.327817433060702 
1327	 0.328066743496875 
1328	 0.328307128859679 
1329	 0.32853075579918 
1330	 0.32877649942795 
1331	 0.329025703060345 
1332	 0.329285649672247 
1333	 0.329566737008663 
1334	 0.329850577941093 
1335	 0.33012776780345 
1336	 0.330419681266268 
1337	 0.330660698736822 
1338	 0.330872901344448 
1339	 0.331105581110786 
1340	 0.331310887663987 
1341	 0.331539901731617 
1342	 0.331802951319018 
1343	 0.332034983930414 
1344	 0.332255182878308 
1345	 0.33246809703745 
1346	 0.332676037317919 
1347	 0.332869639737862 
1348	 0.333058638731519 
1349	 0.333225117812281 
1350	 0.333378308114487 
1351	 0.333516161003982 
1352	 0.333624486766952 
1353	 0.333739664561591 
1354	 0.33384917379892 
1355	 0.333954191581879 
1356	 0.334047125365138 
1357	 0.334152383128466 
1358	 0.334256353642222 
1359	 0.334364689052546 
1360	 0.334478472595455 
1361	 0.334603078813217 
1362	 0.334726203207421 
1363	 0.334860025823781 
1364	 0.33499818071996 
1365	 0.335151393155746 
1366	 0.335289450178867 
1367	 0.335439844888446 
1368	 0.335545115643009 
1369	 0.335620403105984 
1370	 0.335715965987855 
1371	 0.335798884142243 
1372	 0.335872451115387 
1373	 0.335977739848771 
1374	 0.336018357347508 
1375	 0.336015888085016 
1376	 0.336002668906803 
1377	 0.335962368479108 
1378	 0.335906677786232 
1379	 0.335832811246351 
1380	 0.335740085875068 
1381	 0.335619557080229 
1382	 0.335496416909126 
1383	 0.335322591559551 
1384	 0.335208020653408 
1385	 0.335129262973596 
1386	 0.335033458194584 
1387	 0.334969452169197 
1388	 0.334892835860138 
1389	 0.334769278727498 
1390	 0.334691395699859 
1391	 0.334633503621181 
1392	 0.334591720810554 
1393	 0.334607752865397 
1394	 0.334630240329312 
1395	 0.334644063063331 
1396	 0.334686232079696 
1397	 0.334687970811395 
1398	 0.334683309393085 
1399	 0.334631553395296 
1400	 0.334576319660849 
1401	 0.334438935474683 
1402	 0.334241498456832 
1403	 0.334011521808652 
1404	 0.333714729308235 
1405	 0.333425243092902 
1406	 0.333124513914313 
1407	 0.332779483743143 
1408	 0.332397117558152 
1409	 0.332009435634135 
1410	 0.331557056847467 
1411	 0.331156569484209 
1412	 0.330775951526378 
1413	 0.330399867318672 
1414	 0.330037135033873 
1415	 0.32968496867322 
1416	 0.32932567778215 
1417	 0.328998758781244 
1418	 0.328699556209171 
1419	 0.328406843759985 
1420	 0.328141276624943 
1421	 0.3278755510862 
1422	 0.327605653501466 
1423	 0.327356722790689 
1424	 0.327127610753329 
1425	 0.326894301750056 
1426	 0.32668460303356 
1427	 0.326487819631264 
1428	 0.326278017808785 
1429	 0.32604988131242 
1430	 0.325832112693293 
1431	 0.325603543605212 
1432	 0.325391333371955 
1433	 0.325194002109956 
1434	 0.324984549419031 
1435	 0.324777657861728 
1436	 0.324558339279803 
1437	 0.324327517689729 
1438	 0.32410591870688 
1439	 0.323883284072368 
1440	 0.323656001397965 
1441	 0.323405783982682 
1442	 0.323211276663434 
1443	 0.323002863160149 
1444	 0.322880276772755 
1445	 0.322795835184669 
1446	 0.322800566191461 
1447	 0.322852015732906 
1448	 0.323006161767837 
1449	 0.323272120832719 
1450	 0.323577913751373 
1451	 0.323967093894891 
1452	 0.324395173136741 
1453	 0.324891688520661 
1454	 0.325401932476491 
1455	 0.325960812271786 
1456	 0.326539854927467 
1457	 0.327170193598975 
1458	 0.327776664093771 
1459	 0.3284146895669 
1460	 0.329023579288348 
1461	 0.329614144121862 
1462	 0.330180259330925 
1463	 0.330718608285904 
1464	 0.331259195561557 
1465	 0.331776096902454 
1466	 0.332296991367804 
1467	 0.332810250401448 
1468	 0.333336580882649 
1469	 0.333878878807 
1470	 0.334391318092414 
1471	 0.334896452297504 
1472	 0.335396883367743 
1473	 0.33590143867277 
1474	 0.336395564899929 
1475	 0.336878164442555 
1476	 0.337376625714286 
1477	 0.337836850474678 
1478	 0.338261093139606 
1479	 0.338680484860216 
1480	 0.33909764784021 
1481	 0.339482482825962 
1482	 0.339848210912536 
1483	 0.340185260794357 
1484	 0.340482001301558 
1485	 0.340790832421357 
1486	 0.341076968340819 
1487	 0.34137218562338 
1488	 0.34166869958471 
1489	 0.341972674415912 
1490	 0.342256767421181 
1491	 0.342584888847436 
1492	 0.342926098116584 
1493	 0.343306567908968 
1494	 0.343726763268679 
1495	 0.344157479232417 
1496	 0.34463521721968 
1497	 0.345089544725077 
1498	 0.345537235319378 
1499	 0.346006699370424 
1500	 0.346492164098839 
1501	 0.346961793541514 
1502	 0.347446308733387 
1503	 0.347914580386538 
1504	 0.348351059875051 
1505	 0.348805216325437 
1506	 0.349294153727111 
1507	 0.349736688533737 
1508	 0.350159770619659 
1509	 0.350571829994825 
1510	 0.350960675513285 
1511	 0.351322604460765 
1512	 0.351670563457951 
1513	 0.352001992566731 
1514	 0.352303582277554 
1515	 0.352589739940211 
1516	 0.352857182475887 
1517	 0.353118917754201 
1518	 0.353355614162783 
1519	 0.353589935586635 
1520	 0.353824774581027 
1521	 0.354058041597494 
1522	 0.354245486911013 
1523	 0.354428400383649 
1524	 0.354603627971923 
1525	 0.354752205101388 
1526	 0.354919970692135 
1527	 0.355097885172727 
1528	 0.355258787325391 
1529	 0.355416082427354 
1530	 0.355559628913402 
1531	 0.355691631485848 
1532	 0.355821702944174 
1533	 0.355938492700924 
1534	 0.356068358940776 
1535	 0.356197322964014 
1536	 0.356333040448758 
1537	 0.356469355921318 
1538	 0.356623681032615 
1539	 0.356781712373578 
1540	 0.356963193322331 
1541	 0.357155152940247 
1542	 0.35738323307017 
1543	 0.357635472393626 
1544	 0.357906552136303 
1545	 0.35820619898643 
1546	 0.35852573651083 
1547	 0.3588803869871 
1548	 0.359212145257835 
1549	 0.359564399035756 
1550	 0.359897168026231 
1551	 0.360198679154006 
1552	 0.360529250202789 
1553	 0.360881265818715 
1554	 0.361212739736364 
1555	 0.361547984577214 
1556	 0.361870331068427 
1557	 0.36216420705083 
1558	 0.362487831478369 
1559	 0.362835113055504 
1560	 0.363151443190424 
1561	 0.363460886177805 
1562	 0.363777392587227 
1563	 0.364076600136079 
1564	 0.364381548586296 
1565	 0.364703747100028 
1566	 0.365015349558079 
1567	 0.365305942103225 
1568	 0.365615464130668 
1569	 0.365946442200706 
1570	 0.366256877796935 
1571	 0.366559684553837 
1572	 0.366866162370584 
1573	 0.367152431602575 
1574	 0.36746553777638 
1575	 0.367802554955972 
1576	 0.368128102359208 
1577	 0.368467959635709 
1578	 0.368791516352122 
1579	 0.369097311346487 
1580	 0.369411612049074 
1581	 0.369723806980192 
1582	 0.370036759540424 
1583	 0.37036190081214 
1584	 0.37066917217217 
1585	 0.370940744211742 
1586	 0.371260325398107 
1587	 0.371608045790326 
1588	 0.371935241743759 
1589	 0.372278877034856 
1590	 0.372625071655633 
1591	 0.372953689007928 
1592	 0.373288022179706 
1593	 0.373658274386757 
1594	 0.373995401140358 
1595	 0.374312118664819 
1596	 0.37461490802666 
1597	 0.374877082141554 
1598	 0.375175554730058 
1599	 0.375468312757761 
1600	 0.375786133206075 
1601	 0.376170980789384 
1602	 0.376499666970947 
1603	 0.376791651575014 
1604	 0.377106544918301 
1605	 0.377408082156694 
1606	 0.377710213209494 
1607	 0.37804287643164 
1608	 0.378351395760524 
1609	 0.37863522412091 
1610	 0.378919636070504 
1611	 0.379214117820078 
1612	 0.379474718921162 
1613	 0.379712483388858 
1614	 0.379941693246597 
1615	 0.380135268499758 
1616	 0.380344554305465 
1617	 0.380560610454494 
1618	 0.380762483656012 
1619	 0.380955809063847 
1620	 0.381154304778436 
1621	 0.381356464013271 
1622	 0.381542451655106 
1623	 0.381735099327246 
1624	 0.381903756278475 
1625	 0.38202578202364 
1626	 0.382177327029379 
1627	 0.382335332505183 
1628	 0.382489265795877 
1629	 0.382670343134865 
1630	 0.382824855858731 
1631	 0.382931656988688 
1632	 0.383088750102045 
1633	 0.383279810589575 
1634	 0.383439639988158 
1635	 0.38361255723566 
1636	 0.383775104925943 
1637	 0.383891517615202 
1638	 0.38403955967862 
1639	 0.384244449237434 
1640	 0.384396273082579 
1641	 0.384535872056151 
1642	 0.384651521861824 
1643	 0.384702337321814 
1644	 0.384784479461762 
1645	 0.384883666911217 
1646	 0.384959507801478 
1647	 0.385043102585917 
1648	 0.385105665447194 
1649	 0.385149644851627 
1650	 0.385172400611627 
1651	 0.385176209298452 
1652	 0.385169990097568 
1653	 0.385143364313308 
1654	 0.385098123647603 
1655	 0.385055555768797 
1656	 0.384970279628352 
1657	 0.384833528140927 
1658	 0.384709169179106 
1659	 0.384598090284108 
1660	 0.38442168184209 
1661	 0.384233568985774 
1662	 0.383983253733686 
1663	 0.383660293326332 
1664	 0.383302745091503 
1665	 0.382937096303423 
1666	 0.382471606328208 
1667	 0.381911281654116 
1668	 0.381337566472234 
1669	 0.380709451702737 
1670	 0.380025647106923 
1671	 0.37930592015928 
1672	 0.378527503714865 
1673	 0.377683477784647 
1674	 0.376782720742327 
1675	 0.375839546339161 
1676	 0.374856340446973 
1677	 0.37382216178076 
1678	 0.372711049678248 
1679	 0.371544580506087 
1680	 0.37031318718992 
1681	 0.368977030567575 
1682	 0.367632656133144 
1683	 0.366277666152517 
1684	 0.364846128577085 
1685	 0.363381426830986 
1686	 0.361822403181811 
1687	 0.360140912410305 
1688	 0.358456396043328 
1689	 0.356736501833176 
1690	 0.354922942352748 
1691	 0.353046459240702 
1692	 0.351190843594634 
1693	 0.349280323187176 
1694	 0.347340176206729 
1695	 0.345404571496135 
1696	 0.343393702469137 
1697	 0.341295884446768 
1698	 0.339178767316071 
1699	 0.33702588690964 
1700	 0.334933902072874 
1701	 0.332804572557675 
1702	 0.330741645237504 
1703	 0.328698907495015 
1704	 0.326737715785477 
1705	 0.324763658905284 
1706	 0.322949581456613 
1707	 0.32137285134439 
1708	 0.319889102941101 
1709	 0.318560898605378 
1710	 0.317366407781805 
1711	 0.316138278125147 
1712	 0.315021480317829 
1713	 0.313960999633705 
1714	 0.312921701083577 
1715	 0.312053484488928 
1716	 0.311204015616014 
1717	 0.310367769459007 
1718	 0.309574436730346 
1719	 0.308794924275273 
1720	 0.308082658293959 
1721	 0.307439630698123 
1722	 0.306881085159804 
1723	 0.30642615905749 
1724	 0.30608074244386 
1725	 0.30586381938622 
1726	 0.305812767046816 
1727	 0.305906703886642 
1728	 0.30612597931528 
1729	 0.306591087997787 
1730	 0.307271260441142 
1731	 0.308047549926478 
1732	 0.309018980139759 
1733	 0.310025691518545 
1734	 0.311070936776121 
1735	 0.312246991877099 
1736	 0.313373989768665 
1737	 0.314452927177309 
1738	 0.31543301298817 
1739	 0.316206800343228 
1740	 0.316837492327593 
1741	 0.317350838241663 
1742	 0.317693393383579 
1743	 0.317942707018055 
1744	 0.318046701545831 
1745	 0.318090835950205 
1746	 0.317970277674581 
1747	 0.317910054236403 
1748	 0.317810235108399 
1749	 0.317746788160786 
1750	 0.317685930024825 
1751	 0.317656091837566 
1752	 0.31760269273647 
1753	 0.317695048772168 
1754	 0.317836320859593 
1755	 0.318091614104391 
1756	 0.318468907753842 
1757	 0.318876993768879 
1758	 0.319437647677909 
1759	 0.320098522340554 
1760	 0.320896652620672 
1761	 0.321833022757433 
1762	 0.322788620388619 
1763	 0.323887931134074 
1764	 0.325069326118445 
1765	 0.326329344668825 
1766	 0.327780629206393 
1767	 0.329218933851624 
1768	 0.33071353038956 
1769	 0.332281790275554 
1770	 0.333741731865607 
1771	 0.335194190117821 
1772	 0.336576203887154 
1773	 0.337838975062032 
1774	 0.339085718395466 
1775	 0.340302947804942 
1776	 0.341482674161279 
1777	 0.342551190309524 
1778	 0.343526499054875 
1779	 0.344442063298751 
1780	 0.345289628714055 
1781	 0.34612598610575 
1782	 0.34693960864928 
1783	 0.347668690841084 
1784	 0.348317812264689 
1785	 0.348892085765994 
1786	 0.34943590260863 
1787	 0.349919354527434 
1788	 0.35040019957395 
1789	 0.350860877195336 
1790	 0.351285952160427 
1791	 0.351688696610381 
1792	 0.352064395871413 
1793	 0.35237601779453 
1794	 0.352654964070051 
1795	 0.352985294663888 
1796	 0.353352940956791 
1797	 0.353709561347465 
1798	 0.354044680624232 
1799	 0.354401507086313 
1800	 0.354725058314142 
1801	 0.362808327160288 
1802	 0.363376396886369 
1803	 0.363878003769089 
1804	 0.364342740704475 
1805	 0.364887372292698 
1806	 0.365327724761533 
1807	 0.365719193888981 
1808	 0.366113715624162 
1809	 0.366468621749213 
1810	 0.366816550442827 
1811	 0.367155525603821 
1812	 0.367495062846327 
1813	 0.367810878060295 
1814	 0.368133397277885 
1815	 0.36849180832159 
1816	 0.368807475131362 
1817	 0.369125804940334 
1818	 0.369436355486461 
1819	 0.369753114297988 
1820	 0.37001233546875 
1821	 0.370368414845637 
1822	 0.370778298931136 
1823	 0.371198675302539 
1824	 0.371637860162249 
1825	 0.372086205325277 
1826	 0.372493780716978 
1827	 0.372876832926361 
1828	 0.37323035355352 
1829	 0.37355058366433 
1830	 0.373887654466516 
1831	 0.37420029398183 
1832	 0.374523510180414 
1833	 0.374849919120014 
1834	 0.375191734121471 
1835	 0.375523484332558 
1836	 0.375829234321155 
1837	 0.3761832420127 
1838	 0.376561179718574 
1839	 0.376946526812219 
1840	 0.377361911051532 
1841	 0.377777708010038 
1842	 0.378208850906197 
1843	 0.378643193976958 
1844	 0.379042647415203 
1845	 0.379407797821688 
1846	 0.379795979771207 
1847	 0.380133228036577 
1848	 0.380462023681486 
1849	 0.380816364890212 
1850	 0.381120092739286 
1851	 0.381366350335478 
1852	 0.381631581402885 
1853	 0.381918019645453 
1854	 0.382077870272798 
1855	 0.382225188710433 
1856	 0.382356080583472 
1857	 0.382410414233456 
1858	 0.382469838880926 
1859	 0.382489185499665 
1860	 0.382496486275933 
1861	 0.38242599023785 
1862	 0.382311979052395 
1863	 0.382163101852522 
1864	 0.381910144564235 
1865	 0.38159723857675 
1866	 0.381196902092305 
1867	 0.380729112313797 
1868	 0.38021511655949 
1869	 0.379664561818223 
1870	 0.379125366904351 
1871	 0.37856892463548 
1872	 0.378006501914418 
1873	 0.377446882258745 
1874	 0.376877322865562 
1875	 0.376298165984338 
1876	 0.375680707379512 
1877	 0.375084943675014 
1878	 0.374365097597382 
1879	 0.373543500182805 
1880	 0.372710521533995 
1881	 0.371709671660209 
1882	 0.370540813239825 
1883	 0.369378188818732 
1884	 0.368105560153822 
1885	 0.366584694222876 
1886	 0.365058962071026 
1887	 0.363392682691972 
1888	 0.361593612272336 
1889	 0.359864934748338 
1890	 0.358021536123932 
1891	 0.35612119183504 
1892	 0.354209781186719 
1893	 0.352207006645524 
1894	 0.350075469080722 
1895	 0.348004729241508 
1896	 0.345905356909153 
1897	 0.3437229194769 
1898	 0.341697208508669 
1899	 0.33958556492635 
1900	 0.337502088582196 
1901	 0.335550361979985 
1902	 0.333510453212673 
1903	 0.33162219983146 
1904	 0.329812140104263 
1905	 0.328056025741687 
1906	 0.326378126358859 
1907	 0.324926542031892 
1908	 0.323484211617078 
1909	 0.322135956650358 
1910	 0.320892008333025 
1911	 0.319565263785918 
1912	 0.318338548930367 
1913	 0.317183307475192 
1914	 0.316001268957611 
1915	 0.314933169592207 
1916	 0.313983216577395 
1917	 0.313048521526273 
1918	 0.312128815721583 
1919	 0.311302162016679 
1920	 0.310472540944864 
1921	 0.309696175671946 
1922	 0.308931620106139 
1923	 0.308166551974978 
1924	 0.307478070212683 
1925	 0.306801892492673 
1926	 0.306148733128606 
1927	 0.305542767222016 
1928	 0.304943399195912 
1929	 0.304345153897299 
1930	 0.303777345999268 
1931	 0.303268839225491 
1932	 0.302813573939192 
1933	 0.302447792654758 
1934	 0.302098471126994 
1935	 0.301789285246623 
1936	 0.301573239662888 
1937	 0.301409694690625 
1938	 0.301294644477206 
1939	 0.301275557898845 
1940	 0.301343068372717 
1941	 0.301446806967054 
1942	 0.301631830735058 
1943	 0.301870251559423 
1944	 0.302138101868554 
1945	 0.302434462449258 
1946	 0.302772658114992 
1947	 0.303116147808854 
1948	 0.303534936552403 
1949	 0.304023585599449 
1950	 0.304525460717386 
1951	 0.305058555210428 
1952	 0.305671141981745 
1953	 0.306328240574462 
1954	 0.307013012338767 
1955	 0.307805128607961 
1956	 0.30862519016287 
1957	 0.309436898738443 
1958	 0.31025479669851 
1959	 0.311029788775497 
1960	 0.311764836952583 
1961	 0.312467194564538 
1962	 0.313131571094113 
1963	 0.313762194666838 
1964	 0.314372439316277 
1965	 0.314919476786126 
1966	 0.315425569401737 
1967	 0.315880687560398 
1968	 0.316256877269471 
1969	 0.316626011789077 
1970	 0.316979505998888 
1971	 0.317328628341256 
1972	 0.317727545311739 
1973	 0.318123776710415 
1974	 0.3185262567131 
1975	 0.318945710785222 
1976	 0.319367734889205 
1977	 0.319787280113011 
1978	 0.320223588883941 
1979	 0.320678204039915 
1980	 0.321123794565501 
1981	 0.321586034669321 
1982	 0.322021657913371 
1983	 0.32249703005107 
1984	 0.322955290535467 
1985	 0.323373482418396 
1986	 0.323851692658523 
1987	 0.324342054754411 
1988	 0.324821063247491 
1989	 0.325360373468288 
1990	 0.325945359455158 
1991	 0.326538773732305 
1992	 0.327157576401341 
1993	 0.327810616227437 
1994	 0.328456747221746 
1995	 0.329193692412017 
1996	 0.329932195700363 
1997	 0.330658146385811 
1998	 0.331392063162483 
1999	 0.33214784236918 
2000	 0.332860966130358 
2001	 0.333604164332852 
2002	 0.334255815650487 
2003	 0.33484467341433 
2004	 0.335416314050809 
2005	 0.335940348694122 
2006	 0.336432790465297 
2007	 0.336903123143027 
2008	 0.337340092992063 
2009	 0.337741789155325 
2010	 0.33806685258331 
2011	 0.338331865591515 
2012	 0.338577554510974 
2013	 0.338794436739919 
2014	 0.33895601385004 
2015	 0.339123423667754 
2016	 0.339288846038129 
2017	 0.33941475290939 
2018	 0.339534547948123 
2019	 0.339581675793895 
2020	 0.339583935746357 
2021	 0.339543975267325 
2022	 0.339407659217156 
2023	 0.339297444849956 
2024	 0.339184371828431 
2025	 0.339054257726805 
2026	 0.338901049607187 
2027	 0.338756715039757 
2028	 0.338554216132137 
2029	 0.338297512031018 
2030	 0.338037775564311 
2031	 0.337727224465813 
2032	 0.337461811785386 
2033	 0.337206536142765 
2034	 0.336936487819203 
2035	 0.33667756050014 
2036	 0.336427849867003 
2037	 0.336111700226711 
2038	 0.3358181683323 
2039	 0.335578294554312 
2040	 0.335372524464561 
2041	 0.335150164506858 
2042	 0.33498032609749 
2043	 0.334768921641952 
2044	 0.334495511546429 
2045	 0.33429204944471 
2046	 0.334123970966644 
2047	 0.333951586134018 
2048	 0.333800812921012 
2049	 0.333665797646127 
2050	 0.333556588275257 
2051	 0.33341342625872 
2052	 0.333291724326812 
2053	 0.333187067120267 
2054	 0.333071689690454 
2055	 0.332939235526813 
2056	 0.332832005198986 
2057	 0.332752023759988 
2058	 0.332642813106153 
2059	 0.332526109340098 
2060	 0.332409756021636 
2061	 0.332296068068209 
2062	 0.332157226242441 
2063	 0.331995209392624 
2064	 0.331845750912524 
2065	 0.331679677229114 
2066	 0.3315110406937 
2067	 0.331366218922302 
2068	 0.331276930989844 
2069	 0.331157610835034 
2070	 0.33105282946859 
2071	 0.330912692485874 
2072	 0.330753609272272 
2073	 0.330598818587714 
2074	 0.330433091147126 
2075	 0.330257515268621 
2076	 0.330096958218061 
2077	 0.329895352763232 
2078	 0.329638109974438 
2079	 0.32941502330705 
2080	 0.329197952183368 
2081	 0.32896251632178 
2082	 0.328721919049429 
2083	 0.328498572185822 
2084	 0.328269916683869 
2085	 0.328022396186866 
2086	 0.327754936557081 
2087	 0.327492211919205 
2088	 0.327200580850186 
2089	 0.326863499629914 
2090	 0.326541072644841 
2091	 0.326241843013261 
2092	 0.325888314338155 
2093	 0.325488764827831 
2094	 0.325108365946667 
2095	 0.324703788526894 
2096	 0.324300441608951 
2097	 0.323914516625043 
2098	 0.323497921108113 
2099	 0.323122546748795 
2100	 0.322731298849459 
2101	 0.322301385356676 
2102	 0.321881228465233 
2103	 0.321421289468791 
2104	 0.320892511393966 
2105	 0.320394243300372 
2106	 0.319914686338734 
2107	 0.319388303418212 
2108	 0.318837169651785 
2109	 0.318277126694354 
2110	 0.317710042910358 
2111	 0.317107296671528 
2112	 0.316441781834317 
2113	 0.315813473529844 
2114	 0.315181870577617 
2115	 0.314539386617244 
2116	 0.313899657846047 
2117	 0.313309621546107 
2118	 0.312653163461531 
2119	 0.31193185251003 
2120	 0.311291103195284 
2121	 0.310650562253328 
2122	 0.310046619661937 
2123	 0.309475227172949 
2124	 0.308945740023919 
2125	 0.30847180064074 
2126	 0.307963228751828 
2127	 0.307477052378977 
2128	 0.307002057077853 
2129	 0.30643173687691 
2130	 0.30601679060909 
2131	 0.305724559438361 
2132	 0.305423594194703 
2133	 0.305202834919396 
2134	 0.305002975348325 
2135	 0.30474478342472 
2136	 0.304494845860888 
2137	 0.304275722781859 
2138	 0.304056620720413 
2139	 0.303878478571974 
2140	 0.303740052597608 
2141	 0.303603592952394 
2142	 0.303479551915097 
2143	 0.303388594087541 
2144	 0.30332224021305 
2145	 0.303271857686665 
2146	 0.303249913131839 
2147	 0.303237038818269 
2148	 0.303206534990588 
2149	 0.30325084149514 
2150	 0.303347074705696 
2151	 0.30346207820574 
2152	 0.30363404395682 
2153	 0.303825620587821 
2154	 0.304002245726261 
2155	 0.30420214210361 
2156	 0.304386609773303 
2157	 0.304576824312904 
2158	 0.3047519638675 
2159	 0.304918696466463 
2160	 0.305082938362246 
2161	 0.305243599327898 
2162	 0.305395782970052 
2163	 0.305536439503551 
2164	 0.305681130084572 
2165	 0.305844222138838 
2166	 0.305961544882316 
2167	 0.306043491021815 
2168	 0.306144363837972 
2169	 0.306198092723992 
2170	 0.30629989121424 
2171	 0.30645043885911 
2172	 0.306590701582628 
2173	 0.306741402499733 
2174	 0.306882964271652 
2175	 0.307079815688207 
2176	 0.307271598395719 
2177	 0.307475782016499 
2178	 0.307723330503209 
2179	 0.307934171851681 
2180	 0.308121773802966 
2181	 0.308330132744033 
2182	 0.308559294997569 
2183	 0.308748526298652 
2184	 0.308919195914229 
2185	 0.309102252776949 
2186	 0.30926612747901 
2187	 0.309429158723591 
2188	 0.309601980705401 
2189	 0.309774492226783 
2190	 0.309962369086998 
2191	 0.310102231185762 
2192	 0.310241323948062 
2193	 0.310344023636882 
2194	 0.310364991938419 
2195	 0.310415880227393 
2196	 0.310466984251336 
2197	 0.310524160693326 
2198	 0.3105782395103 
2199	 0.310584693527961 
2200	 0.310589432661643 
2201	 0.310583619059612 
2202	 0.310534137316136 
2203	 0.310464236339629 
2204	 0.310367238831711 
2205	 0.310212675627286 
2206	 0.310076470948075 
2207	 0.309950024346705 
2208	 0.309776912014574 
2209	 0.309575090102226 
2210	 0.30937376660097 
2211	 0.309159823031039 
2212	 0.308900864901517 
2213	 0.308613248562346 
2214	 0.308331306456387 
2215	 0.308006719207594 
2216	 0.30768384919651 
2217	 0.307397776292971 
2218	 0.30705321885009 
2219	 0.306616253514773 
2220	 0.306258092509562 
2221	 0.305922918005244 
2222	 0.305584310639098 
2223	 0.30530759246978 
2224	 0.30497133753371 
2225	 0.304505975961537 
2226	 0.304017031454028 
2227	 0.303485543251724 
2228	 0.302888061547548 
2229	 0.302258245095757 
2230	 0.301614895887378 
2231	 0.30088293436644 
2232	 0.300108836891501 
2233	 0.29918898491854 
2234	 0.298216287842136 
2235	 0.29706780285027 
2236	 0.295740034282653 
2237	 0.294374640208441 
2238	 0.292874231363608 
2239	 0.291314189463543 
2240	 0.289674092137605 
2241	 0.287960023365479 
2242	 0.286226708272586 
2243	 0.284297658441161 
2244	 0.282238981532705 
2245	 0.280085264573583 
2246	 0.277623232148281 
2247	 0.275305268649041 
2248	 0.273012831175532 
2249	 0.270662054615744 
2250	 0.268368949950671 
2251	 0.266018304401025 
2252	 0.263369910084152 
2253	 0.260843863909931 
2254	 0.258264544477096 
2255	 0.255613758291841 
2256	 0.253256720433369 
2257	 0.250901607104264 
2258	 0.248562843622931 
2259	 0.246326913922302 
2260	 0.244028318035739 
2261	 0.241669588726994 
2262	 0.239428564601752 
2263	 0.23715696341512 
2264	 0.23506856151834 
2265	 0.233160016487399 
2266	 0.231185881320335 
2267	 0.229318788728147 
2268	 0.227432808605917 
2269	 0.225491361596058 
2270	 0.223652005607226 
2271	 0.221854567913114 
2272	 0.220124972981554 
2273	 0.218513275319032 
2274	 0.216831245792793 
2275	 0.21520554373339 
2276	 0.213542360591561 
2277	 0.21184154105348 
2278	 0.210133112587963 
2279	 0.208430562686605 
2280	 0.206673405435559 
2281	 0.204883297103873 
2282	 0.203028826846764 
2283	 0.201123057223808 
2284	 0.199169756683169 
2285	 0.197175741486995 
2286	 0.195265061356541 
2287	 0.193287794794856 
2288	 0.191285298058497 
2289	 0.18935578119522 
2290	 0.187248920658323 
2291	 0.185156577768108 
2292	 0.183154657654469 
2293	 0.181027831185258 
2294	 0.178942996071883 
2295	 0.176943648266353 
2296	 0.175101196379617 
2297	 0.17347474993978 
2298	 0.172019300350842 
2299	 0.170771208375362 
2300	 0.169729879646043 
2301	 0.16890730431552 
2302	 0.168254723441979 
2303	 0.167965563247404 
2304	 0.167995048025262 
2305	 0.16819338502584 
2306	 0.168748868794698 
2307	 0.169379259380303 
2308	 0.170090203382108 
2309	 0.171183364699945 
2310	 0.172579990295038 
2311	 0.174102963133224 
2312	 0.176112788407111 
2313	 0.177864419592082 
2314	 0.179641300301049 
2315	 0.181403966852964 
2316	 0.183102765391804 
2317	 0.184788243267316 
2318	 0.186650358500713 
2319	 0.188144144547308 
2320	 0.189492585574166 
2321	 0.190636209371668 
2322	 0.191489088459542 
2323	 0.192236370818888 
2324	 0.192840666021279 
2325	 0.193268536790252 
2326	 0.193477683841231 
2327	 0.193578163104141 
2328	 0.193531062829236 
2329	 0.193353393917084 
2330	 0.193053145096392 
2331	 0.192569518055727 
2332	 0.19193635505859 
2333	 0.191144684928015 
2334	 0.190166065749016 
2335	 0.189190877973433 
2336	 0.188033356028275 
2337	 0.186625075589776 
2338	 0.185379754347712 
2339	 0.184050305461167 
2340	 0.182762945757882 
2341	 0.181687577136593 
2342	 0.180513865560667 
2343	 0.179447475951463 
2344	 0.178586881967621 
2345	 0.177941516669595 
2346	 0.1775224493491 
2347	 0.177322190247964 
2348	 0.177433373218566 
2349	 0.177901649993144 
2350	 0.178592660994108 
2351	 0.179595789584428 
2352	 0.180867014204007 
2353	 0.182184912445837 
2354	 0.183561582382241 
2355	 0.184989775495525 
2356	 0.186188790277304 
2357	 0.187133252396076 
2358	 0.18803847518724 
2359	 0.188752800197012 
2360	 0.189348401464992 
2361	 0.189923217832464 
2362	 0.190381982798629 
2363	 0.190682805902309 
2364	 0.190878735638409 
2365	 0.190944993230348 
2366	 0.19086898315074 
2367	 0.190817510350776 
2368	 0.190787759142965 
2369	 0.190721035882377 
2370	 0.190717385308574 
2371	 0.190738281332884 
2372	 0.190650571633214 
2373	 0.190571613067136 
2374	 0.19050266361578 
2375	 0.190431267123217 
2376	 0.190425124693451 
2377	 0.190503546115229 
2378	 0.190650648245303 
2379	 0.190673871209738 
2380	 0.190670878135314 
2381	 0.190690052875363 
2382	 0.190721868216717 
2383	 0.190698687370867 
2384	 0.190840676259217 
2385	 0.191105097654547 
2386	 0.191333403154928 
2387	 0.191638934306718 
2388	 0.191829453066313 
2389	 0.191977482323876 
2390	 0.192117258923925 
2391	 0.192231582977239 
2392	 0.192419638736634 
2393	 0.192645424925381 
2394	 0.192718963886368 
2395	 0.192677748779834 
2396	 0.192784969052521 
2397	 0.192851678121332 
2398	 0.192985292294776 
2399	 0.193395652617702 
2400	 0.193428113623103 
2401	 0.193134351948481 
2402	 0.193241843707215 
2403	 0.193322880525606 
2404	 0.193558470489822 
2405	 0.193914571597807 
2406	 0.194018045568758 
2407	 0.194070764311166 
2408	 0.194143660824152 
2409	 0.194134964478161 
2410	 0.194123667519196 
2411	 0.194093670706525 
2412	 0.19413910589309 
2413	 0.194192763613204 
2414	 0.19434477868048 
2415	 0.194395150703863 
2416	 0.194305854655873 
2417	 0.19435362111101 
2418	 0.194216630319983 
2419	 0.19414281761883 
2420	 0.194423946491565 
2421	 0.194561080511965 
2422	 0.19477512695302 
2423	 0.195135035238235 
2424	 0.195274533012929 
2425	 0.195530187567838 
2426	 0.19552628403208 
2427	 0.195447565211473 
2428	 0.195500451131243 
2429	 0.195061641681593 
2430	 0.194848683196562 
2431	 0.194839072852167 
2432	 0.194802012641463 
2433	 0.195079670819884 
2434	 0.19520726973128 
2435	 0.19533904137296 
2436	 0.195408905283967 
2437	 0.195208259559055 
2438	 0.195110961625326 
2439	 0.194846572519603 
2440	 0.194506294818522 
2441	 0.194387056669136 
2442	 0.194310897028746 
2443	 0.194224692273413 
2444	 0.193936921701696 
2445	 0.193653218072584 
2446	 0.193479793644302 
2447	 0.193538446000133 
2448	 0.193877199879857 
2449	 0.193970003157226 
2450	 0.193866664970763 
2451	 0.193474801729782 
2452	 0.192933168419093 
2453	 0.192348947082862 
2454	 0.191958259835984 
2455	 0.192038598107667 
2456	 0.191977990198066 
2457	 0.192253694512375 
2458	 0.192485208216753 
2459	 0.192228460696785 
2460	 0.192175129251883 
2461	 0.191876853981407 
2462	 0.191704633794974 
2463	 0.191699249909446 
2464	 0.191513860793187 
2465	 0.191343160122438 
2466	 0.190932034371064 
2467	 0.190623245112819 
2468	 0.190451769284728 
2469	 0.190425087098195 
2470	 0.190488596811213 
2471	 0.190303450219046 
2472	 0.18993006288168 
2473	 0.189822520476611 
2474	 0.189962742600993 
2475	 0.189942823471383 
2476	 0.190112183142181 
2477	 0.19024058403955 
2478	 0.190285735270643 
2479	 0.190614109053304 
2480	 0.190928027676783 
2481	 0.191131029244481 
2482	 0.191052118924897 
2483	 0.191620886471884 
2484	 0.192213664745885 
2485	 0.193249149704818 
2486	 0.193814389290235 
2487	 0.193753198375496 
2488	 0.193750324544686 
2489	 0.193753643288354 
2490	 0.193809098794095 
2491	 0.193974359605149 
2492	 0.1943838565483 
2493	 0.194921486662904 
2494	 0.195643269984499 
2495	 0.19606127431486 
2496	 0.196176294318421 
2497	 0.196366632001987 
2498	 0.196351648504705 
2499	 0.197151420625065 
2500	 0.198994102047402 
