Wavelength	Tablay400105.asd
350	 0.183360866863436 
351	 0.114676662935219 
352	 2.34756774909557E-02 
353	 5.43110298985999E-02 
354	 0.185270144074901 
355	 0.185801769215614 
356	 0.156522808559497 
357	 0.195863651957018 
358	 0.154364319269332 
359	 0.163408572949574 
360	 0.205626445174654 
361	 0.186650962846217 
362	 0.115826619931124 
363	 0.125285936506178 
364	 0.194931513571709 
365	 0.092274242870713 
366	 8.13029529810823E-02 
367	 0.136636058082512 
368	 0.17145739317324 
369	 0.161661083093598 
370	 0.10793064829917 
371	 6.45110378747199E-02 
372	 0.100194254666231 
373	 7.90111546122277E-02 
374	 6.11840194783351E-02 
375	 8.03254707659573E-02 
376	 0.109076638826509 
377	 8.12290310849379E-02 
378	 8.34103908681988E-02 
379	 0.156464676464506 
380	 6.66619433210404E-02 
381	 3.22558138363828E-02 
382	 7.32991941973009E-02 
383	 8.76636409188274E-02 
384	 0.113319908498302 
385	 0.113169802088952 
386	 8.71497788891061E-02 
387	 9.21251923346617E-02 
388	 8.69690218625312E-02 
389	 7.57730394638769E-02 
390	 7.26980692519222E-02 
391	 8.34650757716928E-02 
392	 8.99539536055293E-02 
393	 7.85836073569571E-02 
394	 4.73942476765732E-02 
395	 6.19716195816323E-02 
396	 6.77542560338123E-02 
397	 4.67517084104295E-02 
398	 6.38333078976681E-02 
399	 9.60203988415487E-02 
400	 0.113838486811268 
401	 9.78096360038239E-02 
402	 6.81136608179729E-02 
403	 5.64390123857429E-02 
404	 6.24207387704558E-02 
405	 6.20465591144027E-02 
406	 6.69647395382058E-02 
407	 7.25406311773882E-02 
408	 7.57021214491497E-02 
409	 8.06964205850664E-02 
410	 7.58600169646662E-02 
411	 7.15044771714396E-02 
412	 7.71244994151242E-02 
413	 6.11915334153002E-02 
414	 5.32791019157231E-02 
415	 5.97062230068637E-02 
416	 6.42413472478765E-02 
417	 6.28493638256974E-02 
418	 5.67892482367688E-02 
419	 5.12066730250469E-02 
420	 5.97114495612949E-02 
421	 5.34968202010752E-02 
422	 4.72442639879848E-02 
423	 6.34441845778906E-02 
424	 5.62403465919589E-02 
425	 5.13745478254738E-02 
426	 5.70853225280986E-02 
427	 5.68614086494581E-02 
428	 5.29737321308133E-02 
429	 5.04247381177383E-02 
430	 5.12207876944778E-02 
431	 0.045631083682866 
432	 4.92311079297671E-02 
433	 5.88992184391464E-02 
434	 0.061976142288217 
435	 5.86734552972277E-02 
436	 5.43542804833002E-02 
437	 5.23004761710545E-02 
438	 5.20658680278145E-02 
439	 5.01803134595191E-02 
440	 5.13049782984773E-02 
441	 5.83167612538274E-02 
442	 5.85832828447511E-02 
443	 5.31607429936322E-02 
444	 4.81319447370688E-02 
445	 5.18653510691461E-02 
446	 0.054372576358454 
447	 5.49759995792858E-02 
448	 5.48232620204574E-02 
449	 5.57994233943426E-02 
450	 5.40446024521441E-02 
451	 5.12636058163222E-02 
452	 5.09525149820189E-02 
453	 5.37578543530904E-02 
454	 5.38754729536654E-02 
455	 5.18988049188335E-02 
456	 5.53878192123242E-02 
457	 5.56156095431046E-02 
458	 5.40762525692007E-02 
459	 0.053537069048777 
460	 5.37736479580865E-02 
461	 5.44827315643893E-02 
462	 5.46994245827716E-02 
463	 5.35854352995084E-02 
464	 5.44092434588857E-02 
465	 5.36625779954389E-02 
466	 5.12943682629088E-02 
467	 5.34808414349459E-02 
468	 5.43290964158492E-02 
469	 5.35871833400673E-02 
470	 5.28933602006473E-02 
471	 5.45968766659757E-02 
472	 5.63972759851213E-02 
473	 5.65336234162165E-02 
474	 5.42345307849314E-02 
475	 5.49754542659322E-02 
476	 5.56880034619007E-02 
477	 5.44780894023162E-02 
478	 5.49828647456258E-02 
479	 5.45492704738707E-02 
480	 5.37666538785116E-02 
481	 5.40753173268158E-02 
482	 5.41733407245188E-02 
483	 5.54707514586827E-02 
484	 5.71635254951304E-02 
485	 5.59563857852401E-02 
486	 5.53965578759859E-02 
487	 5.54994223168266E-02 
488	 5.56711452864316E-02 
489	 5.60870906976941E-02 
490	 0.055997691556131 
491	 5.57094604734974E-02 
492	 0.055959845492224 
493	 5.51034372640163E-02 
494	 5.59696824808433E-02 
495	 5.85804786400182E-02 
496	 5.76854788285927E-02 
497	 5.74959190605564E-02 
498	 5.75320064097645E-02 
499	 0.056798875299089 
500	 5.85644624428154E-02 
501	 0.059196513382896 
502	 5.83333158562728E-02 
503	 5.85099491018563E-02 
504	 5.84955667243986E-02 
505	 5.88236723894823E-02 
506	 5.97319897046675E-02 
507	 6.02051957944437E-02 
508	 6.00775705537075E-02 
509	 6.00148385021702E-02 
510	 0.06077575283672 
511	 6.08986062546909E-02 
512	 6.11407164761307E-02 
513	 6.17505464998565E-02 
514	 6.20990837404354E-02 
515	 6.30962593329878E-02 
516	 6.38773754388614E-02 
517	 6.36358117402522E-02 
518	 6.31773631833098E-02 
519	 6.31109824850092E-02 
520	 6.36128762962239E-02 
521	 6.44549172287094E-02 
522	 6.44623504734922E-02 
523	 6.47128138228766E-02 
524	 6.57033345414429E-02 
525	 6.62522195851936E-02 
526	 6.64497963846051E-02 
527	 6.65782698425662E-02 
528	 6.69632047962638E-02 
529	 6.76122997330302E-02 
530	 0.067773708633136 
531	 6.74976358228791E-02 
532	 0.067687437063675 
533	 6.87163253684678E-02 
534	 6.92077369157045E-02 
535	 6.85930274765998E-02 
536	 6.97866914224137E-02 
537	 7.00917912879285E-02 
538	 6.97940495876229E-02 
539	 7.05920681597896E-02 
540	 7.10704782622193E-02 
541	 7.12212967880396E-02 
542	 7.12944973662584E-02 
543	 0.071699293178771 
544	 7.19190105823299E-02 
545	 7.20758950709193E-02 
546	 7.23271951553511E-02 
547	 7.20489097393581E-02 
548	 7.19202600702182E-02 
549	 0.07226737549226 
550	 0.073000800671458 
551	 0.072958167188679 
552	 7.26749158330009E-02 
553	 7.27401969239465E-02 
554	 7.30895445807345E-02 
555	 7.31046662477479E-02 
556	 7.29253820786008E-02 
557	 0.072995810914854 
558	 7.30072894200832E-02 
559	 7.26964280395678E-02 
560	 7.23192126710308E-02 
561	 0.07284537223947 
562	 0.072338753711517 
563	 7.17426562709946E-02 
564	 7.20975895248314E-02 
565	 7.17000947677282E-02 
566	 7.14789603481773E-02 
567	 7.15001502279953E-02 
568	 7.12135470965106E-02 
569	 7.11257958698219E-02 
570	 7.10182756715272E-02 
571	 7.07138848844357E-02 
572	 7.03271922722337E-02 
573	 6.99654157490667E-02 
574	 6.98404072215346E-02 
575	 7.00131162771252E-02 
576	 6.95505644626025E-02 
577	 6.89156922413293E-02 
578	 6.84520546842964E-02 
579	 6.82449778084388E-02 
580	 6.81484742260388E-02 
581	 6.78886668468831E-02 
582	 6.73807487486115E-02 
583	 6.71963225637362E-02 
584	 6.69166554324459E-02 
585	 6.66183523456744E-02 
586	 6.65864532196937E-02 
587	 6.62017524183225E-02 
588	 6.56805654759429E-02 
589	 6.51607148053678E-02 
590	 6.44646800008079E-02 
591	 6.41115578998152E-02 
592	 6.39835964994717E-02 
593	 6.37593287759494E-02 
594	 6.31592239537205E-02 
595	 6.28894032722091E-02 
596	 6.28263394865029E-02 
597	 6.21764268120296E-02 
598	 6.19007435860907E-02 
599	 6.15953949965366E-02 
600	 6.10095464132689E-02 
601	 6.08812790969199E-02 
602	 6.04475996908971E-02 
603	 0.059903946516977 
604	 0.059742054872567 
605	 5.94494060741932E-02 
606	 5.89590853079895E-02 
607	 5.84588743122675E-02 
608	 5.83937123316982E-02 
609	 5.80053685780883E-02 
610	 5.75250954343487E-02 
611	 5.72824998304961E-02 
612	 5.70767648015149E-02 
613	 5.68911490348336E-02 
614	 0.056583400813003 
615	 5.60058948033709E-02 
616	 5.57928050694339E-02 
617	 5.55361613585758E-02 
618	 5.50518823162637E-02 
619	 5.47927164764944E-02 
620	 5.46050535580563E-02 
621	 5.43634711089406E-02 
622	 5.39845768514948E-02 
623	 5.35408125248087E-02 
624	 0.053374595059462 
625	 5.34228649296911E-02 
626	 5.32513128626781E-02 
627	 5.29153978113382E-02 
628	 5.24560863945973E-02 
629	 5.20280879672517E-02 
630	 5.20934501242321E-02 
631	 5.19746801655394E-02 
632	 5.16755822482669E-02 
633	 0.051473804906661 
634	 5.12106940181961E-02 
635	 5.09657720707033E-02 
636	 5.07743859998353E-02 
637	 0.050595773754333 
638	 5.03210308153875E-02 
639	 5.01259829136972E-02 
640	 5.01171812719545E-02 
641	 4.99386681843163E-02 
642	 4.98565643788007E-02 
643	 4.98095000195866E-02 
644	 0.049556736976912 
645	 4.91818370924552E-02 
646	 4.89424382267173E-02 
647	 4.88859383057557E-02 
648	 4.86863623504249E-02 
649	 4.85485922331641E-02 
650	 4.84454450249523E-02 
651	 4.83221130482597E-02 
652	 4.83320862510959E-02 
653	 4.81219761772149E-02 
654	 4.77886380099418E-02 
655	 4.77633323364772E-02 
656	 4.76835251529808E-02 
657	 4.76421972381216E-02 
658	 4.76344997976697E-02 
659	 4.72620026958868E-02 
660	 4.71343500963547E-02 
661	 4.71469351793535E-02 
662	 4.69953803328001E-02 
663	 0.046860934677026 
664	 4.68399131696466E-02 
665	 4.68511991896154E-02 
666	 4.66607479948332E-02 
667	 4.66236619008711E-02 
668	 4.65837229783714E-02 
669	 0.046427178022103 
670	 4.64284115441982E-02 
671	 4.63094602459737E-02 
672	 4.61759606634757E-02 
673	 4.62361594176711E-02 
674	 4.61269214329496E-02 
675	 4.60311250788182E-02 
676	 4.60210823007448E-02 
677	 4.59831773025721E-02 
678	 0.045926603911449 
679	 4.57963970497288E-02 
680	 4.56034747110369E-02 
681	 4.55861564226433E-02 
682	 4.56011834230723E-02 
683	 0.04557506020702 
684	 4.54944984134945E-02 
685	 4.55001015366385E-02 
686	 4.54783607056937E-02 
687	 4.53698991151885E-02 
688	 4.52236276503966E-02 
689	 4.52862231123969E-02 
690	 4.53522417007267E-02 
691	 0.045223358530281 
692	 4.51642682226583E-02 
693	 4.51275707997672E-02 
694	 4.51483934130872E-02 
695	 4.52783845566096E-02 
696	 4.52387363092132E-02 
697	 4.51634345215538E-02 
698	 4.51336906605958E-02 
699	 0.045059637192103 
700	 4.51845354820748E-02 
701	 4.53020353924297E-02 
702	 4.51981779562014E-02 
703	 4.51437997367976E-02 
704	 4.50397431400988E-02 
705	 4.49598793743624E-02 
706	 0.045062715371302 
707	 4.50808160763735E-02 
708	 4.50256251759656E-02 
709	 4.49568772605503E-02 
710	 4.49433368313332E-02 
711	 4.50150117221514E-02 
712	 4.51054049008218E-02 
713	 4.51352887436359E-02 
714	 4.50981612287454E-02 
715	 4.51378984031075E-02 
716	 4.51931844065373E-02 
717	 4.50886348438624E-02 
718	 4.51073475414429E-02 
719	 4.52390774629227E-02 
720	 4.53640947180703E-02 
721	 4.52437407590741E-02 
722	 4.52506179690976E-02 
723	 4.53699994737353E-02 
724	 4.54780902904002E-02 
725	 4.55418755694114E-02 
726	 4.55431767986875E-02 
727	 4.55095796605708E-02 
728	 4.55032390197606E-02 
729	 4.56026390506125E-02 
730	 4.56248313089112E-02 
731	 4.55466934067392E-02 
732	 4.56589969995489E-02 
733	 4.57602664375658E-02 
734	 4.58315349077835E-02 
735	 4.59011935250764E-02 
736	 4.59762145327546E-02 
737	 4.60341784849313E-02 
738	 4.60640580900503E-02 
739	 4.60715737955047E-02 
740	 4.61200505292417E-02 
741	 4.62456764356011E-02 
742	 4.64067642737143E-02 
743	 4.64577680518585E-02 
744	 4.65258950320812E-02 
745	 0.046571416170039 
746	 4.65618897085193E-02 
747	 4.66362771695328E-02 
748	 4.67206290096283E-02 
749	 4.67724410040581E-02 
750	 4.67906888185721E-02 
751	 4.69312779853912E-02 
752	 4.70822398876641E-02 
753	 4.71630896249235E-02 
754	 4.71736627550594E-02 
755	 4.72956390584887E-02 
756	 0.047437467152559 
757	 4.75072084111921E-02 
758	 4.76163378490316E-02 
759	 4.76514921254435E-02 
760	 0.047675378354873 
761	 4.78023298877915E-02 
762	 4.79159231719032E-02 
763	 4.79698563420275E-02 
764	 4.79967399229371E-02 
765	 4.81012185490065E-02 
766	 4.82491343762239E-02 
767	 4.83753762914026E-02 
768	 4.84387540805145E-02 
769	 4.84549133083056E-02 
770	 4.85478354813442E-02 
771	 4.86815623712343E-02 
772	 4.87842686098491E-02 
773	 0.048948379750949 
774	 0.049089278642226 
775	 4.91632595776693E-02 
776	 4.91831788870899E-02 
777	 4.93269303978273E-02 
778	 0.049464951007048 
779	 4.95218507790279E-02 
780	 4.95882363545748E-02 
781	 4.97435004823448E-02 
782	 0.049881970102418 
783	 4.99238239379141E-02 
784	 0.050084743534567 
785	 5.02214768033276E-02 
786	 5.02862625697806E-02 
787	 5.03219028107516E-02 
788	 5.05864242175654E-02 
789	 5.07348926535078E-02 
790	 0.050712323487616 
791	 5.08572470436895E-02 
792	 5.09725844239723E-02 
793	 5.10754753159003E-02 
794	 5.12075439254435E-02 
795	 5.13719712582932E-02 
796	 5.15347136321426E-02 
797	 5.16438887527778E-02 
798	 5.16878538657928E-02 
799	 5.18692717168616E-02 
800	 5.19913278858073E-02 
801	 5.20543832570578E-02 
802	 0.052208249502681 
803	 0.05235951971602 
804	 5.24617473093111E-02 
805	 5.25689645192173E-02 
806	 5.28694999771218E-02 
807	 5.29551871015755E-02 
808	 5.30114730003012E-02 
809	 5.32272697987004E-02 
810	 5.33321156905286E-02 
811	 0.053482247241457 
812	 0.053653668115221 
813	 5.37720023528314E-02 
814	 5.39700539860795E-02 
815	 5.40519190950489E-02 
816	 5.40929343943118E-02 
817	 5.43837004925408E-02 
818	 5.46383598031651E-02 
819	 5.47293126313202E-02 
820	 5.47256750816732E-02 
821	 5.49612296649984E-02 
822	 5.52364564645876E-02 
823	 5.53969092950318E-02 
824	 5.54146985240009E-02 
825	 5.56010162979167E-02 
826	 5.58251363563982E-02 
827	 5.60054841219888E-02 
828	 5.61161498315924E-02 
829	 5.63110874985173E-02 
830	 5.65168654830387E-02 
831	 5.67067466661022E-02 
832	 5.68940274856616E-02 
833	 5.68857850096558E-02 
834	 0.057024596192557 
835	 5.74088933148598E-02 
836	 5.76550492321368E-02 
837	 5.78355605521777E-02 
838	 5.79987839453814E-02 
839	 5.81767273949631E-02 
840	 5.83541891766889E-02 
841	 5.84630480258391E-02 
842	 5.85762866061843E-02 
843	 5.87941748200413E-02 
844	 5.90483327982029E-02 
845	 5.92456001385727E-02 
846	 5.94338486553394E-02 
847	 5.97305668781184E-02 
848	 0.059897749818091 
849	 6.00078694211584E-02 
850	 6.01550522379568E-02 
851	 6.04037963921944E-02 
852	 6.07049320901064E-02 
853	 6.09237155389831E-02 
854	 6.10304437327704E-02 
855	 0.061246223710845 
856	 6.14456412556612E-02 
857	 6.16127936754181E-02 
858	 6.17724225819939E-02 
859	 6.19733114163946E-02 
860	 6.21563618914925E-02 
861	 6.23779558264515E-02 
862	 6.26896260058273E-02 
863	 6.27435584229952E-02 
864	 6.29209656892757E-02 
865	 6.33003351451604E-02 
866	 6.36421003511106E-02 
867	 6.37193493656041E-02 
868	 6.37784593120754E-02 
869	 6.39902756317872E-02 
870	 6.43126252869807E-02 
871	 6.44982930115974E-02 
872	 6.47008427417935E-02 
873	 6.50075529879472E-02 
874	 6.51454337939969E-02 
875	 6.54913308177752E-02 
876	 6.57905135952708E-02 
877	 6.58135248513961E-02 
878	 6.61505399974587E-02 
879	 6.63672628506681E-02 
880	 0.066468901161071 
881	 6.66610586970559E-02 
882	 6.69552455561176E-02 
883	 6.71424722430351E-02 
884	 6.72751293155913E-02 
885	 0.067583814854551 
886	 6.79437558225895E-02 
887	 6.82477235497137E-02 
888	 6.84413963810371E-02 
889	 6.85454052026543E-02 
890	 6.87765128727581E-02 
891	 6.90510126126163E-02 
892	 6.93030032202584E-02 
893	 6.95992284020645E-02 
894	 6.97605075215103E-02 
895	 6.99089292777461E-02 
896	 7.01852923842834E-02 
897	 7.06018521514378E-02 
898	 7.07044897159925E-02 
899	 7.07552191679998E-02 
900	 7.11212394612759E-02 
901	 7.15624012813068E-02 
902	 7.18099935791523E-02 
903	 7.19214000036641E-02 
904	 7.21107167701718E-02 
905	 7.23840138237613E-02 
906	 0.072793338838669 
907	 7.31299732732394E-02 
908	 7.31230990476804E-02 
909	 7.34382603158924E-02 
910	 7.37947269973289E-02 
911	 7.40353723899464E-02 
912	 7.42317252502427E-02 
913	 7.43994189266268E-02 
914	 7.46960126060916E-02 
915	 7.51272911848258E-02 
916	 7.54748856524249E-02 
917	 7.55996411985882E-02 
918	 7.57440938821711E-02 
919	 7.60690494272315E-02 
920	 7.64300437086794E-02 
921	 7.66972011958132E-02 
922	 7.69279948463726E-02 
923	 7.71943765678339E-02 
924	 7.74593159123009E-02 
925	 7.76812918017463E-02 
926	 0.077960243335763 
927	 7.83728024889352E-02 
928	 7.87800583238575E-02 
929	 7.90307366551859E-02 
930	 0.079168258471547 
931	 7.93478905477095E-02 
932	 7.97851393969768E-02 
933	 8.00297727975882E-02 
934	 8.02097024242288E-02 
935	 8.06516339598867E-02 
936	 8.08606440085188E-02 
937	 8.10752892382616E-02 
938	 8.13766805839122E-02 
939	 8.17120354032498E-02 
940	 8.21382349843884E-02 
941	 0.082459265647193 
942	 0.082642365620088 
943	 8.28286114988345E-02 
944	 8.31812980323828E-02 
945	 8.35782438227966E-02 
946	 8.38937602682029E-02 
947	 8.40650048445076E-02 
948	 8.42430333595113E-02 
949	 8.44693196424493E-02 
950	 8.47719069820116E-02 
951	 8.51719314748124E-02 
952	 0.085559514793272 
953	 8.58416414158442E-02 
954	 8.60158093349679E-02 
955	 8.62021858222085E-02 
956	 8.66227993008019E-02 
957	 0.086792012071083 
958	 8.67499690943396E-02 
959	 8.76114887385206E-02 
960	 8.79919872760411E-02 
961	 8.80373521065436E-02 
962	 8.81724296813699E-02 
963	 8.86006365030378E-02 
964	 8.87495497410714E-02 
965	 8.90165448618873E-02 
966	 8.95058935904319E-02 
967	 8.90849023344504E-02 
968	 8.96170164021613E-02 
969	 9.04749264559786E-02 
970	 9.08001307123443E-02 
971	 9.10614871820258E-02 
972	 0.091416032437051 
973	 9.15649647010116E-02 
974	 9.14303674926379E-02 
975	 9.19678701326153E-02 
976	 9.21312777674379E-02 
977	 9.22988302751815E-02 
978	 9.28682723798048E-02 
979	 9.28482450572499E-02 
980	 9.30176345685861E-02 
981	 9.34965643064058E-02 
982	 9.40427907944903E-02 
983	 9.40564303602672E-02 
984	 9.40640950499397E-02 
985	 9.44247297079913E-02 
986	 9.50907871101027E-02 
987	 9.49657465345269E-02 
988	 9.50985050187136E-02 
989	 9.55112203429944E-02 
990	 9.58759410071681E-02 
991	 9.60889687146388E-02 
992	 9.62038969658676E-02 
993	 9.64717129931605E-02 
994	 0.0969313861585 
995	 9.66698027407144E-02 
996	 0.096876286786187 
997	 9.76756051990398E-02 
998	 0.098514634812506 
999	 9.81350081374945E-02 
1000	 9.78428768593656E-02 
1001	 9.84478916565528E-02 
1002	 9.86429608937083E-02 
1003	 9.87747582538248E-02 
1004	 9.90048324336375E-02 
1005	 9.92519301504026E-02 
1006	 9.94913878407473E-02 
1007	 9.98497166807571E-02 
1008	 0.100001777323325 
1009	 0.100035141827108 
1010	 0.10016229520829 
1011	 0.100096541549644 
1012	 0.100248903168662 
1013	 0.100586980150976 
1014	 0.100869047497985 
1015	 0.101209623585713 
1016	 0.101608999895123 
1017	 0.10181589863981 
1018	 0.102039438463583 
1019	 0.102456350223399 
1020	 0.102828866109667 
1021	 0.103095970294327 
1022	 0.103405382359342 
1023	 0.103669069442598 
1024	 0.103774303063951 
1025	 0.103989873796718 
1026	 0.104313269692995 
1027	 0.104495050724449 
1028	 0.104644063889016 
1029	 0.104678974040876 
1030	 0.104658865308135 
1031	 0.104940723631383 
1032	 0.105330812453165 
1033	 0.10562822843154 
1034	 0.105846627592456 
1035	 0.10612691764613 
1036	 0.106356292727128 
1037	 0.106436962122022 
1038	 0.1066219146391 
1039	 0.106958604816879 
1040	 0.107107170481522 
1041	 0.107040064467664 
1042	 0.107260558109707 
1043	 0.107542419504625 
1044	 0.107861440836121 
1045	 0.108315733498591 
1046	 0.108754378342676 
1047	 0.108812314660412 
1048	 0.108781098957175 
1049	 0.108854195726619 
1050	 0.108947959227295 
1051	 0.109259982719493 
1052	 0.109583841383875 
1053	 0.109874484389525 
1054	 0.110192290988134 
1055	 0.110470491190246 
1056	 0.110700350114729 
1057	 0.110951460782269 
1058	 0.111216521095395 
1059	 0.11137669941126 
1060	 0.111592432548636 
1061	 0.11181643797536 
1062	 0.111958750136948 
1063	 0.112192841060174 
1064	 0.11247540885365 
1065	 0.112812468197671 
1066	 0.113062308024188 
1067	 0.113179260227491 
1068	 0.113263468364136 
1069	 0.1133861120061 
1070	 0.113554873816421 
1071	 0.113775603027293 
1072	 0.114065719693918 
1073	 0.114320355419092 
1074	 0.114463168027823 
1075	 0.114725785340608 
1076	 0.114938423849552 
1077	 0.115074996468633 
1078	 0.115354130798986 
1079	 0.115497076552577 
1080	 0.115621659592593 
1081	 0.115965629002635 
1082	 0.116130247212263 
1083	 0.11609430105693 
1084	 0.116182152248729 
1085	 0.116233094969405 
1086	 0.1163384353669 
1087	 0.11646664707351 
1088	 0.116781237993981 
1089	 0.116994504905342 
1090	 0.117108814473735 
1091	 0.117241540954601 
1092	 0.117361014723275 
1093	 0.117534541280168 
1094	 0.117813208150612 
1095	 0.118103948694615 
1096	 0.118336152248093 
1097	 0.118450358292228 
1098	 0.118546573196447 
1099	 0.118620366046365 
1100	 0.118691722864973 
1101	 0.118835117127033 
1102	 0.118975596289237 
1103	 0.119159210512208 
1104	 0.119339932132593 
1105	 0.119618665038646 
1106	 0.119935551290807 
1107	 0.120139446200559 
1108	 0.120352568857766 
1109	 0.120525948575857 
1110	 0.120584582164839 
1111	 0.120728088735515 
1112	 0.120891692723748 
1113	 0.121081332870991 
1114	 0.121291099456645 
1115	 0.121491906368862 
1116	 0.121725943840769 
1117	 0.121819076803773 
1118	 0.122010055632999 
1119	 0.122308908724363 
1120	 0.122528399673247 
1121	 0.122712953245138 
1122	 0.122947844444895 
1123	 0.12316375788065 
1124	 0.123360480202774 
1125	 0.123579334828654 
1126	 0.123776643870764 
1127	 0.123993022340442 
1128	 0.12411714783435 
1129	 0.124242135934778 
1130	 0.124447297577999 
1131	 0.124591299176999 
1132	 0.124767275214518 
1133	 0.125019761902091 
1134	 0.125234978502139 
1135	 0.125463433144328 
1136	 0.125768643769333 
1137	 0.125951887064673 
1138	 0.126055282832465 
1139	 0.126212772906095 
1140	 0.12634659882011 
1141	 0.126438179207791 
1142	 0.126629710564024 
1143	 0.126789522434352 
1144	 0.126992089714837 
1145	 0.127181953335778 
1146	 0.127346388726606 
1147	 0.127541201233537 
1148	 0.127648981383081 
1149	 0.127854674857231 
1150	 0.128079835786012 
1151	 0.128189029845492 
1152	 0.128308250488595 
1153	 0.128391544194678 
1154	 0.128499450759618 
1155	 0.128562693965883 
1156	 0.128709100006312 
1157	 0.128936873702802 
1158	 0.129110041927516 
1159	 0.129299145561964 
1160	 0.129470296103398 
1161	 0.129592218579898 
1162	 0.129707448518217 
1163	 0.129796862980948 
1164	 0.129947030881067 
1165	 0.130117045566878 
1166	 0.130210623093045 
1167	 0.130338147696144 
1168	 0.13049837903742 
1169	 0.130623952194369 
1170	 0.130753381221568 
1171	 0.130872952172847 
1172	 0.13093831476968 
1173	 0.131049701187682 
1174	 0.131182957493665 
1175	 0.131309808252762 
1176	 0.131476383478019 
1177	 0.131623967288071 
1178	 0.13175330683471 
1179	 0.131886509696557 
1180	 0.132050429708042 
1181	 0.132116568749142 
1182	 0.132160728634285 
1183	 0.132264470429715 
1184	 0.132357829877672 
1185	 0.13241849424066 
1186	 0.132531961959955 
1187	 0.132696835247379 
1188	 0.132821241066118 
1189	 0.132954360328968 
1190	 0.133097552290682 
1191	 0.133218001872293 
1192	 0.133345265364252 
1193	 0.133514091140538 
1194	 0.133635243225892 
1195	 0.133732214193683 
1196	 0.133827438565008 
1197	 0.133886248526647 
1198	 0.133942151177278 
1199	 0.134118054581547 
1200	 0.134297594504278 
1201	 0.134472295949287 
1202	 0.134648912099339 
1203	 0.134726250706586 
1204	 0.134848556082621 
1205	 0.134984329175898 
1206	 0.135159921576026 
1207	 0.135305264181581 
1208	 0.135423611959756 
1209	 0.135586008903061 
1210	 0.135785591324513 
1211	 0.135949813641411 
1212	 0.136124274776485 
1213	 0.136293574591019 
1214	 0.136410319688718 
1215	 0.136575605722084 
1216	 0.136764655905714 
1217	 0.136981546809259 
1218	 0.137224527079671 
1219	 0.137486876168182 
1220	 0.137791037797171 
1221	 0.138045389806241 
1222	 0.138252020344167 
1223	 0.138470955474842 
1224	 0.138673457253308 
1225	 0.138814079545743 
1226	 0.139039933317733 
1227	 0.139327855055328 
1228	 0.139554306796941 
1229	 0.139788536009569 
1230	 0.140015530156284 
1231	 0.140195098869258 
1232	 0.140405382268167 
1233	 0.140677928737249 
1234	 0.140878904916844 
1235	 0.141007300663474 
1236	 0.141191086146457 
1237	 0.141381042648699 
1238	 0.141562079667073 
1239	 0.141756915397153 
1240	 0.141978198875246 
1241	 0.142218333084648 
1242	 0.142355993532 
1243	 0.142516186794493 
1244	 0.142686961106341 
1245	 0.142846304122414 
1246	 0.142953450482345 
1247	 0.143116127635516 
1248	 0.143330949920728 
1249	 0.143490238646071 
1250	 0.143624243380939 
1251	 0.143784646383038 
1252	 0.143924915595395 
1253	 0.144085221170936 
1254	 0.144290759500878 
1255	 0.144473881485714 
1256	 0.14467396710546 
1257	 0.144824762215036 
1258	 0.14489834571957 
1259	 0.145036885419621 
1260	 0.145187112323139 
1261	 0.145331911133733 
1262	 0.145496427891504 
1263	 0.145715719478833 
1264	 0.145891949747695 
1265	 0.146023252358809 
1266	 0.146201084809793 
1267	 0.146422074456966 
1268	 0.146597110546248 
1269	 0.146766898773215 
1270	 0.146915586956154 
1271	 0.147028583506347 
1272	 0.14715924518928 
1273	 0.147247814595547 
1274	 0.147425531862485 
1275	 0.147689891823371 
1276	 0.147872341511499 
1277	 0.148075086270007 
1278	 0.148253856037233 
1279	 0.148342253906354 
1280	 0.148484028633293 
1281	 0.148665513848592 
1282	 0.148837952093828 
1283	 0.149056757015644 
1284	 0.149208323698217 
1285	 0.149329202890911 
1286	 0.149413328893825 
1287	 0.149543812091582 
1288	 0.149624219352331 
1289	 0.149786814009684 
1290	 0.150054123207259 
1291	 0.150208472438716 
1292	 0.150341710279722 
1293	 0.1504546678823 
1294	 0.150485104029904 
1295	 0.150596591774973 
1296	 0.1507659679878 
1297	 0.150869698761297 
1298	 0.150981834831943 
1299	 0.15106452246139 
1300	 0.151062820638466 
1301	 0.151122166106707 
1302	 0.151197021366816 
1303	 0.151291267628951 
1304	 0.151438871973527 
1305	 0.151546788927596 
1306	 0.151622525305215 
1307	 0.151738342370701 
1308	 0.151864111366989 
1309	 0.151981390144839 
1310	 0.152105980675897 
1311	 0.15228609920758 
1312	 0.152374273721091 
1313	 0.152391825225302 
1314	 0.152479791014966 
1315	 0.152549428324663 
1316	 0.152664646217718 
1317	 0.152832705734078 
1318	 0.152983895109128 
1319	 0.153140853098601 
1320	 0.153300091381475 
1321	 0.15348195572465 
1322	 0.153637730124621 
1323	 0.153802094006377 
1324	 0.153922262025684 
1325	 0.153988014307325 
1326	 0.154090154918348 
1327	 0.154137300929996 
1328	 0.15427002311975 
1329	 0.154494675377038 
1330	 0.154676583490056 
1331	 0.154889663874766 
1332	 0.15508479108809 
1333	 0.155267923777706 
1334	 0.155423274809723 
1335	 0.155554649766064 
1336	 0.155659023458219 
1337	 0.155811401779013 
1338	 0.15594169553727 
1339	 0.156109289378781 
1340	 0.156341900212246 
1341	 0.156521786637266 
1342	 0.156683755614434 
1343	 0.156841790229937 
1344	 0.156977313344081 
1345	 0.157143304087155 
1346	 0.157343743955338 
1347	 0.157478952103056 
1348	 0.157591515469341 
1349	 0.157720088628563 
1350	 0.157793373925833 
1351	 0.15791259529759 
1352	 0.158068875937231 
1353	 0.158233370370007 
1354	 0.158431056480173 
1355	 0.158589591377173 
1356	 0.158749514992366 
1357	 0.158904862738833 
1358	 0.159022250751731 
1359	 0.159151864519079 
1360	 0.159292305696594 
1361	 0.159441074876952 
1362	 0.159581348894694 
1363	 0.15968930029293 
1364	 0.159793588193362 
1365	 0.159889268271402 
1366	 0.159973516485222 
1367	 0.160040224833833 
1368	 0.160111243329795 
1369	 0.160184261595658 
1370	 0.160230947760686 
1371	 0.16026341902917 
1372	 0.160295338916802 
1373	 0.160287349186516 
1374	 0.160335867696555 
1375	 0.160416628710565 
1376	 0.160481591400889 
1377	 0.160591361512565 
1378	 0.16064281161862 
1379	 0.160671003672886 
1380	 0.160674657751443 
1381	 0.160614549015535 
1382	 0.160602407808644 
1383	 0.160581136032593 
1384	 0.160582209615308 
1385	 0.160651729254332 
1386	 0.160661750215142 
1387	 0.160641153983691 
1388	 0.160629338524414 
1389	 0.16057068157417 
1390	 0.160549316380507 
1391	 0.160553466420206 
1392	 0.160566202517716 
1393	 0.160586846978789 
1394	 0.160623674823709 
1395	 0.160676131409556 
1396	 0.160766030357056 
1397	 0.160785301380319 
1398	 0.160781311885 
1399	 0.160807772921995 
1400	 0.160815139659971 
1401	 0.160810874154188 
1402	 0.160830385207847 
1403	 0.160828853155947 
1404	 0.160802112474896 
1405	 0.160753051499443 
1406	 0.160723162592967 
1407	 0.160643757326211 
1408	 0.160478957934139 
1409	 0.160362647667256 
1410	 0.160248776178299 
1411	 0.160147595936573 
1412	 0.160064751112925 
1413	 0.159981273910863 
1414	 0.159888793120947 
1415	 0.159821539907312 
1416	 0.159773466000816 
1417	 0.159721498757497 
1418	 0.159696821258836 
1419	 0.159656163279744 
1420	 0.15957592164829 
1421	 0.159542535338656 
1422	 0.159534915421476 
1423	 0.159524176761591 
1424	 0.159546447601124 
1425	 0.159578611345584 
1426	 0.159495968093754 
1427	 0.159452652226851 
1428	 0.159470057279257 
1429	 0.159439092395292 
1430	 0.159422257941112 
1431	 0.159463621343456 
1432	 0.159442264517251 
1433	 0.159345160892702 
1434	 0.159325146431482 
1435	 0.159335135953183 
1436	 0.159340760670166 
1437	 0.159387941743405 
1438	 0.159374733353235 
1439	 0.15933528016032 
1440	 0.159297387611311 
1441	 0.159200106344115 
1442	 0.159180562236811 
1443	 0.159205482227852 
1444	 0.159221143409479 
1445	 0.159256974156515 
1446	 0.159307873996878 
1447	 0.159350255695968 
1448	 0.159427581431525 
1449	 0.159513549132045 
1450	 0.159664952680008 
1451	 0.159875700475894 
1452	 0.160078978819188 
1453	 0.160339647428442 
1454	 0.160583976172646 
1455	 0.160799459296102 
1456	 0.161045753365836 
1457	 0.161343486438718 
1458	 0.161607995196299 
1459	 0.161862929646488 
1460	 0.162121838055721 
1461	 0.16235485173469 
1462	 0.162601938589356 
1463	 0.162857365534394 
1464	 0.163126510126325 
1465	 0.163412798250955 
1466	 0.163694333321918 
1467	 0.1639681548395 
1468	 0.164274001992995 
1469	 0.164569739535752 
1470	 0.164843329056416 
1471	 0.165098661140039 
1472	 0.165328184042493 
1473	 0.165594381057212 
1474	 0.165866219937694 
1475	 0.16610989562504 
1476	 0.166377004703562 
1477	 0.166606846217225 
1478	 0.16677613127433 
1479	 0.166991778362192 
1480	 0.167240348510257 
1481	 0.167441380224205 
1482	 0.167608098174903 
1483	 0.167814300971399 
1484	 0.168032939778963 
1485	 0.168222408656331 
1486	 0.168445564213654 
1487	 0.16860878243456 
1488	 0.168674763689259 
1489	 0.168827937938698 
1490	 0.169012195734261 
1491	 0.169185207213252 
1492	 0.169396319946165 
1493	 0.169580536375145 
1494	 0.16971579562582 
1495	 0.169903850074722 
1496	 0.170121260476046 
1497	 0.170338896882779 
1498	 0.170582064081561 
1499	 0.170820663607759 
1500	 0.171072605288016 
1501	 0.171304302502313 
1502	 0.171516439286787 
1503	 0.171749155564386 
1504	 0.172008427906199 
1505	 0.17221543114542 
1506	 0.172402278358879 
1507	 0.172599347306911 
1508	 0.172752954530071 
1509	 0.172919825284222 
1510	 0.1731240355621 
1511	 0.173304867217517 
1512	 0.173452921352345 
1513	 0.173617246332662 
1514	 0.17379432946684 
1515	 0.173956634922879 
1516	 0.174097896531396 
1517	 0.174264936287226 
1518	 0.174457105641202 
1519	 0.174621055595542 
1520	 0.174793666678113 
1521	 0.174963986728811 
1522	 0.175045963229765 
1523	 0.175139685439845 
1524	 0.175263851150072 
1525	 0.175390492041474 
1526	 0.175513955826534 
1527	 0.175669137624286 
1528	 0.175789975276836 
1529	 0.17588188734457 
1530	 0.175989665104833 
1531	 0.176098343288724 
1532	 0.176214643722971 
1533	 0.176327814154601 
1534	 0.176455670700868 
1535	 0.176610340344515 
1536	 0.176720904354076 
1537	 0.176822119180832 
1538	 0.176909968209411 
1539	 0.176946977210325 
1540	 0.177057267030694 
1541	 0.177181111800933 
1542	 0.177339830523038 
1543	 0.177577501613544 
1544	 0.17772999272873 
1545	 0.177862717797502 
1546	 0.177999559650631 
1547	 0.178075894546228 
1548	 0.178225378499128 
1549	 0.178412392462019 
1550	 0.178611033496954 
1551	 0.178866536504374 
1552	 0.179056257001263 
1553	 0.179219800957077 
1554	 0.17941122520248 
1555	 0.179586260941416 
1556	 0.179759919905123 
1557	 0.179978028046114 
1558	 0.180140331166167 
1559	 0.180213090120115 
1560	 0.180386759734773 
1561	 0.180608021449112 
1562	 0.180801175246108 
1563	 0.181064904665984 
1564	 0.18124070443103 
1565	 0.181313244610648 
1566	 0.181471512410722 
1567	 0.181641920782927 
1568	 0.181814255822918 
1569	 0.182046985527165 
1570	 0.182228428530334 
1571	 0.182375397714145 
1572	 0.182524540293673 
1573	 0.182656313283804 
1574	 0.182797360786997 
1575	 0.182917233674771 
1576	 0.183074187437279 
1577	 0.183284006866185 
1578	 0.183436253715552 
1579	 0.183557730457247 
1580	 0.183716065471561 
1581	 0.183830860149166 
1582	 0.184008533212877 
1583	 0.184307612369943 
1584	 0.184497441434005 
1585	 0.184649963395659 
1586	 0.184799524207605 
1587	 0.184876379337907 
1588	 0.1849921429725 
1589	 0.185114287015265 
1590	 0.18526788314859 
1591	 0.185472622818943 
1592	 0.185623046981269 
1593	 0.185758778264882 
1594	 0.185912596164009 
1595	 0.186019945569672 
1596	 0.186168117832817 
1597	 0.186376560210343 
1598	 0.186561052940961 
1599	 0.186747684868411 
1600	 0.186921701535032 
1601	 0.187105328932057 
1602	 0.187254082373071 
1603	 0.187365212013724 
1604	 0.187486476910455 
1605	 0.187571784001152 
1606	 0.187692904253306 
1607	 0.187847355092482 
1608	 0.187987495430191 
1609	 0.188147322227973 
1610	 0.188286894375735 
1611	 0.188376964740418 
1612	 0.188517912263295 
1613	 0.188681812432251 
1614	 0.188847942331228 
1615	 0.189084370004482 
1616	 0.189256309772051 
1617	 0.189386595721476 
1618	 0.189513862286734 
1619	 0.189592706449471 
1620	 0.189695006754937 
1621	 0.189799797446399 
1622	 0.18992050677813 
1623	 0.190075349821303 
1624	 0.190202541387196 
1625	 0.190320943353178 
1626	 0.1904327376618 
1627	 0.190516687953637 
1628	 0.190610976232837 
1629	 0.190727119114343 
1630	 0.190827088574105 
1631	 0.190915568373146 
1632	 0.19099733745272 
1633	 0.191049339830375 
1634	 0.191134332149365 
1635	 0.191220699047248 
1636	 0.191331899615216 
1637	 0.191510438207497 
1638	 0.191626894116364 
1639	 0.19168883994148 
1640	 0.191815946048458 
1641	 0.191963090271116 
1642	 0.192082376710501 
1643	 0.192275899285942 
1644	 0.19237966017338 
1645	 0.192344545695869 
1646	 0.192409109007353 
1647	 0.192502119579465 
1648	 0.192588038536396 
1649	 0.19276093636763 
1650	 0.192852015183703 
1651	 0.192846523020131 
1652	 0.192900313885845 
1653	 0.192972963332633 
1654	 0.193011167309269 
1655	 0.19307248577163 
1656	 0.193094811673783 
1657	 0.193052968005033 
1658	 0.193043059300601 
1659	 0.19305319820068 
1660	 0.193038458290672 
1661	 0.193033182138758 
1662	 0.192979485293718 
1663	 0.192890659733156 
1664	 0.192784739678352 
1665	 0.192620061289556 
1666	 0.192500648070182 
1667	 0.192379710502661 
1668	 0.192257818031082 
1669	 0.192208705271133 
1670	 0.192059407505997 
1671	 0.191868745783755 
1672	 0.191634740277555 
1673	 0.191328908978984 
1674	 0.19100376547953 
1675	 0.190634281028927 
1676	 0.19027548580737 
1677	 0.189878414026817 
1678	 0.189503782541143 
1679	 0.189159431718649 
1680	 0.188761560369205 
1681	 0.188380519435563 
1682	 0.187902242736155 
1683	 0.18730020796278 
1684	 0.186790655811487 
1685	 0.186292892357603 
1686	 0.185765250630422 
1687	 0.185282199444774 
1688	 0.184735491741379 
1689	 0.184116038538941 
1690	 0.183486908798744 
1691	 0.182853824742592 
1692	 0.182209638185621 
1693	 0.181509466386347 
1694	 0.180857790982897 
1695	 0.180235322889807 
1696	 0.179576186316956 
1697	 0.178935263772868 
1698	 0.178218894464417 
1699	 0.177427095096636 
1700	 0.176722922500778 
1701	 0.176024869095857 
1702	 0.175315135217778 
1703	 0.174632097737905 
1704	 0.173968800411724 
1705	 0.173262216301629 
1706	 0.172650847746495 
1707	 0.172056262516353 
1708	 0.171434596790034 
1709	 0.170913027286697 
1710	 0.170418959267207 
1711	 0.169979857880603 
1712	 0.169626266806568 
1713	 0.169260700539915 
1714	 0.168844497887247 
1715	 0.168491195393379 
1716	 0.168173534746734 
1717	 0.167860404044776 
1718	 0.167665722929122 
1719	 0.167474122994037 
1720	 0.167292478550604 
1721	 0.167136899480571 
1722	 0.166920294254269 
1723	 0.166762186759125 
1724	 0.166633059475517 
1725	 0.166506697540112 
1726	 0.166540353910753 
1727	 0.166661831547371 
1728	 0.166781213798307 
1729	 0.167037153542083 
1730	 0.167366195726168 
1731	 0.167694864120972 
1732	 0.168136645193638 
1733	 0.168581830821788 
1734	 0.16907713802892 
1735	 0.169669404576017 
1736	 0.170167007018351 
1737	 0.170677037755663 
1738	 0.171093343075525 
1739	 0.171484594345528 
1740	 0.171968983926385 
1741	 0.172279951290836 
1742	 0.172444524843268 
1743	 0.172630870957115 
1744	 0.172723586905611 
1745	 0.172794636040606 
1746	 0.172890708277989 
1747	 0.172917364618358 
1748	 0.172831130441527 
1749	 0.172805449229241 
1750	 0.172752556419382 
1751	 0.172743036326516 
1752	 0.172778100250549 
1753	 0.172809182168351 
1754	 0.172826734032904 
1755	 0.17292472167866 
1756	 0.173033759979506 
1757	 0.173226454263508 
1758	 0.173524797344752 
1759	 0.173779444867099 
1760	 0.17406409192922 
1761	 0.174351989276271 
1762	 0.174636629890752 
1763	 0.175056832080068 
1764	 0.175537367620717 
1765	 0.176105019010249 
1766	 0.176701191549655 
1767	 0.177254228946577 
1768	 0.177810539994699 
1769	 0.178340778130394 
1770	 0.178960096898191 
1771	 0.179608295871255 
1772	 0.180130706719073 
1773	 0.180677424426442 
1774	 0.181169030111872 
1775	 0.181586678619103 
1776	 0.182129090318797 
1777	 0.182582377570664 
1778	 0.183007569331638 
1779	 0.183461003614765 
1780	 0.183822069759301 
1781	 0.184316463934284 
1782	 0.184823275440329 
1783	 0.185190871347187 
1784	 0.185511112519103 
1785	 0.185706710830346 
1786	 0.185923321001304 
1787	 0.186094409027017 
1788	 0.186341597166046 
1789	 0.186625335972027 
1790	 0.186869054700209 
1791	 0.187177495261126 
1792	 0.187392066571298 
1793	 0.187474299048852 
1794	 0.187708169025212 
1795	 0.187934836552895 
1796	 0.188196781889617 
1797	 0.188537204702369 
1798	 0.18872063424707 
1799	 0.188890606614528 
1800	 0.189125149730624 
1801	 0.186936069439987 
1802	 0.187034928726244 
1803	 0.187187467290271 
1804	 0.187342309674973 
1805	 0.18750162649191 
1806	 0.187639287972732 
1807	 0.18781232077727 
1808	 0.187962080770301 
1809	 0.188026562190042 
1810	 0.188180949740838 
1811	 0.188407917536358 
1812	 0.188593873150782 
1813	 0.188774972932951 
1814	 0.189020646956946 
1815	 0.189142562139067 
1816	 0.189303679861275 
1817	 0.189476257784643 
1818	 0.189616691432367 
1819	 0.189798419451114 
1820	 0.190034735610949 
1821	 0.190254377520304 
1822	 0.190475409173767 
1823	 0.190735121028821 
1824	 0.190958372522084 
1825	 0.191089621645138 
1826	 0.191224478034153 
1827	 0.191255853350822 
1828	 0.191429130436776 
1829	 0.191667223707229 
1830	 0.191874020413657 
1831	 0.192124108908886 
1832	 0.192381613406964 
1833	 0.192590501421133 
1834	 0.192817758632837 
1835	 0.19305821650969 
1836	 0.193258300947609 
1837	 0.193457612131321 
1838	 0.193621915561653 
1839	 0.193789547900211 
1840	 0.194007692299902 
1841	 0.194142429320036 
1842	 0.194191675949599 
1843	 0.194273035609187 
1844	 0.194453766634876 
1845	 0.194573635784476 
1846	 0.194715401654521 
1847	 0.194923110088134 
1848	 0.195070893049319 
1849	 0.195126069032287 
1850	 0.195250657710283 
1851	 0.195426381940783 
1852	 0.195556626353948 
1853	 0.195674174433888 
1854	 0.195744663087033 
1855	 0.195836559973945 
1856	 0.195913535703762 
1857	 0.19594709311177 
1858	 0.196063032450852 
1859	 0.196129392636949 
1860	 0.19617525386563 
1861	 0.196185864531037 
1862	 0.196188153727674 
1863	 0.19614928000134 
1864	 0.196070721084068 
1865	 0.19601521848445 
1866	 0.196001755708558 
1867	 0.195966757132884 
1868	 0.195848457191303 
1869	 0.195730548859646 
1870	 0.195584192039274 
1871	 0.195344217381661 
1872	 0.195150669841073 
1873	 0.194997922542852 
1874	 0.194792408686699 
1875	 0.194524103769019 
1876	 0.194309555873785 
1877	 0.194074572558142 
1878	 0.193758517179291 
1879	 0.193472829547297 
1880	 0.193215682509969 
1881	 0.192889798724369 
1882	 0.192501806130785 
1883	 0.192140858291901 
1884	 0.191719889750697 
1885	 0.191198853832704 
1886	 0.190671552458146 
1887	 0.190020055912638 
1888	 0.189340579357363 
1889	 0.188684223012222 
1890	 0.187920951907494 
1891	 0.187238665196101 
1892	 0.186574336756873 
1893	 0.185859504372813 
1894	 0.185088584666302 
1895	 0.184354691087987 
1896	 0.18359850568181 
1897	 0.182872607234371 
1898	 0.182190111567301 
1899	 0.181538106456459 
1900	 0.180909206748065 
1901	 0.180230792897181 
1902	 0.179558945974647 
1903	 0.178900116636981 
1904	 0.17826693307491 
1905	 0.177629576499118 
1906	 0.177057071029024 
1907	 0.176547839825386 
1908	 0.176136822868978 
1909	 0.175766287012889 
1910	 0.175384272125701 
1911	 0.175030856674076 
1912	 0.174621436221243 
1913	 0.174212232165275 
1914	 0.173927716195502 
1915	 0.173632018589853 
1916	 0.173367203248294 
1917	 0.173127452458816 
1918	 0.172886852121337 
1919	 0.172571449708826 
1920	 0.172271107851446 
1921	 0.171985042664918 
1922	 0.171717964547192 
1923	 0.171483359205247 
1924	 0.171289919160966 
1925	 0.171107708140117 
1926	 0.170944423232193 
1927	 0.170817158000513 
1928	 0.170668559009768 
1929	 0.170513045361851 
1930	 0.170403629955916 
1931	 0.17028145188588 
1932	 0.170128232824402 
1933	 0.17000420924763 
1934	 0.1699015964385 
1935	 0.169895216655491 
1936	 0.169951023255539 
1937	 0.169982213243677 
1938	 0.170087344031253 
1939	 0.170151139791795 
1940	 0.170166048532896 
1941	 0.17020847410916 
1942	 0.170295697429073 
1943	 0.170439769951256 
1944	 0.170614374920957 
1945	 0.170737764952584 
1946	 0.170904819357611 
1947	 0.171128838920171 
1948	 0.171355832350852 
1949	 0.171639723032272 
1950	 0.171937178030444 
1951	 0.172283586342685 
1952	 0.172605972128536 
1953	 0.172947120359982 
1954	 0.173272268662369 
1955	 0.173558373650377 
1956	 0.173835472482912 
1957	 0.174133952461439 
1958	 0.174499685610208 
1959	 0.174823255563061 
1960	 0.175148998401476 
1961	 0.175466636470416 
1962	 0.175752576277261 
1963	 0.17601093985587 
1964	 0.176271359371022 
1965	 0.176530583085754 
1966	 0.176774864656302 
1967	 0.17694463764401 
1968	 0.177197024343884 
1969	 0.177445900840889 
1970	 0.17766261736421 
1971	 0.177895987097286 
1972	 0.178095955109913 
1973	 0.178295819300285 
1974	 0.178533841214987 
1975	 0.178805610068534 
1976	 0.179077196147701 
1977	 0.179388164420538 
1978	 0.17966448795381 
1979	 0.179957889301221 
1980	 0.180136483959966 
1981	 0.180369915931183 
1982	 0.180640254665966 
1983	 0.180920027887727 
1984	 0.181300119464385 
1985	 0.181679672213256 
1986	 0.181985163767412 
1987	 0.182267724650034 
1988	 0.18245029591753 
1989	 0.182751571640848 
1990	 0.183075154433369 
1991	 0.183420316946321 
1992	 0.183831267816315 
1993	 0.184267204385185 
1994	 0.184656313369817 
1995	 0.185077441543332 
1996	 0.185513206465518 
1997	 0.185910323452795 
1998	 0.186330519907942 
1999	 0.186742758460652 
2000	 0.187141906269409 
2001	 0.187566351415412 
2002	 0.187963324750207 
2003	 0.188323480782393 
2004	 0.188683786165758 
2005	 0.189082874861169 
2006	 0.189414247633774 
2007	 0.189702194814047 
2008	 0.189958091735156 
2009	 0.19021321654275 
2010	 0.190424131601295 
2011	 0.190644680072332 
2012	 0.190889350173826 
2013	 0.191095537912871 
2014	 0.191266561990943 
2015	 0.191435786011627 
2016	 0.191627387105006 
2017	 0.19174458668656 
2018	 0.191778094612068 
2019	 0.191889394889104 
2020	 0.192026750316387 
2021	 0.19208685794418 
2022	 0.192181063157575 
2023	 0.192257418564029 
2024	 0.192230127976522 
2025	 0.192246990448648 
2026	 0.19231691616777 
2027	 0.192475455849731 
2028	 0.192553056743456 
2029	 0.192653451547507 
2030	 0.192680685363376 
2031	 0.192613053846269 
2032	 0.192606262876464 
2033	 0.192607431118937 
2034	 0.192590960527298 
2035	 0.192602421056265 
2036	 0.192577170166782 
2037	 0.192505664251696 
2038	 0.19244575698283 
2039	 0.192357422928968 
2040	 0.192213303723828 
2041	 0.192159484895749 
2042	 0.192113284331384 
2043	 0.192101432579045 
2044	 0.192194548464143 
2045	 0.192212746746211 
2046	 0.192222213790439 
2047	 0.19220479438341 
2048	 0.192120328575939 
2049	 0.192085609882444 
2050	 0.192068316968386 
2051	 0.192023771644685 
2052	 0.192012949482351 
2053	 0.19203947376418 
2054	 0.192063988510347 
2055	 0.19210574090551 
2056	 0.192121216259182 
2057	 0.192130161791107 
2058	 0.192167115575709 
2059	 0.192225176522865 
2060	 0.19222551507735 
2061	 0.192246739014787 
2062	 0.192215573824815 
2063	 0.192059146091185 
2064	 0.19198892491122 
2065	 0.191936089692898 
2066	 0.191920111072494 
2067	 0.191875456047492 
2068	 0.191878970741791 
2069	 0.191910199772822 
2070	 0.191959186304838 
2071	 0.191995529579765 
2072	 0.192092986505672 
2073	 0.192119410239369 
2074	 0.192085198243605 
2075	 0.192081376574845 
2076	 0.192052430605908 
2077	 0.19208264784139 
2078	 0.192177090476784 
2079	 0.192209325692958 
2080	 0.192274403907392 
2081	 0.192273658622496 
2082	 0.19216744979755 
2083	 0.192095275658367 
2084	 0.192025289343636 
2085	 0.192022716975058 
2086	 0.192045897109032 
2087	 0.19214937062365 
2088	 0.192186646611485 
2089	 0.192238248921886 
2090	 0.192246021786906 
2091	 0.192212820585413 
2092	 0.192194782426385 
2093	 0.192133689376568 
2094	 0.19213005322432 
2095	 0.192176996621958 
2096	 0.192184618784091 
2097	 0.192219725020572 
2098	 0.192237648851135 
2099	 0.192145490736862 
2100	 0.192022794688924 
2101	 0.191955529992417 
2102	 0.191879941393924 
2103	 0.191803658085717 
2104	 0.191759916349473 
2105	 0.191688130891564 
2106	 0.191580926497706 
2107	 0.191488801790873 
2108	 0.191435234338307 
2109	 0.191340446851931 
2110	 0.191170159493213 
2111	 0.191070974173845 
2112	 0.19102167704484 
2113	 0.190933391962216 
2114	 0.190902449103225 
2115	 0.190805161257469 
2116	 0.190679495288561 
2117	 0.190411348627585 
2118	 0.19028856830532 
2119	 0.190201994700385 
2120	 0.190087186493174 
2121	 0.190037338614396 
2122	 0.189927291789802 
2123	 0.189699444898774 
2124	 0.189602668606204 
2125	 0.189590782372727 
2126	 0.189527593243735 
2127	 0.18949900312895 
2128	 0.189469293167938 
2129	 0.189407335796674 
2130	 0.189352871756575 
2131	 0.189304780372779 
2132	 0.189295910524163 
2133	 0.189330417230129 
2134	 0.189304476809134 
2135	 0.189317634243616 
2136	 0.189307049473158 
2137	 0.189294024784073 
2138	 0.189208489447734 
2139	 0.189232159698095 
2140	 0.189342913437912 
2141	 0.189366838061361 
2142	 0.189389571967682 
2143	 0.189416245251735 
2144	 0.189370708617587 
2145	 0.189404669742499 
2146	 0.189522315374742 
2147	 0.189583158687573 
2148	 0.189642168825197 
2149	 0.189705320808366 
2150	 0.189718688886759 
2151	 0.189778995193307 
2152	 0.189831941841183 
2153	 0.189975048562677 
2154	 0.190132253520452 
2155	 0.190324356065588 
2156	 0.190439338743974 
2157	 0.190563406188122 
2158	 0.190613323883466 
2159	 0.190559156888389 
2160	 0.190583358956004 
2161	 0.190610858819123 
2162	 0.190645446590008 
2163	 0.190748135479897 
2164	 0.190752307110661 
2165	 0.190700733412637 
2166	 0.190647050784681 
2167	 0.190533485564175 
2168	 0.190435671605203 
2169	 0.190302486081212 
2170	 0.19024486077994 
2171	 0.190232177633399 
2172	 0.190189932947907 
2173	 0.190164379267639 
2174	 0.190189896811361 
2175	 0.19013554020277 
2176	 0.190118665270464 
2177	 0.190044768707634 
2178	 0.189949845732829 
2179	 0.189887647421777 
2180	 0.189766346856279 
2181	 0.189741002007523 
2182	 0.189824351082287 
2183	 0.189811165369258 
2184	 0.189777750505293 
2185	 0.189767963641728 
2186	 0.189731217887586 
2187	 0.189710644808383 
2188	 0.189728471557948 
2189	 0.189720739785524 
2190	 0.189721785740695 
2191	 0.189672072751047 
2192	 0.18957499204336 
2193	 0.189504032872133 
2194	 0.189386495611032 
2195	 0.18929705971757 
2196	 0.189238238396631 
2197	 0.189200423664279 
2198	 0.189154765337952 
2199	 0.18912339359806 
2200	 0.189012423892743 
2201	 0.188879032382897 
2202	 0.188723608790173 
2203	 0.188469443939701 
2204	 0.188318292932272 
2205	 0.188233702422492 
2206	 0.188050561633356 
2207	 0.187880612605203 
2208	 0.187655420911105 
2209	 0.187301378117818 
2210	 0.187054960557614 
2211	 0.186820092124942 
2212	 0.186639289500652 
2213	 0.186554046136552 
2214	 0.186409338325989 
2215	 0.18628095168772 
2216	 0.186116001530934 
2217	 0.185858679146972 
2218	 0.185688436706294 
2219	 0.18564706362064 
2220	 0.185465800505977 
2221	 0.185212149970341 
2222	 0.185036585126058 
2223	 0.184629796735634 
2224	 0.184240106874166 
2225	 0.183990438551439 
2226	 0.183550335415768 
2227	 0.183205956463879 
2228	 0.182914273283929 
2229	 0.182518336956162 
2230	 0.182111832276197 
2231	 0.181629513770932 
2232	 0.18103248178896 
2233	 0.180511206191744 
2234	 0.180030547758981 
2235	 0.179421770739597 
2236	 0.178830864636261 
2237	 0.178086645750426 
2238	 0.177148802504331 
2239	 0.17625877894643 
2240	 0.175316029965953 
2241	 0.174341345304512 
2242	 0.17338940339131 
2243	 0.17231688739538 
2244	 0.171125730405618 
2245	 0.169970444345069 
2246	 0.168765037515724 
2247	 0.167512875037334 
2248	 0.166302819052672 
2249	 0.16497606761363 
2250	 0.163549044561287 
2251	 0.162086581443049 
2252	 0.16040931609711 
2253	 0.158793694075107 
2254	 0.157222399436477 
2255	 0.155645028950829 
2256	 0.154423976805621 
2257	 0.153157483724796 
2258	 0.151858968453911 
2259	 0.150663676243327 
2260	 0.149285062047304 
2261	 0.147678423076465 
2262	 0.146372310754746 
2263	 0.145082635215054 
2264	 0.143926090835782 
2265	 0.143063508872471 
2266	 0.142000744506236 
2267	 0.140873141056485 
2268	 0.139786526439267 
2269	 0.138640288618729 
2270	 0.137626474900116 
2271	 0.136691934689539 
2272	 0.135770291895848 
2273	 0.134951188780844 
2274	 0.134056769777645 
2275	 0.133135622061553 
2276	 0.13226984651326 
2277	 0.131499239301235 
2278	 0.13056441531243 
2279	 0.129521326687132 
2280	 0.128528338530156 
2281	 0.127439662830976 
2282	 0.126376098368587 
2283	 0.125352343126122 
2284	 0.124420107454205 
2285	 0.123371376900856 
2286	 0.122200271171957 
2287	 0.120968985585663 
2288	 0.119579832430696 
2289	 0.118238855743604 
2290	 0.116942598152725 
2291	 0.115791450001812 
2292	 0.114673132215327 
2293	 0.113242340927821 
2294	 0.111873440783512 
2295	 0.110512606600721 
2296	 0.109147752142363 
2297	 0.10801187555355 
2298	 0.107053158413497 
2299	 0.106242509015913 
2300	 0.105621835021184 
2301	 0.104981113036186 
2302	 0.104438385836036 
2303	 0.104075182322982 
2304	 0.103738247136257 
2305	 0.103660535075734 
2306	 0.10384749654074 
2307	 0.104159936349735 
2308	 0.104599364672973 
2309	 0.105206088666202 
2310	 0.106077279867832 
2311	 0.106993135188855 
2312	 0.108063881390369 
2313	 0.109185333812775 
2314	 0.110508981984216 
2315	 0.111670640261877 
2316	 0.112830955627092 
2317	 0.113953338622133 
2318	 0.115025547801449 
2319	 0.116021037798398 
2320	 0.117102371441684 
2321	 0.117857766462914 
2322	 0.1183264234425 
2323	 0.118875579840768 
2324	 0.119298934058417 
2325	 0.119624031652952 
2326	 0.119946429227435 
2327	 0.120161571498853 
2328	 0.120241551697246 
2329	 0.120231087974683 
2330	 0.120252610903724 
2331	 0.119966590332754 
2332	 0.119459747609584 
2333	 0.118933564664482 
2334	 0.118433262460203 
2335	 0.117827567677344 
2336	 0.117268587092651 
2337	 0.116606328311361 
2338	 0.115730715690323 
2339	 0.115000576994526 
2340	 0.114246698505567 
2341	 0.113508828254453 
2342	 0.112852601930526 
2343	 0.112189229860935 
2344	 0.111505640662068 
2345	 0.110914943685072 
2346	 0.11057677571199 
2347	 0.110399931127371 
2348	 0.11056630364253 
2349	 0.110810485230132 
2350	 0.111078074971502 
2351	 0.111776195135219 
2352	 0.112536990077493 
2353	 0.113413031335338 
2354	 0.114383241852078 
2355	 0.115077104299585 
2356	 0.115661227219882 
2357	 0.116330682335488 
2358	 0.117042885183107 
2359	 0.117665897647222 
2360	 0.118103196409346 
2361	 0.118492160802666 
2362	 0.118834748244411 
2363	 0.118895362233453 
2364	 0.118859195527078 
2365	 0.118801119447476 
2366	 0.11880032524949 
2367	 0.11901339034004 
2368	 0.119096875866373 
2369	 0.11907803921188 
2370	 0.118902751806505 
2371	 0.118684716742967 
2372	 0.118910309978582 
2373	 0.119074308924067 
2374	 0.119137706971009 
2375	 0.119121583408968 
2376	 0.118750656650941 
2377	 0.118430173453456 
2378	 0.118338975978124 
2379	 0.11818951410967 
2380	 0.118002736719501 
2381	 0.118180079137757 
2382	 0.11835259334197 
2383	 0.118629616560663 
2384	 0.118710429968717 
2385	 0.11882047988402 
2386	 0.118841060337745 
2387	 0.118594446259216 
2388	 0.118675859426879 
2389	 0.119050448690542 
2390	 0.119085839783525 
2391	 0.119103050200818 
2392	 0.118964518184768 
2393	 0.118411219406149 
2394	 0.118401445405636 
2395	 0.118541186068935 
2396	 0.118621631233953 
2397	 0.119082379526583 
2398	 0.119232673964116 
2399	 0.119259392058755 
2400	 0.119317301184395 
2401	 0.119209903747529 
2402	 0.119277294686789 
2403	 0.119294695991791 
2404	 0.119631909795125 
2405	 0.119799765039661 
2406	 0.119980751792853 
2407	 0.120169400315215 
2408	 0.119875961829274 
2409	 0.119636390124974 
2410	 0.119461397784887 
2411	 0.119160773982046 
2412	 0.119106952018449 
2413	 0.119585444521662 
2414	 0.119930836844723 
2415	 0.11991420107264 
2416	 0.120119524534292 
2417	 0.119901152160821 
2418	 0.119271696655958 
2419	 0.119248061386405 
2420	 0.119249013631727 
2421	 0.119002313076712 
2422	 0.118917919740644 
2423	 0.119050027787552 
2424	 0.118863257347186 
2425	 0.118674163600827 
2426	 0.118946635139912 
2427	 0.118711342821416 
2428	 0.118577953554669 
2429	 0.118604772773636 
2430	 0.118406887245305 
2431	 0.118587707810343 
2432	 0.118923784266848 
2433	 0.119274676755137 
2434	 0.119361052662323 
2435	 0.119375511665465 
2436	 0.119496078710963 
2437	 0.119583614338552 
2438	 0.119896563024851 
2439	 0.120124011797315 
2440	 0.119889294927239 
2441	 0.119106125811794 
2442	 0.118082297922357 
2443	 0.117236110288651 
2444	 0.116215828546319 
2445	 0.115998484694893 
2446	 0.116930733342738 
2447	 0.117347835587942 
2448	 0.117406905549095 
2449	 0.117502374977525 
2450	 0.117352802636205 
2451	 0.117232467507508 
2452	 0.11803355125719 
2453	 0.118429198524357 
2454	 0.117331393578577 
2455	 0.116584943788031 
2456	 0.11623527350973 
2457	 0.116116784615196 
2458	 0.11659894647843 
2459	 0.117045271097586 
2460	 0.116504307945365 
2461	 0.115955177885892 
2462	 0.116050380643897 
2463	 0.116307512385343 
2464	 0.116941425352556 
2465	 0.117416523876993 
2466	 0.117936856905932 
2467	 0.117827265732647 
2468	 0.117779515014264 
2469	 0.118329295087574 
2470	 0.118228618427373 
2471	 0.118611584430953 
2472	 0.11903759173916 
2473	 0.118573674318275 
2474	 0.118194398397465 
2475	 0.118194102800734 
2476	 0.11812683382981 
2477	 0.117817113720781 
2478	 0.117917190082378 
2479	 0.118175851967994 
2480	 0.11834778726156 
2481	 0.118632271832848 
2482	 0.118917507500368 
2483	 0.118671893466395 
2484	 0.118904313109174 
2485	 0.119361274978173 
2486	 0.120482377915327 
2487	 0.121474670376088 
2488	 0.121177019045333 
2489	 0.121355095416094 
2490	 0.121230012975216 
2491	 0.12072021096883 
2492	 0.122231593312109 
2493	 0.122972420704359 
2494	 0.122505014801547 
2495	 0.122748703738828 
2496	 0.122392840524149 
2497	 0.122617571013379 
2498	 0.123367675601812 
2499	 0.123627843686823 
2500	 0.123917877708905 
