Wavelength	Tablay400044.asd
350	 0.353998718684419 
351	 0.264517756268843 
352	 0.212476624929539 
353	 0.319118208757242 
354	 0.261976045374524 
355	 0.243595997292085 
356	 0.251302939302826 
357	 0.241180109113082 
358	 0.22555407369279 
359	 0.22793579956462 
360	 0.223234814114925 
361	 0.174956193431817 
362	 0.159837323401684 
363	 0.146107687501959 
364	 0.129263824585747 
365	 0.154901286521505 
366	 0.159571933282293 
367	 0.142204549499269 
368	 0.124936630516544 
369	 0.156853256625782 
370	 0.119431853351184 
371	 7.06151579030857E-02 
372	 0.146752528908489 
373	 0.170147193717945 
374	 0.140087550927661 
375	 9.50202990546129E-02 
376	 0.109220553625157 
377	 0.115641945374522 
378	 0.141630918760424 
379	 0.192357815784703 
380	 0.13237253229859 
381	 0.107089112375953 
382	 0.125857876511414 
383	 0.107431760692696 
384	 0.100995817371671 
385	 0.105352444596733 
386	 0.109762269265001 
387	 9.68244542653583E-02 
388	 9.79126225811807E-02 
389	 0.111554864686959 
390	 0.124246021268452 
391	 0.108529038881104 
392	 0.111712264099391 
393	 0.118466024894393 
394	 8.10258720146294E-02 
395	 7.77259458113842E-02 
396	 8.67431044916653E-02 
397	 0.090494716573589 
398	 0.103698084310645 
399	 0.111154721562093 
400	 0.109934695851599 
401	 0.101693386515614 
402	 8.60841586394276E-02 
403	 8.17718349837293E-02 
404	 0.088784141660319 
405	 9.26987457184072E-02 
406	 8.13746961692281E-02 
407	 8.04340787092176E-02 
408	 9.48172042786156E-02 
409	 0.080253845661802 
410	 8.52163022449677E-02 
411	 9.26455046358661E-02 
412	 7.71372462247108E-02 
413	 7.50078770033416E-02 
414	 7.59985866541391E-02 
415	 0.0762341102895 
416	 7.91200895452149E-02 
417	 8.01580163236834E-02 
418	 7.39842218017166E-02 
419	 6.43122937763912E-02 
420	 7.70180074095185E-02 
421	 7.48961643910386E-02 
422	 0.066460737412428 
423	 7.31398002928797E-02 
424	 6.83818248364723E-02 
425	 6.78930258878561E-02 
426	 7.40569547501729E-02 
427	 0.072044965290129 
428	 7.00112314207018E-02 
429	 6.82428727868975E-02 
430	 6.65666150308612E-02 
431	 6.85344145439135E-02 
432	 7.02430316846973E-02 
433	 7.10986303258168E-02 
434	 7.18989150337314E-02 
435	 6.80007950184454E-02 
436	 6.60840738962547E-02 
437	 6.79583853671584E-02 
438	 6.66190744925809E-02 
439	 6.49721210427861E-02 
440	 6.46160604185143E-02 
441	 6.58692590349553E-02 
442	 6.51797789641081E-02 
443	 6.58364328594753E-02 
444	 6.66521136869044E-02 
445	 6.34105608806357E-02 
446	 6.16353468050376E-02 
447	 6.20582157724776E-02 
448	 6.37951194222034E-02 
449	 6.46199222287466E-02 
450	 6.27957052892458E-02 
451	 6.20422124202674E-02 
452	 6.58992349324575E-02 
453	 6.37422158334816E-02 
454	 0.062166468250683 
455	 6.34793496005317E-02 
456	 6.42245511429668E-02 
457	 6.37463010498311E-02 
458	 6.27203535163524E-02 
459	 6.20990765139784E-02 
460	 6.26181591805143E-02 
461	 6.27755897036098E-02 
462	 6.20986106284357E-02 
463	 6.10647898131619E-02 
464	 6.31122925461793E-02 
465	 6.31680949739266E-02 
466	 6.01584487444698E-02 
467	 6.01060983015674E-02 
468	 6.14197256922167E-02 
469	 6.18766940922549E-02 
470	 6.02837914449337E-02 
471	 6.05181007577821E-02 
472	 6.11994232365911E-02 
473	 6.07152085501259E-02 
474	 5.78746139695925E-02 
475	 5.85835942888688E-02 
476	 0.059910657517541 
477	 5.96388842486872E-02 
478	 6.02358054919588E-02 
479	 5.95273584665532E-02 
480	 5.82216210377909E-02 
481	 5.79605992791102E-02 
482	 5.90046633688706E-02 
483	 5.98081554370386E-02 
484	 5.95399096722504E-02 
485	 5.83368957327089E-02 
486	 0.058318706823328 
487	 5.88588184736572E-02 
488	 0.058944023902721 
489	 5.83440688087171E-02 
490	 5.86850216239555E-02 
491	 5.89440373948071E-02 
492	 5.71127768816607E-02 
493	 5.69911253617985E-02 
494	 5.78086722292614E-02 
495	 5.85626202180938E-02 
496	 5.87740014230133E-02 
497	 0.059215102541882 
498	 0.059231846523002 
499	 5.82948494884326E-02 
500	 0.058222273003235 
501	 0.058766479333333 
502	 5.89673909375569E-02 
503	 5.75369831902865E-02 
504	 5.70642180346802E-02 
505	 5.69389102929877E-02 
506	 5.67866076192186E-02 
507	 5.85144899349188E-02 
508	 5.83388640164171E-02 
509	 5.70888537921152E-02 
510	 5.72831247888707E-02 
511	 5.78416284180896E-02 
512	 0.057898125030625 
513	 5.72518251470661E-02 
514	 5.64645832499748E-02 
515	 5.73032493462252E-02 
516	 5.82769161032745E-02 
517	 5.78107459564785E-02 
518	 5.69657503314744E-02 
519	 5.65953850714665E-02 
520	 5.67383344164515E-02 
521	 5.68807334268825E-02 
522	 5.71313386177208E-02 
523	 0.057344950665022 
524	 5.74473939111529E-02 
525	 5.75598330732311E-02 
526	 5.74321421626119E-02 
527	 5.73526519512119E-02 
528	 5.76569050545698E-02 
529	 5.79250879400205E-02 
530	 5.76403866348701E-02 
531	 5.71687253629877E-02 
532	 5.77274332935097E-02 
533	 5.77724279810328E-02 
534	 5.76761877823013E-02 
535	 5.78697691980877E-02 
536	 5.76718313585671E-02 
537	 5.79553308751837E-02 
538	 0.058540060425426 
539	 5.87154926629758E-02 
540	 5.86624126874748E-02 
541	 5.86557937736919E-02 
542	 5.88131361471509E-02 
543	 0.058998092965007 
544	 5.90697364449776E-02 
545	 5.91761860455248E-02 
546	 5.94693543569669E-02 
547	 5.97052419080294E-02 
548	 5.98041708988594E-02 
549	 5.99516090313081E-02 
550	 6.05092415021046E-02 
551	 6.07145163138656E-02 
552	 6.08849064059875E-02 
553	 6.13211372142642E-02 
554	 6.17835219480129E-02 
555	 6.22635230242633E-02 
556	 6.26825005921158E-02 
557	 6.29554690585927E-02 
558	 6.31317256290257E-02 
559	 6.33777470645296E-02 
560	 6.38614418305403E-02 
561	 6.47479347790447E-02 
562	 6.52152268769589E-02 
563	 6.56484476261351E-02 
564	 6.64536421367964E-02 
565	 6.67408228834826E-02 
566	 6.72275000067121E-02 
567	 6.77489198718042E-02 
568	 6.75968229867841E-02 
569	 6.80773078011879E-02 
570	 6.89020714453676E-02 
571	 0.069639285057207 
572	 7.00425183202539E-02 
573	 7.07142406059332E-02 
574	 7.15372507534147E-02 
575	 7.22010802699746E-02 
576	 7.30725109963185E-02 
577	 7.36105533709999E-02 
578	 0.073935928007348 
579	 7.49412624085707E-02 
580	 7.57681505788737E-02 
581	 0.076460234229486 
582	 7.71913250961343E-02 
583	 7.78361837234429E-02 
584	 7.87201576943068E-02 
585	 7.96841894404113E-02 
586	 0.080330686361531 
587	 8.09106481466215E-02 
588	 8.16948619450219E-02 
589	 8.26833909498298E-02 
590	 0.083438094552255 
591	 8.42655838621169E-02 
592	 8.52204594695655E-02 
593	 8.62485514180482E-02 
594	 8.71921644133986E-02 
595	 8.79875974734788E-02 
596	 8.87114547188076E-02 
597	 8.95395702669496E-02 
598	 0.090272344879054 
599	 9.09938023312931E-02 
600	 9.18267598147579E-02 
601	 9.28990859213274E-02 
602	 9.37868466907948E-02 
603	 9.45275821175176E-02 
604	 9.53439914908167E-02 
605	 9.61735591805605E-02 
606	 9.69883340743503E-02 
607	 9.78405668369397E-02 
608	 9.88748747967368E-02 
609	 9.95571833978038E-02 
610	 0.100111228212561 
611	 0.100847382292962 
612	 0.101681947144879 
613	 0.102485356329892 
614	 0.10324044240123 
615	 0.104008505138342 
616	 0.104805032620071 
617	 0.105529731930477 
618	 0.106166405743833 
619	 0.106869861610138 
620	 0.107629773757319 
621	 0.108328269650603 
622	 0.108902471768492 
623	 0.109745739344966 
624	 0.110493657140287 
625	 0.111128717035739 
626	 0.111955128306597 
627	 0.112469452171022 
628	 0.112877572483111 
629	 0.113443431572858 
630	 0.114276398085941 
631	 0.114850622261424 
632	 0.115380079680631 
633	 0.116265419722724 
634	 0.116705794526424 
635	 0.117056899066525 
636	 0.117590662870518 
637	 0.118344603267752 
638	 0.118852627424599 
639	 0.1193858637984 
640	 0.120166555259585 
641	 0.120614961480912 
642	 0.121217814922256 
643	 0.12184658647878 
644	 0.122103941907403 
645	 0.122863231831711 
646	 0.1236072038471 
647	 0.124071057156153 
648	 0.124682131009769 
649	 0.125206114500589 
650	 0.125655297263533 
651	 0.12614418254871 
652	 0.126916353440846 
653	 0.127564904258763 
654	 0.128056788689641 
655	 0.128656208551828 
656	 0.129099103685825 
657	 0.129572716173644 
658	 0.130228328156546 
659	 0.131035393693649 
660	 0.13161512662541 
661	 0.132058699113544 
662	 0.13261624743163 
663	 0.13327535029025 
664	 0.134002964771459 
665	 0.134704346140941 
666	 0.135241621595316 
667	 0.135806609796337 
668	 0.136380672770443 
669	 0.13694259430061 
670	 0.137578757059669 
671	 0.138214897311037 
672	 0.138876698013307 
673	 0.139610844671029 
674	 0.140279559804836 
675	 0.140943404897768 
676	 0.141657730382864 
677	 0.142446023536626 
678	 0.142966557351111 
679	 0.143480098245981 
680	 0.144224762215534 
681	 0.144910594417562 
682	 0.145748282750892 
683	 0.146580682533494 
684	 0.147126431346776 
685	 0.147808507951604 
686	 0.148613636375421 
687	 0.149390006400203 
688	 0.149862738250976 
689	 0.150680318661803 
690	 0.151565270186394 
691	 0.152187786358238 
692	 0.152930342826207 
693	 0.153677221763472 
694	 0.154439575857776 
695	 0.155286708092463 
696	 0.156075522502136 
697	 0.156749245503384 
698	 0.157357761683197 
699	 0.158089332370063 
700	 0.158941582363433 
701	 0.159799283542433 
702	 0.160540232720978 
703	 0.161144547895825 
704	 0.161813592013521 
705	 0.162553802753347 
706	 0.163247514109468 
707	 0.164055700500657 
708	 0.164813516459986 
709	 0.165471989696608 
710	 0.166244587506307 
711	 0.166913591241489 
712	 0.167573742927105 
713	 0.168341116615194 
714	 0.16902982948671 
715	 0.169758961773475 
716	 0.170486094053908 
717	 0.171072966347005 
718	 0.171701022038507 
719	 0.172323276096544 
720	 0.172902127510444 
721	 0.173463372310977 
722	 0.174106821187196 
723	 0.174785305905609 
724	 0.175402711364975 
725	 0.175875881088478 
726	 0.176342421489903 
727	 0.176856608414864 
728	 0.177398169988407 
729	 0.177903365860467 
730	 0.178317131804733 
731	 0.178683795025093 
732	 0.179205309264555 
733	 0.179597929926685 
734	 0.179904343033502 
735	 0.180233645775523 
736	 0.180549466894284 
737	 0.180890678168629 
738	 0.18123311308356 
739	 0.181519094267051 
740	 0.181812326111447 
741	 0.18208749702317 
742	 0.182326348375867 
743	 0.182536806416192 
744	 0.182738980868359 
745	 0.182925789194252 
746	 0.183074475657835 
747	 0.183127295144723 
748	 0.183252725579769 
749	 0.18338556521001 
750	 0.183364603578054 
751	 0.183437617661977 
752	 0.183453931052195 
753	 0.183394124829283 
754	 0.18345246719992 
755	 0.18345646819382 
756	 0.183407505933502 
757	 0.183327573986883 
758	 0.183163341793433 
759	 0.183071422819788 
760	 0.183016476181988 
761	 0.18288362321868 
762	 0.182701671496974 
763	 0.18251158844542 
764	 0.18233332081799 
765	 0.182160614152897 
766	 0.181996141883093 
767	 0.181802988255082 
768	 0.181565493055099 
769	 0.181332516290826 
770	 0.181067102065219 
771	 0.180829905712656 
772	 0.180667535663721 
773	 0.180389202649865 
774	 0.180106850897616 
775	 0.179815398832604 
776	 0.17942399786392 
777	 0.17911548940446 
778	 0.178825527863883 
779	 0.178498755472535 
780	 0.178158784844514 
781	 0.177816319462623 
782	 0.177480133796861 
783	 0.177156253480793 
784	 0.176858447286706 
785	 0.176505061627859 
786	 0.176088440707401 
787	 0.175664364820586 
788	 0.175391159357583 
789	 0.17505439800897 
790	 0.174591904769341 
791	 0.174160507486659 
792	 0.17377203170444 
793	 0.17341737367837 
794	 0.173072185634126 
795	 0.17270567856732 
796	 0.172252944093774 
797	 0.171841905014545 
798	 0.171586695374388 
799	 0.171171163946913 
800	 0.170732847015069 
801	 0.170326312311336 
802	 0.169936344461666 
803	 0.169695472423627 
804	 0.169336723387144 
805	 0.168830950835713 
806	 0.168568928372942 
807	 0.168188183958386 
808	 0.167770962835219 
809	 0.167442347312505 
810	 0.167124538589345 
811	 0.166740025180313 
812	 0.166359910521472 
813	 0.166083665009797 
814	 0.165754728299913 
815	 0.165359750796342 
816	 0.164998052344105 
817	 0.164825118589145 
818	 0.164551703318405 
819	 0.164194941627019 
820	 0.163830240437492 
821	 0.163541284146246 
822	 0.163281311990389 
823	 0.162997541782997 
824	 0.162702048519991 
825	 0.162639407004734 
826	 0.162332282335042 
827	 0.161923675988468 
828	 0.161760554657893 
829	 0.161532298138999 
830	 0.161298291278966 
831	 0.161079204378899 
832	 0.160845332057313 
833	 0.160581631673924 
834	 0.16034198981712 
835	 0.160152569633676 
836	 0.159980941295279 
837	 0.15985077698118 
838	 0.159702784216426 
839	 0.159499083773059 
840	 0.159303465413773 
841	 0.159207901004071 
842	 0.159139713467396 
843	 0.158987555281064 
844	 0.158823134645771 
845	 0.158715811017135 
846	 0.158636948394746 
847	 0.158503207393562 
848	 0.158423177501195 
849	 0.158385540995513 
850	 0.158328024589778 
851	 0.158158824615171 
852	 0.158171311800383 
853	 0.158146162416994 
854	 0.158000204375124 
855	 0.158174930768506 
856	 0.158175136876831 
857	 0.158048329164662 
858	 0.157988557508479 
859	 0.158050250924858 
860	 0.158054355098037 
861	 0.158051559558115 
862	 0.158144991256112 
863	 0.157956035119684 
864	 0.15795157142828 
865	 0.158184923699649 
866	 0.158311940310852 
867	 0.158263919795091 
868	 0.158335068606297 
869	 0.158556008681358 
870	 0.158545553409872 
871	 0.158666446247278 
872	 0.158735104729872 
873	 0.158683140804239 
874	 0.158957497469432 
875	 0.159107248050512 
876	 0.15918757402828 
877	 0.159352424020102 
878	 0.1594925855607 
879	 0.159766712674856 
880	 0.159967790505145 
881	 0.15986695585032 
882	 0.160097418745185 
883	 0.160375800072435 
884	 0.160616260790326 
885	 0.160908216379834 
886	 0.161133585886728 
887	 0.161343247282562 
888	 0.161570772881867 
889	 0.161810559571148 
890	 0.162157548142287 
891	 0.162461199222533 
892	 0.162666873510086 
893	 0.162952175102818 
894	 0.163268238287171 
895	 0.163602880882901 
896	 0.163956703731369 
897	 0.164359366354213 
898	 0.16465234852587 
899	 0.164906488866941 
900	 0.165243003047882 
901	 0.165642794275205 
902	 0.166009832552577 
903	 0.166371820097582 
904	 0.166785591565925 
905	 0.167090156584598 
906	 0.167458051411176 
907	 0.167888931463468 
908	 0.168271491944915 
909	 0.168745036148602 
910	 0.169351234039323 
911	 0.169876547477428 
912	 0.169964375686566 
913	 0.170375284805445 
914	 0.171002945826963 
915	 0.171669374749604 
916	 0.17229245279627 
917	 0.172622283830209 
918	 0.172984136710952 
919	 0.173575437422556 
920	 0.1741341234614 
921	 0.174730713109272 
922	 0.175304227493983 
923	 0.175821399975288 
924	 0.17639551942451 
925	 0.176880444656398 
926	 0.177360560424161 
927	 0.177998543657978 
928	 0.179001731266333 
929	 0.179510022306745 
930	 0.17988169557564 
931	 0.180737802531928 
932	 0.181396025190582 
933	 0.182006740567945 
934	 0.182679440394199 
935	 0.183447420602473 
936	 0.184099854550374 
937	 0.184855241424476 
938	 0.185661194346661 
939	 0.186316428502692 
940	 0.187079976087523 
941	 0.187816864510696 
942	 0.188537574783116 
943	 0.189371379671883 
944	 0.19012970182871 
945	 0.190709804244517 
946	 0.191347374034788 
947	 0.192497533483461 
948	 0.193285750605463 
949	 0.194064600724725 
950	 0.194958770324905 
951	 0.19560625416106 
952	 0.19623220876584 
953	 0.197009733297254 
954	 0.197896038118676 
955	 0.198580910924429 
956	 0.199543336107255 
957	 0.200544613574654 
958	 0.201395337774403 
959	 0.202253220870028 
960	 0.203135473705482 
961	 0.203898550094238 
962	 0.204568072039087 
963	 0.205565587185204 
964	 0.206325638350185 
965	 0.207119088416945 
966	 0.20812389705802 
967	 0.208812031113328 
968	 0.209820635206919 
969	 0.210802334009261 
970	 0.211485143644374 
971	 0.212491867009038 
972	 0.213489696437447 
973	 0.214307144560392 
974	 0.214976528127989 
975	 0.215924870008703 
976	 0.217010204550604 
977	 0.217983741582345 
978	 0.218715928039392 
979	 0.219524200087216 
980	 0.220442583587998 
981	 0.221407958983894 
982	 0.222360610261431 
983	 0.223456962224924 
984	 0.22394003216085 
985	 0.224632773353826 
986	 0.22620031248375 
987	 0.226910266647096 
988	 0.227590670665265 
989	 0.228544221849774 
990	 0.22969639109508 
991	 0.230390260364279 
992	 0.231177709886623 
993	 0.232006540307671 
994	 0.232715515332342 
995	 0.233530660025587 
996	 0.234769693948367 
997	 0.235706038750905 
998	 0.235888635753408 
999	 0.237016952006653 
1000	 0.238113750991539 
1001	 0.241449298608764 
1002	 0.242194747583207 
1003	 0.242963665682439 
1004	 0.243757778668156 
1005	 0.244568189655551 
1006	 0.245299700150677 
1007	 0.245820764368721 
1008	 0.246789065060061 
1009	 0.248036838550908 
1010	 0.248964837215237 
1011	 0.250148120446767 
1012	 0.251078339720343 
1013	 0.251469599343461 
1014	 0.252186157467754 
1015	 0.25316156867335 
1016	 0.25393126125401 
1017	 0.254531403896698 
1018	 0.255400518859169 
1019	 0.256197624862696 
1020	 0.256981423042666 
1021	 0.257770318087968 
1022	 0.258645824808596 
1023	 0.259445764069649 
1024	 0.260187060462733 
1025	 0.260949449623849 
1026	 0.26178628396574 
1027	 0.262528031046534 
1028	 0.263159741803692 
1029	 0.263852096944837 
1030	 0.264630436497312 
1031	 0.265214098759722 
1032	 0.265803366949351 
1033	 0.266366740107189 
1034	 0.266792015172135 
1035	 0.267384716844708 
1036	 0.268037574433485 
1037	 0.268805512248021 
1038	 0.269546690062472 
1039	 0.270424700306565 
1040	 0.271081100738546 
1041	 0.271659772968486 
1042	 0.272192589849213 
1043	 0.272563810558232 
1044	 0.27293904970789 
1045	 0.273591035334894 
1046	 0.27429063050146 
1047	 0.274920885818632 
1048	 0.275790829949482 
1049	 0.276434798786143 
1050	 0.276867644349294 
1051	 0.277466003243648 
1052	 0.27801787583007 
1053	 0.278449620859923 
1054	 0.278725950692365 
1055	 0.279247434936258 
1056	 0.279720585739075 
1057	 0.280279346050112 
1058	 0.281013230043099 
1059	 0.281844622859334 
1060	 0.282528513736973 
1061	 0.283034283215472 
1062	 0.283518764442999 
1063	 0.284021660502686 
1064	 0.284555744487415 
1065	 0.285234745562695 
1066	 0.285901009382593 
1067	 0.286681524058017 
1068	 0.287373481209828 
1069	 0.287864874945681 
1070	 0.288452417719848 
1071	 0.289075423447718 
1072	 0.289653279911967 
1073	 0.290290993968609 
1074	 0.290988186533402 
1075	 0.291767597509371 
1076	 0.292459423295749 
1077	 0.292912271438473 
1078	 0.293485718881109 
1079	 0.294054582963191 
1080	 0.29461376607136 
1081	 0.295256555605856 
1082	 0.295921732160449 
1083	 0.296587180231931 
1084	 0.29702139739194 
1085	 0.297549535862671 
1086	 0.298115764098273 
1087	 0.298692406268414 
1088	 0.299130640588746 
1089	 0.299854518970874 
1090	 0.300495109276967 
1091	 0.30092870877479 
1092	 0.301453149618343 
1093	 0.30190748635325 
1094	 0.302364511781329 
1095	 0.302941784338826 
1096	 0.303577224370905 
1097	 0.304210881546617 
1098	 0.304794907781002 
1099	 0.305320758116976 
1100	 0.305850921047147 
1101	 0.306331311558836 
1102	 0.306725891881445 
1103	 0.307173134366498 
1104	 0.307635629879101 
1105	 0.308127020556038 
1106	 0.308565415476166 
1107	 0.308984655477702 
1108	 0.309447502932858 
1109	 0.309877494593298 
1110	 0.310193533472967 
1111	 0.31054835238494 
1112	 0.310951601186838 
1113	 0.311293095681027 
1114	 0.311718877926657 
1115	 0.312239539424834 
1116	 0.312710791871077 
1117	 0.313065908907532 
1118	 0.313433442931754 
1119	 0.313786445435751 
1120	 0.314141752271443 
1121	 0.314460561318135 
1122	 0.31482804584917 
1123	 0.315147472802818 
1124	 0.315542927201569 
1125	 0.315964411129312 
1126	 0.316294253513001 
1127	 0.316682724043794 
1128	 0.317016865061389 
1129	 0.317356532509543 
1130	 0.317754205442813 
1131	 0.31807535339809 
1132	 0.318402822564495 
1133	 0.318689852713667 
1134	 0.318874319051174 
1135	 0.319155054665692 
1136	 0.319533705735979 
1137	 0.319831536246464 
1138	 0.320104544836329 
1139	 0.320446163499266 
1140	 0.32082553542622 
1141	 0.321111662791771 
1142	 0.32142929331202 
1143	 0.32171458922153 
1144	 0.321917661812644 
1145	 0.322169135223452 
1146	 0.32247284138129 
1147	 0.322724476541651 
1148	 0.322979294171978 
1149	 0.323245447461014 
1150	 0.323522966741089 
1151	 0.323861126477349 
1152	 0.324121267310372 
1153	 0.324345381860111 
1154	 0.324566611711909 
1155	 0.324689432039703 
1156	 0.324933734708397 
1157	 0.325286519938963 
1158	 0.325579982808194 
1159	 0.325923282630182 
1160	 0.326190858569584 
1161	 0.326404594362644 
1162	 0.326604653258078 
1163	 0.326826936510931 
1164	 0.327150424899389 
1165	 0.327440980537686 
1166	 0.327728016188715 
1167	 0.328077856426728 
1168	 0.328315872525261 
1169	 0.328567142324883 
1170	 0.328827542442283 
1171	 0.329078037451927 
1172	 0.32926045897022 
1173	 0.329520201236172 
1174	 0.329862275849486 
1175	 0.33009547733212 
1176	 0.33031594628588 
1177	 0.330530858789559 
1178	 0.330688449843907 
1179	 0.330820610419957 
1180	 0.331028605897027 
1181	 0.331215437124199 
1182	 0.331382114795875 
1183	 0.331565835648185 
1184	 0.331760909146251 
1185	 0.332003034106698 
1186	 0.332215891115627 
1187	 0.33243850689601 
1188	 0.332641275753235 
1189	 0.332832540153923 
1190	 0.333020195523283 
1191	 0.333196975383104 
1192	 0.333393554400333 
1193	 0.333578993831102 
1194	 0.33375544777954 
1195	 0.33392456293358 
1196	 0.334140503068575 
1197	 0.334354362668712 
1198	 0.334618549744736 
1199	 0.334930292144228 
1200	 0.335228045528539 
1201	 0.335537098415829 
1202	 0.335848361354401 
1203	 0.33615573606728 
1204	 0.336447413952315 
1205	 0.336743096104123 
1206	 0.337030491445043 
1207	 0.337323646188086 
1208	 0.337604464269148 
1209	 0.33791888477443 
1210	 0.338222101507847 
1211	 0.338575647057069 
1212	 0.338964246532994 
1213	 0.339388140022271 
1214	 0.339840227770283 
1215	 0.34033087573967 
1216	 0.340908103499792 
1217	 0.341438421548928 
1218	 0.342000290614082 
1219	 0.342510279451396 
1220	 0.343024967898064 
1221	 0.343434713656221 
1222	 0.343770592180015 
1223	 0.344268347752733 
1224	 0.344758437581332 
1225	 0.345261554180917 
1226	 0.345776191802123 
1227	 0.346369741091799 
1228	 0.346886216912863 
1229	 0.347386799951171 
1230	 0.347856762743489 
1231	 0.348311026868444 
1232	 0.348728443582212 
1233	 0.349059520782523 
1234	 0.34945323159032 
1235	 0.34987433415451 
1236	 0.350259059215668 
1237	 0.350643367073676 
1238	 0.351036860032388 
1239	 0.351394179633226 
1240	 0.351785890509718 
1241	 0.352169400303478 
1242	 0.352552469770996 
1243	 0.352937218772049 
1244	 0.353312935929105 
1245	 0.353668535583038 
1246	 0.354040704382253 
1247	 0.354370574779648 
1248	 0.354615665829538 
1249	 0.354960581818674 
1250	 0.355358661203875 
1251	 0.355719603843742 
1252	 0.356153560611662 
1253	 0.356483649490716 
1254	 0.356704663145561 
1255	 0.356982124536502 
1256	 0.357279618277166 
1257	 0.357517957340247 
1258	 0.357717385050295 
1259	 0.357956505930764 
1260	 0.358155684574804 
1261	 0.358375134653491 
1262	 0.358661229207989 
1263	 0.358927545009061 
1264	 0.359167128963343 
1265	 0.359383607832288 
1266	 0.359588005968297 
1267	 0.359766561867665 
1268	 0.359969482001921 
1269	 0.360133475007167 
1270	 0.36037174552034 
1271	 0.360687998277996 
1272	 0.360935078082246 
1273	 0.361182388121974 
1274	 0.361432440243012 
1275	 0.361660972195558 
1276	 0.361872614544029 
1277	 0.362048514201941 
1278	 0.362297839711637 
1279	 0.362514886084754 
1280	 0.36281346434366 
1281	 0.363306125044115 
1282	 0.363656341261305 
1283	 0.363954472951903 
1284	 0.364254279696294 
1285	 0.36452168731098 
1286	 0.364685202179452 
1287	 0.364970401428972 
1288	 0.36527369131431 
1289	 0.365668184329964 
1290	 0.366170887315566 
1291	 0.366566777426051 
1292	 0.367007960738618 
1293	 0.367377624743771 
1294	 0.367604870679484 
1295	 0.367971735736964 
1296	 0.368422852751378 
1297	 0.368808701455088 
1298	 0.3692187259311 
1299	 0.369604567841389 
1300	 0.369941373784942 
1301	 0.370289355539665 
1302	 0.370637595273173 
1303	 0.370998074431119 
1304	 0.371352648218507 
1305	 0.371707346251892 
1306	 0.372056266089024 
1307	 0.372438813928735 
1308	 0.372844182387618 
1309	 0.373256819855523 
1310	 0.373593713276424 
1311	 0.373921305575066 
1312	 0.374254350551316 
1313	 0.374539080444251 
1314	 0.374806879479684 
1315	 0.375080989523566 
1316	 0.375372940352547 
1317	 0.375610244605206 
1318	 0.375889501129119 
1319	 0.376262033836306 
1320	 0.376540327464044 
1321	 0.376751066110452 
1322	 0.376990579364212 
1323	 0.37723654581531 
1324	 0.377445735712266 
1325	 0.377614059439931 
1326	 0.377823766314804 
1327	 0.378048184184258 
1328	 0.378236538007678 
1329	 0.378452960540038 
1330	 0.378632408649799 
1331	 0.378735222110931 
1332	 0.378868536302261 
1333	 0.379020572337242 
1334	 0.379155470933631 
1335	 0.379292402333315 
1336	 0.379434268000998 
1337	 0.37956038996761 
1338	 0.379684508432737 
1339	 0.37978340176483 
1340	 0.379861046867251 
1341	 0.379947893069962 
1342	 0.380024492785166 
1343	 0.380096996673848 
1344	 0.380190802908293 
1345	 0.380233219934889 
1346	 0.380240687338696 
1347	 0.38025168995042 
1348	 0.380218519796995 
1349	 0.380229154619814 
1350	 0.380292961428906 
1351	 0.380284426370095 
1352	 0.380233066922928 
1353	 0.380223099216528 
1354	 0.380151771977342 
1355	 0.380158535705165 
1356	 0.380307637657731 
1357	 0.380342736510572 
1358	 0.380343057194869 
1359	 0.380335457306876 
1360	 0.380270963866252 
1361	 0.380189168211022 
1362	 0.380128918446924 
1363	 0.380106357322184 
1364	 0.380048980586838 
1365	 0.379965577131917 
1366	 0.379928942511073 
1367	 0.379918598088699 
1368	 0.379868540506628 
1369	 0.379844303252033 
1370	 0.37975535616685 
1371	 0.379625702402035 
1372	 0.379471143241672 
1373	 0.379282725463977 
1374	 0.379091722926764 
1375	 0.37883185695692 
1376	 0.378643327733833 
1377	 0.378499631553618 
1378	 0.378325717996568 
1379	 0.378173097322754 
1380	 0.378002517371691 
1381	 0.377810854987996 
1382	 0.377604993630113 
1383	 0.377372289602876 
1384	 0.37717745701776 
1385	 0.37699124722559 
1386	 0.376795405240594 
1387	 0.37662033757961 
1388	 0.376446127427148 
1389	 0.376247514986177 
1390	 0.376068623382844 
1391	 0.375889427922375 
1392	 0.375754788083683 
1393	 0.375643682468382 
1394	 0.375536754664507 
1395	 0.37545016865761 
1396	 0.375395516843038 
1397	 0.375349391033917 
1398	 0.375335583970284 
1399	 0.375261544315781 
1400	 0.375211365537882 
1401	 0.375071581986664 
1402	 0.374869850123814 
1403	 0.374632267060493 
1404	 0.374365521306619 
1405	 0.374033137027142 
1406	 0.373605010322683 
1407	 0.373223911911425 
1408	 0.372812061466438 
1409	 0.372407503198027 
1410	 0.372003357135861 
1411	 0.371621975121635 
1412	 0.371228296919309 
1413	 0.370862271500825 
1414	 0.370515204205896 
1415	 0.370213133705638 
1416	 0.369921231323119 
1417	 0.369665096842297 
1418	 0.369489375935516 
1419	 0.369287786398816 
1420	 0.369082970103316 
1421	 0.368898259990797 
1422	 0.368717569028199 
1423	 0.368543254611497 
1424	 0.36837603545858 
1425	 0.368231314430567 
1426	 0.368087903514135 
1427	 0.367990258793344 
1428	 0.36790811255989 
1429	 0.367821667177763 
1430	 0.367699258229382 
1431	 0.367550921854552 
1432	 0.36742600725478 
1433	 0.367266466462322 
1434	 0.367171547781213 
1435	 0.36713048742232 
1436	 0.367061453243075 
1437	 0.367006936071823 
1438	 0.366942733975748 
1439	 0.366868399369288 
1440	 0.366791820123358 
1441	 0.366705006222431 
1442	 0.366654965695409 
1443	 0.3665740500205 
1444	 0.366586039054338 
1445	 0.366686580263784 
1446	 0.366749010365989 
1447	 0.366802514900321 
1448	 0.366946328006276 
1449	 0.367098237177187 
1450	 0.367317927351337 
1451	 0.367624025208481 
1452	 0.367976683579417 
1453	 0.368389806336904 
1454	 0.368803828319723 
1455	 0.369289846177795 
1456	 0.369766633972206 
1457	 0.370236967562045 
1458	 0.370719810048235 
1459	 0.371233453746504 
1460	 0.371740933913108 
1461	 0.372245123731102 
1462	 0.372744524903511 
1463	 0.373282271832532 
1464	 0.373762839136159 
1465	 0.37417872106925 
1466	 0.374632968356831 
1467	 0.375083638761162 
1468	 0.375501577876095 
1469	 0.375970021855419 
1470	 0.376434605669971 
1471	 0.376877802270607 
1472	 0.377290976245013 
1473	 0.377737223250772 
1474	 0.378201166589686 
1475	 0.378632050480317 
1476	 0.379063379572583 
1477	 0.379482157926613 
1478	 0.379882822622865 
1479	 0.380261041508655 
1480	 0.38063336092305 
1481	 0.380990666551558 
1482	 0.381299498618444 
1483	 0.38164667499877 
1484	 0.38203043241189 
1485	 0.382362136828158 
1486	 0.382667982820383 
1487	 0.382991713277638 
1488	 0.38328814089942 
1489	 0.383605989146147 
1490	 0.383971137134658 
1491	 0.384283029196084 
1492	 0.384541282948074 
1493	 0.384851863723272 
1494	 0.385140162894461 
1495	 0.385489232077695 
1496	 0.385911014265148 
1497	 0.386310778784858 
1498	 0.3867514720708 
1499	 0.387147845957787 
1500	 0.387516483200269 
1501	 0.387892601390427 
1502	 0.388252207497652 
1503	 0.388610289830755 
1504	 0.388973790048321 
1505	 0.389329728012412 
1506	 0.389702390189037 
1507	 0.390021433323635 
1508	 0.390309451822868 
1509	 0.390591830888488 
1510	 0.390825001682166 
1511	 0.391066398385844 
1512	 0.391292895731094 
1513	 0.391545311951502 
1514	 0.391815280481656 
1515	 0.392071380048458 
1516	 0.392374435713478 
1517	 0.392621512710228 
1518	 0.392809908658919 
1519	 0.393004354753132 
1520	 0.393161190187033 
1521	 0.393331895375483 
1522	 0.393546536089714 
1523	 0.393737015155942 
1524	 0.393895585841652 
1525	 0.394046615868382 
1526	 0.39418709227132 
1527	 0.394289165357691 
1528	 0.394405063007629 
1529	 0.39451883724046 
1530	 0.394660138086998 
1531	 0.394818339325133 
1532	 0.394922243537815 
1533	 0.395025174467686 
1534	 0.395133326635563 
1535	 0.39517631835835 
1536	 0.395301724051223 
1537	 0.395506144541131 
1538	 0.395643908083374 
1539	 0.395770233410558 
1540	 0.395897462627869 
1541	 0.395997020602776 
1542	 0.396129180094291 
1543	 0.396276944034227 
1544	 0.396426194803962 
1545	 0.396565762712427 
1546	 0.396760832107455 
1547	 0.39698082348546 
1548	 0.397218778721502 
1549	 0.3975138093855 
1550	 0.397776124027318 
1551	 0.398047802433432 
1552	 0.398289203249726 
1553	 0.398520495539252 
1554	 0.398734831092386 
1555	 0.398929951054571 
1556	 0.399105436467009 
1557	 0.399232597684532 
1558	 0.399423081760002 
1559	 0.399641574491598 
1560	 0.399823382156119 
1561	 0.400014337580498 
1562	 0.400221765468242 
1563	 0.400395482384815 
1564	 0.400597832694103 
1565	 0.400869944958522 
1566	 0.401085145412659 
1567	 0.401247357468167 
1568	 0.401452562645184 
1569	 0.401677338253909 
1570	 0.401880221686777 
1571	 0.40210404917842 
1572	 0.402292750355371 
1573	 0.402416775931758 
1574	 0.402603795688844 
1575	 0.402814818728651 
1576	 0.403019567900697 
1577	 0.403267190005714 
1578	 0.403480823330223 
1579	 0.40366108925477 
1580	 0.403858887029331 
1581	 0.404073260848016 
1582	 0.404254801364898 
1583	 0.404408893446063 
1584	 0.404588171815524 
1585	 0.404764998118369 
1586	 0.404935140872842 
1587	 0.405117156237293 
1588	 0.405299529912669 
1589	 0.405453489173544 
1590	 0.405639218826361 
1591	 0.405872488619134 
1592	 0.406070242252419 
1593	 0.40622594249 
1594	 0.406442044797717 
1595	 0.406727515750672 
1596	 0.406923632162977 
1597	 0.407096789915598 
1598	 0.407289189717766 
1599	 0.4074115782686 
1600	 0.407564454220198 
1601	 0.407800262190091 
1602	 0.407969444533284 
1603	 0.408057211323779 
1604	 0.408202550315203 
1605	 0.408382377415773 
1606	 0.408523723335032 
1607	 0.408663991566709 
1608	 0.408810823998031 
1609	 0.408919769944274 
1610	 0.409049827285856 
1611	 0.409206877331359 
1612	 0.409368506735666 
1613	 0.409552693751572 
1614	 0.40970061039072 
1615	 0.409841217263363 
1616	 0.409975359615213 
1617	 0.410083979254857 
1618	 0.410180701870547 
1619	 0.410307864510283 
1620	 0.410370827511181 
1621	 0.410349747886673 
1622	 0.410370479604192 
1623	 0.410355118880093 
1624	 0.410384254970173 
1625	 0.410488789803761 
1626	 0.410537010676033 
1627	 0.410593383403542 
1628	 0.410607602815854 
1629	 0.410542448969293 
1630	 0.410523658425984 
1631	 0.410493999340338 
1632	 0.410498237980424 
1633	 0.41054616571634 
1634	 0.410583285182581 
1635	 0.410613349034058 
1636	 0.410664480709036 
1637	 0.410737187185837 
1638	 0.410814503051028 
1639	 0.410933055689795 
1640	 0.411009219633236 
1641	 0.411066465390917 
1642	 0.411112674523183 
1643	 0.411138259954825 
1644	 0.411155520488884 
1645	 0.411142106293244 
1646	 0.411151365100229 
1647	 0.411195317761132 
1648	 0.411179576744605 
1649	 0.41113905891646 
1650	 0.411100865188171 
1651	 0.411015790876725 
1652	 0.410935194627299 
1653	 0.410899573064408 
1654	 0.410806441692105 
1655	 0.410685298322968 
1656	 0.41050822302414 
1657	 0.41025102693481 
1658	 0.41004002719541 
1659	 0.409847638914868 
1660	 0.40957562476958 
1661	 0.409302268380278 
1662	 0.408968542045056 
1663	 0.408529223839777 
1664	 0.408101101893501 
1665	 0.407701091200921 
1666	 0.407205663537545 
1667	 0.406645220659451 
1668	 0.406067020359299 
1669	 0.405446156332722 
1670	 0.404744405429525 
1671	 0.403990131764099 
1672	 0.403189293128681 
1673	 0.402326126768809 
1674	 0.401407988094146 
1675	 0.400427651931328 
1676	 0.399442608245151 
1677	 0.398435314653621 
1678	 0.397342319564554 
1679	 0.396225841639285 
1680	 0.395012185021245 
1681	 0.393650208064205 
1682	 0.392318910192059 
1683	 0.390990037958976 
1684	 0.389610311416985 
1685	 0.388226690788088 
1686	 0.386721031012697 
1687	 0.385114137207215 
1688	 0.383467223097175 
1689	 0.38170315530691 
1690	 0.379981964063037 
1691	 0.378285280434513 
1692	 0.376516671097215 
1693	 0.374764557983133 
1694	 0.372870516416516 
1695	 0.370801961563076 
1696	 0.368821235333375 
1697	 0.366807483655019 
1698	 0.364769573954584 
1699	 0.362784693898658 
1700	 0.360755282155108 
1701	 0.358621122041485 
1702	 0.356595937469022 
1703	 0.354545874007177 
1704	 0.3526785684071 
1705	 0.350883278338647 
1706	 0.349191547000765 
1707	 0.347695639141142 
1708	 0.34620865261432 
1709	 0.34487175702054 
1710	 0.343708242792025 
1711	 0.34251292836088 
1712	 0.34137617857918 
1713	 0.340364734900695 
1714	 0.339346182547309 
1715	 0.338424589468683 
1716	 0.337613936630068 
1717	 0.336790141097979 
1718	 0.336023699222735 
1719	 0.335292373829906 
1720	 0.33460175807495 
1721	 0.334007208924236 
1722	 0.333474785329048 
1723	 0.333087503142211 
1724	 0.332755581441321 
1725	 0.332516756373282 
1726	 0.332495090148719 
1727	 0.332571789591142 
1728	 0.332848484435366 
1729	 0.33333635774024 
1730	 0.333886740143263 
1731	 0.334586414267335 
1732	 0.335445555860728 
1733	 0.336290598306991 
1734	 0.337237065565016 
1735	 0.338279851468657 
1736	 0.339313627589747 
1737	 0.34030565173117 
1738	 0.341265260939629 
1739	 0.341986890630098 
1740	 0.342521669026311 
1741	 0.34295855640752 
1742	 0.343205495993017 
1743	 0.343368244988775 
1744	 0.343420606812606 
1745	 0.343376658461391 
1746	 0.343190516644027 
1747	 0.343015494626393 
1748	 0.342747683818836 
1749	 0.342516544563905 
1750	 0.342216091624688 
1751	 0.342073323904108 
1752	 0.341944375091483 
1753	 0.341931950999999 
1754	 0.34210034968376 
1755	 0.342238484264194 
1756	 0.342387371689956 
1757	 0.342684202779327 
1758	 0.343005110981111 
1759	 0.343403687202657 
1760	 0.343992800446044 
1761	 0.344754619109132 
1762	 0.345550434040718 
1763	 0.346539203583317 
1764	 0.347619282432563 
1765	 0.348645610452095 
1766	 0.349853207794063 
1767	 0.351149886689673 
1768	 0.352469673086365 
1769	 0.353871286701927 
1770	 0.355212287950801 
1771	 0.356453812418308 
1772	 0.357577965051146 
1773	 0.358674338420427 
1774	 0.35979754655979 
1775	 0.360840537833206 
1776	 0.361875270795783 
1777	 0.362782210402567 
1778	 0.363540598588476 
1779	 0.364257301085865 
1780	 0.364885486103982 
1781	 0.365578036603736 
1782	 0.366237174537761 
1783	 0.366739467006547 
1784	 0.36724075726778 
1785	 0.367629791322696 
1786	 0.36800196561826 
1787	 0.368412981926095 
1788	 0.368762743155159 
1789	 0.368951966113412 
1790	 0.369259727014379 
1791	 0.369630993554937 
1792	 0.369931615314625 
1793	 0.370301415006032 
1794	 0.370605109981689 
1795	 0.370773363998952 
1796	 0.371036555663819 
1797	 0.371325233231662 
1798	 0.371520380378704 
1799	 0.371811499487415 
1800	 0.372138755885497 
1801	 0.369304253320711 
1802	 0.369556622858702 
1803	 0.369811742663224 
1804	 0.370070208715035 
1805	 0.370393332088742 
1806	 0.370649944631002 
1807	 0.37086287844128 
1808	 0.371092835241362 
1809	 0.37128486008322 
1810	 0.37154592552371 
1811	 0.371856326410719 
1812	 0.372134212761244 
1813	 0.372427413719737 
1814	 0.372757206361264 
1815	 0.372993339446373 
1816	 0.373213731400735 
1817	 0.373491152872973 
1818	 0.37379108579239 
1819	 0.374085009107797 
1820	 0.374422846953513 
1821	 0.374733965555208 
1822	 0.375043055221075 
1823	 0.375291799464318 
1824	 0.375614647079433 
1825	 0.376070048978321 
1826	 0.376414678902897 
1827	 0.376774992731771 
1828	 0.377096337051914 
1829	 0.377340055761662 
1830	 0.377596702683217 
1831	 0.377801731357338 
1832	 0.378133382432674 
1833	 0.3784695740051 
1834	 0.378812369274428 
1835	 0.379183333883519 
1836	 0.379560603705015 
1837	 0.379891217276051 
1838	 0.380167324667615 
1839	 0.380454655922213 
1840	 0.380711466876613 
1841	 0.381000900971777 
1842	 0.381298843134489 
1843	 0.381600471114484 
1844	 0.381877098092365 
1845	 0.382208338389937 
1846	 0.382549545262213 
1847	 0.382812246117091 
1848	 0.383088591412459 
1849	 0.383427823066226 
1850	 0.383643706072782 
1851	 0.383760626160088 
1852	 0.383922662885523 
1853	 0.384111135142317 
1854	 0.384232512603899 
1855	 0.384414441915476 
1856	 0.384569409775828 
1857	 0.384558808984985 
1858	 0.384557918416598 
1859	 0.384581394265137 
1860	 0.384567193738054 
1861	 0.384586084287076 
1862	 0.384673633196777 
1863	 0.3847088109129 
1864	 0.384666532543972 
1865	 0.384538042423772 
1866	 0.384340188239021 
1867	 0.384126906683632 
1868	 0.383908088475341 
1869	 0.383681847231865 
1870	 0.383399060680844 
1871	 0.383113444656786 
1872	 0.382743132110084 
1873	 0.382310974236588 
1874	 0.381816128870104 
1875	 0.381298950189306 
1876	 0.380710907547939 
1877	 0.380054634927267 
1878	 0.379328125361442 
1879	 0.378548046638851 
1880	 0.377707362500064 
1881	 0.376791021910437 
1882	 0.375787355476336 
1883	 0.374795407417309 
1884	 0.373701644516256 
1885	 0.37244447462165 
1886	 0.371161394561942 
1887	 0.36971379007279 
1888	 0.368123721514876 
1889	 0.366567344660067 
1890	 0.364886890356451 
1891	 0.363176860908482 
1892	 0.361419840952145 
1893	 0.359580808265834 
1894	 0.357630861667702 
1895	 0.355721218268361 
1896	 0.353739737853189 
1897	 0.351734089822752 
1898	 0.349850343420994 
1899	 0.347892454838046 
1900	 0.345966231398079 
1901	 0.344149870883909 
1902	 0.342314773309057 
1903	 0.340579411599575 
1904	 0.338891115928167 
1905	 0.337248162871232 
1906	 0.335671871998276 
1907	 0.334264564721188 
1908	 0.332954069969452 
1909	 0.331754832164815 
1910	 0.330626776609521 
1911	 0.329465524928949 
1912	 0.328368360788487 
1913	 0.327365467608027 
1914	 0.326415728372939 
1915	 0.325530830340914 
1916	 0.324742601122584 
1917	 0.323974372367518 
1918	 0.323240953428815 
1919	 0.32258086007038 
1920	 0.321936889054835 
1921	 0.321350113856777 
1922	 0.320834510389441 
1923	 0.320320545366873 
1924	 0.319895194629468 
1925	 0.319554138114856 
1926	 0.319187782817658 
1927	 0.31880524441208 
1928	 0.318504654830255 
1929	 0.318257397464194 
1930	 0.317968314713895 
1931	 0.317776361199002 
1932	 0.317687231857639 
1933	 0.317580307905513 
1934	 0.317518627239147 
1935	 0.317501927016505 
1936	 0.317481180877505 
1937	 0.317539394667572 
1938	 0.317660464920989 
1939	 0.317823289836472 
1940	 0.318049744859891 
1941	 0.318316045072178 
1942	 0.318537410556924 
1943	 0.31872869635385 
1944	 0.318977771184738 
1945	 0.319338641233443 
1946	 0.319842897681271 
1947	 0.320377784565387 
1948	 0.320898724963889 
1949	 0.321442382857704 
1950	 0.321988305393107 
1951	 0.322499092968839 
1952	 0.323077595599616 
1953	 0.323703846913139 
1954	 0.324327182561469 
1955	 0.325040605120263 
1956	 0.325787169856843 
1957	 0.326531930153598 
1958	 0.327269438922069 
1959	 0.32790936032965 
1960	 0.328508810084324 
1961	 0.329095350444338 
1962	 0.329669514172225 
1963	 0.330191974637288 
1964	 0.330650063847371 
1965	 0.331131755890629 
1966	 0.331577519647829 
1967	 0.332059227941047 
1968	 0.332585770672931 
1969	 0.333030920656402 
1970	 0.33346174995577 
1971	 0.333953055442184 
1972	 0.334382402382368 
1973	 0.334806485427654 
1974	 0.335282066367377 
1975	 0.335795365887996 
1976	 0.336279230637553 
1977	 0.336804083949554 
1978	 0.33731323898974 
1979	 0.337817796220803 
1980	 0.338261271873051 
1981	 0.338778303681011 
1982	 0.339303804157346 
1983	 0.339862749197524 
1984	 0.340467439623768 
1985	 0.341009818544858 
1986	 0.341545329323518 
1987	 0.3420401277212 
1988	 0.34241900818497 
1989	 0.342925539259372 
1990	 0.34345109145962 
1991	 0.344006826971386 
1992	 0.344593921780468 
1993	 0.345318241712546 
1994	 0.345969462159577 
1995	 0.346599302489374 
1996	 0.347251722537955 
1997	 0.347911791308629 
1998	 0.348553393137585 
1999	 0.349200400521837 
2000	 0.34979423044398 
2001	 0.350375337183276 
2002	 0.350891958464747 
2003	 0.351337778516916 
2004	 0.351815631610172 
2005	 0.352302915469745 
2006	 0.352741776846933 
2007	 0.353186918578933 
2008	 0.353539420448985 
2009	 0.353878592381333 
2010	 0.354153112688402 
2011	 0.35438202727588 
2012	 0.354639544926345 
2013	 0.354857094767116 
2014	 0.355050343908963 
2015	 0.355188166468071 
2016	 0.355285278244502 
2017	 0.355375430134495 
2018	 0.355422727471476 
2019	 0.35546046651758 
2020	 0.355526261196981 
2021	 0.355506366533076 
2022	 0.355405577639077 
2023	 0.355336227957744 
2024	 0.355155660282862 
2025	 0.354973449222695 
2026	 0.354834375748057 
2027	 0.354693147320962 
2028	 0.354547408300329 
2029	 0.354466493115161 
2030	 0.35430604806971 
2031	 0.354109369376855 
2032	 0.353898862598746 
2033	 0.353646131535121 
2034	 0.353395254281694 
2035	 0.353152015374734 
2036	 0.35284139278665 
2037	 0.352561778125612 
2038	 0.352225768910918 
2039	 0.351909066011298 
2040	 0.351565032587615 
2041	 0.35126595603732 
2042	 0.350963217305684 
2043	 0.350737741331055 
2044	 0.350599070619629 
2045	 0.35039884584733 
2046	 0.350200249172029 
2047	 0.350017130163203 
2048	 0.349837731407684 
2049	 0.349627392070835 
2050	 0.349437663854674 
2051	 0.349226256831456 
2052	 0.348967334861169 
2053	 0.348690592173882 
2054	 0.348483574822548 
2055	 0.348317219016477 
2056	 0.348159085008638 
2057	 0.348067381634529 
2058	 0.347906952613525 
2059	 0.347724841171706 
2060	 0.347565518722299 
2061	 0.347365084073062 
2062	 0.347200943951213 
2063	 0.347051220862299 
2064	 0.346938710873856 
2065	 0.346888557338184 
2066	 0.346802544616735 
2067	 0.346679509657891 
2068	 0.346522650072497 
2069	 0.346348144161656 
2070	 0.346064147080318 
2071	 0.345897108890863 
2072	 0.345790568879526 
2073	 0.345664267900441 
2074	 0.345538836071143 
2075	 0.345446340210039 
2076	 0.34541670689632 
2077	 0.345303427437496 
2078	 0.34518724751889 
2079	 0.345045038387783 
2080	 0.344790451093379 
2081	 0.34461114372884 
2082	 0.344463470011951 
2083	 0.344353477412453 
2084	 0.344190690269769 
2085	 0.344066828227771 
2086	 0.343903976042995 
2087	 0.343685547388986 
2088	 0.34352014524253 
2089	 0.343347158263262 
2090	 0.343221631672161 
2091	 0.34316051941361 
2092	 0.3430598502612 
2093	 0.342987857920108 
2094	 0.342891992133569 
2095	 0.342764084803484 
2096	 0.342634752017857 
2097	 0.34252919749937 
2098	 0.342373128993597 
2099	 0.342182111524148 
2100	 0.341947356307507 
2101	 0.341699924123004 
2102	 0.341386151913217 
2103	 0.341136301031379 
2104	 0.340906461664425 
2105	 0.34065055221496 
2106	 0.340388522245332 
2107	 0.340157346845804 
2108	 0.339991849453979 
2109	 0.33969170216005 
2110	 0.339333363621449 
2111	 0.338989688926992 
2112	 0.338519817556864 
2113	 0.338122927075522 
2114	 0.337865783788843 
2115	 0.337493799601793 
2116	 0.337072767948867 
2117	 0.336588948137938 
2118	 0.336144068200114 
2119	 0.335635422644003 
2120	 0.335216180944933 
2121	 0.3348589142697 
2122	 0.334476810317134 
2123	 0.334073424625622 
2124	 0.333749279281803 
2125	 0.333471223233478 
2126	 0.333191564558539 
2127	 0.332974677436692 
2128	 0.332742936842366 
2129	 0.332502879653027 
2130	 0.332265905391944 
2131	 0.332018474743385 
2132	 0.331813531502646 
2133	 0.331628278255569 
2134	 0.331446834168291 
2135	 0.33128013757597 
2136	 0.331155618435884 
2137	 0.331057848805433 
2138	 0.330979441958442 
2139	 0.330896951917902 
2140	 0.330844735449089 
2141	 0.330809039679171 
2142	 0.33072754997178 
2143	 0.330747725987814 
2144	 0.330890721413745 
2145	 0.330962592203643 
2146	 0.331057180074534 
2147	 0.331128734374129 
2148	 0.331116863904146 
2149	 0.331192213959419 
2150	 0.331264538974896 
2151	 0.331437109487267 
2152	 0.331737363613939 
2153	 0.332014996345486 
2154	 0.332295414260895 
2155	 0.332551055955417 
2156	 0.332708381340473 
2157	 0.332766175654985 
2158	 0.33281897960518 
2159	 0.332796142357478 
2160	 0.332828965319166 
2161	 0.332824543629857 
2162	 0.332891263077711 
2163	 0.333078635361671 
2164	 0.333104844428501 
2165	 0.333087514639729 
2166	 0.333040472585446 
2167	 0.332863828161561 
2168	 0.332759606771087 
2169	 0.33266031133626 
2170	 0.33259235934284 
2171	 0.332570107127718 
2172	 0.332513277280425 
2173	 0.332444518171277 
2174	 0.33241895543637 
2175	 0.332391676894314 
2176	 0.332267937184596 
2177	 0.332204497274433 
2178	 0.332179444436743 
2179	 0.332106868174434 
2180	 0.332010963081653 
2181	 0.331946848982275 
2182	 0.331855263940328 
2183	 0.331802327817409 
2184	 0.331799086269024 
2185	 0.331751019440662 
2186	 0.331752762506192 
2187	 0.331653763768348 
2188	 0.331488333154228 
2189	 0.331304856496952 
2190	 0.331013416578516 
2191	 0.330782240256268 
2192	 0.330571124334559 
2193	 0.330366879133037 
2194	 0.330218799259914 
2195	 0.330009712271077 
2196	 0.32984326158639 
2197	 0.32949714670036 
2198	 0.329160083413441 
2199	 0.328797181834945 
2200	 0.328513615403101 
2201	 0.328271711289079 
2202	 0.327967298151186 
2203	 0.327721872337532 
2204	 0.327360188949946 
2205	 0.326909355614033 
2206	 0.326438753469193 
2207	 0.325857577857001 
2208	 0.325404829424859 
2209	 0.324946090342608 
2210	 0.324553866488762 
2211	 0.324281845264996 
2212	 0.323971944469275 
2213	 0.323700274525195 
2214	 0.323351749760124 
2215	 0.323016527568133 
2216	 0.322616661098753 
2217	 0.322103396415003 
2218	 0.321632091120249 
2219	 0.321122305365465 
2220	 0.320655988560628 
2221	 0.320265811697055 
2222	 0.319796405243627 
2223	 0.319354770168542 
2224	 0.318840629746752 
2225	 0.318158914438682 
2226	 0.31753506048754 
2227	 0.316835785386043 
2228	 0.316100721586277 
2229	 0.315253711314242 
2230	 0.314326892302568 
2231	 0.313380343751894 
2232	 0.31235277924273 
2233	 0.311271358935805 
2234	 0.310228751411596 
2235	 0.308974412991861 
2236	 0.307592788235447 
2237	 0.306094242916119 
2238	 0.304369572716226 
2239	 0.302698597933786 
2240	 0.30103460848768 
2241	 0.299173711055527 
2242	 0.29725972615384 
2243	 0.295227163244052 
2244	 0.293006887287851 
2245	 0.29068683185737 
2246	 0.288200618352469 
2247	 0.285737442978811 
2248	 0.283116566828055 
2249	 0.280542801487867 
2250	 0.27802903805498 
2251	 0.275537400318255 
2252	 0.272687726656603 
2253	 0.269999716303525 
2254	 0.267288850360974 
2255	 0.264473410216152 
2256	 0.261993600537697 
2257	 0.259563948225801 
2258	 0.257167945683927 
2259	 0.254821743916103 
2260	 0.25255871431988 
2261	 0.250396710197 
2262	 0.248192500162078 
2263	 0.246005884097355 
2264	 0.243931886261876 
2265	 0.241876290630337 
2266	 0.239889141497401 
2267	 0.238044807270125 
2268	 0.236177515599569 
2269	 0.234344594835503 
2270	 0.232531513807372 
2271	 0.230712472636671 
2272	 0.228959914898308 
2273	 0.227222268572101 
2274	 0.225543238186214 
2275	 0.224077257475767 
2276	 0.222434213401491 
2277	 0.220675985795141 
2278	 0.219000522332978 
2279	 0.217247440123557 
2280	 0.215548179949379 
2281	 0.214001405752793 
2282	 0.212343372330356 
2283	 0.210668314580862 
2284	 0.20889595549373 
2285	 0.207006848006988 
2286	 0.205094089577331 
2287	 0.202972588936497 
2288	 0.200751997974895 
2289	 0.198725867497657 
2290	 0.196599344039711 
2291	 0.194503197740834 
2292	 0.19253595148197 
2293	 0.190396117541767 
2294	 0.188419628838184 
2295	 0.186621029833296 
2296	 0.184713379765004 
2297	 0.183004054749524 
2298	 0.18132259794784 
2299	 0.179985077910185 
2300	 0.178809612917251 
2301	 0.178026190581332 
2302	 0.177562371876501 
2303	 0.177379737732474 
2304	 0.177583449603055 
2305	 0.177839797907883 
2306	 0.17834550154278 
2307	 0.179067966077649 
2308	 0.179976284696945 
2309	 0.181067382791268 
2310	 0.18246980970457 
2311	 0.183931454860741 
2312	 0.185591028407025 
2313	 0.187207381891935 
2314	 0.188966300006079 
2315	 0.19068215546619 
2316	 0.192450010413944 
2317	 0.194090430900055 
2318	 0.195869516770236 
2319	 0.197224299598339 
2320	 0.198347936573818 
2321	 0.199259120880914 
2322	 0.19977097901995 
2323	 0.200305289419641 
2324	 0.200644538173327 
2325	 0.200962642247248 
2326	 0.201296343742553 
2327	 0.201459796903213 
2328	 0.201687691485663 
2329	 0.201529258964496 
2330	 0.20110876282512 
2331	 0.200309121260714 
2332	 0.199500851706133 
2333	 0.198627522032795 
2334	 0.197824994432003 
2335	 0.197093781267166 
2336	 0.196150403938147 
2337	 0.194890843015211 
2338	 0.19345313437049 
2339	 0.192113475809202 
2340	 0.190900623961273 
2341	 0.18962243847819 
2342	 0.188470799366664 
2343	 0.187556739257414 
2344	 0.186611702931537 
2345	 0.186014093460394 
2346	 0.185805011240775 
2347	 0.185570242780407 
2348	 0.185697800099002 
2349	 0.186146969244397 
2350	 0.18669028003424 
2351	 0.187611725530292 
2352	 0.18891809906252 
2353	 0.190580213594647 
2354	 0.192072986942509 
2355	 0.193489534085702 
2356	 0.194589952715683 
2357	 0.195084361001629 
2358	 0.195764235836064 
2359	 0.196496644169256 
2360	 0.197110456250476 
2361	 0.197566138366226 
2362	 0.197900624482877 
2363	 0.198072374213613 
2364	 0.19808811846351 
2365	 0.198139530670361 
2366	 0.197925764881486 
2367	 0.197830503218261 
2368	 0.197939174439402 
2369	 0.197921509443484 
2370	 0.197960038843087 
2371	 0.197781238661127 
2372	 0.197537598078107 
2373	 0.197411730248968 
2374	 0.197205064361841 
2375	 0.197100872310023 
2376	 0.196986176203426 
2377	 0.196841766904985 
2378	 0.196875567590809 
2379	 0.196978597517596 
2380	 0.197306112611679 
2381	 0.197615246194105 
2382	 0.197615423480989 
2383	 0.197478745038377 
2384	 0.197578447269504 
2385	 0.197241967021224 
2386	 0.197343317392165 
2387	 0.197990940768393 
2388	 0.198315989082094 
2389	 0.198766455676148 
2390	 0.199058654808634 
2391	 0.199212196033161 
2392	 0.199252252322301 
2393	 0.198919065690689 
2394	 0.198985852084509 
2395	 0.199365530265799 
2396	 0.199450315601876 
2397	 0.199585813307691 
2398	 0.199627926493394 
2399	 0.199372036809465 
2400	 0.199225456967669 
2401	 0.199149743139098 
2402	 0.199232938228436 
2403	 0.199254002078267 
2404	 0.199715092502758 
2405	 0.199941197861899 
2406	 0.199566698998217 
2407	 0.199316168511855 
2408	 0.199197715498374 
2409	 0.198871198547539 
2410	 0.198992531368498 
2411	 0.199280184243237 
2412	 0.198851132358771 
2413	 0.199004314380047 
2414	 0.199206255138399 
2415	 0.199127880059533 
2416	 0.199816269859065 
2417	 0.1998823872633 
2418	 0.199645389945076 
2419	 0.199650339937384 
2420	 0.199540461724719 
2421	 0.199440129542604 
2422	 0.199173883344552 
2423	 0.199190797429179 
2424	 0.198992145960175 
2425	 0.198860188038414 
2426	 0.199097757113628 
2427	 0.198878730938042 
2428	 0.198849463675555 
2429	 0.198853641656844 
2430	 0.198705866759629 
2431	 0.198852141994721 
2432	 0.198943671803532 
2433	 0.199038542993879 
2434	 0.199118082552578 
2435	 0.198888728589937 
2436	 0.198678946493226 
2437	 0.198599991303645 
2438	 0.198109240115301 
2439	 0.19817681179311 
2440	 0.198243694205798 
2441	 0.197508344366363 
2442	 0.197352981430692 
2443	 0.196795617726271 
2444	 0.195939645399179 
2445	 0.19571062190463 
2446	 0.195123453010501 
2447	 0.194747594290273 
2448	 0.194746664770465 
2449	 0.194526522818819 
2450	 0.194677802089446 
2451	 0.194817007428593 
2452	 0.194655585880701 
2453	 0.194402034709392 
2454	 0.193988293391896 
2455	 0.193778549018958 
2456	 0.193788858424997 
2457	 0.193691839472936 
2458	 0.19334262754108 
2459	 0.192821433306691 
2460	 0.192107914970297 
2461	 0.191713086644919 
2462	 0.191337376726126 
2463	 0.190971524933516 
2464	 0.191040013904404 
2465	 0.190892508654834 
2466	 0.190714506379668 
2467	 0.190473075218564 
2468	 0.19057414375359 
2469	 0.190603398790947 
2470	 0.190311980369453 
2471	 0.190657963231001 
2472	 0.190371671679117 
2473	 0.189440788165796 
2474	 0.189036437606155 
2475	 0.189285707531548 
2476	 0.189990429106993 
2477	 0.190470764039243 
2478	 0.190961365144933 
2479	 0.191053918013031 
2480	 0.189534851195589 
2481	 0.189461538432471 
2482	 0.190624811164073 
2483	 0.190693047752539 
2484	 0.191546800310108 
2485	 0.192369202692443 
2486	 0.19172153568215 
2487	 0.191170538126907 
2488	 0.19140217898105 
2489	 0.191696125324376 
2490	 0.19144960319568 
2491	 0.19196218239191 
2492	 0.192347368352772 
2493	 0.191852876122126 
2494	 0.192739777791287 
2495	 0.193468137842253 
2496	 0.19345669128588 
2497	 0.193910833063134 
2498	 0.194350673067464 
2499	 0.194948286793335 
2500	 0.195228664623893 
