Wavelength	Tablay400024.asd
350	 0.309881922004976 
351	 0.309028638008977 
352	 0.30505367068462 
353	 0.2765910721043 
354	 0.317861421674022 
355	 0.330210015390045 
356	 0.307732779140391 
357	 0.272936027185821 
358	 0.261142303786656 
359	 0.276172266974275 
360	 0.268487799867344 
361	 0.192991476896963 
362	 0.201784268190307 
363	 0.205036071629065 
364	 0.177221909201256 
365	 0.208273897258518 
366	 0.208608256966863 
367	 0.199638802094092 
368	 0.21067992908399 
369	 0.200969281955427 
370	 0.188298567215573 
371	 0.194703195541019 
372	 0.2308791779554 
373	 0.179471771343534 
374	 0.146959726948848 
375	 0.176668310865034 
376	 0.196875035859835 
377	 0.179496635795649 
378	 0.177185955871526 
379	 0.214428049466002 
380	 0.155926011933715 
381	 0.12965339370473 
382	 0.154276187073525 
383	 0.173726037910425 
384	 0.170047278237769 
385	 0.142135917340595 
386	 0.116819480592443 
387	 0.163578118032759 
388	 0.15757671002461 
389	 0.131618133429845 
390	 0.137735470053955 
391	 0.137234575139399 
392	 0.138157804407555 
393	 0.13439205917457 
394	 0.113907559946224 
395	 0.105621753413853 
396	 0.109237360542648 
397	 0.117217840008762 
398	 0.117884262108374 
399	 0.118480725851557 
400	 0.121979321934626 
401	 0.12592288884649 
402	 0.108613335194917 
403	 9.86707844237031E-02 
404	 0.102144455504998 
405	 0.107316246356959 
406	 0.110301293204848 
407	 0.108797043448205 
408	 0.103629076595027 
409	 0.100459593652122 
410	 9.36321879576604E-02 
411	 9.23412925008192E-02 
412	 0.102502926176542 
413	 9.13270137212205E-02 
414	 8.49521765059679E-02 
415	 8.92551236167576E-02 
416	 8.98714708900917E-02 
417	 8.67327339674473E-02 
418	 8.63807614138075E-02 
419	 0.089843781490511 
420	 8.25548051803692E-02 
421	 7.63817237413968E-02 
422	 7.48180908456242E-02 
423	 0.076908679699204 
424	 7.65558400110257E-02 
425	 0.077241143996623 
426	 7.81837764934543E-02 
427	 7.32874816850834E-02 
428	 7.63542227585819E-02 
429	 7.75924933797184E-02 
430	 7.04540201383955E-02 
431	 7.27272463556393E-02 
432	 7.31342107501939E-02 
433	 7.12526098322219E-02 
434	 7.20208550474953E-02 
435	 7.18165399949862E-02 
436	 7.13528673183754E-02 
437	 7.11392954441871E-02 
438	 7.07428075725284E-02 
439	 6.90948327436467E-02 
440	 6.82142938428285E-02 
441	 0.070060104598599 
442	 7.35116432037278E-02 
443	 0.072409585053283 
444	 6.86747632511689E-02 
445	 6.97740610039637E-02 
446	 6.74984330426978E-02 
447	 6.61804791212259E-02 
448	 6.86280352468821E-02 
449	 7.09630574153094E-02 
450	 7.04918405366393E-02 
451	 6.94305198522595E-02 
452	 7.08104065106008E-02 
453	 6.95921935259104E-02 
454	 0.069164965024152 
455	 6.99310031696215E-02 
456	 6.86448077170455E-02 
457	 6.80995936510124E-02 
458	 6.88603437543297E-02 
459	 7.04485788161645E-02 
460	 7.10276519618099E-02 
461	 7.08055553579292E-02 
462	 7.06802892372146E-02 
463	 7.16490249611877E-02 
464	 7.21124898059799E-02 
465	 7.20490663162874E-02 
466	 0.071841173888533 
467	 7.21601346662464E-02 
468	 7.30220792078711E-02 
469	 7.46073846710804E-02 
470	 7.64640527852638E-02 
471	 7.55309434771355E-02 
472	 7.49090174489922E-02 
473	 7.60193557802028E-02 
474	 7.85655838674894E-02 
475	 7.92679681690121E-02 
476	 8.01068619972693E-02 
477	 8.20916536256431E-02 
478	 8.22302509540427E-02 
479	 8.28132670910652E-02 
480	 8.44126972165676E-02 
481	 8.66688697422766E-02 
482	 8.78857707504747E-02 
483	 8.87347357833413E-02 
484	 9.00639097171403E-02 
485	 9.26449285076417E-02 
486	 9.41553441825476E-02 
487	 9.50329853606569E-02 
488	 9.63119372420472E-02 
489	 9.89004723618721E-02 
490	 0.101127933343584 
491	 0.102810639700003 
492	 0.104617701290179 
493	 0.106435738121254 
494	 0.108699383384872 
495	 0.111219918118661 
496	 0.112694638465692 
497	 0.114786629810375 
498	 0.117127240828297 
499	 0.119048013079473 
500	 0.121374447224213 
501	 0.124153183152566 
502	 0.126939097631964 
503	 0.128977013316289 
504	 0.130737064188025 
505	 0.133205404131029 
506	 0.136570055070638 
507	 0.139042220655752 
508	 0.141369691082764 
509	 0.143707260943236 
510	 0.146019317034557 
511	 0.148696052324162 
512	 0.151272558702417 
513	 0.153682277828869 
514	 0.156455815993372 
515	 0.158622840499276 
516	 0.160950119309554 
517	 0.164002202468343 
518	 0.166104738011795 
519	 0.168504477144497 
520	 0.171256459130313 
521	 0.173630584479959 
522	 0.176203069909766 
523	 0.178927548385849 
524	 0.181619839634353 
525	 0.183991541271928 
526	 0.186520054053307 
527	 0.189105278851542 
528	 0.191493995043245 
529	 0.193771015162433 
530	 0.196101179905323 
531	 0.19852784789287 
532	 0.200953946991262 
533	 0.203602783617911 
534	 0.206077711824228 
535	 0.208195073103407 
536	 0.210779987606667 
537	 0.212977192614761 
538	 0.215009150614598 
539	 0.217557439398524 
540	 0.219733444217292 
541	 0.221697001868716 
542	 0.223661487156349 
543	 0.225713391703815 
544	 0.228001991885952 
545	 0.230213476407935 
546	 0.232070517678811 
547	 0.234120491852207 
548	 0.236073853893971 
549	 0.237920349050281 
550	 0.239914370721685 
551	 0.242084653975381 
552	 0.244188917067558 
553	 0.246105536321634 
554	 0.248121155525658 
555	 0.250205668818473 
556	 0.252278789365647 
557	 0.254250069276606 
558	 0.256228912450279 
559	 0.258189402432966 
560	 0.260095723319787 
561	 0.261920115539851 
562	 0.263607594701161 
563	 0.265242126158254 
564	 0.266935912208187 
565	 0.268773866743116 
566	 0.270471253166903 
567	 0.271871343664375 
568	 0.272977933309125 
569	 0.274388698367087 
570	 0.275735980681777 
571	 0.276847383775723 
572	 0.278279715586887 
573	 0.279778000412509 
574	 0.281155196096676 
575	 0.282318948103129 
576	 0.283648805121334 
577	 0.28482421287028 
578	 0.285811074422332 
579	 0.286940469572826 
580	 0.287886800401863 
581	 0.288893268965164 
582	 0.290149021161072 
583	 0.291266908429209 
584	 0.2924804940444 
585	 0.293888233622934 
586	 0.295449025040679 
587	 0.296674442146898 
588	 0.297801319780486 
589	 0.298976726006439 
590	 0.300037469778791 
591	 0.301250032512812 
592	 0.302536009777276 
593	 0.303759491249807 
594	 0.305050531472532 
595	 0.306297916095454 
596	 0.307451015961927 
597	 0.308530231148043 
598	 0.309783431706694 
599	 0.310858902310836 
600	 0.311633083590664 
601	 0.312788738527734 
602	 0.31383666790274 
603	 0.314703271901667 
604	 0.315518210770466 
605	 0.316500476788527 
606	 0.317529004222029 
607	 0.318480056120101 
608	 0.31926567666848 
609	 0.320121915260613 
610	 0.320988980546519 
611	 0.321778050391755 
612	 0.322547392160544 
613	 0.323407349914897 
614	 0.324300329406014 
615	 0.325079514462177 
616	 0.325870974018196 
617	 0.326689248978654 
618	 0.327483690157429 
619	 0.328109067609351 
620	 0.328797726005033 
621	 0.329568278303276 
622	 0.330350635316833 
623	 0.331031689532051 
624	 0.331745365305123 
625	 0.332485539381477 
626	 0.333117433051841 
627	 0.333776409479741 
628	 0.334419868398566 
629	 0.335018807578977 
630	 0.335654199756708 
631	 0.336336818303862 
632	 0.337028003226803 
633	 0.337668777799594 
634	 0.338256635357858 
635	 0.338897115552314 
636	 0.339540360014024 
637	 0.339938313123856 
638	 0.340428113604907 
639	 0.34095464846658 
640	 0.341440660775708 
641	 0.342086769601062 
642	 0.342637632502797 
643	 0.343087345794572 
644	 0.34357605769033 
645	 0.343995362401884 
646	 0.344554235983821 
647	 0.345243396013171 
648	 0.345642264573463 
649	 0.346052488560815 
650	 0.346455865416738 
651	 0.346799893636688 
652	 0.347297151691211 
653	 0.347798416696356 
654	 0.348257356764278 
655	 0.348717740597481 
656	 0.349144543317297 
657	 0.349553913633387 
658	 0.349944716590125 
659	 0.350252816080321 
660	 0.350608337888177 
661	 0.350954164475867 
662	 0.351215736806817 
663	 0.35163175461129 
664	 0.352055634168321 
665	 0.352418469570457 
666	 0.352754685915224 
667	 0.353115378290914 
668	 0.35342807580026 
669	 0.353680689561112 
670	 0.354090859090565 
671	 0.354438429434803 
672	 0.354692424688437 
673	 0.35491654000707 
674	 0.355158093378323 
675	 0.35540127518836 
676	 0.355663493777432 
677	 0.356006826686706 
678	 0.356258823258469 
679	 0.356465413257492 
680	 0.356708994010323 
681	 0.357017994996337 
682	 0.357294926164368 
683	 0.357576748921358 
684	 0.357937285201894 
685	 0.358098877822018 
686	 0.358243813766742 
687	 0.358478028524374 
688	 0.358734083446535 
689	 0.358938680173693 
690	 0.359104562037185 
691	 0.359272638495494 
692	 0.359474933907061 
693	 0.35972590634524 
694	 0.360002567472067 
695	 0.360252833014579 
696	 0.360397167219776 
697	 0.360536623646764 
698	 0.360737345970771 
699	 0.360977117091564 
700	 0.361233360815975 
701	 0.36138798645291 
702	 0.361400728823888 
703	 0.361600890878672 
704	 0.361819354532375 
705	 0.362017706775044 
706	 0.362240004226405 
707	 0.362330572892632 
708	 0.3624631259655 
709	 0.362701171392565 
710	 0.362854852722938 
711	 0.363049217011484 
712	 0.363193266610896 
713	 0.363232828966671 
714	 0.363501294121101 
715	 0.363785969121584 
716	 0.36399811638278 
717	 0.364149976420856 
718	 0.364204183756278 
719	 0.364264559319908 
720	 0.364400456181755 
721	 0.364592037949508 
722	 0.364859397401029 
723	 0.365106082588623 
724	 0.365243863632178 
725	 0.365348514911064 
726	 0.365469988544937 
727	 0.365673304182853 
728	 0.365999823794111 
729	 0.366185073468077 
730	 0.36628074872736 
731	 0.366362745595163 
732	 0.366460822831694 
733	 0.36675276256389 
734	 0.36709063182574 
735	 0.367285844557779 
736	 0.367375455471388 
737	 0.367572376631203 
738	 0.367848526218628 
739	 0.36803153147754 
740	 0.368246047410406 
741	 0.368538677130783 
742	 0.368849066922842 
743	 0.368973215766819 
744	 0.369259449328079 
745	 0.369585256192091 
746	 0.369772015472725 
747	 0.369887190488121 
748	 0.370123214758863 
749	 0.370450821961087 
750	 0.370724275040869 
751	 0.371022936228842 
752	 0.37134524059001 
753	 0.371638371924892 
754	 0.371799910566531 
755	 0.37207105857742 
756	 0.372373216500454 
757	 0.372632741089528 
758	 0.373036607992493 
759	 0.373310560029389 
760	 0.373537759258166 
761	 0.373920807277705 
762	 0.374247967044049 
763	 0.374535681191379 
764	 0.374851802900961 
765	 0.375287318676135 
766	 0.375619336893724 
767	 0.375968304297575 
768	 0.376399413447319 
769	 0.376686634677442 
770	 0.377008384105793 
771	 0.377378175625052 
772	 0.377764037455394 
773	 0.378233219302544 
774	 0.378626195763611 
775	 0.378929114715787 
776	 0.379257954675122 
777	 0.379672564990176 
778	 0.380105993200884 
779	 0.380496363544445 
780	 0.380822792417879 
781	 0.381259680344453 
782	 0.381727512542423 
783	 0.382121533501365 
784	 0.382527457582094 
785	 0.382940358865378 
786	 0.383356296189381 
787	 0.383761681336896 
788	 0.384079381871651 
789	 0.384405832213368 
790	 0.384811927862737 
791	 0.385309969967863 
792	 0.385699568634732 
793	 0.386098201509663 
794	 0.386581853257745 
795	 0.386951994932001 
796	 0.387354494111841 
797	 0.387768023671401 
798	 0.388135973304943 
799	 0.388546134156101 
800	 0.38890687319536 
801	 0.389251831905169 
802	 0.389692227476845 
803	 0.390034304517435 
804	 0.390393647011291 
805	 0.390798652277827 
806	 0.391090111797325 
807	 0.391475814031649 
808	 0.391881831281677 
809	 0.392231998499919 
810	 0.392669195526994 
811	 0.39304635380184 
812	 0.393361425357246 
813	 0.393665895648504 
814	 0.3938844256049 
815	 0.394199860076698 
816	 0.394610305918496 
817	 0.394948550903516 
818	 0.395314197992581 
819	 0.395568216875235 
820	 0.395713452201898 
821	 0.39602784995144 
822	 0.396427121992123 
823	 0.396775775957789 
824	 0.397000402054346 
825	 0.39727237057502 
826	 0.39749019447405 
827	 0.397693574275938 
828	 0.397963644299949 
829	 0.398224530550198 
830	 0.398507714842879 
831	 0.398780784285624 
832	 0.398965398052023 
833	 0.399172614729012 
834	 0.399329043895525 
835	 0.399440884678847 
836	 0.399671742785702 
837	 0.399852821951284 
838	 0.40006342442503 
839	 0.400359341926309 
840	 0.400564121325571 
841	 0.400712531772271 
842	 0.400841435852009 
843	 0.400986138367066 
844	 0.401140623716115 
845	 0.401319960612946 
846	 0.401483814107977 
847	 0.401569207794602 
848	 0.401676487979924 
849	 0.401802568160509 
850	 0.401949402527394 
851	 0.402135779764212 
852	 0.402275103301378 
853	 0.402341966264561 
854	 0.402371133083324 
855	 0.402486642440954 
856	 0.402615515918019 
857	 0.402793063177145 
858	 0.40300895209734 
859	 0.40298031930079 
860	 0.402945848091391 
861	 0.403010147455093 
862	 0.403165211651262 
863	 0.403243582185256 
864	 0.403317137722102 
865	 0.403388471634746 
866	 0.403401001352768 
867	 0.403473216047097 
868	 0.403531698799412 
869	 0.40357611078166 
870	 0.40373158417334 
871	 0.403754738425928 
872	 0.403721999229009 
873	 0.403726122412882 
874	 0.403726126894568 
875	 0.403807459128099 
876	 0.403916378873962 
877	 0.403952136385552 
878	 0.403795611046827 
879	 0.403856949280002 
880	 0.403990484716064 
881	 0.403884593364587 
882	 0.403948654688194 
883	 0.404059497094442 
884	 0.40409588313612 
885	 0.403993147090068 
886	 0.403911875002283 
887	 0.403946224787073 
888	 0.40407248350261 
889	 0.404145432639301 
890	 0.404066871319625 
891	 0.404013093995933 
892	 0.404053938722568 
893	 0.40399234543613 
894	 0.404035797968311 
895	 0.404067536100593 
896	 0.404014511745018 
897	 0.404141804865078 
898	 0.404114168179183 
899	 0.404049429864147 
900	 0.404146896829499 
901	 0.404306590776591 
902	 0.404284518879614 
903	 0.404136865530192 
904	 0.404073198421865 
905	 0.404179690317155 
906	 0.40429910803488 
907	 0.404333354168538 
908	 0.404268804907732 
909	 0.404240349424286 
910	 0.404263092171153 
911	 0.404338174398169 
912	 0.404453976416373 
913	 0.404472458682188 
914	 0.404490428831796 
915	 0.404555013674519 
916	 0.404597487156861 
917	 0.404682800070152 
918	 0.404759174571355 
919	 0.404789131402752 
920	 0.404803351759854 
921	 0.404880837215138 
922	 0.404939748093066 
923	 0.404944890612855 
924	 0.405098425706403 
925	 0.405098696069958 
926	 0.405193592970885 
927	 0.405575211027301 
928	 0.405660374415392 
929	 0.40558239717718 
930	 0.405508784528717 
931	 0.405587402839219 
932	 0.40580015176809 
933	 0.405913509110925 
934	 0.406040044439503 
935	 0.406369550995099 
936	 0.406403621956653 
937	 0.40641334567877 
938	 0.406515678868018 
939	 0.406670191908052 
940	 0.406787375325472 
941	 0.406925525683082 
942	 0.407085047907096 
943	 0.407212675068644 
944	 0.407344173103851 
945	 0.407458026829851 
946	 0.407519738507007 
947	 0.407510268955594 
948	 0.40763742306981 
949	 0.407846244231297 
950	 0.408037107215879 
951	 0.408116003186951 
952	 0.408003446198893 
953	 0.407951293822609 
954	 0.408099505559598 
955	 0.408327851324668 
956	 0.408550139057123 
957	 0.408672488880223 
958	 0.408716589829955 
959	 0.408877962105726 
960	 0.408846748633862 
961	 0.408836548141464 
962	 0.408975789795017 
963	 0.40898723364827 
964	 0.408959518233434 
965	 0.40900745634765 
966	 0.40918268285586 
967	 0.409382770616934 
968	 0.409513807310102 
969	 0.40953816974618 
970	 0.409449690616477 
971	 0.409224511424972 
972	 0.409453745149294 
973	 0.40985308371362 
974	 0.410035953060657 
975	 0.410178856626742 
976	 0.410138209205199 
977	 0.410008784491858 
978	 0.409989389069326 
979	 0.410359094095697 
980	 0.410509923550228 
981	 0.410536172420768 
982	 0.41066890109068 
983	 0.410748861358135 
984	 0.410567808655669 
985	 0.410620789813697 
986	 0.411191530362358 
987	 0.411063941019266 
988	 0.410905372967911 
989	 0.410974914866295 
990	 0.411247472860636 
991	 0.411311336864715 
992	 0.411211442556409 
993	 0.41145915686397 
994	 0.412219582800301 
995	 0.411988105207288 
996	 0.411814720219555 
997	 0.411837662419371 
998	 0.411903621920954 
999	 0.412070304708406 
1000	 0.412348837094041 
1001	 0.402175774969701 
1002	 0.402273863103933 
1003	 0.402126130294708 
1004	 0.402236368293156 
1005	 0.402453429698112 
1006	 0.402628802699265 
1007	 0.40295050908149 
1008	 0.403097678490684 
1009	 0.403153238643257 
1010	 0.403251656918746 
1011	 0.403197601466743 
1012	 0.403285456317897 
1013	 0.403579817747346 
1014	 0.403682288561864 
1015	 0.403665580940598 
1016	 0.40379746969955 
1017	 0.403853236723539 
1018	 0.403891344989432 
1019	 0.404255588089818 
1020	 0.404570827840672 
1021	 0.404684802327302 
1022	 0.404684305415859 
1023	 0.404751416744215 
1024	 0.404624951154946 
1025	 0.404656256744759 
1026	 0.404857183392917 
1027	 0.404972491762075 
1028	 0.405042723507399 
1029	 0.405186620018755 
1030	 0.405293859899282 
1031	 0.405324690615775 
1032	 0.405409283907647 
1033	 0.405482243523243 
1034	 0.40559030311375 
1035	 0.405736649033736 
1036	 0.405825342077223 
1037	 0.405895822714249 
1038	 0.405949082220309 
1039	 0.40592638030355 
1040	 0.40600134502149 
1041	 0.406110030866337 
1042	 0.406210946908041 
1043	 0.406363822715453 
1044	 0.406493754388338 
1045	 0.406611676636112 
1046	 0.406756809304928 
1047	 0.406864194077805 
1048	 0.406946685245056 
1049	 0.407088978277671 
1050	 0.407206234881951 
1051	 0.40735695944955 
1052	 0.407560839950864 
1053	 0.407654648067734 
1054	 0.407639509591639 
1055	 0.407720747631889 
1056	 0.407754265963723 
1057	 0.407816965537586 
1058	 0.407968558886401 
1059	 0.408063277301127 
1060	 0.408067482772454 
1061	 0.408045327424191 
1062	 0.408039690744168 
1063	 0.408182892092549 
1064	 0.408282126979916 
1065	 0.408463883528193 
1066	 0.408680591205257 
1067	 0.408676969765624 
1068	 0.408763111078664 
1069	 0.408944365141391 
1070	 0.409032186384019 
1071	 0.409079752056829 
1072	 0.409186962014652 
1073	 0.409237680416369 
1074	 0.409260984310736 
1075	 0.409331144257977 
1076	 0.409306135028969 
1077	 0.409354088653882 
1078	 0.40937914492307 
1079	 0.409352292928247 
1080	 0.409499203535766 
1081	 0.409620010118569 
1082	 0.409727232720906 
1083	 0.40990742440977 
1084	 0.409930623317994 
1085	 0.409960355752646 
1086	 0.41008158137824 
1087	 0.410226545325224 
1088	 0.410342262207728 
1089	 0.41055135841075 
1090	 0.410686922050302 
1091	 0.410688752139605 
1092	 0.410736675264617 
1093	 0.410775149007793 
1094	 0.410863052622635 
1095	 0.411004723680717 
1096	 0.411089057688824 
1097	 0.411212498486051 
1098	 0.411333334378734 
1099	 0.411396422355875 
1100	 0.411508015080774 
1101	 0.411651842166633 
1102	 0.411794636831237 
1103	 0.411951516762445 
1104	 0.412149610257983 
1105	 0.412318903165173 
1106	 0.412437705065994 
1107	 0.412569689959356 
1108	 0.412766724517046 
1109	 0.41297030583105 
1110	 0.413115439564827 
1111	 0.413279075012262 
1112	 0.413388847488153 
1113	 0.413493979610233 
1114	 0.413681418822426 
1115	 0.41386619461624 
1116	 0.414044845447527 
1117	 0.414185004769856 
1118	 0.414369490510176 
1119	 0.414586451149158 
1120	 0.414795987342229 
1121	 0.415028122205284 
1122	 0.415244261794959 
1123	 0.415425143549919 
1124	 0.415581949969291 
1125	 0.415757903301437 
1126	 0.415928299987733 
1127	 0.416038675845504 
1128	 0.416185242101898 
1129	 0.416312710862397 
1130	 0.416447825479558 
1131	 0.416669181882438 
1132	 0.416831116379192 
1133	 0.416990608216615 
1134	 0.417162542054238 
1135	 0.417292745456352 
1136	 0.417388660017041 
1137	 0.417519305347157 
1138	 0.41763730425548 
1139	 0.417732500637874 
1140	 0.417837439316788 
1141	 0.417932057225904 
1142	 0.417996178976295 
1143	 0.418107878007845 
1144	 0.41822636130553 
1145	 0.418292911979592 
1146	 0.418273119742361 
1147	 0.418219151216331 
1148	 0.418183627327235 
1149	 0.418138641800212 
1150	 0.418146989442535 
1151	 0.418146002491771 
1152	 0.418089749739231 
1153	 0.417968267908745 
1154	 0.417912032439819 
1155	 0.417859989661839 
1156	 0.417783413646785 
1157	 0.417734382813776 
1158	 0.417647019311055 
1159	 0.417499266303294 
1160	 0.417396261232985 
1161	 0.417286253601906 
1162	 0.417143073631382 
1163	 0.417033691008032 
1164	 0.416893113513577 
1165	 0.41672573146138 
1166	 0.416592687507014 
1167	 0.416426712535244 
1168	 0.416256488769332 
1169	 0.416091869611922 
1170	 0.415939447781587 
1171	 0.41577397327202 
1172	 0.415588824284426 
1173	 0.415422422695824 
1174	 0.415269590739896 
1175	 0.415114583877683 
1176	 0.41495114042972 
1177	 0.414820171881124 
1178	 0.414719613240076 
1179	 0.414579866198676 
1180	 0.414455367235121 
1181	 0.414339108486558 
1182	 0.414215089682953 
1183	 0.414134438568994 
1184	 0.4140455613376 
1185	 0.413961319543996 
1186	 0.413877004209109 
1187	 0.41375818880037 
1188	 0.413669622342486 
1189	 0.413600317797078 
1190	 0.413556300417568 
1191	 0.413507904684625 
1192	 0.413514429733175 
1193	 0.413587899731486 
1194	 0.413627966800491 
1195	 0.413685775345626 
1196	 0.413731010172196 
1197	 0.413744399505266 
1198	 0.41379169541021 
1199	 0.413861733692567 
1200	 0.413977695893263 
1201	 0.414138547126947 
1202	 0.414319447638911 
1203	 0.414502294668394 
1204	 0.414726951811746 
1205	 0.414941916267955 
1206	 0.415130666965888 
1207	 0.415409135979909 
1208	 0.415678439254184 
1209	 0.416075104735935 
1210	 0.416572870245735 
1211	 0.417117071713418 
1212	 0.417753744142775 
1213	 0.41842633172493 
1214	 0.419136498300085 
1215	 0.41991583538381 
1216	 0.420822259407753 
1217	 0.421661911991109 
1218	 0.422532208286636 
1219	 0.423375116816381 
1220	 0.424182761481746 
1221	 0.425075690511542 
1222	 0.426001529654132 
1223	 0.42700758718586 
1224	 0.427934167902542 
1225	 0.428870076191603 
1226	 0.429724666111982 
1227	 0.430520296297464 
1228	 0.431307911529913 
1229	 0.432062997993489 
1230	 0.432817275793973 
1231	 0.433534380235779 
1232	 0.434267400094068 
1233	 0.435021906532782 
1234	 0.43571292051244 
1235	 0.436372153685596 
1236	 0.437037352390772 
1237	 0.437673639612407 
1238	 0.438293983367722 
1239	 0.438902415699515 
1240	 0.43952891024076 
1241	 0.440118065010301 
1242	 0.440636358611054 
1243	 0.441198644705453 
1244	 0.441762154845175 
1245	 0.442319822687829 
1246	 0.442889580517926 
1247	 0.443435577719499 
1248	 0.443972830598244 
1249	 0.44449663655963 
1250	 0.445027579793164 
1251	 0.445497513007114 
1252	 0.44591279505758 
1253	 0.446355877458332 
1254	 0.446783961865509 
1255	 0.447189717339204 
1256	 0.447574449911224 
1257	 0.447995030659737 
1258	 0.448403225282128 
1259	 0.448816549033255 
1260	 0.449278889282958 
1261	 0.449722840222867 
1262	 0.450142734021107 
1263	 0.45057208098673 
1264	 0.450977088388777 
1265	 0.451386298553861 
1266	 0.451780970426056 
1267	 0.452152986837098 
1268	 0.452510299769927 
1269	 0.4528338385512 
1270	 0.453218775906444 
1271	 0.453618367648243 
1272	 0.45400459039414 
1273	 0.45443330783199 
1274	 0.454839789900492 
1275	 0.455201399929769 
1276	 0.455592784889793 
1277	 0.456023218803047 
1278	 0.45642656550401 
1279	 0.456838966987583 
1280	 0.457209931882316 
1281	 0.457519449949719 
1282	 0.457876803541064 
1283	 0.458239823740538 
1284	 0.458589850832681 
1285	 0.458946466354126 
1286	 0.45935723020076 
1287	 0.459675639894868 
1288	 0.459939268821045 
1289	 0.460217372546335 
1290	 0.460461823979126 
1291	 0.460727179652993 
1292	 0.460982442796511 
1293	 0.461266986677955 
1294	 0.461574376078538 
1295	 0.461861971352257 
1296	 0.462155315957951 
1297	 0.462452394795497 
1298	 0.462759057686332 
1299	 0.463027618647885 
1300	 0.46329983946981 
1301	 0.463543440793523 
1302	 0.463719826244611 
1303	 0.46393140378505 
1304	 0.464172215591763 
1305	 0.464377469637745 
1306	 0.46455759138363 
1307	 0.464754696574416 
1308	 0.464928423777665 
1309	 0.465109664129218 
1310	 0.465336116764548 
1311	 0.46562209729398 
1312	 0.465825898084005 
1313	 0.466020262155117 
1314	 0.466211780431257 
1315	 0.466348677213376 
1316	 0.466533051878787 
1317	 0.466761608825242 
1318	 0.466949927988021 
1319	 0.467109562915762 
1320	 0.467302979064687 
1321	 0.467527155600826 
1322	 0.467695899469193 
1323	 0.467853700381487 
1324	 0.468009627712432 
1325	 0.468103402495149 
1326	 0.468244519862932 
1327	 0.468432685857481 
1328	 0.468595810696953 
1329	 0.468763237562396 
1330	 0.468916867261055 
1331	 0.469089113568128 
1332	 0.469204569882959 
1333	 0.469286771804325 
1334	 0.469359050915439 
1335	 0.469374454198301 
1336	 0.469321516566337 
1337	 0.469306247969706 
1338	 0.469263556729565 
1339	 0.469260191805533 
1340	 0.469273721949965 
1341	 0.469293982849805 
1342	 0.469359902848978 
1343	 0.469345143739346 
1344	 0.469309868768811 
1345	 0.469253209645847 
1346	 0.469148023620519 
1347	 0.469040393675082 
1348	 0.468931400686342 
1349	 0.468800781427147 
1350	 0.468639067420797 
1351	 0.468471835814186 
1352	 0.468293402264162 
1353	 0.468109176553291 
1354	 0.467880662679264 
1355	 0.467701472925951 
1356	 0.46757448780176 
1357	 0.467399352532358 
1358	 0.467227469585374 
1359	 0.467043264194995 
1360	 0.466841060257326 
1361	 0.466595103384484 
1362	 0.466330362255009 
1363	 0.466142443344395 
1364	 0.465904831785884 
1365	 0.465661818136719 
1366	 0.465369403167678 
1367	 0.465069628825349 
1368	 0.464718728621122 
1369	 0.464334827560362 
1370	 0.463887151983521 
1371	 0.46338466923959 
1372	 0.462884746479679 
1373	 0.462331323864143 
1374	 0.461773686604271 
1375	 0.461220256627474 
1376	 0.460636138925566 
1377	 0.460029922365396 
1378	 0.459368529155145 
1379	 0.458668892426593 
1380	 0.45795908624884 
1381	 0.457172323397714 
1382	 0.456426808187729 
1383	 0.455729238761318 
1384	 0.454970578404465 
1385	 0.454220069901423 
1386	 0.453404296599388 
1387	 0.452479883245152 
1388	 0.451623395316045 
1389	 0.450754067268248 
1390	 0.449908302506326 
1391	 0.449095931460991 
1392	 0.448296781567842 
1393	 0.447574069478827 
1394	 0.446833089929464 
1395	 0.446068561305926 
1396	 0.445377650567515 
1397	 0.444523132836343 
1398	 0.443602078488981 
1399	 0.442583086319416 
1400	 0.441494859276919 
1401	 0.440289019901998 
1402	 0.438985957183708 
1403	 0.4375818190491 
1404	 0.43606701392744 
1405	 0.434496969242429 
1406	 0.432847089162018 
1407	 0.431104331823449 
1408	 0.429195915400431 
1409	 0.427384990931064 
1410	 0.425520597907428 
1411	 0.42369240580394 
1412	 0.421937452397011 
1413	 0.420161631301343 
1414	 0.418347189483103 
1415	 0.41656494382574 
1416	 0.414780031823711 
1417	 0.413044076159615 
1418	 0.411323238793262 
1419	 0.40963864906206 
1420	 0.407985305393236 
1421	 0.40639872844626 
1422	 0.40483508065337 
1423	 0.403339907995558 
1424	 0.401973589383759 
1425	 0.400535173056303 
1426	 0.399210658825741 
1427	 0.39790761234534 
1428	 0.39657415492349 
1429	 0.395391101449921 
1430	 0.394166717557401 
1431	 0.393000236672326 
1432	 0.391709925166989 
1433	 0.390424238968476 
1434	 0.389014899280227 
1435	 0.387494737197495 
1436	 0.385943624827959 
1437	 0.384337300143966 
1438	 0.382687403635646 
1439	 0.380917806863048 
1440	 0.37925198393629 
1441	 0.377473089884139 
1442	 0.375971578758552 
1443	 0.3744764503862 
1444	 0.373363094575118 
1445	 0.372407439307819 
1446	 0.3718790208344 
1447	 0.371658105559592 
1448	 0.371801956527601 
1449	 0.372388385822397 
1450	 0.373150337551012 
1451	 0.374308474779702 
1452	 0.375526923639985 
1453	 0.377049754738691 
1454	 0.378496009797978 
1455	 0.380104156137179 
1456	 0.3815959263976 
1457	 0.383078924703355 
1458	 0.38448485113576 
1459	 0.385847912131594 
1460	 0.387128757819251 
1461	 0.388353714756575 
1462	 0.389470979400174 
1463	 0.390448176859103 
1464	 0.391425682219986 
1465	 0.392306305047209 
1466	 0.393222670599716 
1467	 0.394045268653917 
1468	 0.394852500902475 
1469	 0.395652062268968 
1470	 0.396329632514527 
1471	 0.39704976635356 
1472	 0.397782171239812 
1473	 0.398479113354544 
1474	 0.3991527397098 
1475	 0.399787597442299 
1476	 0.400417322733007 
1477	 0.400972563918173 
1478	 0.401475348051526 
1479	 0.401924815036104 
1480	 0.402349575906002 
1481	 0.402661717193835 
1482	 0.402886386641923 
1483	 0.403070665509042 
1484	 0.403155332766224 
1485	 0.403234064927305 
1486	 0.403242936036506 
1487	 0.403303320090679 
1488	 0.403284820236605 
1489	 0.403424960361675 
1490	 0.403616742756641 
1491	 0.403923124839269 
1492	 0.404263098512343 
1493	 0.404841334447897 
1494	 0.405613738760177 
1495	 0.406427578158697 
1496	 0.407423005769801 
1497	 0.408464802998181 
1498	 0.409589752689043 
1499	 0.410724887816214 
1500	 0.41199060793886 
1501	 0.413206919828 
1502	 0.414409200583259 
1503	 0.415596535244655 
1504	 0.416838607381882 
1505	 0.417977565678456 
1506	 0.419090887878072 
1507	 0.420103584491982 
1508	 0.421011865135731 
1509	 0.421885125873672 
1510	 0.422682057910671 
1511	 0.423429201565282 
1512	 0.424135588889044 
1513	 0.424783153397869 
1514	 0.425376648977926 
1515	 0.42590094891632 
1516	 0.426348567936163 
1517	 0.426764507246019 
1518	 0.427106316010518 
1519	 0.427424204394307 
1520	 0.427710944314369 
1521	 0.427971614845667 
1522	 0.428172605598294 
1523	 0.42836738575914 
1524	 0.428525347002803 
1525	 0.428656168138441 
1526	 0.428744954394168 
1527	 0.428791045241828 
1528	 0.428842453767268 
1529	 0.428869388379374 
1530	 0.428869429413097 
1531	 0.428847817183122 
1532	 0.428844923957406 
1533	 0.428795618266506 
1534	 0.428821336691847 
1535	 0.428877961257741 
1536	 0.428984806280688 
1537	 0.429106376729884 
1538	 0.429325044067264 
1539	 0.429616904808988 
1540	 0.429949578592938 
1541	 0.430334518331711 
1542	 0.430802686038588 
1543	 0.431313757435367 
1544	 0.431932161819953 
1545	 0.432675653305354 
1546	 0.433415596067982 
1547	 0.434229376279462 
1548	 0.435045565345488 
1549	 0.435891290770862 
1550	 0.436744644536736 
1551	 0.437646875624686 
1552	 0.438502397249184 
1553	 0.439348656494677 
1554	 0.440186511144422 
1555	 0.441014250385862 
1556	 0.441817301992341 
1557	 0.442610266790181 
1558	 0.443385880206185 
1559	 0.444138756755882 
1560	 0.444870551401042 
1561	 0.445590242053183 
1562	 0.446290121455085 
1563	 0.446958422628171 
1564	 0.447620737156145 
1565	 0.448279479055262 
1566	 0.448910550257198 
1567	 0.449505485365791 
1568	 0.450114579144822 
1569	 0.450695392566909 
1570	 0.451312696671522 
1571	 0.451990347140426 
1572	 0.452587648439915 
1573	 0.453184496704198 
1574	 0.453723781601872 
1575	 0.454161056361601 
1576	 0.454647347495949 
1577	 0.455131416752912 
1578	 0.455612548548241 
1579	 0.456118071834383 
1580	 0.456585178430606 
1581	 0.456997458941406 
1582	 0.457463459333592 
1583	 0.457944657827052 
1584	 0.458419166654202 
1585	 0.458931821146985 
1586	 0.459418613874934 
1587	 0.459869141459431 
1588	 0.460342573176015 
1589	 0.460831951725601 
1590	 0.461311327559673 
1591	 0.461804503852493 
1592	 0.46226909988925 
1593	 0.462684135053311 
1594	 0.463154660821439 
1595	 0.463647536523811 
1596	 0.464128978791889 
1597	 0.464652631017255 
1598	 0.465146857851795 
1599	 0.465622997185437 
1600	 0.466074070133418 
1601	 0.466489595431319 
1602	 0.466936906222106 
1603	 0.467369076838248 
1604	 0.467813868579614 
1605	 0.468307824213017 
1606	 0.468766521792833 
1607	 0.469214330150553 
1608	 0.46964058130407 
1609	 0.47006495595812 
1610	 0.470446380909485 
1611	 0.470765541094452 
1612	 0.471109836763862 
1613	 0.471462801977147 
1614	 0.471771409629036 
1615	 0.472071975334703 
1616	 0.472357451014545 
1617	 0.472575704640663 
1618	 0.472830460057977 
1619	 0.473138679841393 
1620	 0.473379460186036 
1621	 0.473584611774549 
1622	 0.473790142944212 
1623	 0.473958179080873 
1624	 0.474123857989354 
1625	 0.474276775577097 
1626	 0.474451674513423 
1627	 0.474624840639074 
1628	 0.474792832426806 
1629	 0.474999877048563 
1630	 0.475166583823341 
1631	 0.47530264952527 
1632	 0.47542961379759 
1633	 0.475512448991312 
1634	 0.475634767431108 
1635	 0.475780644852968 
1636	 0.475900150437477 
1637	 0.476025533602604 
1638	 0.47615623666968 
1639	 0.476285124639596 
1640	 0.476379161331028 
1641	 0.47647359378398 
1642	 0.476549252968643 
1643	 0.47658477890593 
1644	 0.476613890558825 
1645	 0.476646410508804 
1646	 0.476654393692142 
1647	 0.476634709208194 
1648	 0.47659951995824 
1649	 0.476559817330435 
1650	 0.476487599850176 
1651	 0.476371286955742 
1652	 0.476263058233789 
1653	 0.476175658303736 
1654	 0.476015038067479 
1655	 0.475830607992141 
1656	 0.475595982565178 
1657	 0.475287843756486 
1658	 0.474952073972933 
1659	 0.474592055251887 
1660	 0.474197466886494 
1661	 0.473779876272843 
1662	 0.473283452991006 
1663	 0.472723911918887 
1664	 0.472122064695862 
1665	 0.471437932897915 
1666	 0.470733220328604 
1667	 0.470057968281537 
1668	 0.469245735621343 
1669	 0.468372312959678 
1670	 0.467384704287522 
1671	 0.466257486928201 
1672	 0.465062796626254 
1673	 0.463776665814004 
1674	 0.462414073454346 
1675	 0.460997181564201 
1676	 0.459483518933614 
1677	 0.457846538029011 
1678	 0.456182968579169 
1679	 0.454404237266751 
1680	 0.452628839682834 
1681	 0.450876898432488 
1682	 0.448977115521776 
1683	 0.447011901366517 
1684	 0.444992478558261 
1685	 0.44285947716279 
1686	 0.440704785069423 
1687	 0.438504000234124 
1688	 0.43621962786678 
1689	 0.433871850289402 
1690	 0.431430259638454 
1691	 0.428908292855736 
1692	 0.426402363363239 
1693	 0.423803757744158 
1694	 0.421255169687847 
1695	 0.418763289527853 
1696	 0.416099489249184 
1697	 0.413371576004885 
1698	 0.410572139566017 
1699	 0.407631907685693 
1700	 0.404817117726438 
1701	 0.402019167781691 
1702	 0.399210015988189 
1703	 0.396371444390302 
1704	 0.393632844813346 
1705	 0.390831894027663 
1706	 0.388232658070453 
1707	 0.385946273588616 
1708	 0.383721451031062 
1709	 0.381661909909444 
1710	 0.379769958909247 
1711	 0.377878851748793 
1712	 0.376111209451413 
1713	 0.37438981059101 
1714	 0.372691498065737 
1715	 0.37109157305327 
1716	 0.369530760226125 
1717	 0.368122800625352 
1718	 0.366769742177865 
1719	 0.36537027195975 
1720	 0.364054965072718 
1721	 0.362708638744574 
1722	 0.361381003219724 
1723	 0.360279962871079 
1724	 0.359246125333191 
1725	 0.35840573590956 
1726	 0.357843740639841 
1727	 0.35734881559305 
1728	 0.357076500896168 
1729	 0.357049398254187 
1730	 0.357169572249242 
1731	 0.357537092889501 
1732	 0.358124030535936 
1733	 0.358780272623157 
1734	 0.359618104777708 
1735	 0.360556477290423 
1736	 0.361431079845575 
1737	 0.362312735297908 
1738	 0.363123957517006 
1739	 0.363685058435481 
1740	 0.364112782791245 
1741	 0.36436473352035 
1742	 0.364388989648533 
1743	 0.364340416064271 
1744	 0.364108361115428 
1745	 0.363877235646908 
1746	 0.3634560338114 
1747	 0.363166136180407 
1748	 0.362906009144098 
1749	 0.362717932071366 
1750	 0.362584196910838 
1751	 0.362556644109826 
1752	 0.362574877123268 
1753	 0.362695027121491 
1754	 0.3629099906912 
1755	 0.363222436091721 
1756	 0.363589071962896 
1757	 0.364136668104766 
1758	 0.364921090565279 
1759	 0.365766535174402 
1760	 0.366736932995315 
1761	 0.36783510558481 
1762	 0.368942365516818 
1763	 0.37024968505864 
1764	 0.37163641609941 
1765	 0.3730849445052 
1766	 0.374742288570954 
1767	 0.376451252874442 
1768	 0.37822391164979 
1769	 0.379978008876219 
1770	 0.381587512922775 
1771	 0.383189454396416 
1772	 0.384689755875688 
1773	 0.386175367913189 
1774	 0.387694259253282 
1775	 0.389002583118432 
1776	 0.3903036158262 
1777	 0.391550118024348 
1778	 0.392609423122369 
1779	 0.393605340357868 
1780	 0.39453255424013 
1781	 0.39552669817288 
1782	 0.396515520093167 
1783	 0.397369540443141 
1784	 0.39827520233188 
1785	 0.398934792567109 
1786	 0.399674946637224 
1787	 0.400561958258895 
1788	 0.401284642427663 
1789	 0.401925892032299 
1790	 0.402581760572534 
1791	 0.403149428326496 
1792	 0.403736307970037 
1793	 0.404312726753101 
1794	 0.404892531010235 
1795	 0.40550398862726 
1796	 0.406112435968449 
1797	 0.406748807122811 
1798	 0.407305127719848 
1799	 0.407866188182945 
1800	 0.408475234806122 
1801	 0.420600599621455 
1802	 0.42104117570103 
1803	 0.421535551790565 
1804	 0.422007719926038 
1805	 0.42250862214327 
1806	 0.422995154500733 
1807	 0.423578513498366 
1808	 0.42403697917969 
1809	 0.424354318724039 
1810	 0.424788030246145 
1811	 0.425261861982067 
1812	 0.425705128441145 
1813	 0.426154902206265 
1814	 0.426669016236002 
1815	 0.427131585186429 
1816	 0.427536376108945 
1817	 0.428004668755113 
1818	 0.4285196808127 
1819	 0.429006921647366 
1820	 0.429497118842996 
1821	 0.429994952326298 
1822	 0.430485189499825 
1823	 0.431007142786177 
1824	 0.431480987335019 
1825	 0.431954547539811 
1826	 0.432443680937254 
1827	 0.432927396487849 
1828	 0.433380041456071 
1829	 0.433868885254898 
1830	 0.43429016353247 
1831	 0.434651928278477 
1832	 0.435021541784319 
1833	 0.435332040379003 
1834	 0.435660466873493 
1835	 0.436015241094057 
1836	 0.436322303600651 
1837	 0.436611359412304 
1838	 0.436874283289 
1839	 0.437173893895793 
1840	 0.437458263276958 
1841	 0.437741893119323 
1842	 0.438076410356481 
1843	 0.438394179936429 
1844	 0.438588219508524 
1845	 0.438757954615585 
1846	 0.43891790094299 
1847	 0.439002539259728 
1848	 0.439035316084442 
1849	 0.43902972056055 
1850	 0.43898193979567 
1851	 0.43887530521973 
1852	 0.438735399785999 
1853	 0.43852315913203 
1854	 0.438235920002301 
1855	 0.437898515826855 
1856	 0.437519719710984 
1857	 0.437097654592158 
1858	 0.436567141041353 
1859	 0.435966311745688 
1860	 0.435289417050517 
1861	 0.434492588697183 
1862	 0.433584308339338 
1863	 0.432678695181363 
1864	 0.431606044997591 
1865	 0.430425422369195 
1866	 0.429171322634609 
1867	 0.427809461176998 
1868	 0.426454630577713 
1869	 0.424921542001882 
1870	 0.423299130865531 
1871	 0.42164560023673 
1872	 0.419864279258041 
1873	 0.417948052408202 
1874	 0.415955558478538 
1875	 0.413895546229486 
1876	 0.411563480827493 
1877	 0.409182739267594 
1878	 0.406660221696029 
1879	 0.404004896941901 
1880	 0.401404790612065 
1881	 0.398603904750161 
1882	 0.395618201688324 
1883	 0.392619055878501 
1884	 0.389497665376972 
1885	 0.386001560744796 
1886	 0.382557587563066 
1887	 0.37889480830475 
1888	 0.374990986085942 
1889	 0.371302858568357 
1890	 0.367402142613747 
1891	 0.363486075555979 
1892	 0.359635014250216 
1893	 0.355550374392978 
1894	 0.3512295519697 
1895	 0.346991590745877 
1896	 0.342651855278157 
1897	 0.33823912261127 
1898	 0.334167283280683 
1899	 0.329940488642287 
1900	 0.325780761702249 
1901	 0.321792384855543 
1902	 0.317521180092423 
1903	 0.313454391474944 
1904	 0.309427611315342 
1905	 0.305412015411149 
1906	 0.30137185798452 
1907	 0.297749132784349 
1908	 0.294085039563107 
1909	 0.290600920568861 
1910	 0.287317709797122 
1911	 0.283856394294515 
1912	 0.280675159151437 
1913	 0.277535983045012 
1914	 0.274372071429875 
1915	 0.271435538662506 
1916	 0.268744365964789 
1917	 0.265972886321334 
1918	 0.263314846695142 
1919	 0.260799964514468 
1920	 0.258134268570949 
1921	 0.255629970035451 
1922	 0.253115426483685 
1923	 0.250539823709489 
1924	 0.248212972450033 
1925	 0.245822914621928 
1926	 0.243520812742795 
1927	 0.241330874765028 
1928	 0.239155306582159 
1929	 0.236956193737718 
1930	 0.234926462218427 
1931	 0.232976923679961 
1932	 0.231142016962769 
1933	 0.229526692930689 
1934	 0.227987662780746 
1935	 0.226642034306016 
1936	 0.225480629290738 
1937	 0.224465487760996 
1938	 0.223629770001738 
1939	 0.22296199419614 
1940	 0.222444876699543 
1941	 0.222096083822719 
1942	 0.221903506067618 
1943	 0.221857221781203 
1944	 0.221950411111894 
1945	 0.222104654248121 
1946	 0.222397779924509 
1947	 0.22277171107271 
1948	 0.223284728957354 
1949	 0.224018587289187 
1950	 0.224859272715588 
1951	 0.225859659570544 
1952	 0.2270078616689 
1953	 0.228298481789489 
1954	 0.229688538648684 
1955	 0.231310413637153 
1956	 0.233031033094518 
1957	 0.234849548924 
1958	 0.236718679905583 
1959	 0.238421582330201 
1960	 0.240098813321546 
1961	 0.241626801733028 
1962	 0.243003673953174 
1963	 0.244309491478577 
1964	 0.245536145090922 
1965	 0.246619042322321 
1966	 0.247587677490209 
1967	 0.248484022619912 
1968	 0.249178127361521 
1969	 0.249868398532328 
1970	 0.250541002272509 
1971	 0.251172736211395 
1972	 0.251917563111525 
1973	 0.252676316987781 
1974	 0.2534919415052 
1975	 0.254383313488489 
1976	 0.255279237210048 
1977	 0.256206080838014 
1978	 0.257165639790899 
1979	 0.258141742084543 
1980	 0.259132593692582 
1981	 0.260238752550441 
1982	 0.261370408888626 
1983	 0.262597474576625 
1984	 0.263857967692191 
1985	 0.265029054516961 
1986	 0.266288219041364 
1987	 0.267680607324486 
1988	 0.269055236038943 
1989	 0.270691939309178 
1990	 0.272532210251445 
1991	 0.274477915153793 
1992	 0.2765850544455 
1993	 0.27884961760715 
1994	 0.28112389518419 
1995	 0.283637262604445 
1996	 0.286170156233404 
1997	 0.288779104116633 
1998	 0.291467841434738 
1999	 0.294322747315176 
2000	 0.297002916192955 
2001	 0.29981487460607 
2002	 0.302345127324063 
2003	 0.304683291080932 
2004	 0.30700908539605 
2005	 0.309216094290168 
2006	 0.311329574722895 
2007	 0.313420909067881 
2008	 0.31535156378168 
2009	 0.317131642302359 
2010	 0.318840047541815 
2011	 0.320405847478664 
2012	 0.321872412758616 
2013	 0.323198557150559 
2014	 0.324355181377952 
2015	 0.325478254261063 
2016	 0.326475053261942 
2017	 0.327418498888097 
2018	 0.328312722462217 
2019	 0.329120640984203 
2020	 0.329798041538992 
2021	 0.330490515467383 
2022	 0.331118809063644 
2023	 0.331656722141286 
2024	 0.33214626242806 
2025	 0.332527484849494 
2026	 0.332858584123593 
2027	 0.33308908726287 
2028	 0.333303727156649 
2029	 0.333472341055472 
2030	 0.333594822191214 
2031	 0.33364156380169 
2032	 0.333701741598472 
2033	 0.33371159990141 
2034	 0.333728204860382 
2035	 0.333744981311038 
2036	 0.333746682252658 
2037	 0.333751668283367 
2038	 0.333783038567205 
2039	 0.333800303432143 
2040	 0.33383616905451 
2041	 0.333839152057297 
2042	 0.333811153024469 
2043	 0.33380699519989 
2044	 0.333766597207564 
2045	 0.333796676715059 
2046	 0.333890560659699 
2047	 0.333955959051043 
2048	 0.334055949113735 
2049	 0.334145381353105 
2050	 0.33424659021546 
2051	 0.334270767006282 
2052	 0.334379276465448 
2053	 0.334412642817626 
2054	 0.334448073988245 
2055	 0.334479228620711 
2056	 0.33448276362035 
2057	 0.334411160448461 
2058	 0.334448816956803 
2059	 0.334544336958838 
2060	 0.334593073623184 
2061	 0.334711979420634 
2062	 0.334745309077825 
2063	 0.334651626995618 
2064	 0.334637451032439 
2065	 0.334630906312464 
2066	 0.33464699484219 
2067	 0.334680317253616 
2068	 0.334754405412832 
2069	 0.334824148082363 
2070	 0.334909018938868 
2071	 0.33497109520372 
2072	 0.335048487637416 
2073	 0.335103890831948 
2074	 0.335167592104223 
2075	 0.335156992102026 
2076	 0.33510265005629 
2077	 0.335047619641357 
2078	 0.334907271171916 
2079	 0.334810478576578 
2080	 0.33475763047321 
2081	 0.334677236285783 
2082	 0.334585065085195 
2083	 0.334506802602272 
2084	 0.334374218515041 
2085	 0.334213948004401 
2086	 0.334038623954599 
2087	 0.333825699843304 
2088	 0.333609635042238 
2089	 0.333399911476809 
2090	 0.333136199350766 
2091	 0.332823310095804 
2092	 0.332516755235672 
2093	 0.332163668131848 
2094	 0.331841640734436 
2095	 0.331530819855983 
2096	 0.331216629115412 
2097	 0.330920676849197 
2098	 0.330603873523851 
2099	 0.330281735900926 
2100	 0.329963048739372 
2101	 0.329559015488926 
2102	 0.329122068798481 
2103	 0.328628202896532 
2104	 0.328019556953129 
2105	 0.327489273275824 
2106	 0.326958895597216 
2107	 0.326412763823168 
2108	 0.325924513315782 
2109	 0.325349104925353 
2110	 0.324697107262523 
2111	 0.324063215509672 
2112	 0.323384008812175 
2113	 0.322710947909974 
2114	 0.322042859292891 
2115	 0.321373608539407 
2116	 0.320686622509579 
2117	 0.320039715209868 
2118	 0.319332334430255 
2119	 0.318615110115607 
2120	 0.317865122360197 
2121	 0.31703709556912 
2122	 0.316291054129359 
2123	 0.31557421897888 
2124	 0.314841701746888 
2125	 0.314158907446993 
2126	 0.313415477389371 
2127	 0.312582400838029 
2128	 0.311849302486289 
2129	 0.311128072352641 
2130	 0.310441474601727 
2131	 0.309858734353418 
2132	 0.309220316716388 
2133	 0.308555687239403 
2134	 0.307920262873964 
2135	 0.307214392404902 
2136	 0.306566837598174 
2137	 0.305935579050057 
2138	 0.305301575532042 
2139	 0.304713857915468 
2140	 0.304196856479176 
2141	 0.303617704667588 
2142	 0.303024223332366 
2143	 0.302466471151429 
2144	 0.301893176219941 
2145	 0.301362797837207 
2146	 0.300872979282799 
2147	 0.30038661990662 
2148	 0.299901912012358 
2149	 0.299442366906227 
2150	 0.299037135110259 
2151	 0.298612870701814 
2152	 0.298172606737009 
2153	 0.29777872974703 
2154	 0.297364320328521 
2155	 0.296937543130448 
2156	 0.296598872840892 
2157	 0.296324303890122 
2158	 0.296013330894903 
2159	 0.295752322739296 
2160	 0.295448002864828 
2161	 0.295093776833276 
2162	 0.29479158193395 
2163	 0.294539919589631 
2164	 0.294223484523953 
2165	 0.293897765412869 
2166	 0.293555145790858 
2167	 0.293127802619375 
2168	 0.292774926440984 
2169	 0.292430519965227 
2170	 0.292144557343054 
2171	 0.291925546516399 
2172	 0.291706941537707 
2173	 0.291584643638379 
2174	 0.291350120656106 
2175	 0.291098958718005 
2176	 0.290932286008397 
2177	 0.290796384511127 
2178	 0.290680512645472 
2179	 0.290604636640515 
2180	 0.290623836741563 
2181	 0.290554705099953 
2182	 0.290461870935493 
2183	 0.290377663595341 
2184	 0.290240972514011 
2185	 0.290174866542554 
2186	 0.290177602900115 
2187	 0.290130445692286 
2188	 0.290104946007918 
2189	 0.290046082980275 
2190	 0.28993507913617 
2191	 0.289831379005704 
2192	 0.289716228833643 
2193	 0.289617551851292 
2194	 0.289550560432407 
2195	 0.289431128089206 
2196	 0.289327215839805 
2197	 0.289146424385214 
2198	 0.288925758958976 
2199	 0.288686334985418 
2200	 0.288462857750819 
2201	 0.2882361504805 
2202	 0.288006816242912 
2203	 0.287784809682823 
2204	 0.287536578102498 
2205	 0.287283524604445 
2206	 0.287002786134703 
2207	 0.286709164739954 
2208	 0.286382781075314 
2209	 0.286010145627786 
2210	 0.285652382031192 
2211	 0.2852400909803 
2212	 0.284901604147471 
2213	 0.284597046509917 
2214	 0.2843105959354 
2215	 0.284032056448935 
2216	 0.283832419825941 
2217	 0.283642608077332 
2218	 0.283548763660354 
2219	 0.283561719458764 
2220	 0.283604965294635 
2221	 0.283719111015329 
2222	 0.283875406328997 
2223	 0.28403904921084 
2224	 0.284262152469802 
2225	 0.284411378631754 
2226	 0.284551225981205 
2227	 0.284632312201024 
2228	 0.284670502338238 
2229	 0.284660633438016 
2230	 0.284645833596387 
2231	 0.284474347689988 
2232	 0.284240630385093 
2233	 0.283872582997682 
2234	 0.283385977036453 
2235	 0.282762182369064 
2236	 0.281972500532414 
2237	 0.281159206758228 
2238	 0.280276842401719 
2239	 0.279233686187167 
2240	 0.278133600009838 
2241	 0.276853344538222 
2242	 0.275366120080711 
2243	 0.273779750593903 
2244	 0.272063865932249 
2245	 0.270258520709001 
2246	 0.268260118309009 
2247	 0.266229798115664 
2248	 0.264097059394297 
2249	 0.261943997400661 
2250	 0.25971027009202 
2251	 0.257542464684247 
2252	 0.255160477467421 
2253	 0.252675985927686 
2254	 0.250256336771053 
2255	 0.247710624630545 
2256	 0.24532173623154 
2257	 0.243060036084529 
2258	 0.240758950299489 
2259	 0.238475657322956 
2260	 0.236188610354588 
2261	 0.233929412491747 
2262	 0.231681051955178 
2263	 0.229332899557698 
2264	 0.227222365771097 
2265	 0.225210408812406 
2266	 0.223268855452153 
2267	 0.221600677518536 
2268	 0.219754966505676 
2269	 0.217840623556158 
2270	 0.216037342973426 
2271	 0.214115896225591 
2272	 0.212425254541637 
2273	 0.21101343786214 
2274	 0.209454140781701 
2275	 0.208031932062014 
2276	 0.206451195006452 
2277	 0.20471605123138 
2278	 0.203017183018368 
2279	 0.201215484689816 
2280	 0.199482466214895 
2281	 0.197782951772511 
2282	 0.196045632336274 
2283	 0.194360523621133 
2284	 0.192662781493464 
2285	 0.190671845216007 
2286	 0.188766096006707 
2287	 0.186636845781362 
2288	 0.184380370022817 
2289	 0.182420004912028 
2290	 0.180397209487362 
2291	 0.178366392775763 
2292	 0.176371377542116 
2293	 0.174135493821308 
2294	 0.171881792736314 
2295	 0.169677746648494 
2296	 0.167626481355687 
2297	 0.16591408644506 
2298	 0.164445795002193 
2299	 0.163143975405721 
2300	 0.16217602016659 
2301	 0.161276484033159 
2302	 0.160435903178116 
2303	 0.159970477903713 
2304	 0.159765059595299 
2305	 0.159792759356472 
2306	 0.160134778767304 
2307	 0.16066750415804 
2308	 0.161452568645797 
2309	 0.162419589790094 
2310	 0.163626611516048 
2311	 0.165024350284441 
2312	 0.166719410205264 
2313	 0.168405572924595 
2314	 0.170339381297062 
2315	 0.172193222212466 
2316	 0.17408477611313 
2317	 0.175918733517232 
2318	 0.177895006410768 
2319	 0.179527707487198 
2320	 0.181088826199996 
2321	 0.182327115177815 
2322	 0.1832524987091 
2323	 0.184014707246276 
2324	 0.18446415974793 
2325	 0.184846124666899 
2326	 0.185098933276131 
2327	 0.185120801090215 
2328	 0.184942057727919 
2329	 0.184624986337445 
2330	 0.184065635881673 
2331	 0.183393082040634 
2332	 0.182685865501498 
2333	 0.18191150740931 
2334	 0.180875362490699 
2335	 0.17956936811699 
2336	 0.178164515694539 
2337	 0.176701659043633 
2338	 0.175154487159991 
2339	 0.173657999867883 
2340	 0.172146404053525 
2341	 0.170595359245909 
2342	 0.169281684122147 
2343	 0.168271654302784 
2344	 0.167392655042042 
2345	 0.166602417538054 
2346	 0.165978905732028 
2347	 0.165575810461789 
2348	 0.165430587178912 
2349	 0.165572272823695 
2350	 0.165940215530859 
2351	 0.166713210593887 
2352	 0.16772234406996 
2353	 0.168886574181219 
2354	 0.170091060901002 
2355	 0.171219248559968 
2356	 0.172131544741692 
2357	 0.172827616868951 
2358	 0.173752480259978 
2359	 0.174406815263692 
2360	 0.174815176612697 
2361	 0.175317040328103 
2362	 0.175425293522318 
2363	 0.175255358110006 
2364	 0.175142424252363 
2365	 0.174948621291559 
2366	 0.174703724236147 
2367	 0.174466228524186 
2368	 0.174204282002589 
2369	 0.173852681293203 
2370	 0.173364864466275 
2371	 0.173092227444246 
2372	 0.172967142860199 
2373	 0.172755904029264 
2374	 0.172647734173112 
2375	 0.172422501031498 
2376	 0.171930297788056 
2377	 0.171504915300541 
2378	 0.171296399028941 
2379	 0.171093241594418 
2380	 0.170845598753074 
2381	 0.170485026001696 
2382	 0.170144573933651 
2383	 0.169572206547433 
2384	 0.169378944493531 
2385	 0.169529079005935 
2386	 0.169313793639674 
2387	 0.169071854016399 
2388	 0.168806893231438 
2389	 0.168218819609533 
2390	 0.167885237856276 
2391	 0.167789978967704 
2392	 0.167597595488696 
2393	 0.167489425081562 
2394	 0.167293830904942 
2395	 0.167074565764269 
2396	 0.166799980759416 
2397	 0.166255600303155 
2398	 0.165903847093125 
2399	 0.165758969019372 
2400	 0.165403567222035 
2401	 0.164984033598398 
2402	 0.164646675383808 
2403	 0.164274156413047 
2404	 0.163953558078372 
2405	 0.16378180669882 
2406	 0.163515672477325 
2407	 0.163206604815096 
2408	 0.16319465813705 
2409	 0.16297154392991 
2410	 0.162380412605771 
2411	 0.161941654912119 
2412	 0.161442786333126 
2413	 0.160930642306119 
2414	 0.160515241066237 
2415	 0.160149191026016 
2416	 0.159832110964306 
2417	 0.159591039229665 
2418	 0.15967684544144 
2419	 0.159701491318423 
2420	 0.159202316929296 
2421	 0.158576544364408 
2422	 0.158340138691967 
2423	 0.157868032324793 
2424	 0.157540452746398 
2425	 0.157832284123391 
2426	 0.157782191569832 
2427	 0.15771412918532 
2428	 0.157827186201717 
2429	 0.157516835519163 
2430	 0.157065902004708 
2431	 0.156990265201196 
2432	 0.156728791553127 
2433	 0.156011114829909 
2434	 0.15549439216003 
2435	 0.155077443654065 
2436	 0.154774894256787 
2437	 0.154929028503357 
2438	 0.155060339527182 
2439	 0.154882313155471 
2440	 0.154596335878992 
2441	 0.154266271549014 
2442	 0.153865879497168 
2443	 0.153370963755776 
2444	 0.153255505589186 
2445	 0.153274152676946 
2446	 0.15277403055648 
2447	 0.152409447875979 
2448	 0.151895244135616 
2449	 0.15103697321315 
2450	 0.150922938093228 
2451	 0.150944061932235 
2452	 0.15073141170594 
2453	 0.150904791255403 
2454	 0.150910395391338 
2455	 0.150235014334818 
2456	 0.149231978007554 
2457	 0.148024633045588 
2458	 0.146795849422954 
2459	 0.145921751810319 
2460	 0.145493525912147 
2461	 0.145326740006895 
2462	 0.145163041327383 
2463	 0.145360912603067 
2464	 0.145979894316481 
2465	 0.146278488415783 
2466	 0.145915844456632 
2467	 0.145439833152502 
2468	 0.144844281069094 
2469	 0.144090713231562 
2470	 0.143655092886025 
2471	 0.143259195700731 
2472	 0.142668377117471 
2473	 0.142090619962876 
2474	 0.141773570126272 
2475	 0.141573855511767 
2476	 0.141181097387644 
2477	 0.140974881912186 
2478	 0.141070956295515 
2479	 0.141413014372756 
2480	 0.141759202052642 
2481	 0.141776997551485 
2482	 0.141496844162374 
2483	 0.140793114242072 
2484	 0.140859974638359 
2485	 0.140861434265202 
2486	 0.140945109263249 
2487	 0.140755248796436 
2488	 0.140338743663661 
2489	 0.140310181450859 
2490	 0.140164430674854 
2491	 0.140433186756478 
2492	 0.141042296040026 
2493	 0.140852960521565 
2494	 0.140446952789922 
2495	 0.140175937956969 
2496	 0.139510229027454 
2497	 0.140142629679391 
2498	 0.141845487156555 
2499	 0.143274432646352 
2500	 0.144917679457114 
