Wavelength	Tablay400090.asd
350	 0.281188057682014 
351	 0.290619392805401 
352	 0.199986425758294 
353	 0.077688258746109 
354	 0.239796148556976 
355	 0.307595561506194 
356	 0.261282482545369 
357	 0.171434941292837 
358	 0.158920829673844 
359	 0.163349048325461 
360	 0.181792403839844 
361	 0.228702422464194 
362	 0.155745764938176 
363	 0.10590899523085 
364	 0.127364124515853 
365	 0.110647309130339 
366	 0.123497501465319 
367	 0.167499565500978 
368	 0.208942429848033 
369	 0.184680827827988 
370	 0.136918972417534 
371	 0.110370759119763 
372	 0.13038170539502 
373	 0.161640523440323 
374	 0.161894365136473 
375	 0.132585407293413 
376	 0.134883923068249 
377	 0.133463669063441 
378	 0.145169479718373 
379	 0.170936299509787 
380	 0.130769617828746 
381	 8.86959660469167E-02 
382	 0.070063266359048 
383	 6.99147061281798E-02 
384	 0.127419753469206 
385	 0.150846808961787 
386	 0.110077700645253 
387	 7.20079249411393E-02 
388	 9.42664246840502E-02 
389	 0.131870782313175 
390	 0.127888247513955 
391	 0.102790990593382 
392	 8.47041444964847E-02 
393	 8.05909892980387E-02 
394	 8.02485628410102E-02 
395	 8.34617738378015E-02 
396	 8.93266474465405E-02 
397	 0.09766905798559 
398	 0.109921112778116 
399	 0.110177931286366 
400	 9.97578952935093E-02 
401	 8.59624712274928E-02 
402	 7.60519442699013E-02 
403	 8.67684477193956E-02 
404	 9.84171895704068E-02 
405	 7.16640192416808E-02 
406	 7.26159626495384E-02 
407	 8.90666311818079E-02 
408	 0.100017312717545 
409	 8.37812603175389E-02 
410	 8.18172464896745E-02 
411	 8.85980819640999E-02 
412	 8.71425181656924E-02 
413	 8.39453528790534E-02 
414	 7.90445050201779E-02 
415	 7.46879296580474E-02 
416	 7.45970372099068E-02 
417	 7.82855666273499E-02 
418	 7.97388243488916E-02 
419	 7.71084174161655E-02 
420	 8.11086997926004E-02 
421	 7.17967298967336E-02 
422	 6.40769341240992E-02 
423	 7.83158302741311E-02 
424	 7.33938762219967E-02 
425	 7.23070677671621E-02 
426	 0.081293287506477 
427	 8.36411906755063E-02 
428	 7.81796425591056E-02 
429	 7.54861827880487E-02 
430	 8.11403939409309E-02 
431	 7.84161401854952E-02 
432	 7.94750250292369E-02 
433	 8.21234587151926E-02 
434	 7.80083544428213E-02 
435	 7.66146904452749E-02 
436	 7.95963544496795E-02 
437	 8.43691696454645E-02 
438	 8.37422858562617E-02 
439	 8.22909142313781E-02 
440	 8.14659675731032E-02 
441	 8.14844776294468E-02 
442	 8.10402600308143E-02 
443	 8.15393529603469E-02 
444	 8.24038522612785E-02 
445	 8.17994094622446E-02 
446	 8.34248494569043E-02 
447	 8.50399586562989E-02 
448	 8.56290224409612E-02 
449	 0.089205678185776 
450	 8.91391636488061E-02 
451	 8.73097697692888E-02 
452	 0.088168818018191 
453	 9.12613219396458E-02 
454	 9.06570815155047E-02 
455	 8.74913133193588E-02 
456	 9.04025293992225E-02 
457	 9.12899015033124E-02 
458	 9.13009399939126E-02 
459	 9.20582264097802E-02 
460	 0.090279369832624 
461	 0.091650227928774 
462	 9.45486946386552E-02 
463	 9.41318467439259E-02 
464	 9.43936480049691E-02 
465	 9.43372708677613E-02 
466	 9.34705565114441E-02 
467	 9.28074446227247E-02 
468	 9.19829159453758E-02 
469	 9.13366975985198E-02 
470	 9.12379249696502E-02 
471	 9.16484796235768E-02 
472	 9.06513913323337E-02 
473	 8.91913561519015E-02 
474	 0.090124692173135 
475	 0.090437201247176 
476	 0.090201996479943 
477	 8.98528967576065E-02 
478	 8.95994657842292E-02 
479	 8.80239501494308E-02 
480	 8.72001922034286E-02 
481	 8.91782071978727E-02 
482	 8.75496870687357E-02 
483	 8.56790944521125E-02 
484	 8.52662589339978E-02 
485	 8.53929196463284E-02 
486	 8.38727832877757E-02 
487	 0.08220065792269 
488	 8.18976266045307E-02 
489	 8.19893928288869E-02 
490	 8.15637910450562E-02 
491	 8.06380627981806E-02 
492	 7.97774946489972E-02 
493	 7.89213273615312E-02 
494	 7.85515255462557E-02 
495	 7.86869261812447E-02 
496	 7.86100617667841E-02 
497	 7.78171991002221E-02 
498	 7.64719073518181E-02 
499	 7.50728728749457E-02 
500	 7.43591733524947E-02 
501	 7.38859533854686E-02 
502	 7.35595358171216E-02 
503	 7.35339071433828E-02 
504	 7.16774404819304E-02 
505	 7.02461523725886E-02 
506	 7.05603860414474E-02 
507	 6.99564291235249E-02 
508	 6.98499077966527E-02 
509	 6.96882510392319E-02 
510	 6.84190274080828E-02 
511	 6.74804087615247E-02 
512	 6.65163475331521E-02 
513	 0.065545609717817 
514	 6.52475149605248E-02 
515	 6.52713100987973E-02 
516	 6.46516608336073E-02 
517	 6.29836523775955E-02 
518	 6.21582704126638E-02 
519	 0.061639738326683 
520	 6.10714226259052E-02 
521	 6.02705123586604E-02 
522	 5.92903075661724E-02 
523	 5.86521165340437E-02 
524	 5.84677430944106E-02 
525	 5.79925995713494E-02 
526	 5.72322047680847E-02 
527	 5.65835752557478E-02 
528	 5.63847949987928E-02 
529	 5.57651952039424E-02 
530	 5.49749971477788E-02 
531	 5.43355877222435E-02 
532	 5.41521367938615E-02 
533	 5.40888458202557E-02 
534	 5.38867910897945E-02 
535	 5.34748713976977E-02 
536	 5.32372362619475E-02 
537	 5.29591534670765E-02 
538	 5.26486638805084E-02 
539	 5.24544413689471E-02 
540	 5.26528839483852E-02 
541	 5.27466005276212E-02 
542	 5.25032321545562E-02 
543	 5.22082258166797E-02 
544	 5.21455715580782E-02 
545	 5.24405936915025E-02 
546	 5.29840565829034E-02 
547	 5.29994362916253E-02 
548	 5.30402171223923E-02 
549	 5.32870588826642E-02 
550	 5.35505772253047E-02 
551	 5.39234072760083E-02 
552	 5.42739199325336E-02 
553	 5.45602517825381E-02 
554	 5.50998106814081E-02 
555	 5.52781257446958E-02 
556	 5.54296064932691E-02 
557	 5.61681412179855E-02 
558	 0.05657021015565 
559	 5.68195297528047E-02 
560	 5.70337565442315E-02 
561	 5.70947262874035E-02 
562	 5.69228482186264E-02 
563	 5.68939930668222E-02 
564	 5.71946770149711E-02 
565	 5.68346037388055E-02 
566	 5.65290177273865E-02 
567	 5.63657555564078E-02 
568	 5.59846863060509E-02 
569	 5.58851337611288E-02 
570	 5.55174550684192E-02 
571	 5.46810112200025E-02 
572	 5.42267709534161E-02 
573	 5.35396658890675E-02 
574	 5.27520689780572E-02 
575	 5.21916043132357E-02 
576	 5.16546798490575E-02 
577	 5.09672942087666E-02 
578	 5.02165196208988E-02 
579	 4.97668033860064E-02 
580	 0.049169073506709 
581	 4.85034067542564E-02 
582	 4.78947082181364E-02 
583	 4.71779845282252E-02 
584	 4.67659425803125E-02 
585	 4.64945311025932E-02 
586	 4.59124321141438E-02 
587	 4.53270142949129E-02 
588	 4.49688014332193E-02 
589	 4.48527795878872E-02 
590	 4.46689025525917E-02 
591	 4.46129556378537E-02 
592	 4.45740372484164E-02 
593	 4.44110388892298E-02 
594	 4.42300066969449E-02 
595	 4.41790651839845E-02 
596	 4.42722051227192E-02 
597	 4.44047158638418E-02 
598	 4.45680668822478E-02 
599	 4.45216709578735E-02 
600	 4.42656568442159E-02 
601	 4.44689584501327E-02 
602	 4.45959232293586E-02 
603	 4.46114981829811E-02 
604	 4.46760905610582E-02 
605	 4.47246130136962E-02 
606	 4.47963672965279E-02 
607	 4.48540083202042E-02 
608	 4.47600062970051E-02 
609	 4.47477791386977E-02 
610	 4.48007735956681E-02 
611	 0.044836460046622 
612	 4.47582204891973E-02 
613	 4.48596042539905E-02 
614	 4.50342974543305E-02 
615	 4.49513636411109E-02 
616	 4.48311654861796E-02 
617	 4.47636944842271E-02 
618	 4.47743024832141E-02 
619	 4.48119380738943E-02 
620	 4.47946204754827E-02 
621	 4.48268062547853E-02 
622	 4.49813186838423E-02 
623	 4.48661565564375E-02 
624	 0.044695666262455 
625	 4.46504806143894E-02 
626	 4.48236778714104E-02 
627	 4.47487315316762E-02 
628	 4.45772172585342E-02 
629	 4.44953004089539E-02 
630	 4.44905106114247E-02 
631	 4.43015235268217E-02 
632	 4.40000666017658E-02 
633	 4.37994187842683E-02 
634	 4.36808947259555E-02 
635	 4.36734696144084E-02 
636	 4.36831066103935E-02 
637	 4.34712529850378E-02 
638	 4.33543584228808E-02 
639	 4.32949582115156E-02 
640	 4.32113361802958E-02 
641	 4.31743242375797E-02 
642	 4.31948295456457E-02 
643	 4.32427581052828E-02 
644	 4.32632517549596E-02 
645	 4.32198424822505E-02 
646	 4.32898691782836E-02 
647	 4.34706353311585E-02 
648	 4.34230168305611E-02 
649	 4.34652056043826E-02 
650	 4.35587375457648E-02 
651	 4.36072278638365E-02 
652	 4.37490955533483E-02 
653	 4.38938385480163E-02 
654	 4.40834198977578E-02 
655	 4.44486691307135E-02 
656	 4.47586051134023E-02 
657	 4.50562307372878E-02 
658	 4.53879600673437E-02 
659	 4.57079175344211E-02 
660	 4.60405086774005E-02 
661	 4.64187892472825E-02 
662	 0.046882531478327 
663	 4.74798407455013E-02 
664	 4.81574240637602E-02 
665	 4.88783382228411E-02 
666	 0.049632880980018 
667	 5.04629165985719E-02 
668	 5.13913598445658E-02 
669	 5.24064911895245E-02 
670	 5.34013358142384E-02 
671	 5.46484548236202E-02 
672	 5.60562369088044E-02 
673	 5.74237709371382E-02 
674	 5.90204684484678E-02 
675	 6.08042026317454E-02 
676	 6.27411298796415E-02 
677	 6.48440234362085E-02 
678	 6.70413861658668E-02 
679	 6.94337437224315E-02 
680	 7.21046332281812E-02 
681	 7.49437020048452E-02 
682	 7.81284211614273E-02 
683	 8.15953006052632E-02 
684	 8.51600453823445E-02 
685	 8.88028679162475E-02 
686	 9.26597073302315E-02 
687	 9.67992977358567E-02 
688	 0.101188034343726 
689	 0.105687283519078 
690	 0.110283801939576 
691	 0.115030611971462 
692	 0.120046977653993 
693	 0.125002768433575 
694	 0.130039509420609 
695	 0.135506428651386 
696	 0.140740851750541 
697	 0.145935297868208 
698	 0.151179039671421 
699	 0.156254975589662 
700	 0.161399187572968 
701	 0.16652943832732 
702	 0.171526773971319 
703	 0.176460149729737 
704	 0.181173024228272 
705	 0.185723600119377 
706	 0.190302425053045 
707	 0.194745838079106 
708	 0.199000514667878 
709	 0.203067871492144 
710	 0.207012457688065 
711	 0.210694660545291 
712	 0.214239326700247 
713	 0.217742885367258 
714	 0.220832703490563 
715	 0.223902106091612 
716	 0.226918688436004 
717	 0.229574193959267 
718	 0.232241300866146 
719	 0.23475609903182 
720	 0.236991041808498 
721	 0.238984502249338 
722	 0.24104305051045 
723	 0.24304340704796 
724	 0.24482223806887 
725	 0.246662856246104 
726	 0.248258853385034 
727	 0.249612963692136 
728	 0.250954131092227 
729	 0.25233989922957 
730	 0.253566567359778 
731	 0.254593313068883 
732	 0.255702631811198 
733	 0.256678969862418 
734	 0.257578128136322 
735	 0.258483875933143 
736	 0.259288880368674 
737	 0.259975160555333 
738	 0.260628980595991 
739	 0.261378886890271 
740	 0.262098248418788 
741	 0.262737469718509 
742	 0.263310316522026 
743	 0.263908857393332 
744	 0.264428768719914 
745	 0.264860683299903 
746	 0.265247665591987 
747	 0.265710935048214 
748	 0.266170291190704 
749	 0.266571299030392 
750	 0.266896642860395 
751	 0.267274099325071 
752	 0.267637738864993 
753	 0.267929172334171 
754	 0.268130287210169 
755	 0.268521157985363 
756	 0.268899262369086 
757	 0.269101864471905 
758	 0.269424687520207 
759	 0.269668495067671 
760	 0.2699132219766 
761	 0.270310158933177 
762	 0.270595650767027 
763	 0.270846468364317 
764	 0.271095496671789 
765	 0.271306027986661 
766	 0.271563708835307 
767	 0.271851310853173 
768	 0.272130141539915 
769	 0.272363086281757 
770	 0.272554979930179 
771	 0.272814315376407 
772	 0.273219160066585 
773	 0.27352486930376 
774	 0.273776433250623 
775	 0.27399823249658 
776	 0.274195684649269 
777	 0.274457535390639 
778	 0.274745268347531 
779	 0.275023521976831 
780	 0.275298020014037 
781	 0.275548508096208 
782	 0.27574967564037 
783	 0.275913497215905 
784	 0.276177778752021 
785	 0.276436753610236 
786	 0.276656594047771 
787	 0.276861948868223 
788	 0.277162424845569 
789	 0.277458650003709 
790	 0.277711660132624 
791	 0.277974747007835 
792	 0.278100397660595 
793	 0.278270913008991 
794	 0.278608306471929 
795	 0.278946575790263 
796	 0.279133196070248 
797	 0.279279365163112 
798	 0.279548785553059 
799	 0.279802548810706 
800	 0.279999659459515 
801	 0.280142383393271 
802	 0.280279874658641 
803	 0.280590090894514 
804	 0.280834756233087 
805	 0.280943434912359 
806	 0.281175402854596 
807	 0.281296226899599 
808	 0.281493216892461 
809	 0.281872386498236 
810	 0.28199962116424 
811	 0.282108994586622 
812	 0.282249635872545 
813	 0.282394629181983 
814	 0.282564673113673 
815	 0.282790009932929 
816	 0.283028400039042 
817	 0.283184082774534 
818	 0.283310730320389 
819	 0.283455194278831 
820	 0.283627362402335 
821	 0.283777558801737 
822	 0.284009742928755 
823	 0.284180649109415 
824	 0.284217087527343 
825	 0.284481979285637 
826	 0.284579037287627 
827	 0.28453338615527 
828	 0.284573841635391 
829	 0.284836816485808 
830	 0.285091530743183 
831	 0.285213819160848 
832	 0.285214828099173 
833	 0.28520016126205 
834	 0.285276436114323 
835	 0.285437352235501 
836	 0.28551515019718 
837	 0.285623731185326 
838	 0.285719184344774 
839	 0.285768455896716 
840	 0.285867754709211 
841	 0.286041798870132 
842	 0.28613761971728 
843	 0.28602281210506 
844	 0.286011884048041 
845	 0.286153674183665 
846	 0.28630930006856 
847	 0.286260413906842 
848	 0.286278764402558 
849	 0.28638068263277 
850	 0.286473915721528 
851	 0.286390355272801 
852	 0.286475418148079 
853	 0.28650022232931 
854	 0.286358156519595 
855	 0.286454470885603 
856	 0.286474488513046 
857	 0.286409934827696 
858	 0.286374064963836 
859	 0.286569188668538 
860	 0.286565106596795 
861	 0.286462598644895 
862	 0.286561442613193 
863	 0.286520363467915 
864	 0.286537474022428 
865	 0.286580716148446 
866	 0.286432232951119 
867	 0.286377737729654 
868	 0.286306817202598 
869	 0.286213582179542 
870	 0.286296163002382 
871	 0.286418708205918 
872	 0.286480700359267 
873	 0.286432762152419 
874	 0.286309049198491 
875	 0.286258899525893 
876	 0.286249739650799 
877	 0.286215744900869 
878	 0.286217639731655 
879	 0.286185844294872 
880	 0.28611189151239 
881	 0.286033758289926 
882	 0.286042161453756 
883	 0.286086909555394 
884	 0.286090686490426 
885	 0.2859969481545 
886	 0.286025101859247 
887	 0.286035784354046 
888	 0.285940829226733 
889	 0.285775199776978 
890	 0.285771259538791 
891	 0.285847404999541 
892	 0.28586595117561 
893	 0.28571044026948 
894	 0.285606542573187 
895	 0.285615811243364 
896	 0.285683403864592 
897	 0.285598298457279 
898	 0.285345079459999 
899	 0.285235133306573 
900	 0.285469041850195 
901	 0.285417009415568 
902	 0.285290801479705 
903	 0.285141186204438 
904	 0.284985696464628 
905	 0.285120298546068 
906	 0.28515020544265 
907	 0.284955538794896 
908	 0.284698356059054 
909	 0.284781645969411 
910	 0.284808545417451 
911	 0.284688730473142 
912	 0.284703940218776 
913	 0.284748349215582 
914	 0.284695018957783 
915	 0.284544195464673 
916	 0.284471314553474 
917	 0.284642451244466 
918	 0.284672097287477 
919	 0.284400780447297 
920	 0.284283180145237 
921	 0.284185027630155 
922	 0.284178021124159 
923	 0.284300682659115 
924	 0.284421625548051 
925	 0.284339159252848 
926	 0.284212218721373 
927	 0.284238904447305 
928	 0.284297427348769 
929	 0.284401102601022 
930	 0.284488913494762 
931	 0.284480466813125 
932	 0.284319925655574 
933	 0.284327750234978 
934	 0.284433318680462 
935	 0.284403444054839 
936	 0.284438829751539 
937	 0.284436921527252 
938	 0.284340410117063 
939	 0.284192839242431 
940	 0.284393056185473 
941	 0.284481331012324 
942	 0.284414671710728 
943	 0.284534582544708 
944	 0.284667966851323 
945	 0.284695358276574 
946	 0.284623983636794 
947	 0.284576798389279 
948	 0.284464275215888 
949	 0.284436258505216 
950	 0.284494238111213 
951	 0.284436262874738 
952	 0.284479103171834 
953	 0.284347658607517 
954	 0.284135424887459 
955	 0.284521485048517 
956	 0.284526366187844 
957	 0.284294040223106 
958	 0.284120458064054 
959	 0.284119493335078 
960	 0.284015628784461 
961	 0.284003969893528 
962	 0.284137198794753 
963	 0.283990902093563 
964	 0.283641670854331 
965	 0.283463247922669 
966	 0.283576173681754 
967	 0.283367554919163 
968	 0.283453788852188 
969	 0.283565272410175 
970	 0.283450311192181 
971	 0.283550953395337 
972	 0.283495684951627 
973	 0.283285380906348 
974	 0.283102740653265 
975	 0.283301668523201 
976	 0.283313524013351 
977	 0.282965839149952 
978	 0.282443053301285 
979	 0.282503858844013 
980	 0.282558096321337 
981	 0.282502192452696 
982	 0.282393982222267 
983	 0.282246321605123 
984	 0.282078513562191 
985	 0.282049890595046 
986	 0.282237684033166 
987	 0.282355615872149 
988	 0.282119739907779 
989	 0.28187913586372 
990	 0.281944140628633 
991	 0.281666649153719 
992	 0.28134363139897 
993	 0.281142264100965 
994	 0.281105132798623 
995	 0.281022903122407 
996	 0.281223060715674 
997	 0.280962811243184 
998	 0.279916994955629 
999	 0.280349380180866 
1000	 0.280356403443636 
1001	 0.281218248523674 
1002	 0.280830587365005 
1003	 0.280460852962488 
1004	 0.28036192289487 
1005	 0.280375772839792 
1006	 0.280307344803988 
1007	 0.280506259098494 
1008	 0.28037082397972 
1009	 0.279937151826961 
1010	 0.279782002473961 
1011	 0.279672744106133 
1012	 0.279472169011742 
1013	 0.279407897794387 
1014	 0.279180533860648 
1015	 0.278678427999751 
1016	 0.278383412454135 
1017	 0.278268933884058 
1018	 0.278161364970163 
1019	 0.278026395446854 
1020	 0.277851709453288 
1021	 0.277652385648147 
1022	 0.277188075505596 
1023	 0.27702699974663 
1024	 0.277260024859627 
1025	 0.277089718600666 
1026	 0.276726520749437 
1027	 0.276491015627507 
1028	 0.276162982792328 
1029	 0.275750445210905 
1030	 0.275522003059253 
1031	 0.275464032375818 
1032	 0.275246583637098 
1033	 0.274865113251214 
1034	 0.274438901283516 
1035	 0.274023768134857 
1036	 0.273627718820343 
1037	 0.273200551925266 
1038	 0.272796736324092 
1039	 0.272358582667853 
1040	 0.272044204250861 
1041	 0.271896009772039 
1042	 0.271584085995268 
1043	 0.271232404629962 
1044	 0.270905083908842 
1045	 0.270648004370533 
1046	 0.270288430886141 
1047	 0.269929076953715 
1048	 0.269553506705887 
1049	 0.26893691677667 
1050	 0.268395616839765 
1051	 0.268010691089752 
1052	 0.267635625418908 
1053	 0.267275517918035 
1054	 0.267067844224632 
1055	 0.266592883526743 
1056	 0.265903717984426 
1057	 0.265499586985749 
1058	 0.265170595412742 
1059	 0.264676730731822 
1060	 0.264386502684481 
1061	 0.264074598007315 
1062	 0.263565789743244 
1063	 0.26318191446211 
1064	 0.262919648242388 
1065	 0.262589578392947 
1066	 0.26214487767235 
1067	 0.261743942432665 
1068	 0.261330192278919 
1069	 0.260796535372159 
1070	 0.260327225585048 
1071	 0.259872324925781 
1072	 0.259457767719992 
1073	 0.259163468447847 
1074	 0.258937470886855 
1075	 0.258636552958191 
1076	 0.25829098495423 
1077	 0.257707434980544 
1078	 0.257130935803138 
1079	 0.256775729143736 
1080	 0.25645937988061 
1081	 0.256232586666877 
1082	 0.255929349028967 
1083	 0.255556796016171 
1084	 0.255138403884975 
1085	 0.25458074600661 
1086	 0.254063271519522 
1087	 0.253542406067304 
1088	 0.2529967311287 
1089	 0.252544406175531 
1090	 0.252196116767209 
1091	 0.251749738078971 
1092	 0.251315343192081 
1093	 0.250810042124965 
1094	 0.250258603575922 
1095	 0.249772033367343 
1096	 0.249199133515344 
1097	 0.248587956940831 
1098	 0.247996589194429 
1099	 0.247452188334223 
1100	 0.246987080597553 
1101	 0.246545624707665 
1102	 0.245993253162103 
1103	 0.245405504843534 
1104	 0.244735285343893 
1105	 0.244139188018547 
1106	 0.243569513631515 
1107	 0.24296628509725 
1108	 0.242363528797898 
1109	 0.241694706232796 
1110	 0.240948380418115 
1111	 0.240267398132527 
1112	 0.239636501814021 
1113	 0.238945429814988 
1114	 0.238213669678286 
1115	 0.237506468801656 
1116	 0.236799391627754 
1117	 0.236094001357286 
1118	 0.235424845402884 
1119	 0.234775259340331 
1120	 0.234127685173768 
1121	 0.233523607868827 
1122	 0.232897011651038 
1123	 0.232113431849431 
1124	 0.231381524298544 
1125	 0.230624647263048 
1126	 0.229800745742035 
1127	 0.229057482686046 
1128	 0.228312295487074 
1129	 0.227509611947229 
1130	 0.226665881200017 
1131	 0.225867182188795 
1132	 0.225118452794343 
1133	 0.224325634500728 
1134	 0.223552419550507 
1135	 0.222808239518595 
1136	 0.222127037310531 
1137	 0.221354627504467 
1138	 0.220546758387454 
1139	 0.219765990721059 
1140	 0.218968387623117 
1141	 0.218129126684677 
1142	 0.217350261923908 
1143	 0.216597769138031 
1144	 0.215794534462842 
1145	 0.215009695158147 
1146	 0.214209893540329 
1147	 0.213339878729384 
1148	 0.212537212502886 
1149	 0.211763338226678 
1150	 0.211034931737049 
1151	 0.21040111000672 
1152	 0.209650707465501 
1153	 0.208845608427806 
1154	 0.208065084431544 
1155	 0.207187110992477 
1156	 0.206387046122725 
1157	 0.205696676915558 
1158	 0.204927960977249 
1159	 0.204095091415932 
1160	 0.203370866525821 
1161	 0.202590430250051 
1162	 0.201750783325145 
1163	 0.200967128181328 
1164	 0.200138076977439 
1165	 0.199386286078295 
1166	 0.198701017665536 
1167	 0.197983352684405 
1168	 0.197250078961837 
1169	 0.196477638383765 
1170	 0.195586953446112 
1171	 0.194819537797392 
1172	 0.19411322502101 
1173	 0.19338447358425 
1174	 0.192708912343853 
1175	 0.191971207190316 
1176	 0.191186751106314 
1177	 0.190424502967226 
1178	 0.18963788488951 
1179	 0.188881308722201 
1180	 0.188178109718263 
1181	 0.187432804407327 
1182	 0.186654980475625 
1183	 0.186002174679182 
1184	 0.185352991193007 
1185	 0.184606737057022 
1186	 0.183923574899729 
1187	 0.183299928103452 
1188	 0.182588086184696 
1189	 0.18183600718314 
1190	 0.181126263577504 
1191	 0.180363032035128 
1192	 0.179656193185822 
1193	 0.179015084942773 
1194	 0.178361314533158 
1195	 0.177677471856564 
1196	 0.177062797581324 
1197	 0.176548644352136 
1198	 0.175925495645526 
1199	 0.175256377283992 
1200	 0.174714293415494 
1201	 0.174097365641663 
1202	 0.173451129336766 
1203	 0.172889011207717 
1204	 0.172256451483415 
1205	 0.171680438769656 
1206	 0.17111715534688 
1207	 0.170545355272941 
1208	 0.169989031311026 
1209	 0.16945320483107 
1210	 0.168899788197061 
1211	 0.168373867576583 
1212	 0.167873955521146 
1213	 0.16741125387535 
1214	 0.166958572877053 
1215	 0.166523383363837 
1216	 0.166162811828698 
1217	 0.165761570024616 
1218	 0.165321940104626 
1219	 0.164935619565143 
1220	 0.164518439635442 
1221	 0.164131408066086 
1222	 0.163768420492995 
1223	 0.163306341711068 
1224	 0.162869284528236 
1225	 0.162394315308152 
1226	 0.161986083449101 
1227	 0.161579275117417 
1228	 0.161217485748852 
1229	 0.160958438389617 
1230	 0.160585958445399 
1231	 0.160144204609608 
1232	 0.159779517159697 
1233	 0.15940655773413 
1234	 0.159035034442968 
1235	 0.158763264161494 
1236	 0.158399592730839 
1237	 0.157953770944184 
1238	 0.157521214279061 
1239	 0.157031638600036 
1240	 0.156578325904881 
1241	 0.156199457416692 
1242	 0.155870455860401 
1243	 0.155537668017967 
1244	 0.155291490079668 
1245	 0.154951954945795 
1246	 0.154565506649647 
1247	 0.154204030500568 
1248	 0.153795501218595 
1249	 0.153467765333236 
1250	 0.15319609228915 
1251	 0.152892232964063 
1252	 0.15262383266815 
1253	 0.152341832358464 
1254	 0.152052645855446 
1255	 0.15172564240096 
1256	 0.151370043642585 
1257	 0.15104217277552 
1258	 0.150668002901427 
1259	 0.150347245038937 
1260	 0.150123705401627 
1261	 0.149832639589619 
1262	 0.149510121898181 
1263	 0.149192483086991 
1264	 0.148885631779921 
1265	 0.148538232541449 
1266	 0.148254582726541 
1267	 0.148018232536854 
1268	 0.147772777440754 
1269	 0.147564223938715 
1270	 0.147305356998524 
1271	 0.147010477735974 
1272	 0.146768110959603 
1273	 0.146512179129745 
1274	 0.146285423177353 
1275	 0.14613086564449 
1276	 0.145932479521863 
1277	 0.145679003984023 
1278	 0.145493644206936 
1279	 0.145343160455922 
1280	 0.145191100436215 
1281	 0.145072201264848 
1282	 0.144959957793036 
1283	 0.144841946310596 
1284	 0.144739036890508 
1285	 0.144651755671272 
1286	 0.144602637682847 
1287	 0.144514029956228 
1288	 0.144398557314615 
1289	 0.144340521815265 
1290	 0.144276759746993 
1291	 0.144268139011673 
1292	 0.144332017006725 
1293	 0.144356784290637 
1294	 0.144430128312073 
1295	 0.144411157678148 
1296	 0.144292310262783 
1297	 0.144283206886241 
1298	 0.144235553381425 
1299	 0.144282061560488 
1300	 0.144480087365631 
1301	 0.144602391710607 
1302	 0.14472131259347 
1303	 0.144842130033437 
1304	 0.144961538304072 
1305	 0.145061710738737 
1306	 0.145150795650151 
1307	 0.145246597009422 
1308	 0.145342909857001 
1309	 0.145403080046432 
1310	 0.14549399018077 
1311	 0.145589947419999 
1312	 0.145720308442881 
1313	 0.145872739172069 
1314	 0.146005780712467 
1315	 0.146183233072862 
1316	 0.146287390111667 
1317	 0.146327043318912 
1318	 0.146414577609223 
1319	 0.146467290987472 
1320	 0.146589049678086 
1321	 0.146790581144891 
1322	 0.146924255133863 
1323	 0.14706386414965 
1324	 0.147184701628216 
1325	 0.147249101063018 
1326	 0.147346139474895 
1327	 0.147474227892766 
1328	 0.147575434366851 
1329	 0.147659023855956 
1330	 0.147750907961483 
1331	 0.147819953295318 
1332	 0.147916559997517 
1333	 0.148036505509173 
1334	 0.148154137602463 
1335	 0.148285111138063 
1336	 0.148435128572572 
1337	 0.148568038219084 
1338	 0.148727268999917 
1339	 0.148802518678933 
1340	 0.148830412082842 
1341	 0.148882998997322 
1342	 0.148876331743143 
1343	 0.148936703159966 
1344	 0.149051601205824 
1345	 0.149132808032351 
1346	 0.149179199532616 
1347	 0.149305397640842 
1348	 0.149491322877127 
1349	 0.149622381738214 
1350	 0.149800520602371 
1351	 0.149924982539291 
1352	 0.149969050731036 
1353	 0.150048638836312 
1354	 0.150154849049717 
1355	 0.150224542050588 
1356	 0.150258726053768 
1357	 0.150319160214393 
1358	 0.150358621403642 
1359	 0.150429119512643 
1360	 0.150559353094236 
1361	 0.150644278736025 
1362	 0.150740211143758 
1363	 0.150822116847704 
1364	 0.150908994383443 
1365	 0.150989932691384 
1366	 0.151055334164249 
1367	 0.151115763944375 
1368	 0.151181377617968 
1369	 0.151239834638471 
1370	 0.151286658532853 
1371	 0.151306176843355 
1372	 0.151396299763725 
1373	 0.151539148502071 
1374	 0.151593975757101 
1375	 0.151666215837961 
1376	 0.151711978677555 
1377	 0.151670275674339 
1378	 0.151661571463132 
1379	 0.151686668799117 
1380	 0.151691583369611 
1381	 0.151670429866812 
1382	 0.151647267243117 
1383	 0.151634242413096 
1384	 0.151612844575249 
1385	 0.151554383375945 
1386	 0.151524314643052 
1387	 0.151546517033112 
1388	 0.151508322715252 
1389	 0.151411881371766 
1390	 0.151367846405901 
1391	 0.151296852976645 
1392	 0.151272075359759 
1393	 0.151280888896468 
1394	 0.151294518042768 
1395	 0.151291938068497 
1396	 0.151288525471466 
1397	 0.151232012206767 
1398	 0.151150400740307 
1399	 0.151079815937579 
1400	 0.150978018054838 
1401	 0.150870819126884 
1402	 0.150799303953416 
1403	 0.150659161276241 
1404	 0.150449116142091 
1405	 0.150266969152996 
1406	 0.150095628374029 
1407	 0.149868868075963 
1408	 0.149592648783686 
1409	 0.149361181161817 
1410	 0.149090747549874 
1411	 0.14886974603575 
1412	 0.148719203567068 
1413	 0.148532911569564 
1414	 0.148333381397295 
1415	 0.148151824500583 
1416	 0.147976641372167 
1417	 0.147798301177261 
1418	 0.147632738909508 
1419	 0.147456050340647 
1420	 0.147287154856525 
1421	 0.147093900401692 
1422	 0.146869010057863 
1423	 0.146662716754154 
1424	 0.146476581654786 
1425	 0.146230605852437 
1426	 0.145989103951305 
1427	 0.145810499976812 
1428	 0.145595323463879 
1429	 0.145406084459428 
1430	 0.14522483116316 
1431	 0.145079513595482 
1432	 0.144888283674422 
1433	 0.144693095002636 
1434	 0.144470259301388 
1435	 0.144211739105401 
1436	 0.143982560910178 
1437	 0.143737748917559 
1438	 0.143525133402625 
1439	 0.143357593201516 
1440	 0.143131899151262 
1441	 0.142899120009534 
1442	 0.142650661206488 
1443	 0.142319836748881 
1444	 0.142096978082663 
1445	 0.141908688798132 
1446	 0.141750666593799 
1447	 0.141672758289959 
1448	 0.141570020853932 
1449	 0.141474779032237 
1450	 0.141377048126879 
1451	 0.141281261956723 
1452	 0.141192487552213 
1453	 0.141065346567464 
1454	 0.141025233664729 
1455	 0.141055364385116 
1456	 0.141057971003309 
1457	 0.141132539582146 
1458	 0.141151372592118 
1459	 0.141105749017707 
1460	 0.141090704391255 
1461	 0.14109292277211 
1462	 0.141061774186693 
1463	 0.14100847770613 
1464	 0.140970899628146 
1465	 0.14090369853121 
1466	 0.140866449110828 
1467	 0.140856069188558 
1468	 0.140824706947016 
1469	 0.140778246339696 
1470	 0.140750485257545 
1471	 0.140728859932979 
1472	 0.140718339651896 
1473	 0.140699441720198 
1474	 0.140695054614977 
1475	 0.140657915475568 
1476	 0.140605157396332 
1477	 0.140545571972777 
1478	 0.140467025470953 
1479	 0.140394900109276 
1480	 0.140308924605394 
1481	 0.14024405500093 
1482	 0.140203727266383 
1483	 0.14011791240727 
1484	 0.140002967305926 
1485	 0.139932577238274 
1486	 0.139857832750216 
1487	 0.139786315560021 
1488	 0.139750828210318 
1489	 0.139705073231565 
1490	 0.139624285411154 
1491	 0.139580043427029 
1492	 0.139590776445477 
1493	 0.139556017298117 
1494	 0.139485144353155 
1495	 0.139460562401397 
1496	 0.139437579089229 
1497	 0.139427948150038 
1498	 0.139467445468529 
1499	 0.139478167426132 
1500	 0.139455283788893 
1501	 0.139472824714911 
1502	 0.139521741997599 
1503	 0.139548558423427 
1504	 0.139593594838385 
1505	 0.139618983390925 
1506	 0.139611484920145 
1507	 0.139617476529354 
1508	 0.13964692177122 
1509	 0.139640931610875 
1510	 0.139596204359637 
1511	 0.139580881346884 
1512	 0.139524631939345 
1513	 0.139532041059618 
1514	 0.139646660995998 
1515	 0.139685905692373 
1516	 0.139695345735892 
1517	 0.139730477128654 
1518	 0.139749340527525 
1519	 0.139748297155128 
1520	 0.139740711882506 
1521	 0.139767131333161 
1522	 0.139828090492645 
1523	 0.139838402481187 
1524	 0.139847101622445 
1525	 0.139899945134637 
1526	 0.139898061093701 
1527	 0.139810369782982 
1528	 0.139824095798386 
1529	 0.1398899087322 
1530	 0.139912068231923 
1531	 0.139944945941121 
1532	 0.139970320268653 
1533	 0.139961546567514 
1534	 0.140012014330313 
1535	 0.140101061741875 
1536	 0.140164197219388 
1537	 0.140241010618051 
1538	 0.140311854885085 
1539	 0.140358267950603 
1540	 0.140446898956346 
1541	 0.140561430649627 
1542	 0.140671292939289 
1543	 0.140801808978476 
1544	 0.140915957279326 
1545	 0.141023154561757 
1546	 0.141137581311937 
1547	 0.141248435639169 
1548	 0.14136981381976 
1549	 0.141488583006881 
1550	 0.141635094646962 
1551	 0.141819571059539 
1552	 0.141955103998651 
1553	 0.142071541634555 
1554	 0.142221015923045 
1555	 0.142349871838731 
1556	 0.142504135270038 
1557	 0.142710173155708 
1558	 0.142887887839319 
1559	 0.143041033207577 
1560	 0.143217666672576 
1561	 0.143409503179507 
1562	 0.143598898547303 
1563	 0.143802749936531 
1564	 0.143986687423246 
1565	 0.1441517558974 
1566	 0.144340668173948 
1567	 0.144521674643729 
1568	 0.144725045633061 
1569	 0.144977809842232 
1570	 0.14518294663071 
1571	 0.145356549301862 
1572	 0.145561358825571 
1573	 0.145763575940042 
1574	 0.14596401029827 
1575	 0.146181748988714 
1576	 0.146401178527886 
1577	 0.146600733997071 
1578	 0.146823533571899 
1579	 0.147096256972206 
1580	 0.147321358931799 
1581	 0.147514476056158 
1582	 0.14772869000791 
1583	 0.147942558320691 
1584	 0.148138620158612 
1585	 0.148312206121909 
1586	 0.148535358997473 
1587	 0.148784696434843 
1588	 0.14899920617754 
1589	 0.149224425764344 
1590	 0.149465908273089 
1591	 0.149687690252821 
1592	 0.149904917306374 
1593	 0.150168888959502 
1594	 0.15039484065941 
1595	 0.150541971852953 
1596	 0.150751939594832 
1597	 0.151000643731212 
1598	 0.151235497190938 
1599	 0.151513223312506 
1600	 0.151742633900638 
1601	 0.151924934266068 
1602	 0.152131744998609 
1603	 0.152317774926518 
1604	 0.152528120077569 
1605	 0.152776333953963 
1606	 0.152996984914447 
1607	 0.153213244570706 
1608	 0.153426183933608 
1609	 0.153607348323374 
1610	 0.153822983423532 
1611	 0.154080722279531 
1612	 0.154292901955638 
1613	 0.15448858065176 
1614	 0.154700859199413 
1615	 0.154882615840396 
1616	 0.155087341824131 
1617	 0.155330643528949 
1618	 0.155557089802007 
1619	 0.155809130728202 
1620	 0.155999890377345 
1621	 0.156138845621251 
1622	 0.156305192804641 
1623	 0.156427903318435 
1624	 0.156578270416888 
1625	 0.15680426116709 
1626	 0.156956616868591 
1627	 0.15704354281124 
1628	 0.157172117196081 
1629	 0.157267189414283 
1630	 0.157403771117865 
1631	 0.157615387987773 
1632	 0.157776273678719 
1633	 0.157936057383875 
1634	 0.158075758267689 
1635	 0.158140068745752 
1636	 0.158284580374176 
1637	 0.158480936722634 
1638	 0.158642193651466 
1639	 0.158870920481304 
1640	 0.15901740162636 
1641	 0.159055390844242 
1642	 0.159164548581587 
1643	 0.159286573210136 
1644	 0.159392002714863 
1645	 0.159533567651887 
1646	 0.159638031834099 
1647	 0.159710247924043 
1648	 0.159767921748716 
1649	 0.159786997009051 
1650	 0.159852747669332 
1651	 0.159945894461269 
1652	 0.159994026066529 
1653	 0.160062300834525 
1654	 0.160099033386016 
1655	 0.160058860227113 
1656	 0.160052959547302 
1657	 0.160067184455532 
1658	 0.160060382186815 
1659	 0.160066582979877 
1660	 0.16003981184785 
1661	 0.159969817850894 
1662	 0.159939130574925 
1663	 0.159933964296053 
1664	 0.159869269379821 
1665	 0.159811907066974 
1666	 0.159701953546569 
1667	 0.159481723915695 
1668	 0.159337788100377 
1669	 0.159268367147915 
1670	 0.159093704121338 
1671	 0.158894731260406 
1672	 0.158655739375209 
1673	 0.158298952330518 
1674	 0.158007488378363 
1675	 0.157786829696823 
1676	 0.157485979334353 
1677	 0.157158288866013 
1678	 0.156799989846167 
1679	 0.156336901633964 
1680	 0.155945033633702 
1681	 0.155611027838811 
1682	 0.155194546553088 
1683	 0.154790982813004 
1684	 0.154331133609297 
1685	 0.153775720941105 
1686	 0.153257784653688 
1687	 0.152706561298238 
1688	 0.152205250849778 
1689	 0.151761632303335 
1690	 0.151223529258751 
1691	 0.150706093064046 
1692	 0.150101021187429 
1693	 0.14937857872913 
1694	 0.148711131184416 
1695	 0.148006134621557 
1696	 0.147356866671508 
1697	 0.146737411420777 
1698	 0.146110739995232 
1699	 0.145524510894479 
1700	 0.144877027387257 
1701	 0.14423808866628 
1702	 0.143513737456717 
1703	 0.142667870405732 
1704	 0.141972034338784 
1705	 0.141261579056581 
1706	 0.140646646868237 
1707	 0.14012840214897 
1708	 0.139604426592466 
1709	 0.13911101469079 
1710	 0.1386704254701 
1711	 0.138262746867927 
1712	 0.137871572080643 
1713	 0.137494899778228 
1714	 0.137138880138375 
1715	 0.136842684919256 
1716	 0.136543034161927 
1717	 0.136186858676542 
1718	 0.135839328383678 
1719	 0.135505264043528 
1720	 0.135157391664006 
1721	 0.134878230284972 
1722	 0.134694854113216 
1723	 0.134509772998659 
1724	 0.134357244003743 
1725	 0.13430917437905 
1726	 0.134217058496914 
1727	 0.13411462892212 
1728	 0.134177473355697 
1729	 0.134255194445594 
1730	 0.134343654851532 
1731	 0.134552257435956 
1732	 0.134776296307399 
1733	 0.135031275680606 
1734	 0.135351560909055 
1735	 0.135655094204965 
1736	 0.135935646581647 
1737	 0.136128700700918 
1738	 0.136329474938849 
1739	 0.136503701766948 
1740	 0.136633497974984 
1741	 0.136749967325083 
1742	 0.136859706265901 
1743	 0.136895135647726 
1744	 0.13689104752466 
1745	 0.136841245778041 
1746	 0.136685410042118 
1747	 0.136602942156359 
1748	 0.136524094816877 
1749	 0.136467447190227 
1750	 0.136441084553019 
1751	 0.136384799820701 
1752	 0.136309586627465 
1753	 0.136284922483068 
1754	 0.136262052284571 
1755	 0.136324784999037 
1756	 0.136435678863755 
1757	 0.136595449938628 
1758	 0.136793754876309 
1759	 0.137012993828987 
1760	 0.137264764114294 
1761	 0.137575340394032 
1762	 0.13791470060388 
1763	 0.138261446791528 
1764	 0.138614598678383 
1765	 0.138966337404921 
1766	 0.139334096882159 
1767	 0.139758734896878 
1768	 0.140261399735769 
1769	 0.140788655592315 
1770	 0.141274332871181 
1771	 0.141753165043498 
1772	 0.142204806992451 
1773	 0.142620709210584 
1774	 0.143078852983865 
1775	 0.143450597140882 
1776	 0.143747424808604 
1777	 0.144109285752842 
1778	 0.144400119850573 
1779	 0.144711428405264 
1780	 0.145100927210104 
1781	 0.145287439161163 
1782	 0.145484116068877 
1783	 0.145794490037183 
1784	 0.146037877120295 
1785	 0.146369563222941 
1786	 0.146626087885647 
1787	 0.146728731284054 
1788	 0.146937649085542 
1789	 0.147239961075688 
1790	 0.147465146340924 
1791	 0.14772223777556 
1792	 0.1479488923725 
1793	 0.148057010141982 
1794	 0.148236738040169 
1795	 0.148427013512847 
1796	 0.148609387641431 
1797	 0.148823008858002 
1798	 0.14901040747371 
1799	 0.149253164417039 
1800	 0.149499520073063 
1801	 0.152142218307417 
1802	 0.152432993620769 
1803	 0.152686861142147 
1804	 0.152941758531807 
1805	 0.153215177121221 
1806	 0.153480169909622 
1807	 0.153708293371854 
1808	 0.153968815396908 
1809	 0.154271265224273 
1810	 0.154546275010914 
1811	 0.154821730496839 
1812	 0.155095719826507 
1813	 0.155338544673605 
1814	 0.155610299509457 
1815	 0.155927557595637 
1816	 0.156267982294742 
1817	 0.156591385464466 
1818	 0.156949701107242 
1819	 0.157275583457697 
1820	 0.157569319644965 
1821	 0.15786199538466 
1822	 0.158149136069234 
1823	 0.158451914684339 
1824	 0.158711169232877 
1825	 0.159063316084535 
1826	 0.159400093616915 
1827	 0.159778352636878 
1828	 0.160108828258164 
1829	 0.160424297911295 
1830	 0.160753176647306 
1831	 0.161080553530227 
1832	 0.16137312869458 
1833	 0.161692865847688 
1834	 0.162081375760131 
1835	 0.162478818758635 
1836	 0.162849523275758 
1837	 0.163244097107592 
1838	 0.163679303074235 
1839	 0.164063744180674 
1840	 0.164424766204949 
1841	 0.164813246501856 
1842	 0.165210204608192 
1843	 0.165586701208934 
1844	 0.165951127474639 
1845	 0.166321745493759 
1846	 0.166735657455644 
1847	 0.167135155162798 
1848	 0.167501819223092 
1849	 0.167900843062267 
1850	 0.168221676296441 
1851	 0.168464863307978 
1852	 0.168715132386907 
1853	 0.16903397141141 
1854	 0.169317123728029 
1855	 0.169633730334243 
1856	 0.169947600715314 
1857	 0.170193912429858 
1858	 0.170465632418049 
1859	 0.170761648457381 
1860	 0.17108001310022 
1861	 0.17140336055423 
1862	 0.171757581045768 
1863	 0.172101065227813 
1864	 0.172405770241025 
1865	 0.172669359381193 
1866	 0.172865529312464 
1867	 0.173041565568748 
1868	 0.173215083375574 
1869	 0.17337133592412 
1870	 0.173493127801476 
1871	 0.173559699012532 
1872	 0.173642978592838 
1873	 0.1737135815475 
1874	 0.173791621287593 
1875	 0.173813400278499 
1876	 0.173864478791516 
1877	 0.173834616153028 
1878	 0.173731457147796 
1879	 0.173674378207267 
1880	 0.17356477469652 
1881	 0.173414549973281 
1882	 0.173233232214947 
1883	 0.17304409186623 
1884	 0.172758062235539 
1885	 0.172440339078537 
1886	 0.172163778873251 
1887	 0.171746830191389 
1888	 0.17120276399415 
1889	 0.17070821540885 
1890	 0.170133962977888 
1891	 0.169482767659499 
1892	 0.168840690804301 
1893	 0.168169099722671 
1894	 0.167451337093414 
1895	 0.16666374586782 
1896	 0.165857640226333 
1897	 0.165082288057896 
1898	 0.164371609095649 
1899	 0.163679970298425 
1900	 0.163048740886911 
1901	 0.162471381155257 
1902	 0.161870754234246 
1903	 0.1613206257655 
1904	 0.160837173833586 
1905	 0.160408646236835 
1906	 0.160059736355002 
1907	 0.159761766538607 
1908	 0.159522833596738 
1909	 0.159325193069699 
1910	 0.159149192829181 
1911	 0.159072612991676 
1912	 0.159005693584891 
1913	 0.158894308843152 
1914	 0.158867782691598 
1915	 0.158847204237728 
1916	 0.158825551976153 
1917	 0.158800639347501 
1918	 0.15885881734947 
1919	 0.158924411545007 
1920	 0.159007699386535 
1921	 0.159104223536982 
1922	 0.159242475474987 
1923	 0.159365053135774 
1924	 0.159450603866617 
1925	 0.159515093639032 
1926	 0.159599724651701 
1927	 0.159647469483212 
1928	 0.159794836802458 
1929	 0.160004838496478 
1930	 0.160185740832423 
1931	 0.160431114310183 
1932	 0.160637588236128 
1933	 0.160811096122155 
1934	 0.161099940199247 
1935	 0.161396069939778 
1936	 0.161660854248045 
1937	 0.161945733106598 
1938	 0.16218563753866 
1939	 0.162524406652722 
1940	 0.162913081469234 
1941	 0.163343395029061 
1942	 0.163743499724751 
1943	 0.164229799495959 
1944	 0.164730265081262 
1945	 0.165202673987017 
1946	 0.165735402763703 
1947	 0.166285827589029 
1948	 0.166839423620633 
1949	 0.167398616719644 
1950	 0.167994998325429 
1951	 0.168668202001092 
1952	 0.169313915211711 
1953	 0.16994138296847 
1954	 0.170610854568535 
1955	 0.171329024026103 
1956	 0.171985756314741 
1957	 0.172687830890373 
1958	 0.173463848369072 
1959	 0.174173979599036 
1960	 0.174915757050175 
1961	 0.17561484498522 
1962	 0.176255588023928 
1963	 0.176935941533024 
1964	 0.17764086864838 
1965	 0.178274638585388 
1966	 0.178901275446229 
1967	 0.179540390855976 
1968	 0.180022082716956 
1969	 0.180564683761437 
1970	 0.181081953460179 
1971	 0.181490518441373 
1972	 0.182054194576106 
1973	 0.182631528172377 
1974	 0.18320870804853 
1975	 0.183890242592045 
1976	 0.184508608387962 
1977	 0.185078496495876 
1978	 0.185643012190426 
1979	 0.186208757007028 
1980	 0.186731928800139 
1981	 0.187262806818216 
1982	 0.187832039600239 
1983	 0.188475356862525 
1984	 0.189171657108065 
1985	 0.189837989589551 
1986	 0.190483401283648 
1987	 0.191089655093501 
1988	 0.191582633159246 
1989	 0.192200269646675 
1990	 0.192828124679308 
1991	 0.193507588030348 
1992	 0.19426855658869 
1993	 0.195066714188879 
1994	 0.195787353210537 
1995	 0.196549480614268 
1996	 0.197289842825337 
1997	 0.197972723605672 
1998	 0.198743429352519 
1999	 0.199565449189884 
2000	 0.200361176656473 
2001	 0.201226217484792 
2002	 0.202011984108918 
2003	 0.202771927375881 
2004	 0.203484320112813 
2005	 0.204138611718451 
2006	 0.204791078026914 
2007	 0.205413885083658 
2008	 0.206006841444357 
2009	 0.2066220500628 
2010	 0.207191013164993 
2011	 0.207718451850442 
2012	 0.20822039140168 
2013	 0.208699044182479 
2014	 0.209114819673946 
2015	 0.209570705014453 
2016	 0.210070499639597 
2017	 0.210478738369916 
2018	 0.210850028140629 
2019	 0.211211702056498 
2020	 0.211526065660995 
2021	 0.211794047656508 
2022	 0.212118226449147 
2023	 0.212401141838407 
2024	 0.212620916984708 
2025	 0.212840946820663 
2026	 0.213063405846047 
2027	 0.213255943269266 
2028	 0.213461782624267 
2029	 0.213731014343046 
2030	 0.21388709538452 
2031	 0.213949760061669 
2032	 0.214081136115725 
2033	 0.214164084316123 
2034	 0.214283527258543 
2035	 0.21448657135963 
2036	 0.214641805966252 
2037	 0.214722802469303 
2038	 0.214821036157275 
2039	 0.214943112552257 
2040	 0.215069701190354 
2041	 0.215172186161892 
2042	 0.215295010718654 
2043	 0.215383046753482 
2044	 0.215423288092296 
2045	 0.21548425355906 
2046	 0.215533196286395 
2047	 0.215622634460015 
2048	 0.215729332449002 
2049	 0.215835472494663 
2050	 0.215976167402023 
2051	 0.216092792249196 
2052	 0.216259534168898 
2053	 0.216366626909864 
2054	 0.216485804146307 
2055	 0.216617343439989 
2056	 0.216748720610806 
2057	 0.216828736687724 
2058	 0.216993045518103 
2059	 0.217235801442346 
2060	 0.21741691551032 
2061	 0.217613627335541 
2062	 0.217794107270798 
2063	 0.217956983382787 
2064	 0.218092979264727 
2065	 0.218222234834745 
2066	 0.218332722749676 
2067	 0.218431039383722 
2068	 0.218463003984555 
2069	 0.21858292074657 
2070	 0.218755627231828 
2071	 0.2189069662115 
2072	 0.219099817870418 
2073	 0.219248482932816 
2074	 0.219348405876427 
2075	 0.219486817569946 
2076	 0.219661353923055 
2077	 0.219782492512715 
2078	 0.21987897688082 
2079	 0.219994043645071 
2080	 0.220054408689654 
2081	 0.220164159187212 
2082	 0.220336011947932 
2083	 0.220505007797043 
2084	 0.220665244365905 
2085	 0.2207530916231 
2086	 0.220833526675783 
2087	 0.220856564004342 
2088	 0.220924333583019 
2089	 0.22098930996244 
2090	 0.221060635303535 
2091	 0.221148430310973 
2092	 0.221222004152951 
2093	 0.221294028989239 
2094	 0.221354849733804 
2095	 0.221391472446128 
2096	 0.221459586470018 
2097	 0.221546626430608 
2098	 0.221616441373617 
2099	 0.221718949912373 
2100	 0.221779676211898 
2101	 0.221820095899462 
2102	 0.221833138915937 
2103	 0.221839184444863 
2104	 0.22183192244679 
2105	 0.221793968423977 
2106	 0.221706103457783 
2107	 0.221662332954601 
2108	 0.221641239986107 
2109	 0.221571199386546 
2110	 0.221495938684768 
2111	 0.221415484623432 
2112	 0.221257337573345 
2113	 0.221160285010538 
2114	 0.221152344948702 
2115	 0.221076279110071 
2116	 0.220960988344144 
2117	 0.220876649415635 
2118	 0.220763862919 
2119	 0.220594523246183 
2120	 0.220472470901874 
2121	 0.22037739813449 
2122	 0.22026052129384 
2123	 0.220118085115298 
2124	 0.220032785975953 
2125	 0.220006315653314 
2126	 0.219899607319688 
2127	 0.219757672288178 
2128	 0.219673698231438 
2129	 0.219563604025333 
2130	 0.219468795772297 
2131	 0.219424023462636 
2132	 0.219399413289152 
2133	 0.219347100705366 
2134	 0.219333180125357 
2135	 0.219436360314263 
2136	 0.219467366966842 
2137	 0.219517311554513 
2138	 0.219561717321212 
2139	 0.219634024413328 
2140	 0.2197145053963 
2141	 0.219808384197488 
2142	 0.219929294403438 
2143	 0.220024959078257 
2144	 0.220108294312566 
2145	 0.220208039854782 
2146	 0.220316916748518 
2147	 0.220421114994562 
2148	 0.220498253960238 
2149	 0.220636189212211 
2150	 0.220780684427345 
2151	 0.22095885558794 
2152	 0.221171255355866 
2153	 0.221473465905344 
2154	 0.221744323424878 
2155	 0.221938020198786 
2156	 0.222123336250716 
2157	 0.222255104269073 
2158	 0.222450835863185 
2159	 0.222665677035433 
2160	 0.222842721091462 
2161	 0.223044069206387 
2162	 0.223217469604652 
2163	 0.223375163679798 
2164	 0.223460440851898 
2165	 0.223486668062083 
2166	 0.22356423744198 
2167	 0.223592721336864 
2168	 0.223633616431854 
2169	 0.223745857193723 
2170	 0.223812314708565 
2171	 0.223817138722548 
2172	 0.223835487919929 
2173	 0.223839290406694 
2174	 0.223880287475379 
2175	 0.22396465609456 
2176	 0.224019067471537 
2177	 0.224065860569126 
2178	 0.224118772805493 
2179	 0.224222235528027 
2180	 0.224326151937424 
2181	 0.224438102362223 
2182	 0.22463789568129 
2183	 0.224738704291515 
2184	 0.22478754700206 
2185	 0.224803536653219 
2186	 0.224759548403879 
2187	 0.22477255111151 
2188	 0.224797436119324 
2189	 0.224756674094257 
2190	 0.224684726526051 
2191	 0.224659412100047 
2192	 0.224588786706182 
2193	 0.224558615125458 
2194	 0.224683675963195 
2195	 0.224660018552555 
2196	 0.22454603689456 
2197	 0.224388264309731 
2198	 0.224281982851151 
2199	 0.224131115979928 
2200	 0.224004856484319 
2201	 0.223930616367923 
2202	 0.223843221641683 
2203	 0.223741313469793 
2204	 0.223607433794971 
2205	 0.223489092421428 
2206	 0.223346453404165 
2207	 0.223138503775642 
2208	 0.222953555134383 
2209	 0.222773808651687 
2210	 0.222629779051211 
2211	 0.222502082993424 
2212	 0.222344314740829 
2213	 0.222238405402412 
2214	 0.222082563744262 
2215	 0.221835166173583 
2216	 0.221631091842357 
2217	 0.221460638428149 
2218	 0.221254646849662 
2219	 0.220979658928853 
2220	 0.220809561326029 
2221	 0.22071956040344 
2222	 0.220568347900552 
2223	 0.220481224950927 
2224	 0.220398040515486 
2225	 0.220147469044788 
2226	 0.219878690630218 
2227	 0.219605138613947 
2228	 0.219293519646498 
2229	 0.218939927185981 
2230	 0.218605106974893 
2231	 0.218135752517473 
2232	 0.217582968382834 
2233	 0.216995845560679 
2234	 0.216341331324254 
2235	 0.215608697355285 
2236	 0.214869790940246 
2237	 0.213941850716088 
2238	 0.212804679289048 
2239	 0.211728790900949 
2240	 0.210568774822964 
2241	 0.209366278304181 
2242	 0.20822783011424 
2243	 0.206925340931337 
2244	 0.205474060032354 
2245	 0.203991022429526 
2246	 0.20238122233259 
2247	 0.200770624299911 
2248	 0.199177595850092 
2249	 0.197441604350957 
2250	 0.195561358603776 
2251	 0.193755081555119 
2252	 0.191764922633833 
2253	 0.189798761282368 
2254	 0.18785655395477 
2255	 0.185924231928169 
2256	 0.184282926460592 
2257	 0.182612805633226 
2258	 0.180872727096256 
2259	 0.179249953521073 
2260	 0.177463197691553 
2261	 0.175422471059431 
2262	 0.173683986600325 
2263	 0.172022864384336 
2264	 0.170480773560286 
2265	 0.169125362132387 
2266	 0.167664011511148 
2267	 0.166276889433947 
2268	 0.164815447247865 
2269	 0.163268950368966 
2270	 0.161818125655599 
2271	 0.160336088849246 
2272	 0.158993341465854 
2273	 0.157802229980752 
2274	 0.156548491487179 
2275	 0.155456430057497 
2276	 0.154138315204999 
2277	 0.152628062859912 
2278	 0.151204873675028 
2279	 0.149705486732656 
2280	 0.148229866186698 
2281	 0.146779732905153 
2282	 0.145342080824889 
2283	 0.143914510893611 
2284	 0.142460730831216 
2285	 0.140964835313289 
2286	 0.139479302500195 
2287	 0.137764793677926 
2288	 0.135981057319709 
2289	 0.134321594392099 
2290	 0.1326680461168 
2291	 0.131038584487702 
2292	 0.129422452027524 
2293	 0.127792136476638 
2294	 0.126303463945075 
2295	 0.125014016424871 
2296	 0.123719922168281 
2297	 0.12247374129693 
2298	 0.121203320684018 
2299	 0.120269971085144 
2300	 0.119403935510704 
2301	 0.118909952130813 
2302	 0.118833438671139 
2303	 0.118751979676787 
2304	 0.118840850982134 
2305	 0.119093320979881 
2306	 0.119440256333053 
2307	 0.120097252566293 
2308	 0.121009839804401 
2309	 0.122107809144499 
2310	 0.123569224874787 
2311	 0.12495935676892 
2312	 0.126556655546926 
2313	 0.128023736936823 
2314	 0.129449583254237 
2315	 0.130926200051146 
2316	 0.132507704757473 
2317	 0.133888468831687 
2318	 0.135275027183022 
2319	 0.136432614477851 
2320	 0.137325727283451 
2321	 0.138191097330516 
2322	 0.13903235786435 
2323	 0.139646855607563 
2324	 0.140105884444848 
2325	 0.140405985275261 
2326	 0.140437935753421 
2327	 0.140463887764794 
2328	 0.140392604256363 
2329	 0.140261356670634 
2330	 0.140103731043767 
2331	 0.139695659117187 
2332	 0.139355151785913 
2333	 0.138842311183883 
2334	 0.13805288140943 
2335	 0.137220502177705 
2336	 0.136123588942425 
2337	 0.13484395218351 
2338	 0.133791605029942 
2339	 0.132637007496777 
2340	 0.131521881696456 
2341	 0.130648240618377 
2342	 0.129629885230453 
2343	 0.128855504309313 
2344	 0.128176541906868 
2345	 0.127612715505504 
2346	 0.127590226648816 
2347	 0.127674052322638 
2348	 0.12786535789111 
2349	 0.128368250373839 
2350	 0.129020141025714 
2351	 0.129879525270809 
2352	 0.130958354640742 
2353	 0.132237610894629 
2354	 0.133312503498216 
2355	 0.134255163975586 
2356	 0.135258385370546 
2357	 0.135891793756542 
2358	 0.136547856604364 
2359	 0.137280167583703 
2360	 0.137809749519486 
2361	 0.138314388101945 
2362	 0.138691864206698 
2363	 0.138858024853447 
2364	 0.138866842655369 
2365	 0.138809689824425 
2366	 0.138686218522447 
2367	 0.138513243659615 
2368	 0.138437489264845 
2369	 0.138455554630215 
2370	 0.138155081181926 
2371	 0.137840795789491 
2372	 0.137797583678973 
2373	 0.137653407454987 
2374	 0.137815710473108 
2375	 0.138009705279356 
2376	 0.138020365871463 
2377	 0.137945123081125 
2378	 0.137798426815378 
2379	 0.137913392768257 
2380	 0.138092865343775 
2381	 0.138372383244757 
2382	 0.138572188304641 
2383	 0.138919635648013 
2384	 0.139076932764777 
2385	 0.138953276218241 
2386	 0.139043384852758 
2387	 0.139243105458326 
2388	 0.139321089625596 
2389	 0.139431800351341 
2390	 0.139416576144677 
2391	 0.139199798670788 
2392	 0.139303139349341 
2393	 0.1396025141604 
2394	 0.139766711009984 
2395	 0.139988400683173 
2396	 0.140010402274195 
2397	 0.1397467518282 
2398	 0.139726770000763 
2399	 0.139848152362799 
2400	 0.140106362942391 
2401	 0.140636793820288 
2402	 0.140866799836993 
2403	 0.140797907561086 
2404	 0.140760214833956 
2405	 0.140538964790881 
2406	 0.140415025957206 
2407	 0.140312186839247 
2408	 0.140423530679039 
2409	 0.14048819635361 
2410	 0.140324247200866 
2411	 0.140562246566983 
2412	 0.140892422518692 
2413	 0.141209892087484 
2414	 0.14163194903646 
2415	 0.141935813106623 
2416	 0.141813553670699 
2417	 0.141236976807336 
2418	 0.140635432713945 
2419	 0.140348189340197 
2420	 0.140597473663135 
2421	 0.141069609241317 
2422	 0.141456774740078 
2423	 0.141661840559589 
2424	 0.14124784580249 
2425	 0.140966588250242 
2426	 0.141327400781563 
2427	 0.141647270318456 
2428	 0.141952241845315 
2429	 0.142004069841612 
2430	 0.141533179686971 
2431	 0.141114668937034 
2432	 0.141106420764729 
2433	 0.141239567641869 
2434	 0.141231884315951 
2435	 0.141128049402652 
2436	 0.140664060733611 
2437	 0.139956847018687 
2438	 0.139596519627215 
2439	 0.139327476633241 
2440	 0.139138480748104 
2441	 0.139288684294363 
2442	 0.139491736099686 
2443	 0.139717306658298 
2444	 0.139706600410905 
2445	 0.139334850367677 
2446	 0.138796775342817 
2447	 0.137952750403836 
2448	 0.137767657933634 
2449	 0.137950232735398 
2450	 0.137267224333937 
2451	 0.136849294367121 
2452	 0.136659329112019 
2453	 0.136297675876373 
2454	 0.136823298111157 
2455	 0.137255671348705 
2456	 0.136888958183836 
2457	 0.136566230875802 
2458	 0.136321070999177 
2459	 0.13613412125327 
2460	 0.135998308951962 
2461	 0.135855730778656 
2462	 0.135392227026466 
2463	 0.134972325218357 
2464	 0.135118902471483 
2465	 0.135024882676868 
2466	 0.134947964436702 
2467	 0.135103017163151 
2468	 0.134619571409682 
2469	 0.134099644018654 
2470	 0.133836736848357 
2471	 0.133551912347002 
2472	 0.133796466140864 
2473	 0.134355267116124 
2474	 0.134453220206478 
2475	 0.133840979254268 
2476	 0.133067181539541 
2477	 0.132625076715339 
2478	 0.133014841561091 
2479	 0.134284412285985 
2480	 0.135079292778032 
2481	 0.135289945954105 
2482	 0.134751737211378 
2483	 0.134340569981818 
2484	 0.134308157392802 
2485	 0.134394094325978 
2486	 0.133638104104111 
2487	 0.133425484462473 
2488	 0.134421283914894 
2489	 0.134932220382681 
2490	 0.134865391697621 
2491	 0.134818865459897 
2492	 0.134539428068436 
2493	 0.134721260391455 
2494	 0.135794608921668 
2495	 0.136566294467947 
2496	 0.136796207993162 
2497	 0.137477295890684 
2498	 0.13834309826228 
2499	 0.13872167477086 
2500	 0.138615717929791 
