Wavelength	Tablay400057.asd
350	 0.18746695597847 
351	 0.160229408274472 
352	 0.125254731798892 
353	 0.148939574793443 
354	 0.104251730872415 
355	 0.155399830938354 
356	 0.176633035297193 
357	 7.97134516508811E-02 
358	 0.100764852417666 
359	 0.125464771168019 
360	 0.142103627357004 
361	 0.175445345748441 
362	 0.125036339741466 
363	 8.24489117969303E-02 
364	 8.39747370402257E-02 
365	 5.45594499775337E-02 
366	 4.96581474306944E-02 
367	 6.04493358868194E-02 
368	 6.61786692925527E-02 
369	 7.09127424220219E-02 
370	 6.30595132122588E-02 
371	 5.77919515779172E-02 
372	 8.16894054310335E-02 
373	 0.118681281820387 
374	 0.109798349465965 
375	 5.84647788996776E-02 
376	 0.052443906143889 
377	 8.17036741814317E-02 
378	 0.113943278562917 
379	 0.114868072771311 
380	 7.55667291061459E-02 
381	 6.29123800773945E-02 
382	 7.85779143863511E-02 
383	 7.84648356513537E-02 
384	 0.052745150335691 
385	 4.09020770576562E-02 
386	 6.04117489883999E-02 
387	 8.54641767098127E-02 
388	 8.42716231137614E-02 
389	 7.75044782534219E-02 
390	 8.79690491813265E-02 
391	 9.78578731209756E-02 
392	 9.47574377640019E-02 
393	 8.14671696931237E-02 
394	 7.00185649254367E-02 
395	 6.30015949971772E-02 
396	 7.53472615374107E-02 
397	 9.62536510147531E-02 
398	 7.06770710945669E-02 
399	 7.61996317410977E-02 
400	 8.85560859017364E-02 
401	 7.16159169568354E-02 
402	 6.21257653711993E-02 
403	 6.22782277625445E-02 
404	 6.85101374591075E-02 
405	 7.39032626748395E-02 
406	 8.14613909265389E-02 
407	 7.65744938149706E-02 
408	 0.059848894134869 
409	 6.58305763124619E-02 
410	 6.67971975458533E-02 
411	 6.57203711417663E-02 
412	 7.07175729230595E-02 
413	 6.80341944220949E-02 
414	 5.75696865348873E-02 
415	 4.96375677429352E-02 
416	 6.07246920565111E-02 
417	 5.95344713585503E-02 
418	 5.47972365977019E-02 
419	 0.055788090497805 
420	 5.87343120212243E-02 
421	 5.36655290798138E-02 
422	 0.049997045211538 
423	 5.96601271414641E-02 
424	 5.75914543093899E-02 
425	 0.056423376963783 
426	 5.82586643743135E-02 
427	 5.09413936401172E-02 
428	 0.053238809440647 
429	 5.48768540901426E-02 
430	 0.048573812181537 
431	 5.50933601317157E-02 
432	 5.63414628928412E-02 
433	 5.21307561655683E-02 
434	 5.13236451091341E-02 
435	 4.95910915748993E-02 
436	 5.11876335376496E-02 
437	 5.55935418175682E-02 
438	 5.42667755356196E-02 
439	 5.02574991161596E-02 
440	 4.79079355390449E-02 
441	 5.02644053748225E-02 
442	 5.45325242816112E-02 
443	 5.36511148299488E-02 
444	 4.88419780392139E-02 
445	 4.74240720968129E-02 
446	 4.68595386995868E-02 
447	 0.047924952577659 
448	 5.01073437742136E-02 
449	 4.92518737834542E-02 
450	 4.84564364046934E-02 
451	 4.90061381581835E-02 
452	 5.08445234719609E-02 
453	 5.02642553019687E-02 
454	 5.00675023897488E-02 
455	 5.05047298399885E-02 
456	 4.87523639243739E-02 
457	 4.77261661880875E-02 
458	 4.82156740399665E-02 
459	 4.96830352637936E-02 
460	 4.93081920902241E-02 
461	 4.88964442993176E-02 
462	 4.90403691099958E-02 
463	 4.94481627235664E-02 
464	 4.80914014325757E-02 
465	 4.79565750982321E-02 
466	 4.93932825498393E-02 
467	 4.80315061635491E-02 
468	 4.86021733209785E-02 
469	 4.91998828577958E-02 
470	 4.74285834052454E-02 
471	 4.64071581062363E-02 
472	 4.68808437188104E-02 
473	 0.047826610253093 
474	 4.72402406674639E-02 
475	 4.91735123191678E-02 
476	 0.049277578678249 
477	 4.60210796063246E-02 
478	 4.65573835835901E-02 
479	 4.65553548691213E-02 
480	 0.046264432929848 
481	 4.71281223538862E-02 
482	 4.74616856023333E-02 
483	 4.74865034372157E-02 
484	 4.73771463528142E-02 
485	 4.71037396546544E-02 
486	 4.62024588438082E-02 
487	 4.59505188144792E-02 
488	 0.046978231535609 
489	 4.70815033808694E-02 
490	 4.59582442130533E-02 
491	 4.49295819486431E-02 
492	 4.58540174868591E-02 
493	 4.62089517448511E-02 
494	 4.65166746431981E-02 
495	 4.68153569327762E-02 
496	 4.57003862025681E-02 
497	 4.54820328997369E-02 
498	 4.57128755125961E-02 
499	 4.54982917253251E-02 
500	 4.61148101772025E-02 
501	 4.60102832721283E-02 
502	 4.52555566222801E-02 
503	 4.53187183107698E-02 
504	 4.59141443403914E-02 
505	 4.56368686537993E-02 
506	 4.43139675099307E-02 
507	 4.51866718884326E-02 
508	 4.53694053847682E-02 
509	 4.51013840139391E-02 
510	 0.045691078500388 
511	 4.59979408546782E-02 
512	 4.55896813674937E-02 
513	 4.48466934154463E-02 
514	 4.50587312557427E-02 
515	 4.48353923384573E-02 
516	 4.44837684050167E-02 
517	 4.44912625145698E-02 
518	 4.44178034138763E-02 
519	 4.46929492717269E-02 
520	 4.49826436836775E-02 
521	 4.45531713703981E-02 
522	 4.43582276036879E-02 
523	 4.46166563998102E-02 
524	 4.51437846685532E-02 
525	 4.52019090707708E-02 
526	 4.53911700147406E-02 
527	 4.53459107827844E-02 
528	 4.47176159607762E-02 
529	 0.045117729329333 
530	 4.52224435121675E-02 
531	 0.044747061662411 
532	 4.46575985026378E-02 
533	 0.045653607534621 
534	 4.61589083173355E-02 
535	 4.52700082543445E-02 
536	 4.53524452055526E-02 
537	 4.55863497998946E-02 
538	 4.57107747500863E-02 
539	 4.57790295654076E-02 
540	 4.58755403716391E-02 
541	 4.59381622525995E-02 
542	 4.59683971109673E-02 
543	 0.046102718895564 
544	 4.60842436160285E-02 
545	 4.61276807266596E-02 
546	 4.64564448713888E-02 
547	 4.66915774656791E-02 
548	 4.68778578552989E-02 
549	 4.70644577241649E-02 
550	 4.72948259519096E-02 
551	 4.77144445319326E-02 
552	 4.81584678252785E-02 
553	 4.84427337379605E-02 
554	 4.84005204208886E-02 
555	 4.88436355014279E-02 
556	 0.04955220528452 
557	 4.99132068723374E-02 
558	 5.04963220569598E-02 
559	 5.10506182086203E-02 
560	 5.15421029786766E-02 
561	 5.23451845003513E-02 
562	 5.26300967341063E-02 
563	 5.30427558847352E-02 
564	 5.41265627284581E-02 
565	 5.44424846374941E-02 
566	 5.50987577911787E-02 
567	 5.60704073173372E-02 
568	 5.65710333265373E-02 
569	 5.77404828565768E-02 
570	 5.89799940997764E-02 
571	 5.98854669976624E-02 
572	 6.09661495506727E-02 
573	 6.22861549643496E-02 
574	 6.36949352377436E-02 
575	 6.49823729168334E-02 
576	 6.62654116102998E-02 
577	 6.74803496812067E-02 
578	 6.86618958149117E-02 
579	 6.99635209080032E-02 
580	 7.14428978569675E-02 
581	 7.29143960608115E-02 
582	 7.42734833572436E-02 
583	 0.075838982772883 
584	 7.73297462115639E-02 
585	 7.87860284174982E-02 
586	 8.04186097090624E-02 
587	 8.21054579300805E-02 
588	 8.38319720101588E-02 
589	 8.56124814469882E-02 
590	 8.74970161068731E-02 
591	 0.0892289692693 
592	 9.11158213317699E-02 
593	 9.33484972422375E-02 
594	 9.47745192845974E-02 
595	 9.65472467878944E-02 
596	 9.86677566538109E-02 
597	 0.100134689101118 
598	 0.101561140632684 
599	 0.103065752554308 
600	 0.104657251494243 
601	 0.10627935834342 
602	 0.107852436280625 
603	 0.109348607838247 
604	 0.110771047819436 
605	 0.11212369887875 
606	 0.113625976415711 
607	 0.115246268141568 
608	 0.116627453251632 
609	 0.117831056256093 
610	 0.118890386658746 
611	 0.119906519125486 
612	 0.121192506907465 
613	 0.122393082212053 
614	 0.123347942908793 
615	 0.124081530999825 
616	 0.124992300127633 
617	 0.126002591117676 
618	 0.12698411239446 
619	 0.127844489375258 
620	 0.128675302820998 
621	 0.129398606352038 
622	 0.12999235218797 
623	 0.130974179151251 
624	 0.131773562053387 
625	 0.132277809463571 
626	 0.132842422285855 
627	 0.133569093892979 
628	 0.134246540430346 
629	 0.134771822376927 
630	 0.1354913652824 
631	 0.136088916588574 
632	 0.136556046118981 
633	 0.137026802323631 
634	 0.137600021674018 
635	 0.138148674787474 
636	 0.138638513742548 
637	 0.139172129727116 
638	 0.139760118166817 
639	 0.140425633669036 
640	 0.141104593138899 
641	 0.141430483576754 
642	 0.141938422579775 
643	 0.142607383177725 
644	 0.143092250961506 
645	 0.143522278003491 
646	 0.144045506641853 
647	 0.144610609023899 
648	 0.144811565289016 
649	 0.145537365883892 
650	 0.146382145985314 
651	 0.146790543480784 
652	 0.147397793232147 
653	 0.147905897152395 
654	 0.148328009409012 
655	 0.148934179960487 
656	 0.149678240104921 
657	 0.150431902160335 
658	 0.151088497497761 
659	 0.151593642942577 
660	 0.152269554330538 
661	 0.153036142608322 
662	 0.153711304936581 
663	 0.154497302712926 
664	 0.15519513046684 
665	 0.155849784425031 
666	 0.156747680586354 
667	 0.157504537053839 
668	 0.158199978901158 
669	 0.158963120874452 
670	 0.159802294511897 
671	 0.16068452481295 
672	 0.161528019024254 
673	 0.162261860459579 
674	 0.162989480865036 
675	 0.163868557869526 
676	 0.16488725011186 
677	 0.165832181953356 
678	 0.166663215621995 
679	 0.167465585763063 
680	 0.168340219931658 
681	 0.169325747631929 
682	 0.170310194785347 
683	 0.171333816818931 
684	 0.172481597416963 
685	 0.173451641511094 
686	 0.174477587636065 
687	 0.175577339737128 
688	 0.176393469154078 
689	 0.177356627597809 
690	 0.178444491212224 
691	 0.179535664681563 
692	 0.180605977269925 
693	 0.181772710541736 
694	 0.182965030671651 
695	 0.184025684492441 
696	 0.185202889258725 
697	 0.186387947370281 
698	 0.187516376281565 
699	 0.188666124501899 
700	 0.189732760963157 
701	 0.190842895913418 
702	 0.192107637034522 
703	 0.19333252915729 
704	 0.194504185087962 
705	 0.195672051212434 
706	 0.196911662842547 
707	 0.198097389990112 
708	 0.199219378845292 
709	 0.200313405086159 
710	 0.201458702343366 
711	 0.202522763367735 
712	 0.20365029017287 
713	 0.204945553712905 
714	 0.206028061873531 
715	 0.207075904310508 
716	 0.208140537122795 
717	 0.209174508091845 
718	 0.210186122940084 
719	 0.211219001844452 
720	 0.212263190881445 
721	 0.213203454714275 
722	 0.214159470163239 
723	 0.215083029472163 
724	 0.215918998484049 
725	 0.216788486312914 
726	 0.217637351758844 
727	 0.218463624051242 
728	 0.219288716332034 
729	 0.219946014453262 
730	 0.220492294577329 
731	 0.221027835770544 
732	 0.221669668173093 
733	 0.222285317294771 
734	 0.222837211528642 
735	 0.223312913200467 
736	 0.223677487188486 
737	 0.223981759711057 
738	 0.224315351647241 
739	 0.224742857107588 
740	 0.224911648540144 
741	 0.224961947425617 
742	 0.225050346974084 
743	 0.225262488984441 
744	 0.225325991709008 
745	 0.225284991159341 
746	 0.225214119400492 
747	 0.224958189917149 
748	 0.224722295075693 
749	 0.224585480950148 
750	 0.224515336283523 
751	 0.224293495274835 
752	 0.224005603561022 
753	 0.223715378670891 
754	 0.223413819623692 
755	 0.223080934023872 
756	 0.222693620456196 
757	 0.222246343756004 
758	 0.221783454335671 
759	 0.221280215178698 
760	 0.220735672289225 
761	 0.220160550556642 
762	 0.219553518165082 
763	 0.218966706282766 
764	 0.21837157141738 
765	 0.217658328272488 
766	 0.216947635155696 
767	 0.216242303556615 
768	 0.21552976340358 
769	 0.214816482066229 
770	 0.2141278867934 
771	 0.213387020107523 
772	 0.212537991196617 
773	 0.211807113148163 
774	 0.211031859275726 
775	 0.210190244876255 
776	 0.209384676658952 
777	 0.208603140320296 
778	 0.207820137988875 
779	 0.207026110817455 
780	 0.206246410011764 
781	 0.20542385760333 
782	 0.204607922354055 
783	 0.203846598953477 
784	 0.203085259868204 
785	 0.202214625769532 
786	 0.201321096657044 
787	 0.200559000650297 
788	 0.199660470366973 
789	 0.198839721831353 
790	 0.198120864561171 
791	 0.197263773161578 
792	 0.196484516684686 
793	 0.195707448629714 
794	 0.194890352322291 
795	 0.194234431309863 
796	 0.193476539028048 
797	 0.192685207686174 
798	 0.191999803309561 
799	 0.191251648312753 
800	 0.190504272870706 
801	 0.189768764916521 
802	 0.189024887494897 
803	 0.188448857479232 
804	 0.187836063190158 
805	 0.187092103502962 
806	 0.186359490392288 
807	 0.185681441006831 
808	 0.185051624749045 
809	 0.184439142816991 
810	 0.183798768395408 
811	 0.183142607495014 
812	 0.182551592863707 
813	 0.182082150071746 
814	 0.181491084661953 
815	 0.180841483616736 
816	 0.180250119213399 
817	 0.179829383775122 
818	 0.179268465813968 
819	 0.178668764738507 
820	 0.178139457035456 
821	 0.17769174534587 
822	 0.177259682929366 
823	 0.17684750254232 
824	 0.176451587975928 
825	 0.17599093893139 
826	 0.175427084338757 
827	 0.174920155226112 
828	 0.174642929590011 
829	 0.174285491836535 
830	 0.173978607400222 
831	 0.173673524380349 
832	 0.173179156425463 
833	 0.172752697547672 
834	 0.172422929772122 
835	 0.172140343117913 
836	 0.17179472357969 
837	 0.171611917505703 
838	 0.171381408151612 
839	 0.170978266417501 
840	 0.170823534468669 
841	 0.170676628730054 
842	 0.170466665781918 
843	 0.170212208595414 
844	 0.170011564008417 
845	 0.169860421517173 
846	 0.169684547470263 
847	 0.16940056494593 
848	 0.169265352354018 
849	 0.169165515855781 
850	 0.169040997533384 
851	 0.168953209365236 
852	 0.16888723208355 
853	 0.168765592826611 
854	 0.16858221355719 
855	 0.168498129287755 
856	 0.168527386399785 
857	 0.168562825594953 
858	 0.168497487079082 
859	 0.168366711905086 
860	 0.168401129446148 
861	 0.168532810549429 
862	 0.16856166548478 
863	 0.168548642250928 
864	 0.168550858599473 
865	 0.168584932842949 
866	 0.168635995341373 
867	 0.168776064402851 
868	 0.168914036649643 
869	 0.168976202775369 
870	 0.168955644481206 
871	 0.169239021762215 
872	 0.16952585562563 
873	 0.169602646621723 
874	 0.169797983191987 
875	 0.169883650746937 
876	 0.170011426667691 
877	 0.170308901069767 
878	 0.170397103979399 
879	 0.17056145189438 
880	 0.170801072325353 
881	 0.170996763474844 
882	 0.171218013478053 
883	 0.171499825130532 
884	 0.171822935047554 
885	 0.172136512795328 
886	 0.172485771724748 
887	 0.172868556717764 
888	 0.173223263690739 
889	 0.173450199351583 
890	 0.173863098610675 
891	 0.174176353745993 
892	 0.174353758189326 
893	 0.174949997534205 
894	 0.175184132189834 
895	 0.175384788779277 
896	 0.175948904257697 
897	 0.176733354554931 
898	 0.177234068513388 
899	 0.177611808335114 
900	 0.178151214784851 
901	 0.178600825930887 
902	 0.179016680610672 
903	 0.179447221033495 
904	 0.179956200547192 
905	 0.1807210202051 
906	 0.181331781602037 
907	 0.181814728214816 
908	 0.182481186634495 
909	 0.183064835743845 
910	 0.183628203162108 
911	 0.184247177669844 
912	 0.184962645739813 
913	 0.185663043300536 
914	 0.186264057382789 
915	 0.18680812417914 
916	 0.187491713820113 
917	 0.188343244042568 
918	 0.189118871007015 
919	 0.189760092315892 
920	 0.190641803786822 
921	 0.191405721973097 
922	 0.192146156865967 
923	 0.193005078981021 
924	 0.193962363981199 
925	 0.19465430099096 
926	 0.195346333770458 
927	 0.196311301730059 
928	 0.197091478063902 
929	 0.197937566235006 
930	 0.198929580288359 
931	 0.199990049028794 
932	 0.200703363958258 
933	 0.201788084720348 
934	 0.202950066124244 
935	 0.203605152840392 
936	 0.204901709256389 
937	 0.205880793941431 
938	 0.206646547142863 
939	 0.207945403526055 
940	 0.209036719694699 
941	 0.210222121857792 
942	 0.2114229063685 
943	 0.212278661197242 
944	 0.213516886603229 
945	 0.214772084885482 
946	 0.215874952075732 
947	 0.216997528588226 
948	 0.218148349791091 
949	 0.219354953526822 
950	 0.220601195734099 
951	 0.221827855347214 
952	 0.223228489837784 
953	 0.224456870921351 
954	 0.225505046952218 
955	 0.226949480738974 
956	 0.228398590880994 
957	 0.22982689282324 
958	 0.231193572412338 
959	 0.23232677818278 
960	 0.233839797142454 
961	 0.235407870994964 
962	 0.236723313672131 
963	 0.237974855363836 
964	 0.239524389230342 
965	 0.241182988718558 
966	 0.242643450086824 
967	 0.243700054167885 
968	 0.245323021327155 
969	 0.247148313052798 
970	 0.248646237176034 
971	 0.249910585519658 
972	 0.251423301811037 
973	 0.253059471947846 
974	 0.254584559120424 
975	 0.256051323087641 
976	 0.25748540022772 
977	 0.258918754905304 
978	 0.26040178327411 
979	 0.26202212067151 
980	 0.263846037295391 
981	 0.265533245131817 
982	 0.266876243905136 
983	 0.268558218274394 
984	 0.269835148999701 
985	 0.271347964858856 
986	 0.273629878333754 
987	 0.275279918174532 
988	 0.276955375013802 
989	 0.278548220969411 
990	 0.279892927368101 
991	 0.281549392191616 
992	 0.282927473175877 
993	 0.284444917557491 
994	 0.286435322508991 
995	 0.287713804036382 
996	 0.289007498301938 
997	 0.290397858939072 
998	 0.29191129711027 
999	 0.294250659018466 
1000	 0.295958556402981 
1001	 0.297956852891661 
1002	 0.299580729927343 
1003	 0.30098125321351 
1004	 0.302521343710861 
1005	 0.30401093799799 
1006	 0.305582535107974 
1007	 0.307273724481082 
1008	 0.30883900749259 
1009	 0.310339918540999 
1010	 0.311824207012612 
1011	 0.313302005825552 
1012	 0.314723827533455 
1013	 0.316032269540251 
1014	 0.317460680663046 
1015	 0.318923080266814 
1016	 0.32035872185668 
1017	 0.321931705116121 
1018	 0.323377968412314 
1019	 0.324556708120158 
1020	 0.325833191501595 
1021	 0.327131829562842 
1022	 0.328401042581266 
1023	 0.329605598381564 
1024	 0.330847782909932 
1025	 0.33210638796776 
1026	 0.333321989339815 
1027	 0.334453274911388 
1028	 0.335639376744418 
1029	 0.336708014080554 
1030	 0.337604639603375 
1031	 0.338739966056641 
1032	 0.340055131816742 
1033	 0.341323569060376 
1034	 0.342485752242057 
1035	 0.343498343559552 
1036	 0.344566581142255 
1037	 0.345509056928745 
1038	 0.346596740145438 
1039	 0.347836109064819 
1040	 0.348944862802589 
1041	 0.350059157457319 
1042	 0.351067195467327 
1043	 0.351957885320554 
1044	 0.352871805490352 
1045	 0.353778539569938 
1046	 0.354883621094085 
1047	 0.356070743032156 
1048	 0.357286127757889 
1049	 0.358430987679107 
1050	 0.359410286708548 
1051	 0.360560272189536 
1052	 0.361717315613096 
1053	 0.362710100523601 
1054	 0.363727255826582 
1055	 0.364679627956184 
1056	 0.365337545447604 
1057	 0.366157587996117 
1058	 0.367060464928103 
1059	 0.36800095978582 
1060	 0.368915110973098 
1061	 0.369989543238335 
1062	 0.371045290595537 
1063	 0.372003877452214 
1064	 0.372870644263713 
1065	 0.373693207716013 
1066	 0.374568243499255 
1067	 0.375516592395342 
1068	 0.376518407304694 
1069	 0.377291176968492 
1070	 0.378085162660975 
1071	 0.378793192589921 
1072	 0.379603601032269 
1073	 0.380299834904456 
1074	 0.381091797254802 
1075	 0.381882129076067 
1076	 0.382572502030599 
1077	 0.383394580211613 
1078	 0.384283263817815 
1079	 0.38525433136142 
1080	 0.386045626705499 
1081	 0.386642305176321 
1082	 0.387400451488861 
1083	 0.387997802701341 
1084	 0.388565912740325 
1085	 0.389442216429148 
1086	 0.390184806995431 
1087	 0.390853056262186 
1088	 0.391475811009398 
1089	 0.39223968838202 
1090	 0.392894541378167 
1091	 0.393547654984067 
1092	 0.394321626642318 
1093	 0.395023908896028 
1094	 0.395659793304496 
1095	 0.396269066754347 
1096	 0.396918462725881 
1097	 0.397667569938449 
1098	 0.398414538675539 
1099	 0.399133219578242 
1100	 0.399736320656827 
1101	 0.400383008531338 
1102	 0.401069546852804 
1103	 0.401731986898019 
1104	 0.402358486634049 
1105	 0.403210081767927 
1106	 0.404014267255431 
1107	 0.404592090545998 
1108	 0.405263343407478 
1109	 0.405823018487986 
1110	 0.406325874479996 
1111	 0.407098473218662 
1112	 0.407829093299427 
1113	 0.408592198711421 
1114	 0.409319674999042 
1115	 0.40981844257203 
1116	 0.410498816817922 
1117	 0.411166659146764 
1118	 0.411869292078014 
1119	 0.412761846101784 
1120	 0.413500919279721 
1121	 0.414143078149439 
1122	 0.414791893702645 
1123	 0.415569171044666 
1124	 0.416169115272201 
1125	 0.416793995425591 
1126	 0.417515507985074 
1127	 0.418143200245296 
1128	 0.418792229083718 
1129	 0.419465892573845 
1130	 0.420079627272353 
1131	 0.420669570302704 
1132	 0.421262621634481 
1133	 0.421978501786546 
1134	 0.422764916196993 
1135	 0.42340673579637 
1136	 0.423954484866001 
1137	 0.424538972117903 
1138	 0.425080796423464 
1139	 0.425594023560104 
1140	 0.426070400417521 
1141	 0.426675902860146 
1142	 0.427258866212645 
1143	 0.427800085017917 
1144	 0.428448947609238 
1145	 0.429031472722365 
1146	 0.429489022607543 
1147	 0.429971881525141 
1148	 0.430423608861096 
1149	 0.430863021514479 
1150	 0.431397085376524 
1151	 0.431808724003384 
1152	 0.432248834128605 
1153	 0.432733050782125 
1154	 0.43317337706457 
1155	 0.433562786568261 
1156	 0.43397625268989 
1157	 0.434392037260258 
1158	 0.434768984005536 
1159	 0.435133307107683 
1160	 0.43549369847559 
1161	 0.435811512707213 
1162	 0.436102347837448 
1163	 0.436435639860755 
1164	 0.436808129160113 
1165	 0.437201694423275 
1166	 0.437584976394115 
1167	 0.43792858522332 
1168	 0.438223719714787 
1169	 0.438485311325012 
1170	 0.438680238743514 
1171	 0.438908045572592 
1172	 0.439094583577368 
1173	 0.439348487997883 
1174	 0.439675248215066 
1175	 0.439908625564118 
1176	 0.440106001638841 
1177	 0.44034478528884 
1178	 0.440568149660317 
1179	 0.440759220403283 
1180	 0.441018488485255 
1181	 0.441311185358665 
1182	 0.44146607672371 
1183	 0.441681043086905 
1184	 0.441916874570756 
1185	 0.442027594526385 
1186	 0.442192170581301 
1187	 0.442356169665454 
1188	 0.442523978842228 
1189	 0.442715854093361 
1190	 0.442871594288132 
1191	 0.442974617355259 
1192	 0.443133947731145 
1193	 0.443315880515005 
1194	 0.443492996305218 
1195	 0.443717036388852 
1196	 0.443899635855083 
1197	 0.4440652010201 
1198	 0.444176946353908 
1199	 0.44433879829708 
1200	 0.444565335043152 
1201	 0.44476648348924 
1202	 0.444939878559808 
1203	 0.445077829535344 
1204	 0.445184586169132 
1205	 0.445360489608667 
1206	 0.445588679062267 
1207	 0.445790031227372 
1208	 0.446008040946861 
1209	 0.446225105403892 
1210	 0.446419542675632 
1211	 0.446642422751366 
1212	 0.446909904877046 
1213	 0.44713438730217 
1214	 0.447329133029054 
1215	 0.447559714880509 
1216	 0.447771985129764 
1217	 0.448026591672467 
1218	 0.448357453441603 
1219	 0.448650146614597 
1220	 0.448874149548321 
1221	 0.449128638380267 
1222	 0.449379493786911 
1223	 0.449566505507346 
1224	 0.449802851084887 
1225	 0.450075845676579 
1226	 0.450322944032837 
1227	 0.450580049065214 
1228	 0.450797712322966 
1229	 0.450950709319696 
1230	 0.451209043874629 
1231	 0.451504341686938 
1232	 0.451764548301488 
1233	 0.45214146125028 
1234	 0.452380818377999 
1235	 0.452514259046339 
1236	 0.45265598479151 
1237	 0.452719354443594 
1238	 0.452821328912786 
1239	 0.452943546100485 
1240	 0.452993417761151 
1241	 0.453178303647898 
1242	 0.453380739792033 
1243	 0.45354866223318 
1244	 0.45375646693105 
1245	 0.453914463644449 
1246	 0.454012552020253 
1247	 0.454152987701213 
1248	 0.454305417369528 
1249	 0.454446236939734 
1250	 0.454605834417061 
1251	 0.454720431225262 
1252	 0.454823807932704 
1253	 0.454900150975042 
1254	 0.454917854280171 
1255	 0.454966703344644 
1256	 0.455008785741179 
1257	 0.455058346118457 
1258	 0.45511397444161 
1259	 0.455185207416009 
1260	 0.455281810121354 
1261	 0.455353645330584 
1262	 0.455453190140778 
1263	 0.455495310478361 
1264	 0.455539825822579 
1265	 0.455535536520878 
1266	 0.455598004375411 
1267	 0.455683953447221 
1268	 0.455762209806643 
1269	 0.455872400917919 
1270	 0.455958887822885 
1271	 0.455980005991872 
1272	 0.456113592735434 
1273	 0.456304015221772 
1274	 0.45649802754101 
1275	 0.456811118161806 
1276	 0.457005822063544 
1277	 0.457095291351406 
1278	 0.457273983064396 
1279	 0.457471116227142 
1280	 0.457641713013454 
1281	 0.457859705772148 
1282	 0.458058244216937 
1283	 0.458229750438093 
1284	 0.458366854905132 
1285	 0.458487711979741 
1286	 0.458609540769517 
1287	 0.458730981840684 
1288	 0.458823805118236 
1289	 0.458892185768547 
1290	 0.458973091424541 
1291	 0.45903109266141 
1292	 0.459026367246111 
1293	 0.45905631531492 
1294	 0.459108604917661 
1295	 0.459154024542222 
1296	 0.459208121124364 
1297	 0.459220854818545 
1298	 0.459239394480957 
1299	 0.459220077299935 
1300	 0.459144965571462 
1301	 0.459074391926614 
1302	 0.45895252729627 
1303	 0.458895393988894 
1304	 0.458906056963227 
1305	 0.458841777186135 
1306	 0.45873121870714 
1307	 0.45868804067174 
1308	 0.458607963532097 
1309	 0.458582669751168 
1310	 0.458533389986278 
1311	 0.458561454011779 
1312	 0.458522900076894 
1313	 0.45841768248869 
1314	 0.458355142311884 
1315	 0.458282928587389 
1316	 0.458298168249623 
1317	 0.45836622237184 
1318	 0.458388700955588 
1319	 0.45847444703583 
1320	 0.458508809501232 
1321	 0.458465174996554 
1322	 0.458466792103403 
1323	 0.45850047619635 
1324	 0.458519510858497 
1325	 0.458501190484004 
1326	 0.458537143545113 
1327	 0.45862327973299 
1328	 0.458677984193208 
1329	 0.458720872745127 
1330	 0.458803976712049 
1331	 0.458927665563649 
1332	 0.458996401961394 
1333	 0.45906429741112 
1334	 0.459145343581924 
1335	 0.459171346041131 
1336	 0.459105469129047 
1337	 0.459140366992767 
1338	 0.459199403743722 
1339	 0.459276586938042 
1340	 0.459394588597232 
1341	 0.459490552848261 
1342	 0.459581100624908 
1343	 0.459696232437907 
1344	 0.459834942911348 
1345	 0.459943899989449 
1346	 0.460088177102887 
1347	 0.460161483763806 
1348	 0.460193061704988 
1349	 0.460199962670624 
1350	 0.460094821593844 
1351	 0.460119624250331 
1352	 0.460218023040718 
1353	 0.460259094858565 
1354	 0.460364981521741 
1355	 0.460420714525706 
1356	 0.460376512140911 
1357	 0.460380602848567 
1358	 0.460445110314155 
1359	 0.460454277294801 
1360	 0.460441892908491 
1361	 0.460414488428418 
1362	 0.460358084432693 
1363	 0.460304119285009 
1364	 0.460257402549564 
1365	 0.460210450296986 
1366	 0.460188190945497 
1367	 0.460178771212339 
1368	 0.460157279429519 
1369	 0.460169157085912 
1370	 0.460118267330647 
1371	 0.46004456054784 
1372	 0.4599443290865 
1373	 0.459808953767413 
1374	 0.459671738711369 
1375	 0.45950424253376 
1376	 0.459343268888382 
1377	 0.459160266218189 
1378	 0.459003634921302 
1379	 0.458882467854695 
1380	 0.458709757187706 
1381	 0.45852113726767 
1382	 0.458335721771101 
1383	 0.458117464418202 
1384	 0.45790203899639 
1385	 0.457684594996811 
1386	 0.457488047232595 
1387	 0.457310805078309 
1388	 0.45710076701843 
1389	 0.456853437950195 
1390	 0.456671035966881 
1391	 0.456495846596575 
1392	 0.456327077421171 
1393	 0.456233604934734 
1394	 0.456148924208013 
1395	 0.456006241055678 
1396	 0.455805787819841 
1397	 0.455677201792228 
1398	 0.455573214797021 
1399	 0.455418537189182 
1400	 0.455320060998996 
1401	 0.455088006788487 
1402	 0.454724831738031 
1403	 0.454452706052935 
1404	 0.45416258007735 
1405	 0.453876531314424 
1406	 0.453647079011956 
1407	 0.453347034157553 
1408	 0.452978256877082 
1409	 0.452652805999891 
1410	 0.452316159350327 
1411	 0.452004521402181 
1412	 0.451701413848612 
1413	 0.451426357294775 
1414	 0.451183415508956 
1415	 0.450930235286442 
1416	 0.450692234776698 
1417	 0.450456503706811 
1418	 0.450234869573118 
1419	 0.449986079729019 
1420	 0.449691390884284 
1421	 0.449466041407799 
1422	 0.449269183055508 
1423	 0.449060544135442 
1424	 0.448900142072 
1425	 0.448734243489507 
1426	 0.448563572858903 
1427	 0.44833029041423 
1428	 0.448107825380366 
1429	 0.44794563884725 
1430	 0.447770937247828 
1431	 0.44759406600995 
1432	 0.447417967953712 
1433	 0.447244142612221 
1434	 0.44711539634071 
1435	 0.447001094111318 
1436	 0.446880188296598 
1437	 0.446817597759116 
1438	 0.44668279857654 
1439	 0.446490268437978 
1440	 0.446336799559874 
1441	 0.446166233720104 
1442	 0.44603620484115 
1443	 0.445933030038293 
1444	 0.445824202686013 
1445	 0.44568970651422 
1446	 0.445651232691469 
1447	 0.445664866975308 
1448	 0.445683706342842 
1449	 0.445763416880027 
1450	 0.445858998286525 
1451	 0.44594800418299 
1452	 0.446075681383152 
1453	 0.446300014213667 
1454	 0.446454826384247 
1455	 0.446554780927205 
1456	 0.446711074793594 
1457	 0.446881411725998 
1458	 0.447042373596084 
1459	 0.44722717193564 
1460	 0.44742560431116 
1461	 0.447643040367222 
1462	 0.447819384230922 
1463	 0.448009128175381 
1464	 0.448169769624602 
1465	 0.448275145938886 
1466	 0.448364728954878 
1467	 0.448437307464324 
1468	 0.448616131187456 
1469	 0.448784834320027 
1470	 0.44889992861044 
1471	 0.449057287391237 
1472	 0.449235361533787 
1473	 0.449389553937823 
1474	 0.449559452115481 
1475	 0.449680201368194 
1476	 0.449765991466108 
1477	 0.449866552419777 
1478	 0.449943515264434 
1479	 0.45003956994551 
1480	 0.450149081888855 
1481	 0.450246664114216 
1482	 0.450341975159266 
1483	 0.450429271259152 
1484	 0.450524287286782 
1485	 0.450590374769306 
1486	 0.450629165243839 
1487	 0.450683771029625 
1488	 0.450702118814016 
1489	 0.450781326444959 
1490	 0.450924101377245 
1491	 0.451006288340815 
1492	 0.451077202636834 
1493	 0.451170219775728 
1494	 0.45122338501092 
1495	 0.45131738132527 
1496	 0.451463426576257 
1497	 0.451601746231859 
1498	 0.451741577420085 
1499	 0.451890215706697 
1500	 0.45206713118361 
1501	 0.452217528168665 
1502	 0.452364906306235 
1503	 0.452495430543653 
1504	 0.452587712422666 
1505	 0.452711199261262 
1506	 0.45285770289958 
1507	 0.452975160087462 
1508	 0.453123786613516 
1509	 0.453219808502698 
1510	 0.45323022100319 
1511	 0.45328747356781 
1512	 0.453332945411178 
1513	 0.453397798679083 
1514	 0.453540723899482 
1515	 0.453613707287814 
1516	 0.453619150948434 
1517	 0.45367187038071 
1518	 0.453722906895724 
1519	 0.453760167878379 
1520	 0.45383781383303 
1521	 0.453894821000204 
1522	 0.453875741640858 
1523	 0.453885625121907 
1524	 0.453902045789975 
1525	 0.453917592800447 
1526	 0.453949897072246 
1527	 0.454003173973341 
1528	 0.454038033353407 
1529	 0.454080803996566 
1530	 0.454098436462135 
1531	 0.454110506093836 
1532	 0.454091263635329 
1533	 0.454026483008301 
1534	 0.454023429864539 
1535	 0.454022821594486 
1536	 0.454034417798481 
1537	 0.454089157965285 
1538	 0.454120125506456 
1539	 0.454150288056212 
1540	 0.454145141750273 
1541	 0.454101943879767 
1542	 0.454136658562876 
1543	 0.454174274875443 
1544	 0.454224456693258 
1545	 0.454358654766608 
1546	 0.454419923282324 
1547	 0.454423607648451 
1548	 0.454463329382169 
1549	 0.454502396546569 
1550	 0.454561153680565 
1551	 0.454643270434617 
1552	 0.454699280336779 
1553	 0.454727836441794 
1554	 0.454825169128611 
1555	 0.454955995707388 
1556	 0.455055642575649 
1557	 0.455204917976229 
1558	 0.455309841531654 
1559	 0.45537049149994 
1560	 0.455420402098057 
1561	 0.455457073994153 
1562	 0.455505800464586 
1563	 0.455521547212753 
1564	 0.455560796176742 
1565	 0.455648642863685 
1566	 0.455688300127882 
1567	 0.455677807123599 
1568	 0.455717167224468 
1569	 0.455756239451452 
1570	 0.455818624414853 
1571	 0.455938791240848 
1572	 0.456015328812895 
1573	 0.456065129248066 
1574	 0.456140274089641 
1575	 0.456210965089764 
1576	 0.456292047097239 
1577	 0.456422898656248 
1578	 0.456494824980048 
1579	 0.456522801903453 
1580	 0.4565726775427 
1581	 0.456584513441124 
1582	 0.456640936245568 
1583	 0.456751797268298 
1584	 0.456826946711661 
1585	 0.456925670908983 
1586	 0.456972570906389 
1587	 0.456935911495841 
1588	 0.456974008242492 
1589	 0.457022155721719 
1590	 0.457078978635441 
1591	 0.457216492401836 
1592	 0.457287147852184 
1593	 0.457322616475649 
1594	 0.457344249764204 
1595	 0.457306325018356 
1596	 0.457320085019178 
1597	 0.457331086322874 
1598	 0.457372046123204 
1599	 0.457496674219814 
1600	 0.457548601564643 
1601	 0.457546124337234 
1602	 0.457593565931734 
1603	 0.45764846033911 
1604	 0.457677393097162 
1605	 0.457726557634224 
1606	 0.457771342518488 
1607	 0.457777508322649 
1608	 0.457798230845155 
1609	 0.457863447001884 
1610	 0.457888768808312 
1611	 0.45787020866659 
1612	 0.457868917475602 
1613	 0.457843499409249 
1614	 0.457857565799033 
1615	 0.457911887975772 
1616	 0.457942969886119 
1617	 0.457978692469868 
1618	 0.458017125615115 
1619	 0.458077485884457 
1620	 0.45808437690962 
1621	 0.458079696115876 
1622	 0.458055240202679 
1623	 0.457933695998787 
1624	 0.457882409685206 
1625	 0.457883775951677 
1626	 0.457855311947762 
1627	 0.457824212096636 
1628	 0.457818012700483 
1629	 0.457812552134135 
1630	 0.457806773896088 
1631	 0.457856104049547 
1632	 0.45785115591386 
1633	 0.457765667776329 
1634	 0.457743185663473 
1635	 0.457767548715299 
1636	 0.457736307200233 
1637	 0.457724518625136 
1638	 0.457681907807214 
1639	 0.457516448659489 
1640	 0.457459559491361 
1641	 0.457487322287422 
1642	 0.457472030814168 
1643	 0.457513697100923 
1644	 0.457491092115318 
1645	 0.457405580957463 
1646	 0.457324577573319 
1647	 0.457187801930801 
1648	 0.457114601755386 
1649	 0.457084409192791 
1650	 0.457015185854518 
1651	 0.456972038393149 
1652	 0.456911346372159 
1653	 0.456793276090635 
1654	 0.456717624721157 
1655	 0.456718004467722 
1656	 0.456612990636537 
1657	 0.456435308962469 
1658	 0.456299556225931 
1659	 0.456119475257414 
1660	 0.45595523006113 
1661	 0.455892667295969 
1662	 0.455717419007881 
1663	 0.455443137933838 
1664	 0.455197032537128 
1665	 0.454938834863522 
1666	 0.454619415456306 
1667	 0.454266844811553 
1668	 0.453926381565918 
1669	 0.453528811378578 
1670	 0.453141632757568 
1671	 0.452797223139182 
1672	 0.452399271887493 
1673	 0.451974342092804 
1674	 0.45151251604749 
1675	 0.451052521638521 
1676	 0.450513987681016 
1677	 0.449872712263234 
1678	 0.449280603577838 
1679	 0.448652374309716 
1680	 0.448036817185664 
1681	 0.447481827008195 
1682	 0.446834018710237 
1683	 0.44615128825039 
1684	 0.445409471113069 
1685	 0.444596452900018 
1686	 0.443791577063333 
1687	 0.442950436149264 
1688	 0.442089295878633 
1689	 0.44119404492113 
1690	 0.440293257954503 
1691	 0.439396553754881 
1692	 0.438447699538505 
1693	 0.437501111009641 
1694	 0.436493340749147 
1695	 0.435392443246193 
1696	 0.434317536407172 
1697	 0.433208670305812 
1698	 0.432114244039495 
1699	 0.431015961084314 
1700	 0.429952854486294 
1701	 0.428944690252963 
1702	 0.427851965043398 
1703	 0.426696848074371 
1704	 0.425644428109637 
1705	 0.424530251357283 
1706	 0.423615163224191 
1707	 0.422806862164594 
1708	 0.422009589081041 
1709	 0.421281862726201 
1710	 0.420602101503547 
1711	 0.419981696392403 
1712	 0.419451085045802 
1713	 0.418926421784735 
1714	 0.41835984239007 
1715	 0.41781351027507 
1716	 0.417300474994116 
1717	 0.416898183494225 
1718	 0.416575802311061 
1719	 0.41623444808227 
1720	 0.415920309416765 
1721	 0.415593382416559 
1722	 0.415236259024065 
1723	 0.414983731141553 
1724	 0.414830680715768 
1725	 0.41462432569048 
1726	 0.414509570195535 
1727	 0.414504308696419 
1728	 0.414389024146784 
1729	 0.414444078165243 
1730	 0.414693951356839 
1731	 0.414944236585926 
1732	 0.415376702524507 
1733	 0.41581709162113 
1734	 0.416227927634393 
1735	 0.416756342049915 
1736	 0.417293271471205 
1737	 0.417872558263902 
1738	 0.418419620806457 
1739	 0.418789937956777 
1740	 0.419045844122246 
1741	 0.41923241772479 
1742	 0.419273873816598 
1743	 0.419307969545998 
1744	 0.419316478210067 
1745	 0.419214631610607 
1746	 0.419003656597341 
1747	 0.418841444628652 
1748	 0.418596045901345 
1749	 0.418428127774213 
1750	 0.418282981655671 
1751	 0.418160664875681 
1752	 0.418083357693546 
1753	 0.41804729227326 
1754	 0.418014010317931 
1755	 0.418101385090152 
1756	 0.418243910334163 
1757	 0.418449787758602 
1758	 0.418739946900039 
1759	 0.418982245865843 
1760	 0.419262498690123 
1761	 0.41966740861461 
1762	 0.420112109966221 
1763	 0.42061105561486 
1764	 0.421146360382918 
1765	 0.421691835576205 
1766	 0.422338263923245 
1767	 0.423028898574883 
1768	 0.423764774406748 
1769	 0.424420155065351 
1770	 0.425015504782949 
1771	 0.425676436109198 
1772	 0.426229442745483 
1773	 0.426828813946783 
1774	 0.427484905736471 
1775	 0.428004708933044 
1776	 0.428503279339535 
1777	 0.42896463267325 
1778	 0.42940895738497 
1779	 0.429871348629266 
1780	 0.43031061691722 
1781	 0.430759698460697 
1782	 0.431180402269311 
1783	 0.43153128596353 
1784	 0.431879977983173 
1785	 0.432165401474647 
1786	 0.432384885617474 
1787	 0.432520802544825 
1788	 0.432699917231086 
1789	 0.432882837065133 
1790	 0.433050901686983 
1791	 0.43325812171357 
1792	 0.433361848278795 
1793	 0.433352627026395 
1794	 0.433435164423907 
1795	 0.43344369972393 
1796	 0.433553934532729 
1797	 0.433727411625717 
1798	 0.433739099727533 
1799	 0.433836282848194 
1800	 0.434040777306765 
1801	 0.432175746360958 
1802	 0.43237109673262 
1803	 0.432515288695395 
1804	 0.43260080235425 
1805	 0.432756385710836 
1806	 0.432867850814449 
1807	 0.432945318326039 
1808	 0.433064020401931 
1809	 0.43318198932617 
1810	 0.433311253938857 
1811	 0.433512125014311 
1812	 0.433638956289207 
1813	 0.433715694858548 
1814	 0.433816877154766 
1815	 0.433869829291252 
1816	 0.433933911863306 
1817	 0.434102229805224 
1818	 0.434369651235109 
1819	 0.434578540383108 
1820	 0.434883761988714 
1821	 0.435091467123724 
1822	 0.435218354804754 
1823	 0.435361653760214 
1824	 0.43551648986328 
1825	 0.435620259928381 
1826	 0.435768839824578 
1827	 0.435943182072842 
1828	 0.436102127753591 
1829	 0.436264492667412 
1830	 0.436413602845405 
1831	 0.436548996186149 
1832	 0.436706810612218 
1833	 0.436818394568712 
1834	 0.436990974110165 
1835	 0.437150629972552 
1836	 0.437234173785774 
1837	 0.437363537611834 
1838	 0.437475039121012 
1839	 0.437630707240428 
1840	 0.437852326014455 
1841	 0.438026694982973 
1842	 0.438229954871061 
1843	 0.438349772206162 
1844	 0.438423705604271 
1845	 0.43853320863873 
1846	 0.43864034623643 
1847	 0.438801031005087 
1848	 0.438974490490147 
1849	 0.439202182937167 
1850	 0.439388061870874 
1851	 0.439590110850438 
1852	 0.439768198364205 
1853	 0.439850093187959 
1854	 0.439889739899918 
1855	 0.439790089614987 
1856	 0.439634774159301 
1857	 0.439617104688174 
1858	 0.439604566503226 
1859	 0.439564733515725 
1860	 0.43960424104825 
1861	 0.439555536845127 
1862	 0.439435543530175 
1863	 0.439295365370752 
1864	 0.439193792035556 
1865	 0.439079543067555 
1866	 0.438947511266645 
1867	 0.438766415925575 
1868	 0.438580169787068 
1869	 0.438433705590601 
1870	 0.438325653893174 
1871	 0.43833888737365 
1872	 0.438222947544239 
1873	 0.438114460722962 
1874	 0.437907273809897 
1875	 0.437603783117955 
1876	 0.437248541016808 
1877	 0.436842354571675 
1878	 0.436438809945755 
1879	 0.435970069870848 
1880	 0.435464346352951 
1881	 0.434891529605903 
1882	 0.434265334613473 
1883	 0.433565739306148 
1884	 0.432863907539932 
1885	 0.432072681179859 
1886	 0.431292359939677 
1887	 0.430492366402351 
1888	 0.429578029438517 
1889	 0.42867395554741 
1890	 0.427723455249601 
1891	 0.426738216336313 
1892	 0.425762723112041 
1893	 0.424767205474212 
1894	 0.423753616981142 
1895	 0.422738557896615 
1896	 0.42163606655863 
1897	 0.420501628897503 
1898	 0.41947487788314 
1899	 0.418379642886972 
1900	 0.417265121944262 
1901	 0.416320365951353 
1902	 0.415392715496321 
1903	 0.414522016315416 
1904	 0.413680126092178 
1905	 0.41296708460139 
1906	 0.41218698751212 
1907	 0.411392975536769 
1908	 0.4106197444051 
1909	 0.409900207964295 
1910	 0.409319003047328 
1911	 0.40874937200242 
1912	 0.408185366575567 
1913	 0.407629292351904 
1914	 0.407032801455394 
1915	 0.40648559103898 
1916	 0.405925032215747 
1917	 0.405430467093442 
1918	 0.405055591431564 
1919	 0.404637149974318 
1920	 0.404157850874775 
1921	 0.403713168588818 
1922	 0.403184857863429 
1923	 0.40270772086083 
1924	 0.402363894964977 
1925	 0.402010584598107 
1926	 0.4016992757077 
1927	 0.4015002140826 
1928	 0.401225974932565 
1929	 0.400935755863468 
1930	 0.40062719839059 
1931	 0.400362406048368 
1932	 0.400025768630774 
1933	 0.399787017465852 
1934	 0.399704478232028 
1935	 0.399579362142504 
1936	 0.399498478448325 
1937	 0.399484954182516 
1938	 0.399522868576596 
1939	 0.399583547199044 
1940	 0.399716833621504 
1941	 0.399847587553504 
1942	 0.399948600108359 
1943	 0.400039417178971 
1944	 0.40015513891746 
1945	 0.400355595195531 
1946	 0.400586314596421 
1947	 0.400820286933747 
1948	 0.401017873755522 
1949	 0.401227000125328 
1950	 0.401506965195892 
1951	 0.401868991715778 
1952	 0.402194439026863 
1953	 0.402554565606873 
1954	 0.402896230792234 
1955	 0.403277516141102 
1956	 0.40356440354159 
1957	 0.403873254073546 
1958	 0.404308145177474 
1959	 0.404658940037125 
1960	 0.404995440507455 
1961	 0.405371349363001 
1962	 0.405817775167706 
1963	 0.406166577664235 
1964	 0.406476560998492 
1965	 0.406799703167544 
1966	 0.407133991902072 
1967	 0.407349259770352 
1968	 0.407551008945168 
1969	 0.407806435736932 
1970	 0.408041200989866 
1971	 0.408320001046887 
1972	 0.408639390681532 
1973	 0.408985647245815 
1974	 0.40928694109213 
1975	 0.409547150929146 
1976	 0.409812112431337 
1977	 0.410040119154132 
1978	 0.410314941897483 
1979	 0.410596500685246 
1980	 0.410899585061774 
1981	 0.411242306528208 
1982	 0.411619889804041 
1983	 0.41200346162303 
1984	 0.412386014555757 
1985	 0.412732796559878 
1986	 0.413100915383281 
1987	 0.413471965314667 
1988	 0.413828460445995 
1989	 0.414195887802894 
1990	 0.414549310087514 
1991	 0.414956899865642 
1992	 0.415380238820559 
1993	 0.415859093910432 
1994	 0.416298679531066 
1995	 0.416772019213849 
1996	 0.417237199362896 
1997	 0.417649937625921 
1998	 0.418085837610621 
1999	 0.41856329833506 
2000	 0.418995708615738 
2001	 0.419413269698764 
2002	 0.419799546238212 
2003	 0.420172129087773 
2004	 0.42051664205971 
2005	 0.420775279001469 
2006	 0.421092991880282 
2007	 0.42140699935996 
2008	 0.421773263037117 
2009	 0.422175687296956 
2010	 0.422561395697481 
2011	 0.422876241706389 
2012	 0.423080160016228 
2013	 0.423303409304615 
2014	 0.423472258615811 
2015	 0.42364480682493 
2016	 0.42381355477354 
2017	 0.423967598450207 
2018	 0.424108341181587 
2019	 0.424190457268825 
2020	 0.424201375756523 
2021	 0.424291155721689 
2022	 0.424331569850464 
2023	 0.424344179235763 
2024	 0.424433810281107 
2025	 0.424492442152421 
2026	 0.424522897138225 
2027	 0.424548455675607 
2028	 0.424525796706568 
2029	 0.424453916584595 
2030	 0.424382647208759 
2031	 0.424271228358841 
2032	 0.424169194818113 
2033	 0.424031284149505 
2034	 0.423953673885 
2035	 0.423923121482692 
2036	 0.42386074337086 
2037	 0.423779067257266 
2038	 0.423732086878932 
2039	 0.423682991282518 
2040	 0.423598346556469 
2041	 0.423535908639694 
2042	 0.423516593461709 
2043	 0.423465006825971 
2044	 0.42339582872193 
2045	 0.423327068067899 
2046	 0.42326288264156 
2047	 0.423195514842813 
2048	 0.423096895651397 
2049	 0.423024320105411 
2050	 0.422983837975796 
2051	 0.422926644622466 
2052	 0.422856392917628 
2053	 0.42271622217465 
2054	 0.422643914914344 
2055	 0.422555067624047 
2056	 0.422517316640056 
2057	 0.422570036760684 
2058	 0.422542544496015 
2059	 0.42247283489027 
2060	 0.422446233967025 
2061	 0.422440298984053 
2062	 0.422398137717474 
2063	 0.422353236525632 
2064	 0.422309950375228 
2065	 0.422257959281653 
2066	 0.422139256145416 
2067	 0.422086127959405 
2068	 0.422094304377806 
2069	 0.422036607208389 
2070	 0.421958054877978 
2071	 0.421876640959023 
2072	 0.421749762321303 
2073	 0.421678652711114 
2074	 0.421631545517193 
2075	 0.421595784567585 
2076	 0.421603266391582 
2077	 0.421570100922168 
2078	 0.421507521373365 
2079	 0.421474167480321 
2080	 0.421442596042772 
2081	 0.421421492737019 
2082	 0.421472267243722 
2083	 0.421422309222907 
2084	 0.42139961819908 
2085	 0.421383915817656 
2086	 0.421332293988607 
2087	 0.421267165044716 
2088	 0.421196802715847 
2089	 0.421059776240788 
2090	 0.421012972815705 
2091	 0.421005007443928 
2092	 0.420992861125712 
2093	 0.42109720865204 
2094	 0.421066643225033 
2095	 0.420918840165413 
2096	 0.420845177610048 
2097	 0.420767457318936 
2098	 0.420611178235027 
2099	 0.420674739077088 
2100	 0.420712773942545 
2101	 0.420657357507109 
2102	 0.420602264297689 
2103	 0.420491719294896 
2104	 0.420236509065079 
2105	 0.42012220833592 
2106	 0.420053870530586 
2107	 0.419972951320227 
2108	 0.419979650253106 
2109	 0.419872071992828 
2110	 0.419697336907528 
2111	 0.41954436086075 
2112	 0.419312949346534 
2113	 0.419145442056337 
2114	 0.419027988357277 
2115	 0.418893606407014 
2116	 0.418761784008209 
2117	 0.418653708426106 
2118	 0.418535942861413 
2119	 0.418417677243786 
2120	 0.418313189329803 
2121	 0.418234910725959 
2122	 0.418092568845947 
2123	 0.417956508475888 
2124	 0.417753823503149 
2125	 0.417420484021994 
2126	 0.417225643224089 
2127	 0.417078312316726 
2128	 0.4168910926962 
2129	 0.416746894605336 
2130	 0.416615968968764 
2131	 0.4164583234536 
2132	 0.416303032782641 
2133	 0.416197631814735 
2134	 0.41606610468354 
2135	 0.415908070806547 
2136	 0.415749836156701 
2137	 0.415654362256088 
2138	 0.415620545767983 
2139	 0.415549708732125 
2140	 0.415504871520444 
2141	 0.415435923343681 
2142	 0.41534858956707 
2143	 0.415261464768896 
2144	 0.415147040868184 
2145	 0.415074588195181 
2146	 0.415038191965783 
2147	 0.414970881718573 
2148	 0.414920318691716 
2149	 0.414859851938825 
2150	 0.414711648698526 
2151	 0.414654255470866 
2152	 0.414669317169461 
2153	 0.414690031366161 
2154	 0.414659674392963 
2155	 0.414630063084206 
2156	 0.414508221264646 
2157	 0.414244316872787 
2158	 0.414119106656398 
2159	 0.414006962239179 
2160	 0.413908421672017 
2161	 0.413892621055688 
2162	 0.41379014778383 
2163	 0.413683090129979 
2164	 0.413505700455647 
2165	 0.413262145725813 
2166	 0.413025208408383 
2167	 0.41273170390263 
2168	 0.412444892046885 
2169	 0.412109233663433 
2170	 0.411854714594477 
2171	 0.411636901857056 
2172	 0.411409285741974 
2173	 0.411289564167809 
2174	 0.41108198466277 
2175	 0.410673371084372 
2176	 0.410434318534022 
2177	 0.410282659420497 
2178	 0.410184689276101 
2179	 0.410066296063769 
2180	 0.410120786274759 
2181	 0.409973714484467 
2182	 0.409645619487217 
2183	 0.409460320905022 
2184	 0.409315196953341 
2185	 0.40912724088633 
2186	 0.408971128594771 
2187	 0.408790066085279 
2188	 0.408499170805608 
2189	 0.408338213321231 
2190	 0.408319680222904 
2191	 0.408166503163843 
2192	 0.40799582811816 
2193	 0.407827536038301 
2194	 0.407514128372214 
2195	 0.407323119216058 
2196	 0.407238467363357 
2197	 0.407185488174647 
2198	 0.407027543278044 
2199	 0.406795393257669 
2200	 0.406541816790909 
2201	 0.406137126643859 
2202	 0.405898271458988 
2203	 0.405707426375522 
2204	 0.405562973693439 
2205	 0.405560027441199 
2206	 0.405359178992168 
2207	 0.405115150166822 
2208	 0.404840314870098 
2209	 0.40440694863354 
2210	 0.40408498891249 
2211	 0.403821227480451 
2212	 0.403533960450519 
2213	 0.403183949972905 
2214	 0.40295888434943 
2215	 0.402883109280773 
2216	 0.40267156912711 
2217	 0.402510917389925 
2218	 0.402269472296223 
2219	 0.401784439913547 
2220	 0.401468205439898 
2221	 0.401248538659764 
2222	 0.40104857450994 
2223	 0.400723706002304 
2224	 0.400423803080534 
2225	 0.400088921166599 
2226	 0.399574839352948 
2227	 0.399163903274752 
2228	 0.398867502442483 
2229	 0.398372282064717 
2230	 0.397741184669034 
2231	 0.397204269774416 
2232	 0.396656916880014 
2233	 0.396013226864425 
2234	 0.395413682299662 
2235	 0.3946882608045 
2236	 0.39380816213075 
2237	 0.392919430632432 
2238	 0.39199335858679 
2239	 0.391001455044579 
2240	 0.38993507514991 
2241	 0.388819390100516 
2242	 0.387714893797715 
2243	 0.386483374344258 
2244	 0.385132219912544 
2245	 0.383725096064997 
2246	 0.382171116295391 
2247	 0.380622997904501 
2248	 0.379026320755509 
2249	 0.377402684617189 
2250	 0.375795119786592 
2251	 0.374109914228039 
2252	 0.372171804263198 
2253	 0.370472354012336 
2254	 0.368701316614348 
2255	 0.366896015949244 
2256	 0.365389891483662 
2257	 0.36373457354195 
2258	 0.362143249619678 
2259	 0.360589599811793 
2260	 0.359061776476912 
2261	 0.35754163616788 
2262	 0.356071205154837 
2263	 0.354657185993309 
2264	 0.353182468564658 
2265	 0.351653188850217 
2266	 0.350262642807471 
2267	 0.348920834908699 
2268	 0.347624811517144 
2269	 0.346467955622467 
2270	 0.34525454381801 
2271	 0.343966623546398 
2272	 0.342808973187661 
2273	 0.341813737972202 
2274	 0.340651238889713 
2275	 0.339501803050527 
2276	 0.338299971083204 
2277	 0.336955491131778 
2278	 0.335649873019638 
2279	 0.334282948184839 
2280	 0.333029096175261 
2281	 0.331918060609825 
2282	 0.330645525797172 
2283	 0.329426423843961 
2284	 0.328095136571922 
2285	 0.326484488277352 
2286	 0.324872124368129 
2287	 0.323205013027877 
2288	 0.321496540504739 
2289	 0.319936404555077 
2290	 0.318174165185848 
2291	 0.316547522148405 
2292	 0.315048628072894 
2293	 0.313272848684243 
2294	 0.31171212404006 
2295	 0.310156254253879 
2296	 0.308644211753504 
2297	 0.307480639097295 
2298	 0.306637618898964 
2299	 0.305789560867147 
2300	 0.305077311452669 
2301	 0.304596803344377 
2302	 0.304207197101215 
2303	 0.304171169526666 
2304	 0.304547494957229 
2305	 0.304900814376114 
2306	 0.305454700375151 
2307	 0.30607292069866 
2308	 0.306701100764057 
2309	 0.307606476318726 
2310	 0.30875155197138 
2311	 0.309935794842246 
2312	 0.311421424368202 
2313	 0.312760120804086 
2314	 0.314068146090201 
2315	 0.315470769482674 
2316	 0.316914943429951 
2317	 0.318259771752515 
2318	 0.31984634134101 
2319	 0.321004452130104 
2320	 0.321879898866803 
2321	 0.322686081862387 
2322	 0.323122649370918 
2323	 0.323657168828738 
2324	 0.324258089164312 
2325	 0.32468677337275 
2326	 0.325190454757376 
2327	 0.325323533699079 
2328	 0.325044160101949 
2329	 0.324808607919022 
2330	 0.324325853122683 
2331	 0.323905822238815 
2332	 0.323558259211454 
2333	 0.323198486793642 
2334	 0.322756591123178 
2335	 0.322036755635226 
2336	 0.321295521364223 
2337	 0.320579700735349 
2338	 0.319536913064733 
2339	 0.31855565025924 
2340	 0.317547071953096 
2341	 0.316491311536191 
2342	 0.315848715541368 
2343	 0.315285865267234 
2344	 0.314601557997297 
2345	 0.314045701712756 
2346	 0.313689537411837 
2347	 0.313540106772533 
2348	 0.313935695032882 
2349	 0.314611950286107 
2350	 0.315361106454568 
2351	 0.316305779989211 
2352	 0.317025830873359 
2353	 0.317987312477779 
2354	 0.31908361781344 
2355	 0.320128699351247 
2356	 0.321184617217775 
2357	 0.321808085654245 
2358	 0.322377146596351 
2359	 0.322768952075711 
2360	 0.322922473350619 
2361	 0.323336325619025 
2362	 0.323618422687034 
2363	 0.323675964770828 
2364	 0.324048370901521 
2365	 0.324194733153903 
2366	 0.323954773651083 
2367	 0.324045858984886 
2368	 0.324126168832283 
2369	 0.324021451077006 
2370	 0.323996542493452 
2371	 0.323778272326591 
2372	 0.323495175266258 
2373	 0.323507829838035 
2374	 0.323725460924423 
2375	 0.323901450650754 
2376	 0.323993682157875 
2377	 0.324026207387491 
2378	 0.323882306638535 
2379	 0.323858816273835 
2380	 0.323857987830262 
2381	 0.323750039853149 
2382	 0.323900001221138 
2383	 0.324353330988227 
2384	 0.324391831248405 
2385	 0.324423021230183 
2386	 0.324443798848103 
2387	 0.324138848658002 
2388	 0.324270723760143 
2389	 0.324663518650819 
2390	 0.324875622466561 
2391	 0.325196867630052 
2392	 0.325284992060308 
2393	 0.325311109804774 
2394	 0.325336435349145 
2395	 0.325190160107565 
2396	 0.325016833721097 
2397	 0.324658596657939 
2398	 0.324649523861503 
2399	 0.32477456386542 
2400	 0.324972824297279 
2401	 0.325557360119852 
2402	 0.325702587209737 
2403	 0.325867480648563 
2404	 0.32588195988464 
2405	 0.325799898002831 
2406	 0.325850729443432 
2407	 0.325745016471922 
2408	 0.325771253267564 
2409	 0.325808226041268 
2410	 0.32564184873231 
2411	 0.325387190989763 
2412	 0.325091575544856 
2413	 0.325248581005447 
2414	 0.325431754703679 
2415	 0.325431557503232 
2416	 0.325632920899707 
2417	 0.325415703184849 
2418	 0.32518562269088 
2419	 0.325160866086831 
2420	 0.324788976473923 
2421	 0.324731515658668 
2422	 0.324647817787615 
2423	 0.324193790137888 
2424	 0.324136348423788 
2425	 0.324098361857939 
2426	 0.324149438982765 
2427	 0.324987365979621 
2428	 0.325779576667112 
2429	 0.325860542501135 
2430	 0.326098958989907 
2431	 0.326240942766802 
2432	 0.32560702995054 
2433	 0.324987077640743 
2434	 0.324509016675923 
2435	 0.323859376904397 
2436	 0.323335265804963 
2437	 0.3238482580538 
2438	 0.324194749061086 
2439	 0.323715628096552 
2440	 0.324140406534288 
2441	 0.324081767370892 
2442	 0.323713837220712 
2443	 0.32384175804449 
2444	 0.323362389651046 
2445	 0.323161052802457 
2446	 0.323053796823943 
2447	 0.322861218089963 
2448	 0.322910615402659 
2449	 0.322436579057711 
2450	 0.321960667505866 
2451	 0.321688027302099 
2452	 0.321323461529113 
2453	 0.321409425941001 
2454	 0.321294954648222 
2455	 0.320847722663515 
2456	 0.320601825952429 
2457	 0.320263352560743 
2458	 0.319637243451722 
2459	 0.318977074593878 
2460	 0.319069747073972 
2461	 0.318843416041292 
2462	 0.318427392224991 
2463	 0.319261599838829 
2464	 0.319103477605701 
2465	 0.318097545991154 
2466	 0.318367544212802 
2467	 0.318513018249348 
2468	 0.318281516607997 
2469	 0.318838903017311 
2470	 0.319018905621632 
2471	 0.318466814682275 
2472	 0.31804984565751 
2473	 0.317408444403842 
2474	 0.317039540090941 
2475	 0.316767892425641 
2476	 0.316518865799481 
2477	 0.317106554314304 
2478	 0.317058711333063 
2479	 0.316737358849039 
2480	 0.317187678591001 
2481	 0.317231351212252 
2482	 0.318062873365264 
2483	 0.317337509316909 
2484	 0.315794859400702 
2485	 0.315740134491985 
2486	 0.315710636872383 
2487	 0.316685688399859 
2488	 0.319031197783815 
2489	 0.319363955744402 
2490	 0.318453484115815 
2491	 0.318105648787663 
2492	 0.317759228829266 
2493	 0.317063820629511 
2494	 0.317422791264341 
2495	 0.317956341065639 
2496	 0.317655794241807 
2497	 0.317932007627422 
2498	 0.318568470987031 
2499	 0.319594771640944 
2500	 0.319859130441438 
