Wavelength	Tablay400060.asd
350	 0.238794519974164 
351	 0.195393696809947 
352	 0.196505437778252 
353	 0.25504111831208 
354	 0.188588667846608 
355	 0.165458715894833 
356	 0.176956490550692 
357	 0.178366545717522 
358	 0.104423691601175 
359	 0.113486603020348 
360	 0.174010335208968 
361	 0.168123901623731 
362	 0.177905931732987 
363	 0.175728594375351 
364	 0.145154607867627 
365	 9.30455455133773E-02 
366	 0.125999432655291 
367	 0.153222605295738 
368	 9.96654022462428E-02 
369	 0.115306808341473 
370	 0.110698462283281 
371	 0.104562902303231 
372	 0.161305854627651 
373	 0.180229631141043 
374	 0.134367093228034 
375	 5.77679018700611E-02 
376	 4.20793903599382E-02 
377	 9.68914924535538E-02 
378	 0.14932402169193 
379	 0.136216424681944 
380	 0.121558256625103 
381	 8.04948851028751E-02 
382	 6.00194481260621E-02 
383	 0.120782351444146 
384	 8.51358230808544E-02 
385	 5.14713133894461E-02 
386	 7.59206460636859E-02 
387	 0.103246989972341 
388	 0.107230692250314 
389	 9.75201609751124E-02 
390	 9.05267287723025E-02 
391	 8.58327315619278E-02 
392	 8.49216960644652E-02 
393	 8.68019166951815E-02 
394	 8.87630485615146E-02 
395	 8.89475612571007E-02 
396	 8.62297411955594E-02 
397	 8.51402606835563E-02 
398	 0.101110638267045 
399	 9.19123345849291E-02 
400	 8.28444138628717E-02 
401	 9.98780365308556E-02 
402	 0.091889517836767 
403	 8.70785359460956E-02 
404	 8.99160452404024E-02 
405	 8.60957240927621E-02 
406	 8.53753460740638E-02 
407	 8.68410517577501E-02 
408	 0.085516512431035 
409	 6.88721545706087E-02 
410	 6.83423173568639E-02 
411	 7.49781311231361E-02 
412	 0.072009044441989 
413	 7.08550659751547E-02 
414	 6.52674750626234E-02 
415	 0.060272990359935 
416	 6.96913670079697E-02 
417	 6.57780985138986E-02 
418	 6.44269312241743E-02 
419	 7.53573487182785E-02 
420	 8.00620542324229E-02 
421	 6.62095531616153E-02 
422	 5.40971768043276E-02 
423	 0.06775299134324 
424	 6.35409995469192E-02 
425	 5.78577345701712E-02 
426	 5.89159559092799E-02 
427	 6.09689405125987E-02 
428	 6.48074172218482E-02 
429	 6.31217892412625E-02 
430	 5.47473098680924E-02 
431	 0.061224570849575 
432	 5.98005916478297E-02 
433	 5.42746639646975E-02 
434	 5.99205953099365E-02 
435	 0.058253831025033 
436	 5.61208161062425E-02 
437	 5.73615590938879E-02 
438	 5.73597962965049E-02 
439	 5.49434199088265E-02 
440	 0.054617982485322 
441	 0.059183415153971 
442	 5.83391937235665E-02 
443	 5.57345857026078E-02 
444	 5.48343941963077E-02 
445	 5.78873818280133E-02 
446	 5.70320310677425E-02 
447	 5.36772382232414E-02 
448	 5.15846110924507E-02 
449	 5.71161927432191E-02 
450	 5.73607458096825E-02 
451	 5.51934405007661E-02 
452	 5.75323778182205E-02 
453	 5.72009488455664E-02 
454	 5.63366662916711E-02 
455	 5.60842443476229E-02 
456	 5.58701015054098E-02 
457	 5.46595632389272E-02 
458	 5.33569864107941E-02 
459	 5.29607552760052E-02 
460	 0.053532561088896 
461	 5.38761108698187E-02 
462	 5.40509175516656E-02 
463	 5.45759948577656E-02 
464	 5.35171423263619E-02 
465	 5.23714570562231E-02 
466	 5.18887910387545E-02 
467	 5.10909983507505E-02 
468	 5.26966962753505E-02 
469	 5.40412143412359E-02 
470	 5.24999760752124E-02 
471	 5.17505478614982E-02 
472	 5.15606955145857E-02 
473	 5.14508093795736E-02 
474	 0.050908377607851 
475	 0.05083589120817 
476	 5.10963971633576E-02 
477	 5.14748824765067E-02 
478	 5.21300170199601E-02 
479	 5.13636033109068E-02 
480	 5.04436174825149E-02 
481	 5.11273578936779E-02 
482	 5.05817301156366E-02 
483	 5.01568543258783E-02 
484	 5.04491957498047E-02 
485	 5.09068073598223E-02 
486	 5.09358500441259E-02 
487	 5.10376948849469E-02 
488	 5.13185125946286E-02 
489	 4.96836111220343E-02 
490	 4.92320944953138E-02 
491	 0.050237417939746 
492	 5.11275350684128E-02 
493	 4.97130311594602E-02 
494	 4.97395253825552E-02 
495	 5.17816675588014E-02 
496	 5.01570339982292E-02 
497	 5.03881116139002E-02 
498	 5.09611874039579E-02 
499	 4.95054016173363E-02 
500	 4.96066450470177E-02 
501	 4.95737844985341E-02 
502	 4.91560111348532E-02 
503	 4.94331999697339E-02 
504	 4.96658322671222E-02 
505	 0.049664063490446 
506	 4.95271864183566E-02 
507	 4.98933114973185E-02 
508	 4.94240350872093E-02 
509	 4.85401199503271E-02 
510	 4.83550717866429E-02 
511	 4.89889380473922E-02 
512	 4.92754583126025E-02 
513	 4.89715620048618E-02 
514	 4.91069011927484E-02 
515	 4.90147090866045E-02 
516	 4.88221195004063E-02 
517	 4.87257211725125E-02 
518	 4.84250561445125E-02 
519	 4.85294626367066E-02 
520	 4.89942576692474E-02 
521	 4.92978108943208E-02 
522	 4.89357273109168E-02 
523	 4.86694902912502E-02 
524	 4.88729537444988E-02 
525	 4.88559654777261E-02 
526	 4.87031147192839E-02 
527	 4.86178412982087E-02 
528	 4.87742979467708E-02 
529	 4.88641305663167E-02 
530	 4.87860420775038E-02 
531	 4.87609217309252E-02 
532	 4.92938834816305E-02 
533	 4.93563240428738E-02 
534	 4.90359657604142E-02 
535	 4.87480234048567E-02 
536	 4.91337038670678E-02 
537	 4.92798160137292E-02 
538	 4.92468621228203E-02 
539	 4.95525714689362E-02 
540	 4.95951014420912E-02 
541	 4.95514815863687E-02 
542	 4.95665872553754E-02 
543	 4.95831845948302E-02 
544	 4.98302423154436E-02 
545	 0.050090647725183 
546	 5.01097985589859E-02 
547	 5.00671888406752E-02 
548	 5.02698957562063E-02 
549	 5.07342517518221E-02 
550	 5.12110236141454E-02 
551	 5.14482777300256E-02 
552	 5.16725923375451E-02 
553	 5.20687544524285E-02 
554	 5.24849320957532E-02 
555	 5.28639457179901E-02 
556	 5.32333415547453E-02 
557	 5.36693113552207E-02 
558	 0.054237985177174 
559	 5.48048792503651E-02 
560	 5.52774626016395E-02 
561	 5.56468516306982E-02 
562	 5.60439571617688E-02 
563	 5.67545340380047E-02 
564	 0.057787024126158 
565	 5.79745179012658E-02 
566	 5.85524838724296E-02 
567	 5.95523541155921E-02 
568	 0.060161710610174 
569	 6.11755755390939E-02 
570	 6.23336883367097E-02 
571	 6.33933056637574E-02 
572	 6.44461069179917E-02 
573	 6.56745787122143E-02 
574	 0.06709453352445 
575	 6.85929563075431E-02 
576	 6.98086357476798E-02 
577	 7.09048949870074E-02 
578	 7.20416321200996E-02 
579	 0.073325580365381 
580	 7.47899689728405E-02 
581	 7.62211441175602E-02 
582	 7.75076689974167E-02 
583	 7.89990756796684E-02 
584	 8.05858321930681E-02 
585	 8.22259033434787E-02 
586	 8.39072032933207E-02 
587	 8.55006376326884E-02 
588	 8.72838458459009E-02 
589	 8.92333283784466E-02 
590	 9.07407824234938E-02 
591	 9.26537739031103E-02 
592	 9.48153632282436E-02 
593	 9.67984116875962E-02 
594	 9.84469550604747E-02 
595	 0.100170441166252 
596	 0.101976082641303 
597	 0.103524070493724 
598	 0.10504140476583 
599	 0.106509783565806 
600	 0.10796121804679 
601	 0.109631840813153 
602	 0.111359622202418 
603	 0.113024920313582 
604	 0.114547282269229 
605	 0.116020666618421 
606	 0.117521961647314 
607	 0.118980744706197 
608	 0.120147069073971 
609	 0.121460821899532 
610	 0.122690663845105 
611	 0.123645401667477 
612	 0.124810162527953 
613	 0.126076824814717 
614	 0.127243069162105 
615	 0.128103850204419 
616	 0.129037509838246 
617	 0.130031917942413 
618	 0.130991298924736 
619	 0.131759405385329 
620	 0.132602972524032 
621	 0.133539090316225 
622	 0.134475060691686 
623	 0.13526115547162 
624	 0.135902242658604 
625	 0.13650367611395 
626	 0.13724219717538 
627	 0.138003728251327 
628	 0.138603206251583 
629	 0.139029925451621 
630	 0.139733514457943 
631	 0.140444803593289 
632	 0.14104476732137 
633	 0.141519111752178 
634	 0.142116361712502 
635	 0.142772492879264 
636	 0.143407521382245 
637	 0.143957861787219 
638	 0.144420472178762 
639	 0.144871953259847 
640	 0.145387835446097 
641	 0.145963599473604 
642	 0.14666071914954 
643	 0.147303691676399 
644	 0.147637442452703 
645	 0.148067049432511 
646	 0.148717528627813 
647	 0.149459586381822 
648	 0.149814261501999 
649	 0.150204329504995 
650	 0.150783453938759 
651	 0.151531422205359 
652	 0.152078871026812 
653	 0.152631521325303 
654	 0.153280794404185 
655	 0.15399564249305 
656	 0.15458940927906 
657	 0.155202823873685 
658	 0.155917074095819 
659	 0.156577846349806 
660	 0.15723486303734 
661	 0.157925902067365 
662	 0.158666586953487 
663	 0.159359673177285 
664	 0.160073118693418 
665	 0.160825437139867 
666	 0.161575335284259 
667	 0.162341947625846 
668	 0.163153523476351 
669	 0.163998914545094 
670	 0.164756555522449 
671	 0.165527772392302 
672	 0.166366119551336 
673	 0.167276554223419 
674	 0.168074353249633 
675	 0.168960639067097 
676	 0.16994174048625 
677	 0.170758978353036 
678	 0.17160625036314 
679	 0.172580891628089 
680	 0.173666451809077 
681	 0.17457637944556 
682	 0.175520308105383 
683	 0.176551053581051 
684	 0.177620668951412 
685	 0.178612973562408 
686	 0.179621055944656 
687	 0.180676246237764 
688	 0.181693098230732 
689	 0.182792657995971 
690	 0.183882031624636 
691	 0.184891159412958 
692	 0.186024430715092 
693	 0.187185416012063 
694	 0.188295585989037 
695	 0.189323836848594 
696	 0.190549475505121 
697	 0.191825171205573 
698	 0.193025661653307 
699	 0.194146782976217 
700	 0.195324680440817 
701	 0.196477655772578 
702	 0.197551615364302 
703	 0.198852090786923 
704	 0.200075332043238 
705	 0.201238422334916 
706	 0.202550070964727 
707	 0.203683192564885 
708	 0.204716449381585 
709	 0.205786825192928 
710	 0.207033981487744 
711	 0.208211805658159 
712	 0.209377090629555 
713	 0.210604804927818 
714	 0.211650329105412 
715	 0.21273232328014 
716	 0.213864553335435 
717	 0.214909626325 
718	 0.215855860106132 
719	 0.216840673776898 
720	 0.217926623621399 
721	 0.219020385425182 
722	 0.219959066018192 
723	 0.220774462563712 
724	 0.221587344540989 
725	 0.222584875846978 
726	 0.223527549262879 
727	 0.224323975280078 
728	 0.225006738048526 
729	 0.225600128182893 
730	 0.22616666172187 
731	 0.226776702243983 
732	 0.227512722735417 
733	 0.228157338525474 
734	 0.228700363294974 
735	 0.229181281420402 
736	 0.229564340585551 
737	 0.229863921518393 
738	 0.230133072303513 
739	 0.230434146308271 
740	 0.230695901625088 
741	 0.230896246084175 
742	 0.231035929961597 
743	 0.231139683443981 
744	 0.231213354857938 
745	 0.23120611249905 
746	 0.231069462561163 
747	 0.230793053555814 
748	 0.230577146508595 
749	 0.230465124656443 
750	 0.230380456855963 
751	 0.230142852956463 
752	 0.22993340436048 
753	 0.229732235411234 
754	 0.229225285796752 
755	 0.228867933084901 
756	 0.228531800586291 
757	 0.228058039561316 
758	 0.227618749858914 
759	 0.227098997529504 
760	 0.226494052235465 
761	 0.225869683935939 
762	 0.225375071092881 
763	 0.224800664575934 
764	 0.224101182251712 
765	 0.223428814620216 
766	 0.222743536550314 
767	 0.222094909045881 
768	 0.221449325356269 
769	 0.220522693758535 
770	 0.219810341791289 
771	 0.219163574992547 
772	 0.21829076373908 
773	 0.217445259730265 
774	 0.216694225795308 
775	 0.215956994770132 
776	 0.215067386206985 
777	 0.214256378572442 
778	 0.213538383649639 
779	 0.212826334317381 
780	 0.211924286022741 
781	 0.21103765265373 
782	 0.210204083621833 
783	 0.209414897689714 
784	 0.208708728239218 
785	 0.207799509134544 
786	 0.206801686436987 
787	 0.206014795785491 
788	 0.205212409223209 
789	 0.204457810383045 
790	 0.203713947984474 
791	 0.202808773272295 
792	 0.20192186841879 
793	 0.201165915542578 
794	 0.200523527978726 
795	 0.199716007446811 
796	 0.198888537951419 
797	 0.198103892741193 
798	 0.197381179482338 
799	 0.196660791423369 
800	 0.1959171801723 
801	 0.195160100850743 
802	 0.194425243588085 
803	 0.193726456172318 
804	 0.193040241897231 
805	 0.19236289427654 
806	 0.191726616970713 
807	 0.191003852431645 
808	 0.190312839552572 
809	 0.189736565855998 
810	 0.189059903210534 
811	 0.188448752595475 
812	 0.187880905868367 
813	 0.187269943095392 
814	 0.186690824705939 
815	 0.186033214808137 
816	 0.18538439356086 
817	 0.184973163729979 
818	 0.184449345858426 
819	 0.183864456809986 
820	 0.183332117537887 
821	 0.18295971268194 
822	 0.182503970936419 
823	 0.182015942620666 
824	 0.181570250101202 
825	 0.181034809640228 
826	 0.180624675029836 
827	 0.180301079996934 
828	 0.179914297843654 
829	 0.179430478901749 
830	 0.179069364488298 
831	 0.178778120949874 
832	 0.178287389589112 
833	 0.177819521987972 
834	 0.177535360774006 
835	 0.177355669465395 
836	 0.176865675177152 
837	 0.176632170558721 
838	 0.176481966077499 
839	 0.176179908187906 
840	 0.17583630692378 
841	 0.175685976736629 
842	 0.175567690954038 
843	 0.175255978103232 
844	 0.175108756713414 
845	 0.174890002072357 
846	 0.174614409286955 
847	 0.174468250252213 
848	 0.174282845439513 
849	 0.174103799394413 
850	 0.173997455696883 
851	 0.174013132027478 
852	 0.173917097610647 
853	 0.173687407224376 
854	 0.173453270680919 
855	 0.173556096087924 
856	 0.173604392411778 
857	 0.173531491616715 
858	 0.173399764852321 
859	 0.173301750526488 
860	 0.17336618543124 
861	 0.173439479679181 
862	 0.173311217709588 
863	 0.173364778485984 
864	 0.173439797795556 
865	 0.173503521487078 
866	 0.173648458443165 
867	 0.173756540426757 
868	 0.173856951222321 
869	 0.173933496842394 
870	 0.173893421477222 
871	 0.174136392400453 
872	 0.174366673253153 
873	 0.174409799085753 
874	 0.174713498463246 
875	 0.174840519673138 
876	 0.174894930972889 
877	 0.175069251204619 
878	 0.175211224252348 
879	 0.175547260339469 
880	 0.175902885494832 
881	 0.176003227885905 
882	 0.176139159143495 
883	 0.176444381114648 
884	 0.176847662142586 
885	 0.177154338328153 
886	 0.177487061655814 
887	 0.177873383971074 
888	 0.178281143228777 
889	 0.178624674300399 
890	 0.17888059329581 
891	 0.17916861581152 
892	 0.179543685992885 
893	 0.179907385041567 
894	 0.180314711577273 
895	 0.180698366670123 
896	 0.181075110516092 
897	 0.181779227949696 
898	 0.182144471501332 
899	 0.182526871266458 
900	 0.183319623142968 
901	 0.183647000138549 
902	 0.184007304912668 
903	 0.184532861154725 
904	 0.185136303049309 
905	 0.185695625490129 
906	 0.186240045810131 
907	 0.186767639651387 
908	 0.18727986113585 
909	 0.188003841926837 
910	 0.188777432641639 
911	 0.189478219803323 
912	 0.190084777027617 
913	 0.190704173038452 
914	 0.191381312086175 
915	 0.192052981532858 
916	 0.192556879889949 
917	 0.193421716506875 
918	 0.194304344448674 
919	 0.194986121741616 
920	 0.195812266896639 
921	 0.196518099624776 
922	 0.197161471965357 
923	 0.197911020110775 
924	 0.199011362775382 
925	 0.199962278726653 
926	 0.200679327622668 
927	 0.201349383124231 
928	 0.202550443578082 
929	 0.203310310194498 
930	 0.203958646169876 
931	 0.205103834548379 
932	 0.205971681233564 
933	 0.206999568491609 
934	 0.208097582350384 
935	 0.208971153828491 
936	 0.20993767289618 
937	 0.210971146360979 
938	 0.212054757730814 
939	 0.213176747832014 
940	 0.214258812576613 
941	 0.215461135783228 
942	 0.216667347636102 
943	 0.217605624900492 
944	 0.218938731646047 
945	 0.220034878514191 
946	 0.220873382418401 
947	 0.22215468869299 
948	 0.223534348900218 
949	 0.224757676976826 
950	 0.225885820939445 
951	 0.22730754785917 
952	 0.228543270320381 
953	 0.229783085751803 
954	 0.231132729002984 
955	 0.232402166228261 
956	 0.233696603845543 
957	 0.235038452069958 
958	 0.236447680445623 
959	 0.237962433120536 
960	 0.239342778772699 
961	 0.240670209384525 
962	 0.242060333388515 
963	 0.243530055425741 
964	 0.244939571661749 
965	 0.246318103546091 
966	 0.24773212021473 
967	 0.24922006247494 
968	 0.250692432686157 
969	 0.252388798062892 
970	 0.254268344399548 
971	 0.255371114388752 
972	 0.256914775129772 
973	 0.258473237323874 
974	 0.259603813421268 
975	 0.261270822006267 
976	 0.262711151755522 
977	 0.264205014432972 
978	 0.26606038017906 
979	 0.267654758297887 
980	 0.269189496032213 
981	 0.270702928849441 
982	 0.272298058529774 
983	 0.274499026507753 
984	 0.275937470531298 
985	 0.277218109990033 
986	 0.279100826717564 
987	 0.280339246175022 
988	 0.282122359876198 
989	 0.284032398666673 
990	 0.285460865433362 
991	 0.287231909038839 
992	 0.288973263140134 
993	 0.290436418065468 
994	 0.291589466192517 
995	 0.292888418806025 
996	 0.294502531659493 
997	 0.296374783850681 
998	 0.298232653693361 
999	 0.299447138257085 
1000	 0.301227222877582 
1001	 0.3037696544655 
1002	 0.305419255939437 
1003	 0.307045141547042 
1004	 0.308526100711209 
1005	 0.309870335942023 
1006	 0.311292528568107 
1007	 0.312607372285706 
1008	 0.31410775882832 
1009	 0.315627700282511 
1010	 0.317258909128439 
1011	 0.319165828212865 
1012	 0.320788144523229 
1013	 0.32237381981532 
1014	 0.323941916420026 
1015	 0.325379472178749 
1016	 0.326799142404539 
1017	 0.328139575050869 
1018	 0.329347367048347 
1019	 0.330771831390797 
1020	 0.332144629471561 
1021	 0.333462970193362 
1022	 0.334984302342106 
1023	 0.336237143722726 
1024	 0.337160051114186 
1025	 0.338294306878212 
1026	 0.339426148167186 
1027	 0.340600947714348 
1028	 0.34182975644931 
1029	 0.343149960284202 
1030	 0.344280378410609 
1031	 0.345417360026075 
1032	 0.34671776319904 
1033	 0.347954070384221 
1034	 0.348967002924311 
1035	 0.350006331057448 
1036	 0.3511096577086 
1037	 0.352037562762911 
1038	 0.353117414180125 
1039	 0.354465095706362 
1040	 0.355614651043221 
1041	 0.356639150663624 
1042	 0.357700445063089 
1043	 0.358738481717567 
1044	 0.359819790306792 
1045	 0.360854944479694 
1046	 0.361848391098998 
1047	 0.362796099463057 
1048	 0.363838449544144 
1049	 0.364850664243223 
1050	 0.365936176525599 
1051	 0.367109301894017 
1052	 0.368125135950414 
1053	 0.369124282169848 
1054	 0.370075871543021 
1055	 0.371099531046384 
1056	 0.372060318998506 
1057	 0.373076621830001 
1058	 0.374165705090534 
1059	 0.375321940745536 
1060	 0.376376506980445 
1061	 0.377314964584737 
1062	 0.378186633191226 
1063	 0.378994370106519 
1064	 0.379841884679175 
1065	 0.380694209044457 
1066	 0.381670544288666 
1067	 0.382644777676474 
1068	 0.383355845908658 
1069	 0.384244843612038 
1070	 0.385194324847277 
1071	 0.386233336573222 
1072	 0.387091590008744 
1073	 0.388023032567941 
1074	 0.388999051528432 
1075	 0.389759856354211 
1076	 0.390563969665233 
1077	 0.391460165345391 
1078	 0.392184874017718 
1079	 0.393044476583608 
1080	 0.39395708607724 
1081	 0.394859616239107 
1082	 0.395850349863029 
1083	 0.396660510869556 
1084	 0.397353573333497 
1085	 0.398037462373047 
1086	 0.398756295886841 
1087	 0.399412220209625 
1088	 0.400209267334981 
1089	 0.401056674027268 
1090	 0.401892529598143 
1091	 0.402726056835345 
1092	 0.403390800418376 
1093	 0.40408090510037 
1094	 0.40478021443914 
1095	 0.405384526877671 
1096	 0.406190448219673 
1097	 0.407074028311594 
1098	 0.407824086304629 
1099	 0.40854424964863 
1100	 0.409133522704492 
1101	 0.409702493751814 
1102	 0.410445808170988 
1103	 0.411173509649401 
1104	 0.412006257306054 
1105	 0.412793535178955 
1106	 0.413464968054289 
1107	 0.414077731696608 
1108	 0.414770176670428 
1109	 0.415575976081819 
1110	 0.416320022171058 
1111	 0.417065711217685 
1112	 0.417805849500965 
1113	 0.418470574544365 
1114	 0.419225856826521 
1115	 0.419940740044664 
1116	 0.420604354635649 
1117	 0.421345061237944 
1118	 0.422070943605962 
1119	 0.422839934754285 
1120	 0.42357595739618 
1121	 0.424335210655759 
1122	 0.424970920047077 
1123	 0.425573055230716 
1124	 0.426154113381832 
1125	 0.426913122260678 
1126	 0.427735295156233 
1127	 0.428495880921146 
1128	 0.429448804166706 
1129	 0.430138791018936 
1130	 0.430657341095431 
1131	 0.43131516898489 
1132	 0.43182352361643 
1133	 0.432396730384873 
1134	 0.433066713867239 
1135	 0.433697132824142 
1136	 0.434364547875647 
1137	 0.434996804013791 
1138	 0.435581871420601 
1139	 0.436192972904886 
1140	 0.436849298634769 
1141	 0.437382395961968 
1142	 0.437915995873171 
1143	 0.43852353455623 
1144	 0.439053147536485 
1145	 0.439641798987552 
1146	 0.440209961763015 
1147	 0.440759910198972 
1148	 0.441277447548804 
1149	 0.441690119538531 
1150	 0.442198059727923 
1151	 0.442662360543958 
1152	 0.443108806431905 
1153	 0.443572533984972 
1154	 0.44401256919967 
1155	 0.444372313049937 
1156	 0.444797149459679 
1157	 0.445252199283774 
1158	 0.445698915577614 
1159	 0.44618787279136 
1160	 0.446628262376973 
1161	 0.447059112933376 
1162	 0.447459178453074 
1163	 0.447811132760904 
1164	 0.448268893086056 
1165	 0.448678434517655 
1166	 0.448984685812002 
1167	 0.449332656268774 
1168	 0.449608811969865 
1169	 0.449886612528157 
1170	 0.450163366101911 
1171	 0.450434437432817 
1172	 0.450635859542264 
1173	 0.450916901194423 
1174	 0.451244729469977 
1175	 0.451535021912353 
1176	 0.451891500054734 
1177	 0.45219285377111 
1178	 0.452439824065602 
1179	 0.452683539442049 
1180	 0.452957805621836 
1181	 0.453118930503138 
1182	 0.453344234586575 
1183	 0.45361040382307 
1184	 0.453813124440868 
1185	 0.454061433243287 
1186	 0.454251232630324 
1187	 0.454378494103702 
1188	 0.454539581698655 
1189	 0.454648029401196 
1190	 0.454861652888695 
1191	 0.455175553094586 
1192	 0.455399246204488 
1193	 0.455655847271559 
1194	 0.455889248653518 
1195	 0.456051104793572 
1196	 0.456222846361016 
1197	 0.456409947795459 
1198	 0.456583181657142 
1199	 0.456746889625291 
1200	 0.456916313210824 
1201	 0.457183507177597 
1202	 0.457407965993877 
1203	 0.457577108247603 
1204	 0.457818855527911 
1205	 0.457975116149756 
1206	 0.45802318896021 
1207	 0.458224452796812 
1208	 0.458472906129852 
1209	 0.4586813323035 
1210	 0.458954139370795 
1211	 0.459202340855401 
1212	 0.459375783489248 
1213	 0.45963051451927 
1214	 0.460021781648717 
1215	 0.460283973074595 
1216	 0.460466685907211 
1217	 0.460700180566051 
1218	 0.46090881856149 
1219	 0.461073372942266 
1220	 0.461383884450514 
1221	 0.461702458796045 
1222	 0.461894275583113 
1223	 0.462110079531301 
1224	 0.462357214615862 
1225	 0.462553010156746 
1226	 0.462820097558286 
1227	 0.463216560334595 
1228	 0.463481504516847 
1229	 0.46371244019723 
1230	 0.463934782727924 
1231	 0.464069772816355 
1232	 0.46426341416685 
1233	 0.464518673235299 
1234	 0.464686652387365 
1235	 0.464777305473285 
1236	 0.464959961152036 
1237	 0.465175759510562 
1238	 0.465339123743039 
1239	 0.465522246280428 
1240	 0.465723915367062 
1241	 0.465899928896464 
1242	 0.465984069738412 
1243	 0.466138515567872 
1244	 0.46635596903756 
1245	 0.46652267095294 
1246	 0.466688169370326 
1247	 0.466801757837512 
1248	 0.466856312190108 
1249	 0.466981820540724 
1250	 0.467120803009489 
1251	 0.467203486253045 
1252	 0.467346183748867 
1253	 0.467392248708947 
1254	 0.467271324334224 
1255	 0.467281050288766 
1256	 0.467331934767968 
1257	 0.467379363457663 
1258	 0.467492810436393 
1259	 0.467567095195911 
1260	 0.4676104075589 
1261	 0.467658240446868 
1262	 0.467722288381676 
1263	 0.467746520079752 
1264	 0.467782050214897 
1265	 0.467818084225541 
1266	 0.467835084598721 
1267	 0.467799215120261 
1268	 0.467878821609661 
1269	 0.468018935994321 
1270	 0.468103215476001 
1271	 0.468230468229879 
1272	 0.468347637736628 
1273	 0.468395566376125 
1274	 0.468504554457532 
1275	 0.468679068701768 
1276	 0.46883900350468 
1277	 0.46897564771503 
1278	 0.469153841790687 
1279	 0.469399989698761 
1280	 0.469597435518537 
1281	 0.46981389375863 
1282	 0.469986068764305 
1283	 0.470074722529793 
1284	 0.470212548000009 
1285	 0.470359323466575 
1286	 0.47050979353851 
1287	 0.470638988746548 
1288	 0.470795199033909 
1289	 0.470901535102823 
1290	 0.470965028198672 
1291	 0.471032469791769 
1292	 0.471102123433726 
1293	 0.471135219263063 
1294	 0.471125048860666 
1295	 0.471137944722469 
1296	 0.471154533116658 
1297	 0.471141869963185 
1298	 0.471102660078734 
1299	 0.471096521568782 
1300	 0.471103802568547 
1301	 0.471072641871068 
1302	 0.471047648165468 
1303	 0.47101653652868 
1304	 0.470931492484924 
1305	 0.47087032044842 
1306	 0.47082283684242 
1307	 0.470793495367415 
1308	 0.470758297591411 
1309	 0.470747684708888 
1310	 0.470755246661247 
1311	 0.470809602782848 
1312	 0.470813391154498 
1313	 0.47082456217296 
1314	 0.470789423899969 
1315	 0.470684802483952 
1316	 0.470669667867034 
1317	 0.47066899754936 
1318	 0.470674149916627 
1319	 0.470743312896105 
1320	 0.470765405985183 
1321	 0.470739345610634 
1322	 0.470758594218138 
1323	 0.470806501120514 
1324	 0.470834715720099 
1325	 0.470855200762267 
1326	 0.470900961327027 
1327	 0.470961652985064 
1328	 0.47100206875691 
1329	 0.47106883684231 
1330	 0.471106639794117 
1331	 0.471088998887278 
1332	 0.471104202006511 
1333	 0.471115527449346 
1334	 0.471152093218363 
1335	 0.47120440882879 
1336	 0.471300484805357 
1337	 0.471315881728662 
1338	 0.471303865694353 
1339	 0.471324669890089 
1340	 0.471304279288168 
1341	 0.471328619888315 
1342	 0.471425783167022 
1343	 0.471448477390615 
1344	 0.47140668648832 
1345	 0.471447632974583 
1346	 0.471514730923944 
1347	 0.471561310165479 
1348	 0.471681214937691 
1349	 0.471707839387829 
1350	 0.471640697103191 
1351	 0.471631333926684 
1352	 0.471608800616107 
1353	 0.471601250788702 
1354	 0.471628310483928 
1355	 0.471643605739457 
1356	 0.471668776672772 
1357	 0.471666237117567 
1358	 0.471649227033074 
1359	 0.47163314617385 
1360	 0.471579366903672 
1361	 0.471553711462706 
1362	 0.471563052603576 
1363	 0.47154381103175 
1364	 0.471506376053179 
1365	 0.471447033482967 
1366	 0.471422308402423 
1367	 0.471404328397093 
1368	 0.471353981271677 
1369	 0.471355735534226 
1370	 0.47123773111944 
1371	 0.471010733526155 
1372	 0.470845956330618 
1373	 0.470657784187051 
1374	 0.470473570308524 
1375	 0.470295613923587 
1376	 0.470137232295058 
1377	 0.46998117679285 
1378	 0.469810653981926 
1379	 0.469664596682904 
1380	 0.469495737702225 
1381	 0.469276606031784 
1382	 0.469091826045665 
1383	 0.468951151458755 
1384	 0.468769069407007 
1385	 0.468587589820892 
1386	 0.468376850380853 
1387	 0.468092707373369 
1388	 0.467864402387147 
1389	 0.467621526377242 
1390	 0.467433802233614 
1391	 0.467315554877594 
1392	 0.467210395874018 
1393	 0.467052992505358 
1394	 0.466889758442811 
1395	 0.466720461984107 
1396	 0.46649640278559 
1397	 0.466331547244629 
1398	 0.466209291853907 
1399	 0.466051864014013 
1400	 0.46590571754173 
1401	 0.465709442469101 
1402	 0.465488449647307 
1403	 0.46526742952869 
1404	 0.465023144961564 
1405	 0.464759142857403 
1406	 0.464489043993681 
1407	 0.464201217284985 
1408	 0.463867197520484 
1409	 0.463565634181323 
1410	 0.463270919082131 
1411	 0.462975566422855 
1412	 0.462684913425498 
1413	 0.462397089420564 
1414	 0.462108980400404 
1415	 0.461827963532984 
1416	 0.461505778072432 
1417	 0.461276784526139 
1418	 0.461131292402536 
1419	 0.46094048459954 
1420	 0.460814629338459 
1421	 0.460632566185602 
1422	 0.460321607983597 
1423	 0.460126885899516 
1424	 0.460016313490721 
1425	 0.459865999110502 
1426	 0.459745707342389 
1427	 0.459585204854718 
1428	 0.459425290850268 
1429	 0.459267817788565 
1430	 0.459106213949535 
1431	 0.458979281756898 
1432	 0.458851931273134 
1433	 0.458678178926966 
1434	 0.458570728252708 
1435	 0.45854221383359 
1436	 0.458447316456025 
1437	 0.458350019346721 
1438	 0.458222687916598 
1439	 0.45804648788766 
1440	 0.45791825600195 
1441	 0.457781542366152 
1442	 0.457674662370125 
1443	 0.457605669570023 
1444	 0.457527564554718 
1445	 0.457427081154038 
1446	 0.457394844213147 
1447	 0.457391062163296 
1448	 0.457418908632052 
1449	 0.4575191505827 
1450	 0.457594463092586 
1451	 0.457676416300539 
1452	 0.457765571668733 
1453	 0.457834460493198 
1454	 0.457945069096887 
1455	 0.458125994417332 
1456	 0.45824603102418 
1457	 0.45837667873742 
1458	 0.458471813585756 
1459	 0.45845160367485 
1460	 0.458529572287911 
1461	 0.458655458559182 
1462	 0.458778908774191 
1463	 0.459004384467511 
1464	 0.459144669765301 
1465	 0.4592114348894 
1466	 0.459294248807875 
1467	 0.459381603026218 
1468	 0.459445792227969 
1469	 0.459599337794437 
1470	 0.459765504915578 
1471	 0.459904507658468 
1472	 0.46004468309862 
1473	 0.460183003091304 
1474	 0.460309987053501 
1475	 0.460440297095303 
1476	 0.460592133837608 
1477	 0.460698307200211 
1478	 0.460761627842291 
1479	 0.460861649609208 
1480	 0.460962683092549 
1481	 0.461051586586427 
1482	 0.461163888650801 
1483	 0.461240802634299 
1484	 0.461262737920435 
1485	 0.461347075803549 
1486	 0.461466927082839 
1487	 0.461548054307314 
1488	 0.461634615329144 
1489	 0.461719101946991 
1490	 0.461760692590103 
1491	 0.461846537745049 
1492	 0.461980362846997 
1493	 0.46208185654877 
1494	 0.462206029841855 
1495	 0.462272674774128 
1496	 0.462263658981622 
1497	 0.462325844026697 
1498	 0.462397362230508 
1499	 0.462458549538317 
1500	 0.462567848101872 
1501	 0.462653135198603 
1502	 0.46269897425764 
1503	 0.462753204457678 
1504	 0.462822058016486 
1505	 0.462881302498371 
1506	 0.462907320688028 
1507	 0.462972046112655 
1508	 0.463077753778538 
1509	 0.463151375473034 
1510	 0.463239793008575 
1511	 0.463300575500653 
1512	 0.463294608602768 
1513	 0.463341633260712 
1514	 0.463433808970783 
1515	 0.463484094688519 
1516	 0.463541717156447 
1517	 0.463589517464959 
1518	 0.463587510547465 
1519	 0.463603559727688 
1520	 0.463617636472155 
1521	 0.463673254212858 
1522	 0.463688517422039 
1523	 0.463702158317085 
1524	 0.463732515509139 
1525	 0.463773606063952 
1526	 0.463776815121674 
1527	 0.463769700444307 
1528	 0.46378791332672 
1529	 0.46378421669674 
1530	 0.463808918367717 
1531	 0.463896802889171 
1532	 0.463890702958041 
1533	 0.46381877204731 
1534	 0.463823745921245 
1535	 0.463823050246728 
1536	 0.463834028179036 
1537	 0.463913750846803 
1538	 0.463913578033321 
1539	 0.463862798101936 
1540	 0.46383065434662 
1541	 0.463747899652291 
1542	 0.463771869705125 
1543	 0.463858792136438 
1544	 0.463896655711513 
1545	 0.463991680927828 
1546	 0.464025513856054 
1547	 0.463988268669494 
1548	 0.463989245778432 
1549	 0.464007014684574 
1550	 0.464008789454548 
1551	 0.46398492969866 
1552	 0.463997056160957 
1553	 0.464024895299805 
1554	 0.464050710088181 
1555	 0.464097986597214 
1556	 0.464132771044737 
1557	 0.464170443941617 
1558	 0.464185439412988 
1559	 0.464191292693124 
1560	 0.464192341145898 
1561	 0.464131034256981 
1562	 0.464166634777698 
1563	 0.464283317287621 
1564	 0.464328989384254 
1565	 0.464413201822893 
1566	 0.46444001207972 
1567	 0.464352419127345 
1568	 0.464361571229395 
1569	 0.464398271225212 
1570	 0.464456443749679 
1571	 0.464598538698942 
1572	 0.464658088116936 
1573	 0.464696949211435 
1574	 0.464721186029388 
1575	 0.464682838154254 
1576	 0.464679701082954 
1577	 0.464688121789001 
1578	 0.464696303978848 
1579	 0.464713056144489 
1580	 0.464722840457628 
1581	 0.464727582367028 
1582	 0.464740683942146 
1583	 0.464759789480722 
1584	 0.464769500332344 
1585	 0.464750845426342 
1586	 0.464790029598773 
1587	 0.464835504380048 
1588	 0.464920117764175 
1589	 0.465123251615885 
1590	 0.465219571251308 
1591	 0.465297964456861 
1592	 0.465330913399772 
1593	 0.465264886727948 
1594	 0.465237451591607 
1595	 0.465190033111086 
1596	 0.46517038771432 
1597	 0.465169305229145 
1598	 0.465174109280158 
1599	 0.465197216467035 
1600	 0.465218485458601 
1601	 0.465226926239963 
1602	 0.465267582341223 
1603	 0.465397174669308 
1604	 0.465408452857449 
1605	 0.465307651119234 
1606	 0.465322340139267 
1607	 0.465340855594261 
1608	 0.465337751033443 
1609	 0.465445402459589 
1610	 0.465480833290144 
1611	 0.465404057996604 
1612	 0.465369492479041 
1613	 0.465345928976526 
1614	 0.465335423431349 
1615	 0.46531253272535 
1616	 0.465320095162731 
1617	 0.465410037723219 
1618	 0.46542028229898 
1619	 0.465420183179435 
1620	 0.46537179043522 
1621	 0.465211808218482 
1622	 0.465121730276404 
1623	 0.465016291374194 
1624	 0.464968190577037 
1625	 0.465055825495323 
1626	 0.465007792311235 
1627	 0.464869583201974 
1628	 0.464797857544119 
1629	 0.4646792622361 
1630	 0.464589408448739 
1631	 0.464564271264192 
1632	 0.464551201754596 
1633	 0.464546473780473 
1634	 0.46450473843444 
1635	 0.46450219051302 
1636	 0.464455520984157 
1637	 0.46434315793287 
1638	 0.464244938854367 
1639	 0.464095350339744 
1640	 0.464031896035634 
1641	 0.464022425995204 
1642	 0.463984850375288 
1643	 0.464024307621762 
1644	 0.463999359058811 
1645	 0.463899756414403 
1646	 0.463830627073313 
1647	 0.463752022698279 
1648	 0.463682914192375 
1649	 0.463637812574839 
1650	 0.46355693985946 
1651	 0.463450752224739 
1652	 0.463374000313231 
1653	 0.463304226835434 
1654	 0.463221219829396 
1655	 0.463166063161248 
1656	 0.463060107013868 
1657	 0.462927367962249 
1658	 0.462751054228747 
1659	 0.462502959051865 
1660	 0.462314148044554 
1661	 0.462142265546879 
1662	 0.461934200046508 
1663	 0.461761781246348 
1664	 0.461525807118668 
1665	 0.461200895552582 
1666	 0.460902728208818 
1667	 0.460610689403589 
1668	 0.460298957565907 
1669	 0.459979223798712 
1670	 0.459644648668753 
1671	 0.459309653483156 
1672	 0.45892001845274 
1673	 0.45850787210492 
1674	 0.45805204588779 
1675	 0.457539822430349 
1676	 0.457016318359799 
1677	 0.456456723541886 
1678	 0.45589756095424 
1679	 0.455317218747625 
1680	 0.454735982860488 
1681	 0.454163160223163 
1682	 0.45353538630337 
1683	 0.452886086683011 
1684	 0.452214855367382 
1685	 0.451526395423666 
1686	 0.45077204104335 
1687	 0.449967767006907 
1688	 0.44912897426361 
1689	 0.448215313624982 
1690	 0.447320730989231 
1691	 0.446431556606743 
1692	 0.445516527030184 
1693	 0.444610891566338 
1694	 0.443606987249556 
1695	 0.442518157268874 
1696	 0.441477554772656 
1697	 0.440353799195001 
1698	 0.439310167222313 
1699	 0.438369639643081 
1700	 0.437363554197647 
1701	 0.436335311677734 
1702	 0.435318607948158 
1703	 0.43425618551013 
1704	 0.43326374702036 
1705	 0.432315138094308 
1706	 0.431385357419078 
1707	 0.430488620105454 
1708	 0.429669823437313 
1709	 0.42887869007445 
1710	 0.428206876599899 
1711	 0.427702871265373 
1712	 0.427276479455909 
1713	 0.426843583151772 
1714	 0.426464257459591 
1715	 0.426047042516822 
1716	 0.425539247311628 
1717	 0.425086833691255 
1718	 0.424663108029171 
1719	 0.424253678674952 
1720	 0.423878288461355 
1721	 0.423579707376497 
1722	 0.423256956536019 
1723	 0.422932771592094 
1724	 0.422745154008122 
1725	 0.422563146262149 
1726	 0.422486363984855 
1727	 0.422491276555049 
1728	 0.422459806810047 
1729	 0.422586572748432 
1730	 0.422760929850923 
1731	 0.42302459351454 
1732	 0.423525624826962 
1733	 0.4239546551499 
1734	 0.424392537833335 
1735	 0.424867931184594 
1736	 0.425335513942433 
1737	 0.425898609683644 
1738	 0.426335849082804 
1739	 0.426656519080902 
1740	 0.426777086419987 
1741	 0.426882923939929 
1742	 0.42694616485495 
1743	 0.426995762638432 
1744	 0.427017164587809 
1745	 0.42695797480149 
1746	 0.426865707274965 
1747	 0.426749207951558 
1748	 0.426522628226654 
1749	 0.426329980089696 
1750	 0.426093840958838 
1751	 0.425920312221591 
1752	 0.425759525916207 
1753	 0.42570450655948 
1754	 0.425741180637056 
1755	 0.425794342456222 
1756	 0.425867972754858 
1757	 0.426017041839722 
1758	 0.426268294839374 
1759	 0.426546992631586 
1760	 0.426795268371958 
1761	 0.427119561168459 
1762	 0.427498251557101 
1763	 0.427915103748755 
1764	 0.428427202942809 
1765	 0.428977787960543 
1766	 0.429594101308557 
1767	 0.430292760779615 
1768	 0.431033315257509 
1769	 0.431709400544888 
1770	 0.432322239692859 
1771	 0.432911699432411 
1772	 0.433440893928458 
1773	 0.43401566265717 
1774	 0.43458381407022 
1775	 0.435077137273097 
1776	 0.435609239222755 
1777	 0.436131738517109 
1778	 0.436584778207023 
1779	 0.437018138637165 
1780	 0.437472123920775 
1781	 0.437905593065608 
1782	 0.438262328727955 
1783	 0.438523384248231 
1784	 0.438699618188539 
1785	 0.438784438150741 
1786	 0.438936398324112 
1787	 0.439129146586767 
1788	 0.439255548655414 
1789	 0.439340772558674 
1790	 0.439405533610838 
1791	 0.439443713532939 
1792	 0.439541148583739 
1793	 0.439675324849326 
1794	 0.439771428375675 
1795	 0.439817716712564 
1796	 0.439875679760221 
1797	 0.439938265128192 
1798	 0.440062720848768 
1799	 0.44023889045988 
1800	 0.440391240609063 
1801	 0.437872346308061 
1802	 0.437861345627223 
1803	 0.437938740078732 
1804	 0.438108775738783 
1805	 0.438220461626172 
1806	 0.438346389922694 
1807	 0.43851969610062 
1808	 0.438621472872626 
1809	 0.438658336999148 
1810	 0.438767724670563 
1811	 0.438879627941901 
1812	 0.438984537202428 
1813	 0.439125369569877 
1814	 0.439246349137508 
1815	 0.439375493093461 
1816	 0.439505206773474 
1817	 0.439621304889731 
1818	 0.439738931971725 
1819	 0.439872884939104 
1820	 0.440001917129699 
1821	 0.440132220540806 
1822	 0.440317739247424 
1823	 0.440407292034028 
1824	 0.440488292170612 
1825	 0.440632873226648 
1826	 0.440780885744616 
1827	 0.440957939505846 
1828	 0.441124787091774 
1829	 0.441309647378539 
1830	 0.441448455024168 
1831	 0.441520887399102 
1832	 0.441720367318959 
1833	 0.4418443085776 
1834	 0.441933549763057 
1835	 0.442100464737083 
1836	 0.442198963004109 
1837	 0.442345092645547 
1838	 0.442547303032656 
1839	 0.44269823347114 
1840	 0.442832320889566 
1841	 0.442978829510093 
1842	 0.443116461082206 
1843	 0.443221880458694 
1844	 0.443362221334994 
1845	 0.443507721118693 
1846	 0.443596523381276 
1847	 0.443724473821223 
1848	 0.443842168549683 
1849	 0.443971160125505 
1850	 0.444049845874732 
1851	 0.444103870806506 
1852	 0.444161044665106 
1853	 0.444215064596226 
1854	 0.444296149455125 
1855	 0.444375926355223 
1856	 0.444432081972347 
1857	 0.444483466079665 
1858	 0.444514042794969 
1859	 0.444537568681256 
1860	 0.444584330038575 
1861	 0.44459248683902 
1862	 0.444586632528645 
1863	 0.444529785403022 
1864	 0.444418941008961 
1865	 0.444310923399674 
1866	 0.444170118358062 
1867	 0.444025943153536 
1868	 0.44398964702615 
1869	 0.443958295119765 
1870	 0.443895379457593 
1871	 0.443873943986042 
1872	 0.443778412311334 
1873	 0.443655370712155 
1874	 0.443455579663229 
1875	 0.443226879223028 
1876	 0.442988088537276 
1877	 0.442665016392987 
1878	 0.442307285721366 
1879	 0.441824878508884 
1880	 0.44127021994968 
1881	 0.440755128693453 
1882	 0.44021600644236 
1883	 0.439661138505438 
1884	 0.439075528586353 
1885	 0.438447529662449 
1886	 0.437773123466654 
1887	 0.436946612980532 
1888	 0.436129481729709 
1889	 0.435359167055244 
1890	 0.434464241161148 
1891	 0.433617690373779 
1892	 0.432735936784334 
1893	 0.431816414249406 
1894	 0.430852562531815 
1895	 0.429930190418714 
1896	 0.428836889798015 
1897	 0.427776702331682 
1898	 0.426864440102766 
1899	 0.425875553240533 
1900	 0.424988741614412 
1901	 0.424174657671889 
1902	 0.423251706261453 
1903	 0.422396815441319 
1904	 0.421594028721385 
1905	 0.420838711276014 
1906	 0.420151965871607 
1907	 0.419523568663612 
1908	 0.418844591412442 
1909	 0.418242999446484 
1910	 0.417676508524925 
1911	 0.417102230402968 
1912	 0.416650282945941 
1913	 0.416189249573943 
1914	 0.415671492491367 
1915	 0.415214342821003 
1916	 0.414800021274195 
1917	 0.414331437019973 
1918	 0.413881784839879 
1919	 0.413523178878234 
1920	 0.413114918634334 
1921	 0.412743526945326 
1922	 0.412423221973691 
1923	 0.412116958640259 
1924	 0.411857744719852 
1925	 0.411601267650103 
1926	 0.411321106577975 
1927	 0.411020047377107 
1928	 0.410766293380607 
1929	 0.410526433558517 
1930	 0.410237633198109 
1931	 0.410020970878644 
1932	 0.409885961863504 
1933	 0.409706691423345 
1934	 0.409691026338197 
1935	 0.409771107165237 
1936	 0.409830976703279 
1937	 0.409901864262311 
1938	 0.410029567077461 
1939	 0.41009198592844 
1940	 0.410120437885626 
1941	 0.410166419190035 
1942	 0.410223191247041 
1943	 0.410315543043751 
1944	 0.410469460000016 
1945	 0.410632505242558 
1946	 0.410817251286906 
1947	 0.411125948008753 
1948	 0.411421518033479 
1949	 0.411673769611456 
1950	 0.411930322255554 
1951	 0.412131590277601 
1952	 0.412401381619728 
1953	 0.412680160576795 
1954	 0.413023063844645 
1955	 0.413395064189572 
1956	 0.41374047672635 
1957	 0.414040874898879 
1958	 0.414401282668174 
1959	 0.414688408479829 
1960	 0.415037599095324 
1961	 0.415384618074242 
1962	 0.415710461019331 
1963	 0.416010067960168 
1964	 0.416368899614919 
1965	 0.416641948761969 
1966	 0.416806178595799 
1967	 0.417084741967997 
1968	 0.417362367716183 
1969	 0.417546416779335 
1970	 0.41772359746788 
1971	 0.417921797077221 
1972	 0.418150169669969 
1973	 0.418415621414382 
1974	 0.418677559626521 
1975	 0.419016177201046 
1976	 0.419288445977056 
1977	 0.419493051660733 
1978	 0.419751868588224 
1979	 0.420039900508856 
1980	 0.420301084414019 
1981	 0.420588464708784 
1982	 0.420866340155577 
1983	 0.421069034367744 
1984	 0.421399086659273 
1985	 0.421771711508858 
1986	 0.422094552949357 
1987	 0.422469576644946 
1988	 0.422925407426719 
1989	 0.423309921254765 
1990	 0.423717657671772 
1991	 0.424060731679585 
1992	 0.424364688420666 
1993	 0.424617438084041 
1994	 0.424853800361594 
1995	 0.425136895691982 
1996	 0.425482241186216 
1997	 0.425870688231588 
1998	 0.426219738417127 
1999	 0.426576311226691 
2000	 0.426899833766063 
2001	 0.427224817286426 
2002	 0.427494612876193 
2003	 0.427704303752015 
2004	 0.427981417131834 
2005	 0.428222540198214 
2006	 0.428485958658632 
2007	 0.428812459850786 
2008	 0.429140255201711 
2009	 0.429390761163269 
2010	 0.429654360826389 
2011	 0.429880936179021 
2012	 0.430039154541502 
2013	 0.430183873574403 
2014	 0.430241486655559 
2015	 0.430399288520957 
2016	 0.430619938244807 
2017	 0.430752174866061 
2018	 0.430926255304201 
2019	 0.431016237032009 
2020	 0.430991160002098 
2021	 0.430968284354773 
2022	 0.430966466403366 
2023	 0.431027072770441 
2024	 0.431092184554766 
2025	 0.431102405195143 
2026	 0.431064148559064 
2027	 0.430961460844361 
2028	 0.430885723180433 
2029	 0.430758811784797 
2030	 0.430672005556627 
2031	 0.430628243388156 
2032	 0.430547565384932 
2033	 0.430441910210022 
2034	 0.430355953866231 
2035	 0.430259587264023 
2036	 0.430175479353884 
2037	 0.43013884607176 
2038	 0.430118036598309 
2039	 0.430036673907532 
2040	 0.429956184036625 
2041	 0.429830987993684 
2042	 0.429618356808663 
2043	 0.429462772381077 
2044	 0.429301209035683 
2045	 0.429177168828889 
2046	 0.429067474546028 
2047	 0.42899164912198 
2048	 0.428963279360726 
2049	 0.428922302418312 
2050	 0.428899994897051 
2051	 0.428888655792562 
2052	 0.428873145961303 
2053	 0.428803020953719 
2054	 0.428746305678095 
2055	 0.428680565262406 
2056	 0.428624606816453 
2057	 0.428564218176665 
2058	 0.428502238680869 
2059	 0.428439200910797 
2060	 0.428371870847222 
2061	 0.428286304270743 
2062	 0.428239522878036 
2063	 0.428266860984898 
2064	 0.42820502729273 
2065	 0.428121402221946 
2066	 0.427988295817778 
2067	 0.427875872568503 
2068	 0.427727854869164 
2069	 0.427663626510017 
2070	 0.427704031839461 
2071	 0.427664480508079 
2072	 0.427642337317808 
2073	 0.427555017813507 
2074	 0.427368718017948 
2075	 0.427280471812644 
2076	 0.427196575214843 
2077	 0.427137696036204 
2078	 0.427148511679868 
2079	 0.42714611238859 
2080	 0.427133677715317 
2081	 0.42712399735102 
2082	 0.427133338947728 
2083	 0.427184783258794 
2084	 0.427122120170495 
2085	 0.42703077805888 
2086	 0.426946397154155 
2087	 0.426794774558006 
2088	 0.426699454807499 
2089	 0.426602795212927 
2090	 0.426581874641707 
2091	 0.426627069571974 
2092	 0.426643488113309 
2093	 0.426750055231885 
2094	 0.426759359456245 
2095	 0.426633079891817 
2096	 0.426621039663774 
2097	 0.426614721953657 
2098	 0.426662919350373 
2099	 0.426815608962023 
2100	 0.426863369633369 
2101	 0.426873118083174 
2102	 0.426848017198132 
2103	 0.426772579187425 
2104	 0.426628635190229 
2105	 0.426502240134329 
2106	 0.426282882858363 
2107	 0.426189183188854 
2108	 0.426177459632624 
2109	 0.426105178585371 
2110	 0.426095944528276 
2111	 0.426015213854904 
2112	 0.425844842970261 
2113	 0.425707069675272 
2114	 0.425551649649846 
2115	 0.425426865522675 
2116	 0.425327952578616 
2117	 0.425205145956476 
2118	 0.425104680495945 
2119	 0.425063216737973 
2120	 0.424917081208585 
2121	 0.424725128203475 
2122	 0.424532838049014 
2123	 0.424235561186683 
2124	 0.424061736857982 
2125	 0.423977209822705 
2126	 0.423824050841592 
2127	 0.423706001398584 
2128	 0.423551407839603 
2129	 0.423295182359677 
2130	 0.423126447378117 
2131	 0.422995942813794 
2132	 0.42287213035583 
2133	 0.422742245554295 
2134	 0.422712542428196 
2135	 0.422665723396772 
2136	 0.422640816702629 
2137	 0.42260048505667 
2138	 0.422586634836802 
2139	 0.422528596389035 
2140	 0.422447839854882 
2141	 0.422366116721881 
2142	 0.422244458410985 
2143	 0.422177188175002 
2144	 0.422170609044862 
2145	 0.422062846783588 
2146	 0.421889453623085 
2147	 0.42181624356821 
2148	 0.421706820694448 
2149	 0.421638831530619 
2150	 0.421720352251869 
2151	 0.421709107010488 
2152	 0.421621395255562 
2153	 0.421580311808794 
2154	 0.421497040733678 
2155	 0.421374044285158 
2156	 0.421287370931634 
2157	 0.421178561953039 
2158	 0.421121861891366 
2159	 0.42114915901538 
2160	 0.421043007917682 
2161	 0.420896193847299 
2162	 0.420741159417387 
2163	 0.420508067435068 
2164	 0.420304623532096 
2165	 0.420105648613096 
2166	 0.41991686254486 
2167	 0.419734143318228 
2168	 0.419517092492232 
2169	 0.419313622936275 
2170	 0.41909432881958 
2171	 0.418842199343696 
2172	 0.418562654837026 
2173	 0.418294303713866 
2174	 0.417937817494616 
2175	 0.417647400679411 
2176	 0.417409404749332 
2177	 0.417220918913451 
2178	 0.41713292132298 
2179	 0.417017151003356 
2180	 0.416936898456906 
2181	 0.416807917769316 
2182	 0.416659513944625 
2183	 0.416544096427459 
2184	 0.41644912391551 
2185	 0.41628861735818 
2186	 0.416143598190572 
2187	 0.415960057842145 
2188	 0.415662468605365 
2189	 0.415433463048621 
2190	 0.415233086507455 
2191	 0.41502834894425 
2192	 0.414855644264433 
2193	 0.414657388426796 
2194	 0.41440191851782 
2195	 0.414224849850252 
2196	 0.414169136099199 
2197	 0.413939586655292 
2198	 0.413709234161335 
2199	 0.413568048788684 
2200	 0.413416495181914 
2201	 0.413237254153144 
2202	 0.413055793975448 
2203	 0.412950477518796 
2204	 0.412746524958166 
2205	 0.412433441572884 
2206	 0.412168277723097 
2207	 0.411918264776099 
2208	 0.411640957433144 
2209	 0.411314162785885 
2210	 0.411055123522634 
2211	 0.410782596221041 
2212	 0.410587538757553 
2213	 0.410519908244617 
2214	 0.410364667603221 
2215	 0.410282152573735 
2216	 0.41005955437232 
2217	 0.409674461537137 
2218	 0.409342366216163 
2219	 0.408928134159305 
2220	 0.408575278811776 
2221	 0.408249925001662 
2222	 0.408020428964112 
2223	 0.407672568447948 
2224	 0.407294743321331 
2225	 0.406984641146225 
2226	 0.406628261692906 
2227	 0.406208594294006 
2228	 0.405787500503643 
2229	 0.405347895649072 
2230	 0.404854150373105 
2231	 0.404278509781207 
2232	 0.403709543781345 
2233	 0.4030730838849 
2234	 0.402322102424009 
2235	 0.401520492966733 
2236	 0.400741672076835 
2237	 0.399806777041038 
2238	 0.398640531378774 
2239	 0.397589645669855 
2240	 0.396578044109014 
2241	 0.395450282336642 
2242	 0.394377080153456 
2243	 0.393109351405818 
2244	 0.391596022044007 
2245	 0.390149112000573 
2246	 0.388587664408058 
2247	 0.387069299648386 
2248	 0.385658435897936 
2249	 0.384114247563916 
2250	 0.382445573748522 
2251	 0.380879826021606 
2252	 0.379161566234243 
2253	 0.377421760762327 
2254	 0.375736739056998 
2255	 0.373962967484421 
2256	 0.372277640217854 
2257	 0.370564042049347 
2258	 0.36897699477479 
2259	 0.367487911379321 
2260	 0.366000302947931 
2261	 0.364620797916169 
2262	 0.363148663002239 
2263	 0.361557957189608 
2264	 0.360205207608794 
2265	 0.358924619632555 
2266	 0.357666133084355 
2267	 0.356672377836908 
2268	 0.355456864172919 
2269	 0.35407572356204 
2270	 0.352857506283076 
2271	 0.351678496861099 
2272	 0.350434863908268 
2273	 0.349219274812139 
2274	 0.348016907558603 
2275	 0.346739318568961 
2276	 0.345511620767565 
2277	 0.34446232707988 
2278	 0.343233928421164 
2279	 0.34184827712501 
2280	 0.340557909411265 
2281	 0.339236663480449 
2282	 0.337883866204408 
2283	 0.336532039663621 
2284	 0.335234243110537 
2285	 0.334012225714443 
2286	 0.33260919394422 
2287	 0.331086977455823 
2288	 0.329663167923184 
2289	 0.328096919316045 
2290	 0.326536256835864 
2291	 0.32513597975789 
2292	 0.323613528560956 
2293	 0.321874909821087 
2294	 0.320257562442195 
2295	 0.318799709102986 
2296	 0.317437987041583 
2297	 0.316349556145322 
2298	 0.31562426942137 
2299	 0.314762577994686 
2300	 0.313920903819912 
2301	 0.313399425501655 
2302	 0.31289389416332 
2303	 0.312790474014261 
2304	 0.313179531505894 
2305	 0.313529443033717 
2306	 0.314025893991705 
2307	 0.314653737927939 
2308	 0.315360065384725 
2309	 0.316296524748573 
2310	 0.317561221953392 
2311	 0.318766484299381 
2312	 0.32011585824828 
2313	 0.321447542168652 
2314	 0.322777171072149 
2315	 0.324151894978258 
2316	 0.325771364300451 
2317	 0.327055164425731 
2318	 0.328194514443281 
2319	 0.329220567233262 
2320	 0.330008814508457 
2321	 0.330772347805395 
2322	 0.331577919818385 
2323	 0.332119453944525 
2324	 0.332447924248957 
2325	 0.332707931348341 
2326	 0.332757367026926 
2327	 0.332746300034659 
2328	 0.332636425759149 
2329	 0.332455628648322 
2330	 0.332152994451087 
2331	 0.331857607681308 
2332	 0.331295661269782 
2333	 0.330765828070786 
2334	 0.330289003120901 
2335	 0.329485994060746 
2336	 0.328836289513761 
2337	 0.328155978725435 
2338	 0.327263679368935 
2339	 0.326282784439422 
2340	 0.325254046609669 
2341	 0.324524578903765 
2342	 0.323844107655234 
2343	 0.323235402668555 
2344	 0.322871066764721 
2345	 0.322321621560339 
2346	 0.3219469706631 
2347	 0.322094792378835 
2348	 0.322342991478788 
2349	 0.322953898170772 
2350	 0.323787275399181 
2351	 0.324577128865492 
2352	 0.325549068398188 
2353	 0.326537449783805 
2354	 0.327379799351912 
2355	 0.328157295593547 
2356	 0.328874719986448 
2357	 0.329605242600164 
2358	 0.330282925713753 
2359	 0.330979402121643 
2360	 0.33153927888227 
2361	 0.331599899046345 
2362	 0.331811259598436 
2363	 0.332023958777235 
2364	 0.331937950743951 
2365	 0.332001341651633 
2366	 0.332074335564454 
2367	 0.331955054659284 
2368	 0.331827439040743 
2369	 0.331962498884103 
2370	 0.332074011790713 
2371	 0.332039307335583 
2372	 0.332202579316948 
2373	 0.332490755300631 
2374	 0.332562958455074 
2375	 0.332422788306186 
2376	 0.332388543551356 
2377	 0.332251109974013 
2378	 0.331947380596559 
2379	 0.332000762875095 
2380	 0.33222822208854 
2381	 0.332272498920281 
2382	 0.332433780199398 
2383	 0.332899233880797 
2384	 0.332914842146794 
2385	 0.332667220790754 
2386	 0.332673099434671 
2387	 0.332560714857446 
2388	 0.332612749919051 
2389	 0.332888994613832 
2390	 0.33294872532915 
2391	 0.332919289291077 
2392	 0.33279895611555 
2393	 0.332589131537573 
2394	 0.332533552363253 
2395	 0.33235485962621 
2396	 0.332557526769017 
2397	 0.333137932676055 
2398	 0.333366558917588 
2399	 0.33367862904817 
2400	 0.333814374077359 
2401	 0.33361156575988 
2402	 0.333373645846479 
2403	 0.333608605752888 
2404	 0.333817036414258 
2405	 0.333873365564019 
2406	 0.334376491860708 
2407	 0.334285993589593 
2408	 0.333754528775188 
2409	 0.333581013728329 
2410	 0.333064238907667 
2411	 0.332963569516275 
2412	 0.333269331021033 
2413	 0.333210079854324 
2414	 0.333324710706213 
2415	 0.333302295061335 
2416	 0.333054829192718 
2417	 0.33321471111064 
2418	 0.333144619500348 
2419	 0.3329652211695 
2420	 0.333327684284219 
2421	 0.333348620556799 
2422	 0.3329453025951 
2423	 0.332820905806068 
2424	 0.332391492086324 
2425	 0.332193711140687 
2426	 0.33274746497681 
2427	 0.33296159847783 
2428	 0.333208672218169 
2429	 0.333287747907732 
2430	 0.333072798609788 
2431	 0.33338064211056 
2432	 0.333663559404705 
2433	 0.333764733754583 
2434	 0.333995098952485 
2435	 0.333865268975863 
2436	 0.333232960789248 
2437	 0.33256554684505 
2438	 0.332057782985003 
2439	 0.33157653659315 
2440	 0.33111896967381 
2441	 0.331067193252303 
2442	 0.331198293360279 
2443	 0.33101635655092 
2444	 0.330836991559163 
2445	 0.330587940577629 
2446	 0.32993733294918 
2447	 0.329661166129433 
2448	 0.329652844295791 
2449	 0.329768402414268 
2450	 0.330318298785137 
2451	 0.329903198241803 
2452	 0.329252950066112 
2453	 0.328913296133924 
2454	 0.327665527550052 
2455	 0.327304347712871 
2456	 0.327491579518178 
2457	 0.327206033769387 
2458	 0.327881311774889 
2459	 0.328359960111486 
2460	 0.328005976915698 
2461	 0.327518195393718 
2462	 0.326814660933877 
2463	 0.326084701492234 
2464	 0.325267136065985 
2465	 0.325060334880434 
2466	 0.325297460073873 
2467	 0.324792261531872 
2468	 0.325535657915447 
2469	 0.327049871413242 
2470	 0.326999679388039 
2471	 0.327339893248515 
2472	 0.326953043315252 
2473	 0.325373971949146 
2474	 0.324588827384873 
2475	 0.323594094166731 
2476	 0.323664168803174 
2477	 0.324528480852278 
2478	 0.324410288063472 
2479	 0.324440943589858 
2480	 0.324257327495654 
2481	 0.324235999162504 
2482	 0.32496183221687 
2483	 0.32561322759355 
2484	 0.324882125315333 
2485	 0.325436948403007 
2486	 0.326708708625538 
2487	 0.326288298294803 
2488	 0.326671520521631 
2489	 0.326478635968454 
2490	 0.325372446324249 
2491	 0.325860295907039 
2492	 0.325529711049788 
2493	 0.32558054042855 
2494	 0.326625301928651 
2495	 0.326494329598867 
2496	 0.32749071147108 
2497	 0.328715461092711 
2498	 0.329012695555956 
2499	 0.329765469647461 
2500	 0.329924949513764 
