Wavelength	Tablay400004.asd
350	 0.204903608789802 
351	 0.190305521475063 
352	 0.166279316302937 
353	 0.158148033782957 
354	 0.180580370056928 
355	 0.16879633658474 
356	 0.156880631058039 
357	 0.173683430756891 
358	 0.147999521332759 
359	 0.144618567713241 
360	 0.16090381783504 
361	 0.15993014209755 
362	 0.15035465354294 
363	 0.140756779486014 
364	 0.139578526857777 
365	 0.153873347266736 
366	 0.147566691692236 
367	 0.132906924597616 
368	 0.128524471838665 
369	 0.136900336968172 
370	 0.130337127809174 
371	 0.119493589548271 
372	 0.1316199392015 
373	 0.132740990003285 
374	 0.12670836505852 
375	 0.119620043804193 
376	 0.115585586485318 
377	 0.110365011949358 
378	 0.108983112969946 
379	 0.112438667636944 
380	 0.100371900801549 
381	 9.88153760368062E-02 
382	 0.106999684701946 
383	 0.107797410960372 
384	 9.96890190234132E-02 
385	 9.66980518801296E-02 
386	 0.103129306405373 
387	 0.106982432367309 
388	 9.78965258178995E-02 
389	 9.64883063559563E-02 
390	 0.114787355954469 
391	 0.1037387853978 
392	 9.35835934847328E-02 
393	 9.11244473158043E-02 
394	 8.73189723803934E-02 
395	 8.46483499303145E-02 
396	 0.084029289212941 
397	 8.56425507505218E-02 
398	 8.90305165025399E-02 
399	 9.19381366477394E-02 
400	 9.13421720973544E-02 
401	 8.57912888589392E-02 
402	 7.89382215973747E-02 
403	 7.46580904840211E-02 
404	 7.49008285365812E-02 
405	 0.079338352641471 
406	 0.080389506882142 
407	 7.75171920838215E-02 
408	 0.073430035279017 
409	 7.47686670170497E-02 
410	 7.48274118099516E-02 
411	 7.29246422422372E-02 
412	 7.07257032689156E-02 
413	 7.08584911407687E-02 
414	 7.16398784863024E-02 
415	 7.14686933091731E-02 
416	 0.069233520431994 
417	 6.65864540039827E-02 
418	 6.58238005946913E-02 
419	 6.77194531012143E-02 
420	 7.04995648798137E-02 
421	 0.067830078880417 
422	 6.36159367111051E-02 
423	 6.44208992702322E-02 
424	 6.49583161633266E-02 
425	 6.48041857893545E-02 
426	 6.38884451412642E-02 
427	 6.20951557394551E-02 
428	 6.32626646671568E-02 
429	 6.39740057667054E-02 
430	 0.061632425536737 
431	 6.03441722877652E-02 
432	 6.06110370669127E-02 
433	 6.18366643594758E-02 
434	 6.27355236046571E-02 
435	 6.20053068860367E-02 
436	 6.15019656451661E-02 
437	 0.06175893835348 
438	 6.08369196199556E-02 
439	 5.97306693946642E-02 
440	 6.01572780129241E-02 
441	 6.26268097856259E-02 
442	 6.23719101715722E-02 
443	 6.12478435838778E-02 
444	 6.03384005530131E-02 
445	 5.99598495675758E-02 
446	 6.05625475154193E-02 
447	 0.060981673217237 
448	 6.07378666342314E-02 
449	 0.061388400620061 
450	 6.13725455489582E-02 
451	 6.07844623453348E-02 
452	 6.03077537293998E-02 
453	 6.00813120876079E-02 
454	 6.01994193327865E-02 
455	 6.04178607625412E-02 
456	 6.01790162249721E-02 
457	 6.02391629008083E-02 
458	 6.03175462891128E-02 
459	 6.00755482972154E-02 
460	 5.96196280176002E-02 
461	 5.93571517976332E-02 
462	 5.91822337511117E-02 
463	 5.88026291010031E-02 
464	 5.90024360353671E-02 
465	 5.88271276835466E-02 
466	 5.82043048482679E-02 
467	 5.86294850945149E-02 
468	 5.91545716616962E-02 
469	 5.91250161027335E-02 
470	 5.83163716088868E-02 
471	 5.76769008325341E-02 
472	 5.79453985749267E-02 
473	 5.84682139641597E-02 
474	 5.77334528398354E-02 
475	 5.78967180928885E-02 
476	 5.79541429359449E-02 
477	 5.73983414978178E-02 
478	 5.78998592572391E-02 
479	 0.058006447358704 
480	 5.78349700381793E-02 
481	 5.79344864594647E-02 
482	 5.76339083511919E-02 
483	 5.76506712254138E-02 
484	 0.05799009744229 
485	 0.057803939938172 
486	 5.79656464188548E-02 
487	 5.81043254201736E-02 
488	 0.057871973525841 
489	 5.77778425500401E-02 
490	 5.78858699280552E-02 
491	 0.058244289769889 
492	 5.88221728857352E-02 
493	 5.91170590160407E-02 
494	 5.92104495984389E-02 
495	 0.059283726731382 
496	 0.059558504302882 
497	 5.97397199104713E-02 
498	 5.98288550055325E-02 
499	 5.99429510467359E-02 
500	 0.060276980259175 
501	 6.05676395997706E-02 
502	 6.08294302090897E-02 
503	 6.13008276445584E-02 
504	 6.15046383270608E-02 
505	 6.18734457403608E-02 
506	 6.26274919206094E-02 
507	 6.31589027174349E-02 
508	 0.063473042383417 
509	 6.37879834431244E-02 
510	 6.43558977377518E-02 
511	 6.48713267855917E-02 
512	 6.54067447359741E-02 
513	 6.60117313149694E-02 
514	 6.66701562879682E-02 
515	 6.71925118130331E-02 
516	 6.77528928950441E-02 
517	 6.84945305025403E-02 
518	 6.91028128170803E-02 
519	 6.98953277429425E-02 
520	 7.07907208433172E-02 
521	 0.071472109297566 
522	 7.22553269796849E-02 
523	 0.073257944718584 
524	 7.44036589645884E-02 
525	 7.53095485167064E-02 
526	 7.61760466222139E-02 
527	 7.72429265100247E-02 
528	 7.86449434410148E-02 
529	 7.98660169839758E-02 
530	 8.10584510397589E-02 
531	 8.23162628036624E-02 
532	 8.36239042232782E-02 
533	 8.51654749842621E-02 
534	 0.086760210369741 
535	 8.82736543941093E-02 
536	 8.99307717318577E-02 
537	 9.16710127535623E-02 
538	 9.34262668463929E-02 
539	 9.51528690515893E-02 
540	 0.097061371618495 
541	 9.89922878505042E-02 
542	 0.100888413357996 
543	 0.102911258271861 
544	 0.105058136221139 
545	 0.107234363484147 
546	 0.109349603110639 
547	 0.111473551995124 
548	 0.113681039570165 
549	 0.115966029847018 
550	 0.118250073958955 
551	 0.120504140109663 
552	 0.122730809840991 
553	 0.124988247908017 
554	 0.127461549787056 
555	 0.129874684676398 
556	 0.132207047760537 
557	 0.134552022529624 
558	 0.136878567972675 
559	 0.139129859108978 
560	 0.141303102740258 
561	 0.143473162679802 
562	 0.145529128653101 
563	 0.147572966887158 
564	 0.14967503835524 
565	 0.151559847209195 
566	 0.153418603120384 
567	 0.1552936112596 
568	 0.157118733713617 
569	 0.158991809658157 
570	 0.160846325650642 
571	 0.162610621261345 
572	 0.164246609004548 
573	 0.165846788808401 
574	 0.167393262384024 
575	 0.168821147594958 
576	 0.170043760014345 
577	 0.171220236241634 
578	 0.172389031710748 
579	 0.173436689686027 
580	 0.174526786113996 
581	 0.17547808556947 
582	 0.176181574175799 
583	 0.176964566721005 
584	 0.177798546861223 
585	 0.17858406376102 
586	 0.179203011293073 
587	 0.179828540256367 
588	 0.1803336265988 
589	 0.180711883291663 
590	 0.181203176561127 
591	 0.181693649003531 
592	 0.182132604964405 
593	 0.182509874452464 
594	 0.182927274002341 
595	 0.183266147927758 
596	 0.183493616777664 
597	 0.183662748858384 
598	 0.183853701822296 
599	 0.183958637414338 
600	 0.183911181435009 
601	 0.183818969731793 
602	 0.183692952390555 
603	 0.18355311292926 
604	 0.183414286574603 
605	 0.183260875338269 
606	 0.183088227174781 
607	 0.182862970666163 
608	 0.182517067584428 
609	 0.182255092747483 
610	 0.1820490997851 
611	 0.181817522420443 
612	 0.18150309116118 
613	 0.181303999629181 
614	 0.181153994389307 
615	 0.180835755577292 
616	 0.180479239461144 
617	 0.180185202856456 
618	 0.179965269291376 
619	 0.179679618236234 
620	 0.179440834791883 
621	 0.179214678806332 
622	 0.178937121195918 
623	 0.178637133490532 
624	 0.178369375107624 
625	 0.178139351789512 
626	 0.177905549157946 
627	 0.17766704443335 
628	 0.177383630053952 
629	 0.177072998071356 
630	 0.176918277885824 
631	 0.176735113921724 
632	 0.176516145642297 
633	 0.176322612268177 
634	 0.17609074600357 
635	 0.175940070991904 
636	 0.175854157789817 
637	 0.175636055101377 
638	 0.175442900679925 
639	 0.175332198141859 
640	 0.175289344383045 
641	 0.175154586909412 
642	 0.175018079951747 
643	 0.17493870767546 
644	 0.174936672659898 
645	 0.174872660407118 
646	 0.174832736053419 
647	 0.174846353902012 
648	 0.174804654942079 
649	 0.174769208200834 
650	 0.174761015678137 
651	 0.174786638040187 
652	 0.174844922572821 
653	 0.174904852738949 
654	 0.174955045446812 
655	 0.175006875034795 
656	 0.175143123167255 
657	 0.175303193920766 
658	 0.175430252939882 
659	 0.17552079044237 
660	 0.175633322505391 
661	 0.175798324739589 
662	 0.176015049351182 
663	 0.176189649626734 
664	 0.176405710679762 
665	 0.176666348963456 
666	 0.176888142419566 
667	 0.177150625444274 
668	 0.177431977167152 
669	 0.177713362040039 
670	 0.178033170090658 
671	 0.1784047979934 
672	 0.178782862843993 
673	 0.179107693140627 
674	 0.179415336489483 
675	 0.179795340070281 
676	 0.180245141236674 
677	 0.180650977094252 
678	 0.181099470877065 
679	 0.181560764695925 
680	 0.181999767909278 
681	 0.182437197965092 
682	 0.182940802092936 
683	 0.183500319908777 
684	 0.184058799366876 
685	 0.184576140486486 
686	 0.185116553944609 
687	 0.185710913118058 
688	 0.18632772612004 
689	 0.186988163447995 
690	 0.187632331293093 
691	 0.188229562959025 
692	 0.188914756307231 
693	 0.18961924434273 
694	 0.190328973012052 
695	 0.191063869462288 
696	 0.191809393489713 
697	 0.192558580410347 
698	 0.193312666769055 
699	 0.194084125480034 
700	 0.194886844784397 
701	 0.195727024011133 
702	 0.196589383861065 
703	 0.197389368309067 
704	 0.198189903982397 
705	 0.199048953901088 
706	 0.199996869542058 
707	 0.200875648496102 
708	 0.201700041392634 
709	 0.202536390258056 
710	 0.203490541162703 
711	 0.204474490400929 
712	 0.205436511123224 
713	 0.206349496341055 
714	 0.207229401160778 
715	 0.208157738297345 
716	 0.209130536424485 
717	 0.210082325356782 
718	 0.211022838468277 
719	 0.21197128542578 
720	 0.212927386860341 
721	 0.213850741378484 
722	 0.214858507511783 
723	 0.215843506895662 
724	 0.216714649801231 
725	 0.217734562545429 
726	 0.218719515244592 
727	 0.219618201701861 
728	 0.220490426719921 
729	 0.221438063088556 
730	 0.222334475556197 
731	 0.223142361898763 
732	 0.224020969165498 
733	 0.224909664915637 
734	 0.225786541117929 
735	 0.226639329877694 
736	 0.227465869394473 
737	 0.228202854871504 
738	 0.228889149478593 
739	 0.229618284556151 
740	 0.230333536886099 
741	 0.230997811921072 
742	 0.231601774893115 
743	 0.232173825968392 
744	 0.232748452077297 
745	 0.233281769400216 
746	 0.23374503670814 
747	 0.23423463850011 
748	 0.234711195010904 
749	 0.235146683768018 
750	 0.235527835663379 
751	 0.23589667578257 
752	 0.236241913673327 
753	 0.236554531408685 
754	 0.236836441800215 
755	 0.237122224420822 
756	 0.237350533532317 
757	 0.237485249776884 
758	 0.237619224187716 
759	 0.237761412649078 
760	 0.237863626036048 
761	 0.237875516761965 
762	 0.237931982984904 
763	 0.237940803611024 
764	 0.23786601886883 
765	 0.237751811240513 
766	 0.237648489682577 
767	 0.237515543747721 
768	 0.237323785086094 
769	 0.237114775133113 
770	 0.236870379237352 
771	 0.236600609423938 
772	 0.236322177478023 
773	 0.236040623237794 
774	 0.235696900694359 
775	 0.235295618599501 
776	 0.234891721528242 
777	 0.23445707721612 
778	 0.234028978135869 
779	 0.233598875268134 
780	 0.233068568643494 
781	 0.232554967707502 
782	 0.232039905014856 
783	 0.231480261687764 
784	 0.230891118613329 
785	 0.230287899832393 
786	 0.229666639904562 
787	 0.229015651395945 
788	 0.228346492480245 
789	 0.227682868176989 
790	 0.227011299367607 
791	 0.226277454038848 
792	 0.225564265048002 
793	 0.224886947639815 
794	 0.224225360169376 
795	 0.223518010461897 
796	 0.222777916280725 
797	 0.222036947606784 
798	 0.221315995015272 
799	 0.220532794540621 
800	 0.219784736460196 
801	 0.219065457821026 
802	 0.218297591181453 
803	 0.217611275364832 
804	 0.216881439087979 
805	 0.216077352763333 
806	 0.215354666294735 
807	 0.214575985421883 
808	 0.213787751609296 
809	 0.213045748635039 
810	 0.212294526949756 
811	 0.211568364236958 
812	 0.210833691478633 
813	 0.210049778284382 
814	 0.209314700219743 
815	 0.208560931192275 
816	 0.207786265958618 
817	 0.207047966924507 
818	 0.206277875514202 
819	 0.205528675865128 
820	 0.204828708808265 
821	 0.204138990946771 
822	 0.203394257722669 
823	 0.202619510186511 
824	 0.201860912368136 
825	 0.201138808142395 
826	 0.200434585528531 
827	 0.199741455222204 
828	 0.199053426554531 
829	 0.198335251143236 
830	 0.197624179777438 
831	 0.196939132331072 
832	 0.196272367449962 
833	 0.19555544996043 
834	 0.194853356841143 
835	 0.194203300030034 
836	 0.193566633657622 
837	 0.192980316084548 
838	 0.19239489823773 
839	 0.191768995579511 
840	 0.191136933670232 
841	 0.190552783954933 
842	 0.189967949757677 
843	 0.189330778144307 
844	 0.188807191932114 
845	 0.188238428191719 
846	 0.187640940088088 
847	 0.187150132826898 
848	 0.186668896755147 
849	 0.186153143178911 
850	 0.185618375751032 
851	 0.18514355541922 
852	 0.184704791237434 
853	 0.184257558220821 
854	 0.183798473023325 
855	 0.183424819388486 
856	 0.182994639450872 
857	 0.182564397149889 
858	 0.182203531990864 
859	 0.181787508504333 
860	 0.181372451675813 
861	 0.180964384646434 
862	 0.180552361731417 
863	 0.180184068773527 
864	 0.179822493416732 
865	 0.179483857786255 
866	 0.179217448800772 
867	 0.178886686839269 
868	 0.178522441840501 
869	 0.17816015270292 
870	 0.177807156306446 
871	 0.177502053623678 
872	 0.177259420568058 
873	 0.177047191141654 
874	 0.176749504887062 
875	 0.176464121346323 
876	 0.176211041940422 
877	 0.175976841534487 
878	 0.17572451004199 
879	 0.175491917765106 
880	 0.175251141130937 
881	 0.174972049792335 
882	 0.174796474447649 
883	 0.174573386166955 
884	 0.174324234510952 
885	 0.174188526085267 
886	 0.174023131668378 
887	 0.173897590008386 
888	 0.173790996275493 
889	 0.173572397857914 
890	 0.173467252647264 
891	 0.173321810411528 
892	 0.173093235465473 
893	 0.173034967513445 
894	 0.172943385654221 
895	 0.172833160818236 
896	 0.172757596782168 
897	 0.172728465169726 
898	 0.172668856550634 
899	 0.17260611743472 
900	 0.17258715328919 
901	 0.172585467138165 
902	 0.172562745010908 
903	 0.172514034494304 
904	 0.172459076782534 
905	 0.1724184930117 
906	 0.172521985990715 
907	 0.172665282569724 
908	 0.172628662919983 
909	 0.172679844409087 
910	 0.172796128646768 
911	 0.172884499187919 
912	 0.172843800099056 
913	 0.172945336804176 
914	 0.173071909776385 
915	 0.173159787152164 
916	 0.173295866807088 
917	 0.173349011950439 
918	 0.173412790260776 
919	 0.173545913691636 
920	 0.173659834801823 
921	 0.173675038113355 
922	 0.173758146434608 
923	 0.173986814033837 
924	 0.174041950318146 
925	 0.174245591986743 
926	 0.174438136708844 
927	 0.174450175516661 
928	 0.174609781663365 
929	 0.17486185787652 
930	 0.175088372894652 
931	 0.175186465984038 
932	 0.175231741159578 
933	 0.175437036447091 
934	 0.175674572726002 
935	 0.175717622420957 
936	 0.17590045001088 
937	 0.176101851283564 
938	 0.176292043143206 
939	 0.176510795595577 
940	 0.176700104921859 
941	 0.176890045595813 
942	 0.177093627742491 
943	 0.177309379182478 
944	 0.177605759846493 
945	 0.177891181797035 
946	 0.178121272960101 
947	 0.178322919407327 
948	 0.178493685507309 
949	 0.178654320805014 
950	 0.178854852263338 
951	 0.179164745170995 
952	 0.179510096722435 
953	 0.179766726395011 
954	 0.179942624887591 
955	 0.180235764371154 
956	 0.180569981181862 
957	 0.180833355188926 
958	 0.181028035312895 
959	 0.181353628656626 
960	 0.181730872491293 
961	 0.182084066800145 
962	 0.182383324190138 
963	 0.182690261499608 
964	 0.183006740271591 
965	 0.18339668753878 
966	 0.183841120231289 
967	 0.184115086918499 
968	 0.18446921447607 
969	 0.184858964462724 
970	 0.185229201543537 
971	 0.185726035120122 
972	 0.186090937384058 
973	 0.18640213498604 
974	 0.186800981621383 
975	 0.187287124960138 
976	 0.187830506229166 
977	 0.188263417102351 
978	 0.188513451291012 
979	 0.188892445699766 
980	 0.18939522393321 
981	 0.189899667245172 
982	 0.190297614098408 
983	 0.190691344605701 
984	 0.191026467311583 
985	 0.191398695295596 
986	 0.191904019302302 
987	 0.192487964170435 
988	 0.192923654588985 
989	 0.19328654384205 
990	 0.193711694842258 
991	 0.194102246016922 
992	 0.194510983135206 
993	 0.19500023869513 
994	 0.195578945769547 
995	 0.196093755389907 
996	 0.196529665364203 
997	 0.196959779902962 
998	 0.197447726381362 
999	 0.197917151576181 
1000	 0.198218680439706 
1001	 0.190459220944064 
1002	 0.190793644126422 
1003	 0.191085842967352 
1004	 0.191499061445096 
1005	 0.192032868684512 
1006	 0.192478101075502 
1007	 0.192948764306254 
1008	 0.193384405439309 
1009	 0.193776613435705 
1010	 0.194184188837238 
1011	 0.194541242909996 
1012	 0.194966226698114 
1013	 0.195405884709977 
1014	 0.195887664250956 
1015	 0.196448605566171 
1016	 0.197011994220416 
1017	 0.197460562129896 
1018	 0.197894978384726 
1019	 0.198351400916843 
1020	 0.198825599973663 
1021	 0.199348770475238 
1022	 0.199968740564741 
1023	 0.200549524016702 
1024	 0.201090288405451 
1025	 0.201712339016912 
1026	 0.202423343100187 
1027	 0.203074074929694 
1028	 0.203752271969 
1029	 0.204398090535678 
1030	 0.204976938637757 
1031	 0.20553052099572 
1032	 0.206132077845171 
1033	 0.206745681402081 
1034	 0.207414715952497 
1035	 0.208124127821634 
1036	 0.208797822572421 
1037	 0.209467557756203 
1038	 0.210172041186639 
1039	 0.210869477086521 
1040	 0.211570596612819 
1041	 0.212342151685214 
1042	 0.213041900793934 
1043	 0.213669211646747 
1044	 0.21434459333157 
1045	 0.215125209399187 
1046	 0.215879135394631 
1047	 0.216646826939495 
1048	 0.217462768608127 
1049	 0.218148547625496 
1050	 0.218860920574122 
1051	 0.219619266023906 
1052	 0.220261344698982 
1053	 0.220952079342913 
1054	 0.22165142253575 
1055	 0.222334291500819 
1056	 0.223006815234652 
1057	 0.223711344142086 
1058	 0.224420205551548 
1059	 0.225115380304812 
1060	 0.225843381297132 
1061	 0.226666149051302 
1062	 0.227475875908353 
1063	 0.228213164816319 
1064	 0.228913564576875 
1065	 0.229572255867676 
1066	 0.230238061457435 
1067	 0.23092179577621 
1068	 0.231680664604735 
1069	 0.2324276881392 
1070	 0.233121695133006 
1071	 0.233763053181318 
1072	 0.234469561525778 
1073	 0.235198783904169 
1074	 0.235915925042695 
1075	 0.236664185923321 
1076	 0.237434114289845 
1077	 0.238181141069567 
1078	 0.238938738561124 
1079	 0.239786126740126 
1080	 0.240589216603375 
1081	 0.241283978807963 
1082	 0.241974852743887 
1083	 0.242696019759585 
1084	 0.243480225870282 
1085	 0.244321482016383 
1086	 0.245149739984927 
1087	 0.246010051332127 
1088	 0.246866603850974 
1089	 0.247652874402825 
1090	 0.248434532074981 
1091	 0.249277753791154 
1092	 0.250062741269003 
1093	 0.250893368032419 
1094	 0.251774484616886 
1095	 0.252605110352674 
1096	 0.253482226980789 
1097	 0.254363042504004 
1098	 0.255234248235262 
1099	 0.256170476599903 
1100	 0.257049848448118 
1101	 0.257919454387783 
1102	 0.258869044098811 
1103	 0.259808624251289 
1104	 0.260729397703763 
1105	 0.261720894591475 
1106	 0.262740726303579 
1107	 0.263680136755077 
1108	 0.264667699977026 
1109	 0.265655561515608 
1110	 0.266627459692298 
1111	 0.267650915725481 
1112	 0.268621290170071 
1113	 0.269649352467207 
1114	 0.270735310970365 
1115	 0.271746442705287 
1116	 0.272790653483805 
1117	 0.2737530678437 
1118	 0.274735713883964 
1119	 0.275699285806559 
1120	 0.276712268176832 
1121	 0.277718029014569 
1122	 0.278796039585899 
1123	 0.279941581181649 
1124	 0.280953143754481 
1125	 0.282003211522811 
1126	 0.283051864516882 
1127	 0.284087942871267 
1128	 0.28521639256837 
1129	 0.286282737106729 
1130	 0.287376246285647 
1131	 0.288509152383605 
1132	 0.289536401225922 
1133	 0.290589068559134 
1134	 0.291649148111033 
1135	 0.292671510347078 
1136	 0.293608809184143 
1137	 0.294618652984535 
1138	 0.295666170781468 
1139	 0.296696144926797 
1140	 0.297746363519524 
1141	 0.298747969461622 
1142	 0.299788150267816 
1143	 0.30075341019806 
1144	 0.301695423237479 
1145	 0.302702533619864 
1146	 0.303615592132452 
1147	 0.304570102721989 
1148	 0.305562395909646 
1149	 0.306472152678064 
1150	 0.307423607418332 
1151	 0.30836022218789 
1152	 0.309273459688092 
1153	 0.310172272312003 
1154	 0.311064824034558 
1155	 0.311934824750161 
1156	 0.312811261442837 
1157	 0.313684661857921 
1158	 0.314535102272319 
1159	 0.315387908202754 
1160	 0.31620220868482 
1161	 0.317008049124292 
1162	 0.317872978235312 
1163	 0.318688167815496 
1164	 0.319474972016303 
1165	 0.320216064106101 
1166	 0.320906932990546 
1167	 0.321652805361082 
1168	 0.322404589317336 
1169	 0.323152797256107 
1170	 0.32395991580031 
1171	 0.324686621235989 
1172	 0.325360726780763 
1173	 0.326044292464562 
1174	 0.326688934452643 
1175	 0.327334884550345 
1176	 0.327996888434917 
1177	 0.32863294513934 
1178	 0.329236223256725 
1179	 0.329875290827488 
1180	 0.330472555514592 
1181	 0.331040130484887 
1182	 0.33162955001848 
1183	 0.332175531790805 
1184	 0.332734553561248 
1185	 0.333282313199367 
1186	 0.333819422380998 
1187	 0.334355028302723 
1188	 0.334869511637702 
1189	 0.335358793807273 
1190	 0.335861893209575 
1191	 0.336351208896511 
1192	 0.336832269689533 
1193	 0.337327772231281 
1194	 0.33780420311215 
1195	 0.338243468121601 
1196	 0.338717075048781 
1197	 0.339201601372168 
1198	 0.339694679310807 
1199	 0.34017697284456 
1200	 0.340639335829098 
1201	 0.34113172156675 
1202	 0.341579304200258 
1203	 0.342013880702956 
1204	 0.3425061548613 
1205	 0.342973767871877 
1206	 0.343401532681531 
1207	 0.343895880358499 
1208	 0.344427815547426 
1209	 0.344951510036831 
1210	 0.34548771542841 
1211	 0.346044436604839 
1212	 0.346627478902648 
1213	 0.347204710140254 
1214	 0.347781761779877 
1215	 0.3483985676297 
1216	 0.349057248098176 
1217	 0.349662331690254 
1218	 0.350266888992892 
1219	 0.350876846702907 
1220	 0.351453290949009 
1221	 0.352059617300833 
1222	 0.352688310999269 
1223	 0.353368195558605 
1224	 0.354002852697872 
1225	 0.354625871140869 
1226	 0.355223383815107 
1227	 0.355810106920332 
1228	 0.356368455347033 
1229	 0.356900484224517 
1230	 0.357429724952695 
1231	 0.357935700276185 
1232	 0.358448521454187 
1233	 0.358975251162215 
1234	 0.359449769790772 
1235	 0.359900346519901 
1236	 0.360339515708005 
1237	 0.360744948960005 
1238	 0.361136154779443 
1239	 0.361494577145346 
1240	 0.361881015782756 
1241	 0.362280094914945 
1242	 0.362605998805169 
1243	 0.362976132148412 
1244	 0.36337114802529 
1245	 0.363744121989631 
1246	 0.364107032731745 
1247	 0.364476868908273 
1248	 0.364837624265762 
1249	 0.365222916566975 
1250	 0.365624430945556 
1251	 0.366010579815687 
1252	 0.366398215832921 
1253	 0.3667979347939 
1254	 0.367206912229961 
1255	 0.367599821334706 
1256	 0.367991791863933 
1257	 0.368396172488849 
1258	 0.368782241550742 
1259	 0.369180603276392 
1260	 0.369613294138371 
1261	 0.370030970374927 
1262	 0.370417785168256 
1263	 0.370855445956505 
1264	 0.371253776570394 
1265	 0.371654326074617 
1266	 0.372024716056909 
1267	 0.372373696483458 
1268	 0.37270828483199 
1269	 0.373025857554203 
1270	 0.373330281769204 
1271	 0.373621818898507 
1272	 0.373892856091204 
1273	 0.374146172249155 
1274	 0.374381461294683 
1275	 0.374617242466774 
1276	 0.374796297148521 
1277	 0.374930297162229 
1278	 0.375057167445526 
1279	 0.375120170664665 
1280	 0.375211958216336 
1281	 0.37533439270659 
1282	 0.375416008467207 
1283	 0.375483186918805 
1284	 0.375537261295859 
1285	 0.375572090345008 
1286	 0.375575898114762 
1287	 0.375575518548667 
1288	 0.375563855194031 
1289	 0.375550908964903 
1290	 0.375519481239416 
1291	 0.375493163107425 
1292	 0.375490676316389 
1293	 0.375431684305979 
1294	 0.375324250884702 
1295	 0.375254796580094 
1296	 0.375154145408345 
1297	 0.375097003402544 
1298	 0.375089591070904 
1299	 0.375061733565424 
1300	 0.37504525620612 
1301	 0.375013777490135 
1302	 0.374975318714382 
1303	 0.374934995822438 
1304	 0.374873805187509 
1305	 0.374832773112682 
1306	 0.374768401589654 
1307	 0.374759522205266 
1308	 0.374799339437679 
1309	 0.374840052404987 
1310	 0.374884146760965 
1311	 0.374969692283814 
1312	 0.375013926291117 
1313	 0.375015987671623 
1314	 0.375083380985746 
1315	 0.375163504306414 
1316	 0.375268339254201 
1317	 0.375430945999269 
1318	 0.375546626511279 
1319	 0.375644915778188 
1320	 0.37576670966053 
1321	 0.375873087950005 
1322	 0.376009174817053 
1323	 0.376165408583745 
1324	 0.376340938074557 
1325	 0.376544614738667 
1326	 0.376736914383679 
1327	 0.376943964419974 
1328	 0.377151345861071 
1329	 0.377351629919767 
1330	 0.377554000568103 
1331	 0.377762568391488 
1332	 0.377975244121235 
1333	 0.378174605803461 
1334	 0.378401532386513 
1335	 0.378616920773674 
1336	 0.378836203525046 
1337	 0.379067971462646 
1338	 0.379305336259317 
1339	 0.379531780282448 
1340	 0.37977320613207 
1341	 0.379990035166075 
1342	 0.380189433551208 
1343	 0.380388039728682 
1344	 0.380581986657853 
1345	 0.3807693369056 
1346	 0.380932436064841 
1347	 0.381123783822744 
1348	 0.381349422610566 
1349	 0.381523345661385 
1350	 0.381695823374043 
1351	 0.381844076144555 
1352	 0.381936957706959 
1353	 0.382052911597267 
1354	 0.382181056630285 
1355	 0.382292341027713 
1356	 0.382384648495287 
1357	 0.382490641845565 
1358	 0.382598588914682 
1359	 0.382701962952347 
1360	 0.382810493913446 
1361	 0.38292252573532 
1362	 0.383011671812073 
1363	 0.383110251051893 
1364	 0.383210060737045 
1365	 0.383318875896027 
1366	 0.383406063651526 
1367	 0.383493452942518 
1368	 0.383558498478961 
1369	 0.383597172352271 
1370	 0.383650525561062 
1371	 0.383706037209142 
1372	 0.383742862523499 
1373	 0.383795961431865 
1374	 0.383796165630456 
1375	 0.383775387087871 
1376	 0.383712860641514 
1377	 0.383607768820551 
1378	 0.383484596366422 
1379	 0.383313113793307 
1380	 0.383151486402667 
1381	 0.382980916385954 
1382	 0.382796454225884 
1383	 0.382581035495358 
1384	 0.382396213929959 
1385	 0.382224374975986 
1386	 0.382036290479636 
1387	 0.381873876297246 
1388	 0.381688406714213 
1389	 0.381477453178318 
1390	 0.381258507611342 
1391	 0.381035947809237 
1392	 0.38079240725292 
1393	 0.38054474762952 
1394	 0.380303337302523 
1395	 0.380058544896112 
1396	 0.379812642650139 
1397	 0.379579091908086 
1398	 0.379339838707318 
1399	 0.379124368452759 
1400	 0.378935980747642 
1401	 0.378725611274895 
1402	 0.378548899413552 
1403	 0.378287836536742 
1404	 0.378014966362411 
1405	 0.377660468536062 
1406	 0.377258232674501 
1407	 0.376772418212665 
1408	 0.376207303267993 
1409	 0.375600444344291 
1410	 0.374890327843899 
1411	 0.374202049777857 
1412	 0.373464562434362 
1413	 0.372768263244771 
1414	 0.37204061266279 
1415	 0.371389692173557 
1416	 0.370727222901796 
1417	 0.370189343905592 
1418	 0.369730596405853 
1419	 0.36934819839848 
1420	 0.369100471373843 
1421	 0.368856737501727 
1422	 0.368709893465505 
1423	 0.368519738196846 
1424	 0.368351093763247 
1425	 0.368147235649617 
1426	 0.367936111283779 
1427	 0.367671112968832 
1428	 0.367330649814426 
1429	 0.366991061077698 
1430	 0.36658853711052 
1431	 0.366107509203123 
1432	 0.365648905112458 
1433	 0.365168893854983 
1434	 0.364682429807811 
1435	 0.364155754012825 
1436	 0.363695303977252 
1437	 0.363242596201295 
1438	 0.362828190857818 
1439	 0.36246864223101 
1440	 0.362097551346661 
1441	 0.361729259700893 
1442	 0.361383102338938 
1443	 0.361036915019829 
1444	 0.360744114552107 
1445	 0.360440648521214 
1446	 0.360255338125153 
1447	 0.360090992791112 
1448	 0.360089232394595 
1449	 0.360194868000219 
1450	 0.360423574517198 
1451	 0.360805982311908 
1452	 0.361253999592155 
1453	 0.36186201062585 
1454	 0.362446839759705 
1455	 0.363151156281631 
1456	 0.363765367909509 
1457	 0.364357645282024 
1458	 0.364925586164782 
1459	 0.365414697205387 
1460	 0.365949900285369 
1461	 0.366476716465332 
1462	 0.367035486811534 
1463	 0.367598279550186 
1464	 0.368221078747308 
1465	 0.368891915181491 
1466	 0.369602634823922 
1467	 0.370315494227989 
1468	 0.371018406376409 
1469	 0.371670216596579 
1470	 0.372238983125343 
1471	 0.372787783087935 
1472	 0.373292296061598 
1473	 0.373782691078502 
1474	 0.374238454323429 
1475	 0.374669427409907 
1476	 0.37507744119394 
1477	 0.375461360271208 
1478	 0.375810754875568 
1479	 0.376139054600511 
1480	 0.376443405973929 
1481	 0.376738469905911 
1482	 0.377005614327289 
1483	 0.377265654880486 
1484	 0.377524217070687 
1485	 0.377757124323629 
1486	 0.377950665528601 
1487	 0.378167018490463 
1488	 0.378367588625065 
1489	 0.378593646649345 
1490	 0.378831404763416 
1491	 0.379086361855522 
1492	 0.379351139408542 
1493	 0.379639470985932 
1494	 0.379944867696585 
1495	 0.380271033067878 
1496	 0.380615527357325 
1497	 0.38098318655701 
1498	 0.381386673925873 
1499	 0.381785050951786 
1500	 0.38221680933797 
1501	 0.38262055019983 
1502	 0.383012080264403 
1503	 0.383397975497941 
1504	 0.383783200972057 
1505	 0.384142015800812 
1506	 0.384504408103848 
1507	 0.384824856184057 
1508	 0.385092214305641 
1509	 0.385367488791273 
1510	 0.385629644976937 
1511	 0.385870481067648 
1512	 0.386109364772791 
1513	 0.386324386140854 
1514	 0.386490818566238 
1515	 0.38667514344416 
1516	 0.386854507529835 
1517	 0.387035204596618 
1518	 0.387217586144085 
1519	 0.387407087810407 
1520	 0.387609319134403 
1521	 0.387803464163348 
1522	 0.387967377674204 
1523	 0.388116257206555 
1524	 0.388263849780944 
1525	 0.388379648646365 
1526	 0.38850854579208 
1527	 0.388650449744743 
1528	 0.388777234357683 
1529	 0.388888379526166 
1530	 0.388999832207826 
1531	 0.389118584469035 
1532	 0.389212814075631 
1533	 0.389281510400313 
1534	 0.389373128561992 
1535	 0.38946381141745 
1536	 0.389554770039922 
1537	 0.389651554049836 
1538	 0.389753497952377 
1539	 0.389845729900997 
1540	 0.389964861750019 
1541	 0.390092229151533 
1542	 0.390253322490611 
1543	 0.39042962930132 
1544	 0.390638870469701 
1545	 0.390889450743986 
1546	 0.391139798173043 
1547	 0.391403324548386 
1548	 0.391693457593498 
1549	 0.3920105051561 
1550	 0.392321440668005 
1551	 0.392653234918529 
1552	 0.392982156195449 
1553	 0.393299147116625 
1554	 0.393641843260792 
1555	 0.393997014911917 
1556	 0.394372794322787 
1557	 0.394783297758756 
1558	 0.395164318978015 
1559	 0.395557949733278 
1560	 0.39592955906716 
1561	 0.396281198532963 
1562	 0.396620768364269 
1563	 0.396937873427092 
1564	 0.397275638806708 
1565	 0.397613836681475 
1566	 0.397938883457787 
1567	 0.398285139068044 
1568	 0.398597511872467 
1569	 0.398881491013196 
1570	 0.399154147119847 
1571	 0.399396673984303 
1572	 0.399661944724351 
1573	 0.399919132813555 
1574	 0.400183267483051 
1575	 0.400473328696393 
1576	 0.400743305686322 
1577	 0.401012273399379 
1578	 0.401255504311908 
1579	 0.401475760826314 
1580	 0.401702043411259 
1581	 0.401896352936791 
1582	 0.402121127051058 
1583	 0.402368655014566 
1584	 0.402611850634266 
1585	 0.402870171484284 
1586	 0.403116225129208 
1587	 0.403365262906729 
1588	 0.403596286189015 
1589	 0.403802473686057 
1590	 0.404027174417455 
1591	 0.404249209509146 
1592	 0.404476077466614 
1593	 0.404723235584358 
1594	 0.404955604001679 
1595	 0.405181818750606 
1596	 0.405399309762319 
1597	 0.405597720068874 
1598	 0.405815126973177 
1599	 0.406048289933028 
1600	 0.406258858106254 
1601	 0.406474220022325 
1602	 0.40667587487258 
1603	 0.406851180050675 
1604	 0.407026828777429 
1605	 0.4071923625556 
1606	 0.407369318574171 
1607	 0.407547240452892 
1608	 0.407722044987325 
1609	 0.407912466402355 
1610	 0.408086446982656 
1611	 0.408255062423943 
1612	 0.408403098629852 
1613	 0.408537757823889 
1614	 0.408662816920168 
1615	 0.408752345776699 
1616	 0.408863971861439 
1617	 0.408994879044582 
1618	 0.409100484467977 
1619	 0.409205688021734 
1620	 0.409297976586065 
1621	 0.409370085935287 
1622	 0.409430397907321 
1623	 0.409475273790751 
1624	 0.409525772700127 
1625	 0.409550459399143 
1626	 0.409602293966578 
1627	 0.409700799483682 
1628	 0.40975182533639 
1629	 0.409785643557739 
1630	 0.409817232880884 
1631	 0.409790618626624 
1632	 0.409817307451263 
1633	 0.409886225928165 
1634	 0.409942039531958 
1635	 0.410015339798396 
1636	 0.410084442760698 
1637	 0.410145643531722 
1638	 0.410212483178779 
1639	 0.41030864093466 
1640	 0.410364485004557 
1641	 0.410396507245601 
1642	 0.410424465899955 
1643	 0.410408165114934 
1644	 0.410423842216358 
1645	 0.410471118867238 
1646	 0.410488744931897 
1647	 0.410520191820641 
1648	 0.410518018705472 
1649	 0.410474520395465 
1650	 0.410435099034308 
1651	 0.410386515990319 
1652	 0.410320210643334 
1653	 0.410253403554582 
1654	 0.410157718616442 
1655	 0.410040422972408 
1656	 0.409898806685837 
1657	 0.409731711594825 
1658	 0.409548955640434 
1659	 0.409338656276719 
1660	 0.409112594313491 
1661	 0.408885325825104 
1662	 0.408615818980545 
1663	 0.408312378137318 
1664	 0.40799419239328 
1665	 0.407663310667206 
1666	 0.407264861666198 
1667	 0.406834285432205 
1668	 0.406356515118117 
1669	 0.405830416092282 
1670	 0.405248190066534 
1671	 0.40459785253022 
1672	 0.403934522578233 
1673	 0.403229321511723 
1674	 0.402473370556096 
1675	 0.401715044401778 
1676	 0.400884167860066 
1677	 0.399961238397795 
1678	 0.399032412727445 
1679	 0.398072549451723 
1680	 0.397058714267171 
1681	 0.396022463288948 
1682	 0.394912990701438 
1683	 0.393737157299681 
1684	 0.392528836937367 
1685	 0.391258460363468 
1686	 0.389961798691658 
1687	 0.388613806963317 
1688	 0.387247989061247 
1689	 0.385865382817973 
1690	 0.384409707941161 
1691	 0.382906723266985 
1692	 0.381407617655053 
1693	 0.379870020940244 
1694	 0.378301833742577 
1695	 0.376737789493539 
1696	 0.375065819978086 
1697	 0.373278785807597 
1698	 0.371532244192377 
1699	 0.369763058842163 
1700	 0.368022450521899 
1701	 0.366293633785539 
1702	 0.364576737229111 
1703	 0.362795408686382 
1704	 0.36114938656763 
1705	 0.359535264243308 
1706	 0.358022338978975 
1707	 0.35673625299442 
1708	 0.355476660395559 
1709	 0.354290022262503 
1710	 0.353221592490051 
1711	 0.352172192536951 
1712	 0.351277737846594 
1713	 0.350430510736797 
1714	 0.349554871107641 
1715	 0.348770852970856 
1716	 0.347977270239442 
1717	 0.347215510736257 
1718	 0.346546481127345 
1719	 0.345872585289726 
1720	 0.345232343430707 
1721	 0.344653771443713 
1722	 0.344124642566862 
1723	 0.343687895730013 
1724	 0.34331885231179 
1725	 0.343057174224118 
1726	 0.342924459811379 
1727	 0.34288547540854 
1728	 0.342950170984821 
1729	 0.343163362282242 
1730	 0.343537682440622 
1731	 0.344032264928211 
1732	 0.344717062166666 
1733	 0.34546055251569 
1734	 0.346226131988096 
1735	 0.347047730307433 
1736	 0.347805261800718 
1737	 0.34852076030536 
1738	 0.349193717236501 
1739	 0.349721994071966 
1740	 0.350187484584138 
1741	 0.350500916540125 
1742	 0.350650130794075 
1743	 0.35073305886986 
1744	 0.350664516238028 
1745	 0.350575597805108 
1746	 0.350363875909403 
1747	 0.350225981122598 
1748	 0.350064950891906 
1749	 0.349963617623801 
1750	 0.349909034893974 
1751	 0.349870419414623 
1752	 0.349825654569053 
1753	 0.349891367860317 
1754	 0.350003527809365 
1755	 0.350198561113338 
1756	 0.350476798986014 
1757	 0.35080964776331 
1758	 0.351265552013013 
1759	 0.351776887410528 
1760	 0.352398246544563 
1761	 0.353119515119527 
1762	 0.353862069361814 
1763	 0.354779781247904 
1764	 0.355773456751752 
1765	 0.356764971868394 
1766	 0.357925861759092 
1767	 0.359083419666531 
1768	 0.360254863242099 
1769	 0.361502526421437 
1770	 0.362614652872155 
1771	 0.363721449703869 
1772	 0.364834603742673 
1773	 0.365871943521061 
1774	 0.36694150174916 
1775	 0.367924900893264 
1776	 0.368782743209484 
1777	 0.369611363922659 
1778	 0.370377262760021 
1779	 0.371093259348544 
1780	 0.371823022805617 
1781	 0.372501160032732 
1782	 0.373130035245207 
1783	 0.373718572059618 
1784	 0.374251033048392 
1785	 0.37472934287218 
1786	 0.375183575795011 
1787	 0.375599591244349 
1788	 0.376033234424355 
1789	 0.376463753955042 
1790	 0.376873840422138 
1791	 0.377300408084639 
1792	 0.377685270980866 
1793	 0.378008255811762 
1794	 0.37829843026762 
1795	 0.378566517292711 
1796	 0.378875761616108 
1797	 0.379254023419122 
1798	 0.379614584406357 
1799	 0.379980572580009 
1800	 0.380328555547958 
1801	 0.387634220838567 
1802	 0.388026562606698 
1803	 0.388407227752265 
1804	 0.388808223358 
1805	 0.389229542705776 
1806	 0.389568852526159 
1807	 0.389859803912869 
1808	 0.390151751238243 
1809	 0.390397099379908 
1810	 0.390660534395807 
1811	 0.390931068220457 
1812	 0.391177529124969 
1813	 0.391396295500992 
1814	 0.391630821465858 
1815	 0.391848853664145 
1816	 0.392118319927414 
1817	 0.392389875525554 
1818	 0.392684490410708 
1819	 0.392973745503078 
1820	 0.393271173304634 
1821	 0.393571637450741 
1822	 0.393858342856001 
1823	 0.394205876543865 
1824	 0.394535619539083 
1825	 0.394851998176473 
1826	 0.395173448603893 
1827	 0.395515476656787 
1828	 0.395802162267213 
1829	 0.396045470827042 
1830	 0.39632356265318 
1831	 0.396598916351874 
1832	 0.396869752788941 
1833	 0.397092160701033 
1834	 0.397366647630023 
1835	 0.397613201997712 
1836	 0.397802527921854 
1837	 0.398053060050028 
1838	 0.398344328409171 
1839	 0.398630202179285 
1840	 0.39892471313513 
1841	 0.399238161348711 
1842	 0.399588773265152 
1843	 0.399913502247431 
1844	 0.400223470129214 
1845	 0.400517622551751 
1846	 0.400752949932143 
1847	 0.400952828042404 
1848	 0.401168385311446 
1849	 0.401405963800009 
1850	 0.401559665416903 
1851	 0.401677108922729 
1852	 0.401792925289788 
1853	 0.40184752198212 
1854	 0.401847019900217 
1855	 0.4018599203095 
1856	 0.401874600976377 
1857	 0.401861083921728 
1858	 0.401825552301561 
1859	 0.401738894973905 
1860	 0.401645529770471 
1861	 0.401470848103165 
1862	 0.401241869866797 
1863	 0.400939227368049 
1864	 0.40060652302556 
1865	 0.400212010662636 
1866	 0.399736272161674 
1867	 0.399266490710446 
1868	 0.39876896077684 
1869	 0.398193380864144 
1870	 0.397610407525893 
1871	 0.397004096595471 
1872	 0.396389895037696 
1873	 0.395745052815586 
1874	 0.395112500052975 
1875	 0.39446775873806 
1876	 0.393744142529094 
1877	 0.393016747021622 
1878	 0.392205639256606 
1879	 0.391302060419506 
1880	 0.390385218847327 
1881	 0.389342424735772 
1882	 0.388180678570126 
1883	 0.386962579427624 
1884	 0.385623489680171 
1885	 0.384122219226346 
1886	 0.382649638336657 
1887	 0.381065035856354 
1888	 0.379374378102913 
1889	 0.377752723180003 
1890	 0.375994049171805 
1891	 0.374194616263712 
1892	 0.372404727996928 
1893	 0.37054185397787 
1894	 0.368603323100118 
1895	 0.366693536310124 
1896	 0.364686614459924 
1897	 0.362630121708812 
1898	 0.360716589777587 
1899	 0.358763545612192 
1900	 0.356872171892953 
1901	 0.355080268860851 
1902	 0.353208237251279 
1903	 0.351458588121803 
1904	 0.349780340063854 
1905	 0.348144711284025 
1906	 0.346595782615014 
1907	 0.345229915469435 
1908	 0.343845047641379 
1909	 0.342515036727247 
1910	 0.341249963718793 
1911	 0.339950640894142 
1912	 0.338700984361612 
1913	 0.337483303904957 
1914	 0.336317027237755 
1915	 0.335234213649211 
1916	 0.334239424097825 
1917	 0.333285108854288 
1918	 0.332380301061154 
1919	 0.33148066524726 
1920	 0.330549824221411 
1921	 0.329686138472054 
1922	 0.328828675705233 
1923	 0.327974766947247 
1924	 0.327223564007532 
1925	 0.326432813567278 
1926	 0.32566088962226 
1927	 0.324914323277553 
1928	 0.32417894317718 
1929	 0.323423216215874 
1930	 0.322738262345865 
1931	 0.322092497293492 
1932	 0.321446100011721 
1933	 0.320927582051889 
1934	 0.32044614737506 
1935	 0.320005628733998 
1936	 0.319674071800117 
1937	 0.319387578503567 
1938	 0.319150725310711 
1939	 0.318985218289629 
1940	 0.318878505120753 
1941	 0.318856665139266 
1942	 0.318907451290886 
1943	 0.31902788208383 
1944	 0.31922293722849 
1945	 0.319414124576938 
1946	 0.319678015021483 
1947	 0.319955734566164 
1948	 0.320237674188635 
1949	 0.320640689115604 
1950	 0.32108813386935 
1951	 0.321566994969406 
1952	 0.322144975290482 
1953	 0.322813797454518 
1954	 0.323524682862337 
1955	 0.32436454253533 
1956	 0.325168291413644 
1957	 0.325980895341012 
1958	 0.326852656639166 
1959	 0.327616705631487 
1960	 0.328340789793052 
1961	 0.329039860808635 
1962	 0.329716212056376 
1963	 0.33033556033316 
1964	 0.330915820520739 
1965	 0.331453930431239 
1966	 0.33197457025128 
1967	 0.332383697311444 
1968	 0.332748293627705 
1969	 0.333123926488686 
1970	 0.333469430676732 
1971	 0.3338310907133 
1972	 0.334213417074449 
1973	 0.334591755091044 
1974	 0.335013805873852 
1975	 0.33548120231543 
1976	 0.335933128370281 
1977	 0.336420351787013 
1978	 0.336885325143106 
1979	 0.337330979436147 
1980	 0.337753617055519 
1981	 0.338250886578396 
1982	 0.338770856526869 
1983	 0.339335625383611 
1984	 0.339887025944988 
1985	 0.340389871275705 
1986	 0.340933860624955 
1987	 0.341512047373875 
1988	 0.342067004508948 
1989	 0.342736875886944 
1990	 0.343469740589263 
1991	 0.344257179291655 
1992	 0.345124174827098 
1993	 0.346054831908212 
1994	 0.346944643995024 
1995	 0.347908738183482 
1996	 0.348877616971599 
1997	 0.349856039369644 
1998	 0.350889878854424 
1999	 0.352018899055656 
2000	 0.35305754449039 
2001	 0.354149229583304 
2002	 0.355116588236853 
2003	 0.355996412387302 
2004	 0.356873085891771 
2005	 0.357669897660719 
2006	 0.358470145728476 
2007	 0.359306600697136 
2008	 0.360040889452526 
2009	 0.360722615349853 
2010	 0.361336305981558 
2011	 0.361838243449353 
2012	 0.362365319589217 
2013	 0.362850198631243 
2014	 0.363307932826797 
2015	 0.363731467926026 
2016	 0.36413093340099 
2017	 0.36447484349388 
2018	 0.36478022090899 
2019	 0.365048592616984 
2020	 0.365260932538233 
2021	 0.365454209307182 
2022	 0.365629602641484 
2023	 0.365756712262653 
2024	 0.365844552190212 
2025	 0.365895027326342 
2026	 0.365935528651842 
2027	 0.365941474951532 
2028	 0.365928852588867 
2029	 0.365902819136887 
2030	 0.365858788718456 
2031	 0.365778329725811 
2032	 0.365686848976889 
2033	 0.365569155131171 
2034	 0.365461176201773 
2035	 0.365326791539652 
2036	 0.365218895078107 
2037	 0.365121069551027 
2038	 0.365003828017722 
2039	 0.364900871331566 
2040	 0.364804181252228 
2041	 0.364687557725609 
2042	 0.364561996795293 
2043	 0.364460254883845 
2044	 0.364349920786334 
2045	 0.364250566501815 
2046	 0.364189230019484 
2047	 0.364097928317483 
2048	 0.363965276576667 
2049	 0.363877262157295 
2050	 0.363802767171608 
2051	 0.363733214612933 
2052	 0.363705151921668 
2053	 0.363681368406993 
2054	 0.363659381903095 
2055	 0.363656840351186 
2056	 0.363624015269353 
2057	 0.363596335838058 
2058	 0.363538198195137 
2059	 0.36342895727884 
2060	 0.363363073929202 
2061	 0.363319006158195 
2062	 0.363242681948073 
2063	 0.363170808108142 
2064	 0.363085752331852 
2065	 0.362957087382826 
2066	 0.362850251686169 
2067	 0.362751928400877 
2068	 0.362681231804675 
2069	 0.362613339905604 
2070	 0.362565801398392 
2071	 0.362490987942822 
2072	 0.362427991282582 
2073	 0.362338065803028 
2074	 0.362197092948652 
2075	 0.362115255145521 
2076	 0.362061278563911 
2077	 0.361980036491143 
2078	 0.361926088399498 
2079	 0.36184658117735 
2080	 0.36173394743402 
2081	 0.361627563657834 
2082	 0.361521039415146 
2083	 0.361407062816688 
2084	 0.361305533848819 
2085	 0.361184885806891 
2086	 0.361067740485178 
2087	 0.360963517413894 
2088	 0.360840127957414 
2089	 0.360703295595137 
2090	 0.360559629633246 
2091	 0.360391439888102 
2092	 0.360246780080243 
2093	 0.360119452720059 
2094	 0.359967196412682 
2095	 0.359834795798398 
2096	 0.359668933305775 
2097	 0.359476767015653 
2098	 0.359246385298914 
2099	 0.359044896992148 
2100	 0.35883741830038 
2101	 0.358623814564344 
2102	 0.358428870692946 
2103	 0.358189932583007 
2104	 0.357932328352766 
2105	 0.357645104010204 
2106	 0.357312858039121 
2107	 0.35699023546888 
2108	 0.356654696796436 
2109	 0.356314117318548 
2110	 0.355977696582836 
2111	 0.35561808844508 
2112	 0.355233184947301 
2113	 0.354841745056913 
2114	 0.354421073192385 
2115	 0.354023594402833 
2116	 0.35364876144357 
2117	 0.353255767554892 
2118	 0.352823550148174 
2119	 0.352373211914653 
2120	 0.351929684259911 
2121	 0.351424849124666 
2122	 0.350996629247021 
2123	 0.350625908586245 
2124	 0.350225705941477 
2125	 0.349840008518784 
2126	 0.349442613030461 
2127	 0.349018513182668 
2128	 0.348630846120367 
2129	 0.348224370661244 
2130	 0.347886199332582 
2131	 0.347623262778227 
2132	 0.347336055608167 
2133	 0.347074348250705 
2134	 0.346827464285724 
2135	 0.346556061396061 
2136	 0.346291992951836 
2137	 0.346049893072014 
2138	 0.345838095810823 
2139	 0.345607848908263 
2140	 0.345375540946731 
2141	 0.345152370613596 
2142	 0.344924440550506 
2143	 0.344710652711678 
2144	 0.34451447428024 
2145	 0.34432175432165 
2146	 0.344149111113619 
2147	 0.343950890513519 
2148	 0.343718008540599 
2149	 0.343533553952257 
2150	 0.34337018353858 
2151	 0.343199600932256 
2152	 0.343078472473593 
2153	 0.3429222844268 
2154	 0.342736887443776 
2155	 0.342543071951192 
2156	 0.342371782671444 
2157	 0.34222547024097 
2158	 0.342031562974657 
2159	 0.341822207389464 
2160	 0.341615069631095 
2161	 0.341389924731604 
2162	 0.341154413335117 
2163	 0.340921117948257 
2164	 0.340679876133836 
2165	 0.340423222247219 
2166	 0.340140242333682 
2167	 0.339843933722885 
2168	 0.339551766099921 
2169	 0.339210721379932 
2170	 0.338912682862301 
2171	 0.33863792617288 
2172	 0.338377808994538 
2173	 0.338149934006766 
2174	 0.337905844121565 
2175	 0.337673331700613 
2176	 0.33743132666752 
2177	 0.337217537048172 
2178	 0.337001747002232 
2179	 0.336813190576816 
2180	 0.336657734455068 
2181	 0.336505439035666 
2182	 0.336365734429407 
2183	 0.336221910846824 
2184	 0.336097950785351 
2185	 0.335954879270051 
2186	 0.335797915831456 
2187	 0.335646427617478 
2188	 0.335499636893746 
2189	 0.335343130634961 
2190	 0.335193619042831 
2191	 0.335016135112748 
2192	 0.33485074702985 
2193	 0.334625153917315 
2194	 0.334332796425429 
2195	 0.334056615219997 
2196	 0.33377438939353 
2197	 0.333437657052197 
2198	 0.333103167466777 
2199	 0.332759456730687 
2200	 0.332356139589787 
2201	 0.331896136204319 
2202	 0.33142675608046 
2203	 0.33091488426539 
2204	 0.330411501767016 
2205	 0.329843291792347 
2206	 0.329378047885067 
2207	 0.328960827394329 
2208	 0.328542880232792 
2209	 0.328173398647117 
2210	 0.327815686440422 
2211	 0.327467223371228 
2212	 0.327124668086571 
2213	 0.326810750974182 
2214	 0.326500935017879 
2215	 0.326198651898633 
2216	 0.325884729823936 
2217	 0.32559743340288 
2218	 0.325290102719323 
2219	 0.324950163560959 
2220	 0.324623745404598 
2221	 0.324324296898515 
2222	 0.323986724384324 
2223	 0.323621840506976 
2224	 0.323225021199601 
2225	 0.322814677426566 
2226	 0.322384718996781 
2227	 0.321882988681825 
2228	 0.321376124101517 
2229	 0.320765298046909 
2230	 0.320066712997627 
2231	 0.319303945169827 
2232	 0.318499483331646 
2233	 0.317559269697306 
2234	 0.316539530474206 
2235	 0.315377686669711 
2236	 0.314099679916139 
2237	 0.312700141156398 
2238	 0.311113136477278 
2239	 0.309505194095545 
2240	 0.307820621299673 
2241	 0.306032029958549 
2242	 0.304252754470464 
2243	 0.302227361104306 
2244	 0.299967195135363 
2245	 0.297678172852697 
2246	 0.295117804950853 
2247	 0.292664187096806 
2248	 0.29019353571293 
2249	 0.287748504449773 
2250	 0.285313598997575 
2251	 0.282953957508441 
2252	 0.280459916047098 
2253	 0.278114310261406 
2254	 0.275776847557726 
2255	 0.273368742129233 
2256	 0.271197643053218 
2257	 0.269036118362937 
2258	 0.2668947763178 
2259	 0.264856648985544 
2260	 0.262727348090239 
2261	 0.260565983678162 
2262	 0.258429703179906 
2263	 0.256204499995916 
2264	 0.254141695564841 
2265	 0.25215430296478 
2266	 0.250194042945941 
2267	 0.248337179360157 
2268	 0.246499790813377 
2269	 0.244613209673392 
2270	 0.242960624831767 
2271	 0.241405903141849 
2272	 0.240004762994218 
2273	 0.238866458138356 
2274	 0.237666768239522 
2275	 0.236600266829482 
2276	 0.235466004732519 
2277	 0.23432723991686 
2278	 0.233172961959723 
2279	 0.232012450798688 
2280	 0.230795150309682 
2281	 0.229607229142037 
2282	 0.228286867493677 
2283	 0.226860646734835 
2284	 0.225416066305821 
2285	 0.223817482334151 
2286	 0.222173367365154 
2287	 0.220466868695221 
2288	 0.218712430808579 
2289	 0.217021318295659 
2290	 0.215182940633448 
2291	 0.213365928184238 
2292	 0.211579769881342 
2293	 0.209666388897614 
2294	 0.207876264382565 
2295	 0.206197015961639 
2296	 0.204569500048619 
2297	 0.203181620057448 
2298	 0.201987880504474 
2299	 0.200937782461711 
2300	 0.20004232123348 
2301	 0.199386895807762 
2302	 0.198943969981411 
2303	 0.19867621947735 
2304	 0.198622014255216 
2305	 0.198771636101661 
2306	 0.199111982665219 
2307	 0.199649921257178 
2308	 0.200442326603627 
2309	 0.201404578435999 
2310	 0.202613277993639 
2311	 0.203871916779985 
2312	 0.205387987590392 
2313	 0.206832177068526 
2314	 0.208316865167857 
2315	 0.209842800007776 
2316	 0.211475421555842 
2317	 0.212977375171645 
2318	 0.214560388964579 
2319	 0.215893407645901 
2320	 0.217116536072361 
2321	 0.218104302598042 
2322	 0.218861333363808 
2323	 0.219517406476231 
2324	 0.219909669532316 
2325	 0.220295955440345 
2326	 0.220674224935293 
2327	 0.220802408105521 
2328	 0.220800281684249 
2329	 0.220681413143978 
2330	 0.220361577138651 
2331	 0.219872986266936 
2332	 0.219424641574828 
2333	 0.218669403292342 
2334	 0.217706364463701 
2335	 0.216747297800041 
2336	 0.215613062715491 
2337	 0.21440904583582 
2338	 0.213164860044826 
2339	 0.211858201398425 
2340	 0.210701443818137 
2341	 0.209512028277873 
2342	 0.208464661253622 
2343	 0.207657611740115 
2344	 0.206833259652622 
2345	 0.206266145745717 
2346	 0.205909254259506 
2347	 0.205766593372031 
2348	 0.205818033052384 
2349	 0.206025358640625 
2350	 0.206564278341081 
2351	 0.207250674911377 
2352	 0.208122793912646 
2353	 0.209242404768543 
2354	 0.210291714147776 
2355	 0.211338583577455 
2356	 0.212327929710762 
2357	 0.213131533541186 
2358	 0.213763967509573 
2359	 0.214177072840295 
2360	 0.214573182083229 
2361	 0.214908438589996 
2362	 0.215209033667651 
2363	 0.215433960021351 
2364	 0.215506113269761 
2365	 0.215453674124337 
2366	 0.215268823657459 
2367	 0.215125493580623 
2368	 0.215023990663864 
2369	 0.214907397473281 
2370	 0.214843527455999 
2371	 0.214794694865511 
2372	 0.214733799146156 
2373	 0.214720858001243 
2374	 0.214616602741198 
2375	 0.214482993090037 
2376	 0.21443172452931 
2377	 0.214285293901364 
2378	 0.214146170674321 
2379	 0.214027702458751 
2380	 0.213792233909135 
2381	 0.213733389427825 
2382	 0.213716911656077 
2383	 0.213786094213255 
2384	 0.213833047202586 
2385	 0.214028358896628 
2386	 0.213994275105654 
2387	 0.213849990465353 
2388	 0.213792939530007 
2389	 0.213557740639557 
2390	 0.213526547973441 
2391	 0.213644198269237 
2392	 0.213758286290412 
2393	 0.214068697617343 
2394	 0.214121867308349 
2395	 0.214052324409404 
2396	 0.214037824406277 
2397	 0.213895668527374 
2398	 0.213811185847892 
2399	 0.213897890461475 
2400	 0.213734708296247 
2401	 0.213272834787889 
2402	 0.213171087815035 
2403	 0.213064591883718 
2404	 0.21315989711457 
2405	 0.213458713926532 
2406	 0.213625180347776 
2407	 0.213516833398761 
2408	 0.213461707306409 
2409	 0.213540551054667 
2410	 0.213491724322851 
2411	 0.213566807375207 
2412	 0.213703042259095 
2413	 0.213637635452476 
2414	 0.213420901580657 
2415	 0.213441815680415 
2416	 0.213632967706297 
2417	 0.213739616992169 
2418	 0.213923738011719 
2419	 0.214016239559772 
2420	 0.21412812815978 
2421	 0.214215236257138 
2422	 0.214326665360042 
2423	 0.214570952980608 
2424	 0.214559202455467 
2425	 0.214574511307916 
2426	 0.214644156139504 
2427	 0.214717936213763 
2428	 0.214811777093117 
2429	 0.21467966806052 
2430	 0.214634754610089 
2431	 0.214617255199409 
2432	 0.214650718522336 
2433	 0.214788931825437 
2434	 0.214918672586635 
2435	 0.214958305340376 
2436	 0.214709572109826 
2437	 0.214625201321879 
2438	 0.214590323491047 
2439	 0.214484307137626 
2440	 0.214694884648585 
2441	 0.214778867990029 
2442	 0.214598804975536 
2443	 0.214450620149119 
2444	 0.214184357931696 
2445	 0.213975554130161 
2446	 0.213947828542409 
2447	 0.213943155179843 
2448	 0.213915156116116 
2449	 0.213753442419896 
2450	 0.213453664765611 
2451	 0.213196903361407 
2452	 0.21302183757208 
2453	 0.212862250089767 
2454	 0.212926313174942 
2455	 0.212807792595629 
2456	 0.212556992240712 
2457	 0.212485261144056 
2458	 0.212083642405485 
2459	 0.211713824740017 
2460	 0.211383551487331 
2461	 0.210888211927321 
2462	 0.21063690460877 
2463	 0.210316132959338 
2464	 0.209956698427545 
2465	 0.209634193196687 
2466	 0.209392341494084 
2467	 0.209412222294669 
2468	 0.209149146358762 
2469	 0.208712796467741 
2470	 0.208416675444089 
2471	 0.208066419943313 
2472	 0.208019394512727 
2473	 0.208376104166958 
2474	 0.208432599107416 
2475	 0.208096548027433 
2476	 0.207724195266319 
2477	 0.207355481294891 
2478	 0.206954346120176 
2479	 0.20678128517339 
2480	 0.207333753111981 
2481	 0.207659787216998 
2482	 0.208121700505833 
2483	 0.208390157322594 
2484	 0.208426431771261 
2485	 0.20850261954105 
2486	 0.208722038201527 
2487	 0.208854100771869 
2488	 0.208915361447133 
2489	 0.208563896012806 
2490	 0.208668272783071 
2491	 0.20927320985753 
2492	 0.209366312435977 
2493	 0.210066933589027 
2494	 0.210816686060352 
2495	 0.210932569172919 
2496	 0.211368095593547 
2497	 0.211474221661826 
2498	 0.211839235108101 
2499	 0.212265958225256 
2500	 0.212113268823317 
