Wavelength	Tablay400033.asd
350	 0.238959289312478 
351	 0.231829573084681 
352	 0.156448908797807 
353	 0.110606210934088 
354	 0.171520983994156 
355	 0.223883843879561 
356	 0.203789461021467 
357	 0.11627247819448 
358	 0.148089969662788 
359	 0.135710880815486 
360	 0.1012911245233 
361	 0.144021097196145 
362	 0.140957700829275 
363	 0.12095109121096 
364	 0.10193564335426 
365	 5.46757616891202E-02 
366	 8.61148457016848E-02 
367	 0.144337533351128 
368	 0.152002691096842 
369	 0.105858624798156 
370	 5.69866888779076E-02 
371	 5.00406015068755E-02 
372	 0.112581133945411 
373	 0.100009777480802 
374	 9.68758490200629E-02 
375	 0.130881079610003 
376	 0.116108765229945 
377	 0.106657066805768 
378	 9.30209045818331E-02 
379	 6.82429797860042E-02 
380	 7.20678869735071E-02 
381	 8.66710681727777E-02 
382	 9.28346213625123E-02 
383	 8.14045872283475E-02 
384	 9.01376497867128E-02 
385	 8.34398556972258E-02 
386	 6.09662072934699E-02 
387	 8.30399950073453E-02 
388	 7.47747008510957E-02 
389	 6.18221231152032E-02 
390	 7.55196455565874E-02 
391	 6.93694300794511E-02 
392	 7.30501201755314E-02 
393	 8.13407759003554E-02 
394	 6.88968620931699E-02 
395	 4.39215193650286E-02 
396	 5.59629299720144E-02 
397	 9.74531131177676E-02 
398	 7.17966340235259E-02 
399	 6.45893659161147E-02 
400	 7.75440532365218E-02 
401	 8.81663094876817E-02 
402	 8.10413913765475E-02 
403	 7.70441455996201E-02 
404	 7.75894093786426E-02 
405	 7.04964773469833E-02 
406	 7.50869980314511E-02 
407	 7.95052153507285E-02 
408	 0.074421472406129 
409	 6.07025124615749E-02 
410	 4.81590845440852E-02 
411	 5.61941307155144E-02 
412	 0.088429045386443 
413	 6.87532398109942E-02 
414	 5.26879560888262E-02 
415	 0.057712815281304 
416	 6.21376034311487E-02 
417	 6.28243710680703E-02 
418	 6.12281562118275E-02 
419	 5.99314662349389E-02 
420	 6.22506874708523E-02 
421	 0.056767638883823 
422	 5.02711505815286E-02 
423	 5.36994151418511E-02 
424	 5.23179832220222E-02 
425	 5.31586467730702E-02 
426	 5.75249387883393E-02 
427	 5.89225309079293E-02 
428	 6.08923916922365E-02 
429	 5.96705712136666E-02 
430	 5.43055460252371E-02 
431	 5.65219627113279E-02 
432	 5.59254777629045E-02 
433	 5.41849117770463E-02 
434	 5.80189819849977E-02 
435	 5.78039598339766E-02 
436	 5.48316654508691E-02 
437	 5.26268786938812E-02 
438	 5.65913321206972E-02 
439	 5.34084608121816E-02 
440	 4.96681586565063E-02 
441	 0.053756102150779 
442	 5.79139561686987E-02 
443	 0.057204796200314 
444	 5.36750370747982E-02 
445	 5.43274082426701E-02 
446	 5.68960144491835E-02 
447	 5.65741105074619E-02 
448	 0.052965841204219 
449	 5.61426809583033E-02 
450	 0.056270768951125 
451	 0.054285149179766 
452	 0.054272325861734 
453	 5.35895906597704E-02 
454	 5.42765374706328E-02 
455	 5.57417028698058E-02 
456	 5.44572353637913E-02 
457	 5.40228464226383E-02 
458	 5.37603446750587E-02 
459	 5.29483634866326E-02 
460	 5.33629953307667E-02 
461	 5.49586726019514E-02 
462	 5.58068261851778E-02 
463	 5.38124596973301E-02 
464	 5.45631805705867E-02 
465	 5.36363776250363E-02 
466	 5.04618600374971E-02 
467	 5.18207979028145E-02 
468	 5.15799236935345E-02 
469	 5.14574246760949E-02 
470	 5.35172826941155E-02 
471	 5.20565882417678E-02 
472	 5.14847249429089E-02 
473	 5.21239823240781E-02 
474	 5.11721955655086E-02 
475	 5.11031863049112E-02 
476	 5.12051831234792E-02 
477	 0.050927524970272 
478	 5.11111509450545E-02 
479	 5.14574122572544E-02 
480	 5.13096277277709E-02 
481	 5.03284401308497E-02 
482	 5.07859978843216E-02 
483	 5.19002359606056E-02 
484	 5.25034092423223E-02 
485	 5.13345503161873E-02 
486	 5.08698545636441E-02 
487	 5.03848566710673E-02 
488	 4.94747687918349E-02 
489	 5.12024311498956E-02 
490	 5.12509686032348E-02 
491	 5.02005223792088E-02 
492	 5.10087257382697E-02 
493	 5.03272609145854E-02 
494	 4.97021601719719E-02 
495	 5.00344915888615E-02 
496	 5.03256270466842E-02 
497	 5.08112899357782E-02 
498	 5.09976111483328E-02 
499	 5.04496963201459E-02 
500	 4.97234357162578E-02 
501	 4.94933609966301E-02 
502	 4.95143321377514E-02 
503	 4.88616490658587E-02 
504	 4.89630443533833E-02 
505	 4.95048926275203E-02 
506	 5.00302005349612E-02 
507	 5.06568347512965E-02 
508	 4.99942965118283E-02 
509	 4.90872902734293E-02 
510	 4.96257830905382E-02 
511	 4.97564826935174E-02 
512	 4.96044649925316E-02 
513	 4.92556438226213E-02 
514	 4.84997653943115E-02 
515	 4.90314462102075E-02 
516	 4.97089428536546E-02 
517	 0.049312942663545 
518	 4.89280220123822E-02 
519	 4.86222518406756E-02 
520	 4.85439564790674E-02 
521	 4.88371346672655E-02 
522	 4.89590628248456E-02 
523	 4.92130569120471E-02 
524	 4.95921688737768E-02 
525	 4.91790858551099E-02 
526	 4.92432350255937E-02 
527	 4.93808538044745E-02 
528	 4.89322368073512E-02 
529	 4.93163210592439E-02 
530	 4.92986987563628E-02 
531	 4.88577686203865E-02 
532	 0.049338403343321 
533	 4.96638448080829E-02 
534	 4.96110025768965E-02 
535	 4.93538790593001E-02 
536	 4.96637162163298E-02 
537	 0.049821471557996 
538	 4.97071004046874E-02 
539	 4.95516829771058E-02 
540	 4.94894159577429E-02 
541	 4.94338426726144E-02 
542	 4.94791091562643E-02 
543	 5.01050928218572E-02 
544	 5.01167830517959E-02 
545	 4.98375830781191E-02 
546	 4.98636867319434E-02 
547	 4.96993392842777E-02 
548	 4.98095872257698E-02 
549	 5.01284389994113E-02 
550	 5.01390738392037E-02 
551	 5.05580236455198E-02 
552	 5.07546403240164E-02 
553	 5.04114228424401E-02 
554	 5.06342331755198E-02 
555	 5.04455389218479E-02 
556	 5.01381754536261E-02 
557	 5.04408679491142E-02 
558	 0.050542014193728 
559	 5.07251296531466E-02 
560	 5.10573419404981E-02 
561	 5.11790578352808E-02 
562	 5.09734788392634E-02 
563	 5.09356085299464E-02 
564	 0.051396332933162 
565	 5.14156852282651E-02 
566	 5.15813017403982E-02 
567	 0.051830270623009 
568	 5.16793916119955E-02 
569	 5.20031853190989E-02 
570	 5.21830535745964E-02 
571	 5.19081369056008E-02 
572	 5.19555488531755E-02 
573	 5.22381169746953E-02 
574	 5.24368762697364E-02 
575	 5.22519653847778E-02 
576	 5.21871579330884E-02 
577	 5.22192706815853E-02 
578	 5.23329270901145E-02 
579	 5.25561029113098E-02 
580	 5.26101648341663E-02 
581	 5.27213700430854E-02 
582	 5.30028605071367E-02 
583	 5.27835721760629E-02 
584	 5.30031983719983E-02 
585	 5.34739533223023E-02 
586	 0.053421233769207 
587	 5.33431448703725E-02 
588	 5.33739620784033E-02 
589	 5.34894597138263E-02 
590	 5.34744750639822E-02 
591	 0.05357511073287 
592	 0.053711898898531 
593	 5.37424011815185E-02 
594	 5.36882563677308E-02 
595	 5.37372614545813E-02 
596	 0.05393225252039 
597	 5.41715098985147E-02 
598	 5.41998978800181E-02 
599	 5.41482824127528E-02 
600	 5.41766552217136E-02 
601	 5.43412518950206E-02 
602	 5.45340283163277E-02 
603	 5.46159026155103E-02 
604	 5.45071391492676E-02 
605	 5.46015187984434E-02 
606	 5.46237371947898E-02 
607	 5.45776582211521E-02 
608	 5.48731834532193E-02 
609	 5.48642149527446E-02 
610	 5.46736658726003E-02 
611	 5.45907477886042E-02 
612	 5.47816840780828E-02 
613	 5.49239615793754E-02 
614	 5.50081581803526E-02 
615	 5.51915836299489E-02 
616	 5.50609398990575E-02 
617	 5.49587007678089E-02 
618	 5.50573976119094E-02 
619	 5.50598839590931E-02 
620	 5.50424011866334E-02 
621	 5.50722774725839E-02 
622	 5.51962891075024E-02 
623	 5.53612948006086E-02 
624	 5.54494549011108E-02 
625	 5.54475463318812E-02 
626	 5.54425750731632E-02 
627	 5.54689001599366E-02 
628	 5.54679572346359E-02 
629	 5.54523156471825E-02 
630	 5.56862157285659E-02 
631	 5.57915748814461E-02 
632	 0.05570719558862 
633	 5.55553962507399E-02 
634	 5.55908947724126E-02 
635	 5.57145315689235E-02 
636	 5.58546487384076E-02 
637	 5.60165889213162E-02 
638	 5.58513194062377E-02 
639	 5.57514355143517E-02 
640	 5.60104497303598E-02 
641	 5.59835614722478E-02 
642	 5.59916991586278E-02 
643	 0.056087641345149 
644	 5.61465704297279E-02 
645	 5.60297555835661E-02 
646	 5.59311040246173E-02 
647	 5.59734143999893E-02 
648	 5.61076624577416E-02 
649	 5.60766768454462E-02 
650	 5.59867832959634E-02 
651	 0.056036604438681 
652	 0.0562917991802 
653	 0.056446522512002 
654	 5.63944081495509E-02 
655	 5.62282242172261E-02 
656	 5.62697746176737E-02 
657	 5.64321513101525E-02 
658	 5.65737775993184E-02 
659	 5.66009201562469E-02 
660	 5.65136839707356E-02 
661	 5.64589518035102E-02 
662	 5.65762359670538E-02 
663	 5.66371771631826E-02 
664	 5.66781351082362E-02 
665	 5.67157690486439E-02 
666	 5.67339623192043E-02 
667	 5.67705898180038E-02 
668	 5.68751143948153E-02 
669	 5.70125653260109E-02 
670	 5.69175111892036E-02 
671	 5.68899841082513E-02 
672	 5.69146478171195E-02 
673	 5.68679573463225E-02 
674	 0.056954304928451 
675	 0.057007716274361 
676	 5.69915074811611E-02 
677	 0.05705679250436 
678	 5.71341024808139E-02 
679	 5.71253003207821E-02 
680	 5.70185630905768E-02 
681	 5.70721051960749E-02 
682	 5.71770154430941E-02 
683	 0.057246365861556 
684	 5.72367511034699E-02 
685	 5.73622588414594E-02 
686	 0.057442131672958 
687	 5.74054769526468E-02 
688	 5.73887890651045E-02 
689	 5.74705181378542E-02 
690	 5.75248615761314E-02 
691	 5.74691224894933E-02 
692	 5.75920142631127E-02 
693	 5.75479868850903E-02 
694	 5.74928642141174E-02 
695	 5.78148279749239E-02 
696	 5.79171113736724E-02 
697	 5.78550203725715E-02 
698	 0.057771577157086 
699	 5.78093241693628E-02 
700	 5.79241506860834E-02 
701	 5.80608713954228E-02 
702	 5.81579602377409E-02 
703	 5.81563102983546E-02 
704	 5.81473060861617E-02 
705	 0.058163297063934 
706	 5.81928109946277E-02 
707	 5.82602040548206E-02 
708	 5.83031904568646E-02 
709	 0.058310129557508 
710	 0.058371114963691 
711	 0.058414114183895 
712	 5.84354143884853E-02 
713	 5.84584363306277E-02 
714	 5.85195441640807E-02 
715	 5.86656034252544E-02 
716	 5.87869893933059E-02 
717	 5.87079516794952E-02 
718	 5.87900834093979E-02 
719	 5.89441349670038E-02 
720	 5.90177229324743E-02 
721	 5.88457000210858E-02 
722	 5.89277014834791E-02 
723	 5.90960864873591E-02 
724	 0.059101767348085 
725	 5.92634804178879E-02 
726	 5.93234104320541E-02 
727	 5.93061485650716E-02 
728	 5.94205621881245E-02 
729	 5.95151463183037E-02 
730	 5.95316961939535E-02 
731	 0.059494362733879 
732	 0.059537005714394 
733	 5.95977261008934E-02 
734	 5.96901070764267E-02 
735	 5.98123628154741E-02 
736	 0.059834673070567 
737	 5.98539252624663E-02 
738	 5.99184137218785E-02 
739	 6.00310869729773E-02 
740	 6.01315132509772E-02 
741	 6.02448215789209E-02 
742	 6.03437094068144E-02 
743	 6.03075215269389E-02 
744	 6.03435760241503E-02 
745	 6.04166484428858E-02 
746	 6.04560594515895E-02 
747	 6.05126502168545E-02 
748	 6.05463223819002E-02 
749	 6.05903397151823E-02 
750	 6.07046714829715E-02 
751	 6.08120733266154E-02 
752	 6.08850881297209E-02 
753	 6.09439939311247E-02 
754	 6.10600640428815E-02 
755	 6.11792639331819E-02 
756	 0.061250541544607 
757	 6.12617204539826E-02 
758	 6.12971470624393E-02 
759	 6.13740199473419E-02 
760	 6.14409036062147E-02 
761	 6.14458561660868E-02 
762	 6.15698405966121E-02 
763	 6.16582543816019E-02 
764	 6.16856208961744E-02 
765	 6.17844781553195E-02 
766	 6.19153420876053E-02 
767	 6.19634812268466E-02 
768	 6.19209741243271E-02 
769	 6.20628041532238E-02 
770	 6.21533136618068E-02 
771	 0.062202656486422 
772	 6.22897895596904E-02 
773	 6.23749717220922E-02 
774	 6.24029961253821E-02 
775	 6.24082821659716E-02 
776	 6.24874488883132E-02 
777	 6.25612810926895E-02 
778	 6.26565155171401E-02 
779	 6.27683035594914E-02 
780	 6.28161578568056E-02 
781	 6.28269588344124E-02 
782	 6.28608327860578E-02 
783	 0.062959673774666 
784	 6.30796302371869E-02 
785	 6.31065538910656E-02 
786	 6.30934152580212E-02 
787	 6.31735918502998E-02 
788	 0.063292358731759 
789	 6.33571369485468E-02 
790	 6.33486714117606E-02 
791	 0.063340302282942 
792	 6.34187695836964E-02 
793	 0.063588500481289 
794	 6.37842762236331E-02 
795	 6.38379951397284E-02 
796	 6.37538461331323E-02 
797	 0.063724436301842 
798	 6.39076644488003E-02 
799	 6.39253899774378E-02 
800	 6.39359609532298E-02 
801	 6.40115297847575E-02 
802	 6.41265593946628E-02 
803	 6.41491914714673E-02 
804	 6.42189026604803E-02 
805	 6.43679350382027E-02 
806	 6.44189440480386E-02 
807	 6.44175999980008E-02 
808	 6.44364909136005E-02 
809	 6.45103637797778E-02 
810	 0.064533909870662 
811	 6.45863009304519E-02 
812	 6.46789511019188E-02 
813	 6.47871215214283E-02 
814	 0.064877853838569 
815	 6.49563926314357E-02 
816	 6.49891136325179E-02 
817	 6.49247490773639E-02 
818	 6.49339149336763E-02 
819	 6.49884539644554E-02 
820	 6.50635828135837E-02 
821	 6.51948129099545E-02 
822	 6.53001288975242E-02 
823	 6.53281857405313E-02 
824	 0.065298380327488 
825	 6.54091065660389E-02 
826	 6.54763069424976E-02 
827	 6.55288867711139E-02 
828	 6.56475453817396E-02 
829	 6.55911908324788E-02 
830	 6.56621619330409E-02 
831	 6.58313973652512E-02 
832	 6.57903392504979E-02 
833	 6.57971137413433E-02 
834	 6.58295106723055E-02 
835	 6.58945242600661E-02 
836	 0.066101507754362 
837	 0.06620382097769 
838	 6.62348467506941E-02 
839	 6.62720258483107E-02 
840	 6.62917222641312E-02 
841	 0.066348125970808 
842	 6.64277647034713E-02 
843	 0.066493804738081 
844	 6.65470135561023E-02 
845	 6.66305990461511E-02 
846	 6.67361602506192E-02 
847	 6.68167225638478E-02 
848	 6.68729620227434E-02 
849	 6.68014721293231E-02 
850	 6.67131449676005E-02 
851	 6.69614297188475E-02 
852	 6.70750539108656E-02 
853	 6.70791871316287E-02 
854	 0.067111087134973 
855	 6.73290308048801E-02 
856	 6.72801212053944E-02 
857	 6.72029365750941E-02 
858	 6.73827120367275E-02 
859	 6.74305702665257E-02 
860	 6.74583122956827E-02 
861	 6.75362916392768E-02 
862	 6.76772909383599E-02 
863	 6.77024111361391E-02 
864	 6.77430642806166E-02 
865	 6.78181595264155E-02 
866	 6.78426888708094E-02 
867	 6.79054846544537E-02 
868	 6.79247675568864E-02 
869	 6.79153053276188E-02 
870	 6.80426276606308E-02 
871	 6.81500170995273E-02 
872	 6.82324311532039E-02 
873	 6.83040798462151E-02 
874	 6.83434128758044E-02 
875	 6.84141305838717E-02 
876	 6.85471622178678E-02 
877	 6.86929990007824E-02 
878	 6.85442993588802E-02 
879	 6.87115861693822E-02 
880	 6.89707587806108E-02 
881	 0.068844741090612 
882	 6.89101323145824E-02 
883	 6.89247946429298E-02 
884	 6.89146745488128E-02 
885	 6.90908300203313E-02 
886	 6.91514912948817E-02 
887	 6.92464893375703E-02 
888	 6.93198099694533E-02 
889	 6.90803876102291E-02 
890	 6.92700538576916E-02 
891	 6.94762722490442E-02 
892	 6.94581708217584E-02 
893	 6.96248835024374E-02 
894	 6.97099495002567E-02 
895	 6.97174997933718E-02 
896	 6.97235499023226E-02 
897	 6.98128241454544E-02 
898	 6.98674305033612E-02 
899	 0.069912562616891 
900	 7.00014108432484E-02 
901	 7.00939352504714E-02 
902	 7.02077467162193E-02 
903	 0.070247385223328 
904	 7.01627363428688E-02 
905	 7.04331403597631E-02 
906	 7.05882969333552E-02 
907	 0.070576396929287 
908	 7.06567596094221E-02 
909	 7.06823137920287E-02 
910	 7.07658189446982E-02 
911	 0.070927128171968 
912	 7.10668989170875E-02 
913	 7.10946804601796E-02 
914	 7.11528313601009E-02 
915	 7.12713266051489E-02 
916	 7.12900700790953E-02 
917	 7.14335485840347E-02 
918	 7.14961563109562E-02 
919	 7.14431506959351E-02 
920	 7.17010134575639E-02 
921	 0.071739134411903 
922	 7.18259849903411E-02 
923	 7.21240075307871E-02 
924	 7.19896548523519E-02 
925	 7.20092193589154E-02 
926	 7.21618669314933E-02 
927	 7.22844721525572E-02 
928	 7.24484086635313E-02 
929	 7.26237974461028E-02 
930	 7.27654887164242E-02 
931	 0.072843174909881 
932	 7.29056780845978E-02 
933	 7.30030600401056E-02 
934	 0.073078231705946 
935	 7.30776813736248E-02 
936	 7.33001047145922E-02 
937	 7.34483810066269E-02 
938	 7.35181377244801E-02 
939	 7.36827706808504E-02 
940	 7.36701196233464E-02 
941	 7.37890258048045E-02 
942	 7.40197217856765E-02 
943	 7.40546343430448E-02 
944	 7.40087584918654E-02 
945	 7.40559230422842E-02 
946	 0.074222497255221 
947	 7.43824047832052E-02 
948	 7.46432723964579E-02 
949	 7.48447800805803E-02 
950	 7.49046154559158E-02 
951	 7.48986535039395E-02 
952	 7.50520739162891E-02 
953	 7.51415183849075E-02 
954	 7.51122840286595E-02 
955	 7.52617597724721E-02 
956	 7.54488814936243E-02 
957	 7.54679595044433E-02 
958	 7.53734623803669E-02 
959	 7.56508627372265E-02 
960	 7.57213795841211E-02 
961	 7.60052463206595E-02 
962	 0.076530322001014 
963	 7.61453316794576E-02 
964	 7.62548811568315E-02 
965	 7.65673677705421E-02 
966	 7.66513797911151E-02 
967	 7.68130478073968E-02 
968	 7.67894821824831E-02 
969	 7.68931556249309E-02 
970	 7.72517348099155E-02 
971	 7.71315381304756E-02 
972	 7.72830762245457E-02 
973	 7.74268516551657E-02 
974	 7.72694536745894E-02 
975	 7.73499574778476E-02 
976	 7.77137597588914E-02 
977	 7.80129895116584E-02 
978	 7.80082582945652E-02 
979	 7.82095589835945E-02 
980	 7.83668188225738E-02 
981	 7.84868216353049E-02 
982	 7.86593446195846E-02 
983	 7.90036338562402E-02 
984	 7.89349784543228E-02 
985	 7.88351985576313E-02 
986	 7.91251521474462E-02 
987	 7.91328155387505E-02 
988	 7.92667189797217E-02 
989	 7.95227294596138E-02 
990	 7.97793999247095E-02 
991	 8.01202241186288E-02 
992	 7.97422237125938E-02 
993	 7.94852304707722E-02 
994	 8.01055785274873E-02 
995	 7.99756848633823E-02 
996	 7.99092419124055E-02 
997	 8.01054486929302E-02 
998	 0.080453616589575 
999	 8.06065070853267E-02 
1000	 8.08631967678471E-02 
1001	 0.081036142195709 
1002	 8.13055012459816E-02 
1003	 8.14801792754902E-02 
1004	 8.16314629677545E-02 
1005	 8.18856370497462E-02 
1006	 8.21009348485305E-02 
1007	 8.22324916800599E-02 
1008	 8.23609681837813E-02 
1009	 8.25915734079412E-02 
1010	 8.26886176101966E-02 
1011	 0.082593874437777 
1012	 8.26674807951536E-02 
1013	 8.28405579097588E-02 
1014	 8.29441653728959E-02 
1015	 8.31069992628708E-02 
1016	 8.30658398759551E-02 
1017	 8.32656457367144E-02 
1018	 8.35374319446034E-02 
1019	 8.37664574820667E-02 
1020	 8.41834322661446E-02 
1021	 8.43786426283548E-02 
1022	 8.43646480560263E-02 
1023	 8.44000001282912E-02 
1024	 8.43688580777743E-02 
1025	 8.44439461131784E-02 
1026	 8.45408379332711E-02 
1027	 8.46474575600816E-02 
1028	 8.49098423609448E-02 
1029	 8.49585332908547E-02 
1030	 8.49199749846136E-02 
1031	 8.49769565902993E-02 
1032	 8.50332204346557E-02 
1033	 8.52131303898997E-02 
1034	 8.54478165935468E-02 
1035	 8.56394599133093E-02 
1036	 8.57803945125368E-02 
1037	 8.58515493345542E-02 
1038	 8.60030804774651E-02 
1039	 8.61265617165391E-02 
1040	 8.63033049455795E-02 
1041	 8.65664847448643E-02 
1042	 8.68014447525106E-02 
1043	 8.70564515093881E-02 
1044	 8.72726409772442E-02 
1045	 8.74932184663356E-02 
1046	 8.76448608023654E-02 
1047	 8.76131570885136E-02 
1048	 8.75980887537303E-02 
1049	 8.77186601414022E-02 
1050	 8.78562265306581E-02 
1051	 8.80696284888777E-02 
1052	 8.82818247050146E-02 
1053	 8.83485274117086E-02 
1054	 8.81523063126964E-02 
1055	 8.82390553651031E-02 
1056	 8.83941169434438E-02 
1057	 8.85727858528882E-02 
1058	 8.89123082477889E-02 
1059	 8.91792919995092E-02 
1060	 8.93376287864447E-02 
1061	 8.94344195678639E-02 
1062	 0.089737567250242 
1063	 8.99651059233733E-02 
1064	 9.00690016621744E-02 
1065	 9.02738478798388E-02 
1066	 9.02519729314158E-02 
1067	 9.02630839453489E-02 
1068	 9.05038137300158E-02 
1069	 9.07432061176016E-02 
1070	 9.09345166226125E-02 
1071	 0.091165386045198 
1072	 9.13215951624987E-02 
1073	 9.13948068843415E-02 
1074	 9.15291357012577E-02 
1075	 9.16210063821641E-02 
1076	 9.17316139038427E-02 
1077	 9.18510365267916E-02 
1078	 9.17625463905973E-02 
1079	 9.18792531197504E-02 
1080	 0.092248614588498 
1081	 9.24476505066913E-02 
1082	 9.26768357719737E-02 
1083	 9.29263692817292E-02 
1084	 9.30111807152343E-02 
1085	 9.30940137678507E-02 
1086	 9.32035778566735E-02 
1087	 9.33856416671718E-02 
1088	 9.34464859942879E-02 
1089	 9.34470491913666E-02 
1090	 9.35684778395832E-02 
1091	 9.36858616963389E-02 
1092	 9.38144729915731E-02 
1093	 9.39895678253225E-02 
1094	 9.42050015811518E-02 
1095	 9.44530646238755E-02 
1096	 9.46024107123828E-02 
1097	 9.47928814804093E-02 
1098	 9.49128775248213E-02 
1099	 9.49767313391995E-02 
1100	 9.52128274607372E-02 
1101	 9.54523638948094E-02 
1102	 9.56258301643356E-02 
1103	 9.57748076782558E-02 
1104	 9.59157948720012E-02 
1105	 9.60179859861333E-02 
1106	 0.09610995041576 
1107	 9.62632052371849E-02 
1108	 9.64315746188755E-02 
1109	 0.096532701907683 
1110	 9.67099929379123E-02 
1111	 9.68873240125805E-02 
1112	 9.69565409833544E-02 
1113	 9.70636857504571E-02 
1114	 9.71589292398574E-02 
1115	 9.71412226250147E-02 
1116	 9.72410006257238E-02 
1117	 0.097499775279318 
1118	 9.77165842924017E-02 
1119	 0.097964778503537 
1120	 9.81817846297598E-02 
1121	 9.84564512494893E-02 
1122	 9.85703905468601E-02 
1123	 9.85967389837985E-02 
1124	 9.86303513427083E-02 
1125	 9.86236457022976E-02 
1126	 0.098679247270201 
1127	 9.88619039648359E-02 
1128	 9.90681199532436E-02 
1129	 9.93177082060519E-02 
1130	 9.94741328242501E-02 
1131	 9.95561100283237E-02 
1132	 9.96905740925382E-02 
1133	 0.099816411959834 
1134	 0.100003202276794 
1135	 0.10015701032402 
1136	 0.100331714152431 
1137	 0.100465960116928 
1138	 0.100524760602248 
1139	 0.100666902944616 
1140	 0.10085768617124 
1141	 0.101033374867985 
1142	 0.101186506173986 
1143	 0.101336747075951 
1144	 0.101488290801027 
1145	 0.101608048388436 
1146	 0.101740764638736 
1147	 0.101901814638786 
1148	 0.102013337016807 
1149	 0.102137671291065 
1150	 0.102239912667968 
1151	 0.10232086498489 
1152	 0.102465122814244 
1153	 0.102628458808264 
1154	 0.102776552801431 
1155	 0.102985366111322 
1156	 0.103164676202031 
1157	 0.103322021546244 
1158	 0.103473495288645 
1159	 0.103645246181361 
1160	 0.103760345955137 
1161	 0.1038419906108 
1162	 0.103949294471741 
1163	 0.104093816198522 
1164	 0.104232454125221 
1165	 0.104421617282809 
1166	 0.104595212208174 
1167	 0.104712708682528 
1168	 0.104821882451045 
1169	 0.104950096618489 
1170	 0.105067088967762 
1171	 0.105194474108452 
1172	 0.105331113768873 
1173	 0.105488763292645 
1174	 0.105653607371257 
1175	 0.105807574896346 
1176	 0.105990269983109 
1177	 0.106157839443241 
1178	 0.106304757416904 
1179	 0.106458455403524 
1180	 0.106626872692985 
1181	 0.106811404034741 
1182	 0.106916812022159 
1183	 0.107003726762579 
1184	 0.107140965377366 
1185	 0.107219232639766 
1186	 0.107359294098069 
1187	 0.107590657318048 
1188	 0.107752098192208 
1189	 0.107866362759448 
1190	 0.108036205735832 
1191	 0.108223312056665 
1192	 0.108391783798361 
1193	 0.108597065220209 
1194	 0.108761101718297 
1195	 0.108896162558436 
1196	 0.109028977514696 
1197	 0.109119241799933 
1198	 0.109260737902661 
1199	 0.109448594925528 
1200	 0.109541747814287 
1201	 0.109623280792298 
1202	 0.109770337113818 
1203	 0.109890716894581 
1204	 0.110052203204373 
1205	 0.110236046478178 
1206	 0.110482203354865 
1207	 0.110675639057156 
1208	 0.110887271894285 
1209	 0.111053260110486 
1210	 0.111183013779243 
1211	 0.111336453953262 
1212	 0.111450646147251 
1213	 0.111599959712608 
1214	 0.111768880644284 
1215	 0.111958197919836 
1216	 0.112183470598706 
1217	 0.112383536785286 
1218	 0.112568907874292 
1219	 0.112811898202 
1220	 0.112979194098574 
1221	 0.113153420761587 
1222	 0.113365613985037 
1223	 0.11350639281053 
1224	 0.113700916860254 
1225	 0.113928896440834 
1226	 0.114116022408062 
1227	 0.114292376172132 
1228	 0.114487501615298 
1229	 0.11467221947801 
1230	 0.114863910970597 
1231	 0.115094710086046 
1232	 0.115275163672258 
1233	 0.115418010003216 
1234	 0.115569437663849 
1235	 0.115674813145426 
1236	 0.115838983622174 
1237	 0.116048244208 
1238	 0.11623301305491 
1239	 0.11641608997493 
1240	 0.116633574528771 
1241	 0.116859638452744 
1242	 0.117064700348208 
1243	 0.11727835849346 
1244	 0.117545654247573 
1245	 0.117724122061094 
1246	 0.117841467207604 
1247	 0.117991121360887 
1248	 0.118087056152735 
1249	 0.118269228803895 
1250	 0.118513374893518 
1251	 0.118717123671806 
1252	 0.118961228503146 
1253	 0.119167915889754 
1254	 0.119340237448652 
1255	 0.119505498149233 
1256	 0.119645799468891 
1257	 0.119812007717149 
1258	 0.119964295213522 
1259	 0.120134659775199 
1260	 0.120364458947992 
1261	 0.12054470504893 
1262	 0.120641576498324 
1263	 0.120844682717276 
1264	 0.121017390472356 
1265	 0.121178949752317 
1266	 0.1213528964165 
1267	 0.121552380542197 
1268	 0.121735164534184 
1269	 0.121909126820176 
1270	 0.122082291908122 
1271	 0.122260569913927 
1272	 0.122436896860368 
1273	 0.122552916512481 
1274	 0.122778817390571 
1275	 0.123110204171126 
1276	 0.123349132587943 
1277	 0.123625745103986 
1278	 0.123851470083887 
1279	 0.123968793006932 
1280	 0.12413954205715 
1281	 0.124321915263873 
1282	 0.124522088828858 
1283	 0.124747590504968 
1284	 0.124954612037286 
1285	 0.125161830149684 
1286	 0.125380993108522 
1287	 0.125592440008005 
1288	 0.125788682765734 
1289	 0.125996790449255 
1290	 0.12622574840665 
1291	 0.126421670660627 
1292	 0.126601329794483 
1293	 0.126779448604284 
1294	 0.126926256543288 
1295	 0.127113109136848 
1296	 0.127315117657609 
1297	 0.127516633426659 
1298	 0.127747431601938 
1299	 0.127955115857468 
1300	 0.128117362784647 
1301	 0.128342587727949 
1302	 0.128637829046733 
1303	 0.128859245772277 
1304	 0.129074143622738 
1305	 0.129287994350484 
1306	 0.129458960676214 
1307	 0.129617134322769 
1308	 0.129726488067686 
1309	 0.129936498643092 
1310	 0.13011196896187 
1311	 0.130247396452366 
1312	 0.130447535412232 
1313	 0.130707356823431 
1314	 0.130936010700574 
1315	 0.131200267382707 
1316	 0.131374581673178 
1317	 0.131477280611282 
1318	 0.131661463785718 
1319	 0.131847857326178 
1320	 0.132002690702929 
1321	 0.132213053503347 
1322	 0.132367686581899 
1323	 0.13239602014023 
1324	 0.132537435622172 
1325	 0.132757909988755 
1326	 0.132937714836112 
1327	 0.133137006633366 
1328	 0.133329303229368 
1329	 0.133494721139906 
1330	 0.133670426143394 
1331	 0.133863717784377 
1332	 0.134049075799909 
1333	 0.134205136445136 
1334	 0.134400008960502 
1335	 0.134600881465489 
1336	 0.134829142630493 
1337	 0.134997530403527 
1338	 0.135159742084173 
1339	 0.135314493683925 
1340	 0.135412837824059 
1341	 0.135570073727486 
1342	 0.135761265052412 
1343	 0.135938565477689 
1344	 0.136119304885144 
1345	 0.136306932838133 
1346	 0.136508455137675 
1347	 0.136695218732401 
1348	 0.136893489938165 
1349	 0.137060311051201 
1350	 0.137187154537829 
1351	 0.137345896854631 
1352	 0.137496878817257 
1353	 0.137667804540438 
1354	 0.137884212014098 
1355	 0.138065792792043 
1356	 0.138240867669197 
1357	 0.138402407685629 
1358	 0.138531106300765 
1359	 0.138678433050718 
1360	 0.138824150612894 
1361	 0.138972436133409 
1362	 0.139163331508338 
1363	 0.139342196211476 
1364	 0.13949789779117 
1365	 0.139653329125992 
1366	 0.13979344318644 
1367	 0.139895896890733 
1368	 0.140032339830335 
1369	 0.140169766076981 
1370	 0.140334853266687 
1371	 0.14053264188697 
1372	 0.140699458505482 
1373	 0.140877892879881 
1374	 0.141033903263726 
1375	 0.141149200293993 
1376	 0.141299713406961 
1377	 0.14149102144743 
1378	 0.141628354388577 
1379	 0.141735897372176 
1380	 0.141865083207259 
1381	 0.141959518082094 
1382	 0.142085647129168 
1383	 0.142296847666793 
1384	 0.142418974832659 
1385	 0.142459795824932 
1386	 0.142556130141017 
1387	 0.142609099988821 
1388	 0.142714631155009 
1389	 0.142925799544957 
1390	 0.143082463530177 
1391	 0.143222201303902 
1392	 0.143358199000797 
1393	 0.143503022924946 
1394	 0.143588080674729 
1395	 0.143725570521613 
1396	 0.143888134234011 
1397	 0.14403400794749 
1398	 0.144185824279385 
1399	 0.144328579710308 
1400	 0.144473341044298 
1401	 0.144590931257224 
1402	 0.144695152523704 
1403	 0.144797537432873 
1404	 0.144884592877311 
1405	 0.144959945579464 
1406	 0.145010826147004 
1407	 0.145103979013125 
1408	 0.145214847952606 
1409	 0.145299339098013 
1410	 0.145393013356832 
1411	 0.145493965771224 
1412	 0.145559337506166 
1413	 0.145658663742198 
1414	 0.145798763851146 
1415	 0.145931936888488 
1416	 0.146074844218356 
1417	 0.146204023018528 
1418	 0.146334271955647 
1419	 0.146467518829295 
1420	 0.146578559950043 
1421	 0.146710174459682 
1422	 0.146884215256508 
1423	 0.147019009485495 
1424	 0.147127887463046 
1425	 0.147253921301082 
1426	 0.147347599409223 
1427	 0.147445572793436 
1428	 0.147623656621891 
1429	 0.147796386146033 
1430	 0.147952613506241 
1431	 0.148130870671817 
1432	 0.148281159573336 
1433	 0.14838808800208 
1434	 0.148541587346654 
1435	 0.148715303065409 
1436	 0.148881958852367 
1437	 0.149050492066511 
1438	 0.149238482078432 
1439	 0.149448110141068 
1440	 0.149627676846118 
1441	 0.149807385099666 
1442	 0.149992342376102 
1443	 0.150161020971157 
1444	 0.150333895337313 
1445	 0.150499910433798 
1446	 0.150701809329704 
1447	 0.150907628781153 
1448	 0.151126946067941 
1449	 0.151400377307502 
1450	 0.151647031118833 
1451	 0.151867482724987 
1452	 0.152112620218308 
1453	 0.152361204496452 
1454	 0.152626873363472 
1455	 0.152920157197316 
1456	 0.153200070672598 
1457	 0.153490947255944 
1458	 0.153776387847667 
1459	 0.154048831773735 
1460	 0.154329079228287 
1461	 0.154611264812865 
1462	 0.154893603065408 
1463	 0.155182732072836 
1464	 0.155467995308967 
1465	 0.155738702592788 
1466	 0.156039445402975 
1467	 0.156333819142815 
1468	 0.156597523746152 
1469	 0.156880664362085 
1470	 0.157125205112022 
1471	 0.157407553268626 
1472	 0.157697455751149 
1473	 0.157987599268213 
1474	 0.158302347390229 
1475	 0.158587948214158 
1476	 0.158853612614136 
1477	 0.159132200614542 
1478	 0.15941544115731 
1479	 0.159671923690575 
1480	 0.159915546539722 
1481	 0.160173800542245 
1482	 0.160413298106363 
1483	 0.160673118977177 
1484	 0.160971418406262 
1485	 0.161223062556391 
1486	 0.161444243343898 
1487	 0.16168749932145 
1488	 0.161901277399947 
1489	 0.162169014321513 
1490	 0.16249477534547 
1491	 0.162777115794261 
1492	 0.163060729774489 
1493	 0.163346966170105 
1494	 0.163622789316839 
1495	 0.16388081049564 
1496	 0.164131207837677 
1497	 0.164398841110929 
1498	 0.164657738838327 
1499	 0.164911030870148 
1500	 0.165173663707287 
1501	 0.165446821397139 
1502	 0.165699816091142 
1503	 0.165973442972996 
1504	 0.166290372625197 
1505	 0.166584767010443 
1506	 0.166870571370184 
1507	 0.167151228456173 
1508	 0.16742440111657 
1509	 0.167700914013589 
1510	 0.167999336704008 
1511	 0.168251250850668 
1512	 0.168461611458164 
1513	 0.168693292708339 
1514	 0.168881217839444 
1515	 0.16910959962838 
1516	 0.169406644451681 
1517	 0.169663803513827 
1518	 0.169885822721083 
1519	 0.170145487988451 
1520	 0.170449112842375 
1521	 0.170685091660779 
1522	 0.170910841107084 
1523	 0.171188016683407 
1524	 0.171427274166286 
1525	 0.1716245420515 
1526	 0.171837267668434 
1527	 0.172060555319701 
1528	 0.172290750252238 
1529	 0.172501933377892 
1530	 0.172736319425379 
1531	 0.173016587079241 
1532	 0.173235256333782 
1533	 0.173405756959234 
1534	 0.173644199312525 
1535	 0.173891299414759 
1536	 0.174140783588775 
1537	 0.174447444363334 
1538	 0.174684567845702 
1539	 0.174872240050181 
1540	 0.175094877386771 
1541	 0.175306003081043 
1542	 0.175536836647668 
1543	 0.175796652805309 
1544	 0.17602304026686 
1545	 0.1762266340515 
1546	 0.176468385887237 
1547	 0.176712283142776 
1548	 0.176964492273568 
1549	 0.177242581028056 
1550	 0.17752138737561 
1551	 0.177816226166134 
1552	 0.178069566088625 
1553	 0.178314611317507 
1554	 0.178564315117514 
1555	 0.178769106888753 
1556	 0.17901457034638 
1557	 0.179290075295383 
1558	 0.17956932306496 
1559	 0.179866533885358 
1560	 0.180142779002885 
1561	 0.180440271473368 
1562	 0.180698297034155 
1563	 0.180902117816691 
1564	 0.18114930946313 
1565	 0.181405320194545 
1566	 0.181655525594636 
1567	 0.181921954578537 
1568	 0.182182707115783 
1569	 0.182423856369844 
1570	 0.182685799907339 
1571	 0.182977217395765 
1572	 0.183241343933557 
1573	 0.183498413933642 
1574	 0.183752111837957 
1575	 0.18400139047734 
1576	 0.184231629982332 
1577	 0.184422533961834 
1578	 0.184669388257976 
1579	 0.184924811427524 
1580	 0.185190580748019 
1581	 0.185521137250914 
1582	 0.185805950692528 
1583	 0.186056651467948 
1584	 0.186325154147962 
1585	 0.186592393396831 
1586	 0.186859773289948 
1587	 0.18714243556596 
1588	 0.187400932571573 
1589	 0.187637533174108 
1590	 0.187885957919717 
1591	 0.188120121651732 
1592	 0.18837394831557 
1593	 0.188650431557854 
1594	 0.188914196710611 
1595	 0.189185197575061 
1596	 0.189440409064718 
1597	 0.189689399671601 
1598	 0.189927754005723 
1599	 0.190123970683533 
1600	 0.190373110020288 
1601	 0.19063636459213 
1602	 0.190914615158108 
1603	 0.191272283025386 
1604	 0.19155724486333 
1605	 0.191794773671515 
1606	 0.192051095086485 
1607	 0.192268024756308 
1608	 0.192518550899546 
1609	 0.192813250960586 
1610	 0.193081512558434 
1611	 0.193343939420392 
1612	 0.193604230421474 
1613	 0.193849246455021 
1614	 0.19410468900585 
1615	 0.19435977760158 
1616	 0.194626371044314 
1617	 0.194906634026743 
1618	 0.1951814292863 
1619	 0.195496198208666 
1620	 0.195744758180951 
1621	 0.195922636875886 
1622	 0.196150394470827 
1623	 0.196377607253313 
1624	 0.19658621619855 
1625	 0.19682255177929 
1626	 0.197039784921725 
1627	 0.197173588873855 
1628	 0.197399438082205 
1629	 0.197693516392851 
1630	 0.19797146936139 
1631	 0.198315561050704 
1632	 0.198592599064716 
1633	 0.19884535218895 
1634	 0.199072391935549 
1635	 0.199217752893861 
1636	 0.199428611992953 
1637	 0.199639070511483 
1638	 0.199870525109188 
1639	 0.200188140248507 
1640	 0.200440708788834 
1641	 0.200653286251962 
1642	 0.200883708841787 
1643	 0.201081331735536 
1644	 0.201306262395516 
1645	 0.201589592065909 
1646	 0.20180984097794 
1647	 0.202005623727144 
1648	 0.202188922301435 
1649	 0.20232692722488 
1650	 0.202476938765333 
1651	 0.202587840215032 
1652	 0.202764501033125 
1653	 0.20297756072049 
1654	 0.20318512647157 
1655	 0.20349915502166 
1656	 0.203696971638662 
1657	 0.203780243443448 
1658	 0.203939725684549 
1659	 0.204085524760854 
1660	 0.204227273931302 
1661	 0.204451232985144 
1662	 0.204587909095098 
1663	 0.204639627184485 
1664	 0.204718659029631 
1665	 0.204757543853157 
1666	 0.204837746188796 
1667	 0.204954785014343 
1668	 0.205038323992445 
1669	 0.205152819418014 
1670	 0.205216985474757 
1671	 0.205249829656135 
1672	 0.205240881596422 
1673	 0.205199341452083 
1674	 0.205120499289137 
1675	 0.20498646937878 
1676	 0.204853886180249 
1677	 0.204669092935039 
1678	 0.204523098456221 
1679	 0.204388613081839 
1680	 0.20424159381947 
1681	 0.204164459860096 
1682	 0.20395993760557 
1683	 0.203666012910232 
1684	 0.203389376114203 
1685	 0.203025063174463 
1686	 0.202730616477929 
1687	 0.202499124232403 
1688	 0.202199775865098 
1689	 0.201918330986222 
1690	 0.201556381593116 
1691	 0.201110348256916 
1692	 0.200689168303996 
1693	 0.200205633103781 
1694	 0.199793392796967 
1695	 0.19944284432635 
1696	 0.199019462150516 
1697	 0.198611693292144 
1698	 0.198114639111965 
1699	 0.197515767631745 
1700	 0.197009701401611 
1701	 0.196541164752052 
1702	 0.196008058711715 
1703	 0.195426266934487 
1704	 0.194920613235466 
1705	 0.194380347905563 
1706	 0.193905386173269 
1707	 0.193566735318524 
1708	 0.193216165182971 
1709	 0.192842356648549 
1710	 0.192577765914039 
1711	 0.1923733914929 
1712	 0.192181923642578 
1713	 0.191984787748796 
1714	 0.1918171906842 
1715	 0.191713607818242 
1716	 0.191568345829805 
1717	 0.191469227686889 
1718	 0.191396665843376 
1719	 0.191261936152899 
1720	 0.191177830536452 
1721	 0.191092262690832 
1722	 0.190984823671321 
1723	 0.190947334694603 
1724	 0.190965205448162 
1725	 0.191079845889296 
1726	 0.191304886544611 
1727	 0.191547355705052 
1728	 0.19181280989095 
1729	 0.192148189886562 
1730	 0.192519661111015 
1731	 0.192920578165083 
1732	 0.193389930576871 
1733	 0.19385801527183 
1734	 0.194344713479668 
1735	 0.194873027656117 
1736	 0.195391118176626 
1737	 0.195926311280273 
1738	 0.196396561913256 
1739	 0.196828538832485 
1740	 0.197240317619492 
1741	 0.197571521130622 
1742	 0.197855998016934 
1743	 0.198100698089193 
1744	 0.19827135853751 
1745	 0.198422795251577 
1746	 0.198533616335327 
1747	 0.198599766480202 
1748	 0.198572337662436 
1749	 0.198648600698086 
1750	 0.19873734872582 
1751	 0.198857967639101 
1752	 0.199042040358688 
1753	 0.19923583757445 
1754	 0.199440434949406 
1755	 0.199658029675147 
1756	 0.199892926361717 
1757	 0.200175575264394 
1758	 0.200495122382524 
1759	 0.200813790768207 
1760	 0.201177007094109 
1761	 0.201552899844452 
1762	 0.201899479512477 
1763	 0.202443251004551 
1764	 0.203094643416193 
1765	 0.203682319592342 
1766	 0.204344983736954 
1767	 0.204967716270861 
1768	 0.205575679308698 
1769	 0.206301255015635 
1770	 0.20704573158543 
1771	 0.207809364095753 
1772	 0.208523455509883 
1773	 0.20909522600193 
1774	 0.209644416848921 
1775	 0.210170002444304 
1776	 0.210686882351721 
1777	 0.211304562467739 
1778	 0.211875850855717 
1779	 0.21239079103628 
1780	 0.212830985446354 
1781	 0.213148844324002 
1782	 0.213529295195719 
1783	 0.213958147062958 
1784	 0.214365776559312 
1785	 0.214751919279871 
1786	 0.215108358588749 
1787	 0.215328053205846 
1788	 0.215623137597865 
1789	 0.216008801001475 
1790	 0.216315694976205 
1791	 0.216634423026513 
1792	 0.216912435771121 
1793	 0.217108665106996 
1794	 0.217374334620718 
1795	 0.217567711203253 
1796	 0.217832554071345 
1797	 0.218136942878434 
1798	 0.218385991202909 
1799	 0.218630492521314 
1800	 0.218850453549679 
1801	 0.22119375359055 
1802	 0.221454149439857 
1803	 0.221748930402402 
1804	 0.222081904086424 
1805	 0.222378579726948 
1806	 0.222660236319837 
1807	 0.222916943270917 
1808	 0.223190299245993 
1809	 0.223449762946491 
1810	 0.223737047420775 
1811	 0.224067508298994 
1812	 0.224364553745438 
1813	 0.224677296462756 
1814	 0.224931346936416 
1815	 0.22513391642624 
1816	 0.22541319008782 
1817	 0.225694868081094 
1818	 0.225940997876534 
1819	 0.226262477965251 
1820	 0.226709161973414 
1821	 0.227056043064139 
1822	 0.227359974800237 
1823	 0.227748072533247 
1824	 0.22805598039766 
1825	 0.228249496078636 
1826	 0.22857887579978 
1827	 0.228959756731749 
1828	 0.229312631620054 
1829	 0.229758330663387 
1830	 0.230105241219067 
1831	 0.230382543604355 
1832	 0.230695823797181 
1833	 0.230973799500934 
1834	 0.231243107213232 
1835	 0.23155928099755 
1836	 0.231898871420621 
1837	 0.232203955667045 
1838	 0.232490204642333 
1839	 0.232799931616 
1840	 0.233094595848926 
1841	 0.233385182163546 
1842	 0.23366070490476 
1843	 0.234028422436036 
1844	 0.234362572291146 
1845	 0.234659138437056 
1846	 0.234978185108374 
1847	 0.235259687916552 
1848	 0.235562956270042 
1849	 0.235874580287378 
1850	 0.236173829846131 
1851	 0.236492209953897 
1852	 0.236774509966282 
1853	 0.237015703042466 
1854	 0.237236023577113 
1855	 0.237562922065241 
1856	 0.237882468306031 
1857	 0.238139217478469 
1858	 0.238415175692677 
1859	 0.238583629461361 
1860	 0.238578914140532 
1861	 0.23867294442038 
1862	 0.238745629329321 
1863	 0.238851667227507 
1864	 0.239060045001057 
1865	 0.239264177858894 
1866	 0.239449009523971 
1867	 0.239569046095209 
1868	 0.239558628021823 
1869	 0.239573342386627 
1870	 0.239592333234888 
1871	 0.239609868809818 
1872	 0.239595700231912 
1873	 0.239593090654016 
1874	 0.239530988079812 
1875	 0.23943640974325 
1876	 0.239344779196922 
1877	 0.239225704930747 
1878	 0.239068447842495 
1879	 0.238913676157883 
1880	 0.238741949848558 
1881	 0.238504009549319 
1882	 0.238227337868044 
1883	 0.237934054105423 
1884	 0.237531234763397 
1885	 0.237014699169101 
1886	 0.236503730824317 
1887	 0.235944027748719 
1888	 0.235316546464545 
1889	 0.234707124391829 
1890	 0.233999115586868 
1891	 0.233210949952764 
1892	 0.23244076741014 
1893	 0.23163534121477 
1894	 0.230772815639602 
1895	 0.229916194442007 
1896	 0.229091639480839 
1897	 0.228214151461528 
1898	 0.227385491346 
1899	 0.226597049949465 
1900	 0.225799452329441 
1901	 0.225041871748116 
1902	 0.224245490730912 
1903	 0.223412055845719 
1904	 0.222630583375324 
1905	 0.221833023629522 
1906	 0.221115131495607 
1907	 0.220514465095725 
1908	 0.219984200493173 
1909	 0.219528286310724 
1910	 0.219078945417394 
1911	 0.21859130904721 
1912	 0.218156823093481 
1913	 0.217788542750987 
1914	 0.217414654625497 
1915	 0.217122080397392 
1916	 0.216910752848341 
1917	 0.21675376589454 
1918	 0.216531335768155 
1919	 0.216435661110591 
1920	 0.216381435885981 
1921	 0.216255332388533 
1922	 0.216182018328772 
1923	 0.21608764433301 
1924	 0.215963507895642 
1925	 0.215880065313326 
1926	 0.215835347351423 
1927	 0.21586962338773 
1928	 0.215853238512578 
1929	 0.215831172439757 
1930	 0.215800348576167 
1931	 0.215845680242425 
1932	 0.215931138741899 
1933	 0.216023095304089 
1934	 0.216144232310678 
1935	 0.216253049838825 
1936	 0.216425869735732 
1937	 0.216597290986066 
1938	 0.216800949947496 
1939	 0.217040944559854 
1940	 0.217334440088216 
1941	 0.217530292376102 
1942	 0.217780930563344 
1943	 0.218143789687391 
1944	 0.218438540734421 
1945	 0.218701334310325 
1946	 0.219026022651236 
1947	 0.219331769809768 
1948	 0.21967708574327 
1949	 0.220065463236471 
1950	 0.220421928322753 
1951	 0.220755415442494 
1952	 0.221149285697452 
1953	 0.221528884991194 
1954	 0.221972588432994 
1955	 0.222516148092618 
1956	 0.223018114200109 
1957	 0.223527765611109 
1958	 0.223991218095705 
1959	 0.224378402417643 
1960	 0.224837092041427 
1961	 0.225270961052507 
1962	 0.225671419250235 
1963	 0.226114852949381 
1964	 0.226585747633493 
1965	 0.227015018714188 
1966	 0.227450716300328 
1967	 0.227896026517405 
1968	 0.228253465783505 
1969	 0.228626878925587 
1970	 0.22898349115507 
1971	 0.229356741110221 
1972	 0.229760713765337 
1973	 0.230151385759995 
1974	 0.230549634494816 
1975	 0.23097337124638 
1976	 0.231347856214767 
1977	 0.23168118216467 
1978	 0.232064413455725 
1979	 0.232442333851516 
1980	 0.232831665938076 
1981	 0.233259224377936 
1982	 0.233678682814146 
1983	 0.234119316672472 
1984	 0.234569076303081 
1985	 0.235014000847126 
1986	 0.235441766072675 
1987	 0.23586491460564 
1988	 0.236224055295709 
1989	 0.236661759689429 
1990	 0.237154636385907 
1991	 0.237632059408673 
1992	 0.238135830509854 
1993	 0.238652733518026 
1994	 0.239103301428062 
1995	 0.239558267743936 
1996	 0.24003927470697 
1997	 0.240557868026292 
1998	 0.241066800291526 
1999	 0.241614123434161 
2000	 0.242075754864804 
2001	 0.242505531049772 
2002	 0.242939443975059 
2003	 0.243339343980816 
2004	 0.243748279165384 
2005	 0.244158169825128 
2006	 0.24454982271729 
2007	 0.244895912552259 
2008	 0.24529647135039 
2009	 0.245722578331025 
2010	 0.246059685125684 
2011	 0.246388723797656 
2012	 0.246665964189978 
2013	 0.246932163640843 
2014	 0.247132082815111 
2015	 0.247396030195384 
2016	 0.247707347112981 
2017	 0.247949232175129 
2018	 0.248201121782063 
2019	 0.248398211100675 
2020	 0.248521565050179 
2021	 0.248622420357421 
2022	 0.248791525516737 
2023	 0.248936661553078 
2024	 0.249062401533133 
2025	 0.249196356185421 
2026	 0.249322069388672 
2027	 0.249416902872771 
2028	 0.249516668440552 
2029	 0.249648422961793 
2030	 0.249737335689153 
2031	 0.24976237378498 
2032	 0.249829295610088 
2033	 0.249942841334856 
2034	 0.249979521682887 
2035	 0.249941555215515 
2036	 0.250004138205645 
2037	 0.250006597123352 
2038	 0.249998302500031 
2039	 0.250024940761277 
2040	 0.250104898682882 
2041	 0.250146490907493 
2042	 0.25020269635516 
2043	 0.25018908699038 
2044	 0.25011899264492 
2045	 0.250087890670125 
2046	 0.249975565828217 
2047	 0.249979096232616 
2048	 0.250104312879567 
2049	 0.250179476828264 
2050	 0.250275938019528 
2051	 0.250362336259291 
2052	 0.250438508624918 
2053	 0.250493115014371 
2054	 0.250583486733581 
2055	 0.250728982270648 
2056	 0.250774511711404 
2057	 0.250774900962172 
2058	 0.250812047734401 
2059	 0.250818914083352 
2060	 0.250832864693983 
2061	 0.250882842373929 
2062	 0.250900698360507 
2063	 0.250859236609662 
2064	 0.250853637113931 
2065	 0.250854547807346 
2066	 0.25086639905417 
2067	 0.250947504968316 
2068	 0.251058791814452 
2069	 0.251140695996569 
2070	 0.251266097952832 
2071	 0.251344740030459 
2072	 0.251388743820791 
2073	 0.251429232580248 
2074	 0.251423900259971 
2075	 0.251496958543183 
2076	 0.251585141461367 
2077	 0.251671143979184 
2078	 0.251845534538825 
2079	 0.251963802333362 
2080	 0.252041676940699 
2081	 0.252124251174689 
2082	 0.252240942686492 
2083	 0.252237975307817 
2084	 0.252330815042388 
2085	 0.252381067631134 
2086	 0.252402949337076 
2087	 0.252387404509668 
2088	 0.252443033869044 
2089	 0.252519917060165 
2090	 0.25253565966277 
2091	 0.252545756572249 
2092	 0.252600011860195 
2093	 0.252608540577878 
2094	 0.252641286699328 
2095	 0.252764099876795 
2096	 0.252849340766229 
2097	 0.252893234219295 
2098	 0.252943067373009 
2099	 0.252972866276624 
2100	 0.253034478354789 
2101	 0.253085788417323 
2102	 0.253120033993247 
2103	 0.25313251378559 
2104	 0.25318420351771 
2105	 0.253149383481906 
2106	 0.253017162595204 
2107	 0.252940719059849 
2108	 0.252830026588602 
2109	 0.252770229391953 
2110	 0.252807877929189 
2111	 0.25273445857653 
2112	 0.252600683150328 
2113	 0.252502033832977 
2114	 0.252348876139076 
2115	 0.252215476196034 
2116	 0.252164517594973 
2117	 0.252039845155729 
2118	 0.251907570187106 
2119	 0.251720321752414 
2120	 0.2516079360642 
2121	 0.25151203165245 
2122	 0.251424212586765 
2123	 0.25137969206228 
2124	 0.251297814370884 
2125	 0.251187376093659 
2126	 0.251115765576923 
2127	 0.251064098068434 
2128	 0.250997802736221 
2129	 0.250905739657299 
2130	 0.250875661215445 
2131	 0.250876806577057 
2132	 0.250876498540665 
2133	 0.250924712052691 
2134	 0.250987962178808 
2135	 0.250959202780729 
2136	 0.250969503819316 
2137	 0.250987178543991 
2138	 0.250968190634136 
2139	 0.251058831394985 
2140	 0.251225749752211 
2141	 0.251363027336557 
2142	 0.251575294866919 
2143	 0.25173608628875 
2144	 0.251866439797737 
2145	 0.251989113957856 
2146	 0.252101600934497 
2147	 0.252204553147351 
2148	 0.252240125242907 
2149	 0.252370265745527 
2150	 0.252565877857573 
2151	 0.25273750365356 
2152	 0.252938930712414 
2153	 0.25314979371542 
2154	 0.253400430278434 
2155	 0.253607147847126 
2156	 0.253762910633164 
2157	 0.253926893389104 
2158	 0.25405681317371 
2159	 0.254085488551101 
2160	 0.254195618987329 
2161	 0.254354937743419 
2162	 0.254478926352782 
2163	 0.25461479125971 
2164	 0.254692603878686 
2165	 0.254772967432452 
2166	 0.254786284359201 
2167	 0.254687172892841 
2168	 0.254651101661037 
2169	 0.254560061101094 
2170	 0.254559594917666 
2171	 0.254687011817791 
2172	 0.254730939345291 
2173	 0.254767162043952 
2174	 0.25479016472332 
2175	 0.254867244369637 
2176	 0.254899471734144 
2177	 0.25494776094469 
2178	 0.255073899212661 
2179	 0.255092691086051 
2180	 0.255027341164201 
2181	 0.255001706679837 
2182	 0.254948046670258 
2183	 0.254955896765278 
2184	 0.254999526069816 
2185	 0.255011425831942 
2186	 0.255072068436757 
2187	 0.255064947364001 
2188	 0.25498645145575 
2189	 0.254929795473966 
2190	 0.254849996936875 
2191	 0.254784683389423 
2192	 0.254735291648776 
2193	 0.254683988864501 
2194	 0.254637893232897 
2195	 0.254587037344293 
2196	 0.254544609926871 
2197	 0.25447101572445 
2198	 0.254429217068473 
2199	 0.254330377846763 
2200	 0.254200240125551 
2201	 0.254030835131773 
2202	 0.253875654922322 
2203	 0.253666623433444 
2204	 0.253526657776556 
2205	 0.253447875407148 
2206	 0.253295203404112 
2207	 0.253111666156039 
2208	 0.252978576789781 
2209	 0.252833078210227 
2210	 0.252689915300205 
2211	 0.25262696791203 
2212	 0.252471743260426 
2213	 0.252241532795056 
2214	 0.252036420492762 
2215	 0.25183312269546 
2216	 0.251598330519167 
2217	 0.25132636395904 
2218	 0.251068673163742 
2219	 0.250768501525416 
2220	 0.25050112818188 
2221	 0.250277406212572 
2222	 0.250044061574185 
2223	 0.249809953469994 
2224	 0.249527170307655 
2225	 0.249149014057905 
2226	 0.248847582400135 
2227	 0.248478638060101 
2228	 0.248131448870421 
2229	 0.247615421495105 
2230	 0.247009860893531 
2231	 0.246366442765189 
2232	 0.245572118052567 
2233	 0.244815723558505 
2234	 0.244099282554623 
2235	 0.243272262608592 
2236	 0.242397832844157 
2237	 0.241438541606559 
2238	 0.24036534955946 
2239	 0.239280578471004 
2240	 0.238135793387181 
2241	 0.236942046411808 
2242	 0.235779842978052 
2243	 0.234452175358753 
2244	 0.233008853260002 
2245	 0.231489231157561 
2246	 0.22977102338248 
2247	 0.228099416531383 
2248	 0.226375215110667 
2249	 0.224662095845548 
2250	 0.222974055340609 
2251	 0.221250593349658 
2252	 0.219468829435108 
2253	 0.217694948154706 
2254	 0.215901046744289 
2255	 0.21411583619107 
2256	 0.212401417158617 
2257	 0.210708347552135 
2258	 0.209048089407448 
2259	 0.207432987651935 
2260	 0.205832097449101 
2261	 0.204246345243364 
2262	 0.202714234304553 
2263	 0.201199453143861 
2264	 0.199773355376873 
2265	 0.198422448418168 
2266	 0.197066704522767 
2267	 0.195793040549966 
2268	 0.194498182595875 
2269	 0.193226619380887 
2270	 0.191946737199791 
2271	 0.190672918267405 
2272	 0.189366496016211 
2273	 0.187999912953078 
2274	 0.186718445391358 
2275	 0.185498951533375 
2276	 0.184228865376569 
2277	 0.183006433537289 
2278	 0.181741948622431 
2279	 0.180342205069679 
2280	 0.179072309956487 
2281	 0.177904833435643 
2282	 0.176658520241979 
2283	 0.175508968244958 
2284	 0.174247364373154 
2285	 0.172662541099504 
2286	 0.171095185931052 
2287	 0.169390726756739 
2288	 0.167747092704055 
2289	 0.166328820226619 
2290	 0.164786047983686 
2291	 0.163215746018708 
2292	 0.161713808841237 
2293	 0.160203101322848 
2294	 0.158763492650172 
2295	 0.157403465277951 
2296	 0.156117047626956 
2297	 0.154912106268895 
2298	 0.153729179769905 
2299	 0.152765550769942 
2300	 0.15187741816852 
2301	 0.151268620275147 
2302	 0.150857854030051 
2303	 0.150724523878727 
2304	 0.150919037330522 
2305	 0.151209772109308 
2306	 0.151734183909886 
2307	 0.152338278583968 
2308	 0.153095085730437 
2309	 0.153959444573703 
2310	 0.154963383333657 
2311	 0.156123630097698 
2312	 0.15748985229625 
2313	 0.15885533227414 
2314	 0.160458173896737 
2315	 0.161814882189925 
2316	 0.163083147724363 
2317	 0.164308630412071 
2318	 0.165463393251578 
2319	 0.166558834430071 
2320	 0.167784130436827 
2321	 0.168632761206503 
2322	 0.169083278600702 
2323	 0.169632326050396 
2324	 0.170074219302317 
2325	 0.170388979078643 
2326	 0.170764677229157 
2327	 0.170914066639506 
2328	 0.170758002713908 
2329	 0.17056362267052 
2330	 0.170204089280285 
2331	 0.169932252594033 
2332	 0.169504962672914 
2333	 0.168863377279256 
2334	 0.16815813324437 
2335	 0.167424060542039 
2336	 0.166459886071386 
2337	 0.165523578829253 
2338	 0.164635136859508 
2339	 0.163501449919575 
2340	 0.162496456892612 
2341	 0.16166888597056 
2342	 0.160720263113493 
2343	 0.159849849489362 
2344	 0.15921332275686 
2345	 0.158768238470626 
2346	 0.158627567176666 
2347	 0.158637237553723 
2348	 0.158807102114389 
2349	 0.159230488475413 
2350	 0.159787581178182 
2351	 0.160541714488987 
2352	 0.161278358536485 
2353	 0.162132804316916 
2354	 0.163088963978351 
2355	 0.163894414976415 
2356	 0.164878155698057 
2357	 0.165778148623427 
2358	 0.166181250957764 
2359	 0.166668353081953 
2360	 0.167224761850364 
2361	 0.167444075222069 
2362	 0.167753987366051 
2363	 0.168176297479648 
2364	 0.168328745035561 
2365	 0.168325003710402 
2366	 0.168282040929588 
2367	 0.168005954792981 
2368	 0.167700213698509 
2369	 0.167478606504161 
2370	 0.167437589451322 
2371	 0.167877661127285 
2372	 0.168430399608464 
2373	 0.168597764109857 
2374	 0.168404707295616 
2375	 0.168069843202581 
2376	 0.167540616447085 
2377	 0.167174150866481 
2378	 0.167383931940588 
2379	 0.167452498425513 
2380	 0.167427976222991 
2381	 0.167891622303911 
2382	 0.168101755658932 
2383	 0.16806105605692 
2384	 0.168295927046528 
2385	 0.168676008857838 
2386	 0.168968949882512 
2387	 0.169487031974511 
2388	 0.169647717209277 
2389	 0.169532249895 
2390	 0.169531811457458 
2391	 0.169354230739464 
2392	 0.16942133768253 
2393	 0.169700415815862 
2394	 0.169829522654533 
2395	 0.169884340878131 
2396	 0.170139497763877 
2397	 0.170443688917263 
2398	 0.170733956697843 
2399	 0.171235042425039 
2400	 0.171535319385987 
2401	 0.171668236460717 
2402	 0.172288404523444 
2403	 0.172390076062239 
2404	 0.172298664016444 
2405	 0.172378228425717 
2406	 0.171791693387425 
2407	 0.171564313544854 
2408	 0.171729772012351 
2409	 0.171740259763931 
2410	 0.172028122819783 
2411	 0.172187833247393 
2412	 0.172441869454649 
2413	 0.17256044078774 
2414	 0.172496874443858 
2415	 0.172729164439894 
2416	 0.172316142232032 
2417	 0.17185642932856 
2418	 0.17226608032975 
2419	 0.172429401512012 
2420	 0.172625062579072 
2421	 0.172960079473756 
2422	 0.172732677847544 
2423	 0.172330672305657 
2424	 0.171947915483894 
2425	 0.171585278716772 
2426	 0.171388738481155 
2427	 0.171522063114931 
2428	 0.171568433775633 
2429	 0.171658041924836 
2430	 0.172288335575597 
2431	 0.172427685824588 
2432	 0.172185480252857 
2433	 0.172353442864538 
2434	 0.172190687285659 
2435	 0.172118098352975 
2436	 0.172558718986318 
2437	 0.172835396304085 
2438	 0.173037715047745 
2439	 0.172971081989706 
2440	 0.1725233526524 
2441	 0.172201981416437 
2442	 0.171937001331131 
2443	 0.171892794186538 
2444	 0.172292946088978 
2445	 0.172785873318613 
2446	 0.172848405533625 
2447	 0.172128591136297 
2448	 0.17131343921789 
2449	 0.170777661308819 
2450	 0.170303224574232 
2451	 0.170081923075905 
2452	 0.169882421206095 
2453	 0.169143753354527 
2454	 0.1685335722233 
2455	 0.168851421769343 
2456	 0.169019077041203 
2457	 0.16893621944601 
2458	 0.169262618629865 
2459	 0.168732533287496 
2460	 0.167932926143228 
2461	 0.167938476062664 
2462	 0.167526222458789 
2463	 0.1672508630092 
2464	 0.167316371408889 
2465	 0.166936187694125 
2466	 0.167240334596978 
2467	 0.167517381902881 
2468	 0.167345051545436 
2469	 0.167611113189241 
2470	 0.167102466875038 
2471	 0.166268027850575 
2472	 0.165924176272309 
2473	 0.166041731248446 
2474	 0.166340620588293 
2475	 0.166902625641722 
2476	 0.167761840250755 
2477	 0.167797407688236 
2478	 0.167697871495613 
2479	 0.167257329624921 
2480	 0.16747501878603 
2481	 0.167286751541842 
2482	 0.166991677456962 
2483	 0.166163022656498 
2484	 0.165545156155567 
2485	 0.166193907932932 
2486	 0.167127795099177 
2487	 0.168616218875796 
2488	 0.169549574593153 
2489	 0.169441260649035 
2490	 0.169467115399484 
2491	 0.169528929823428 
2492	 0.169890642297948 
2493	 0.1695958889522 
2494	 0.168598748681077 
2495	 0.16784933934541 
2496	 0.167013516057715 
2497	 0.166341723716886 
2498	 0.16698499131269 
2499	 0.168167361416866 
2500	 0.169104957990572 
