Wavelength	Tablay400122.asd
350	 0.186970295636093 
351	 0.115674216620927 
352	 4.93350155859644E-02 
353	 8.36230990943578E-02 
354	 0.149892609839814 
355	 0.155553845511588 
356	 0.121494508407908 
357	 8.63599930774897E-02 
358	 8.35703507684966E-02 
359	 8.25711949492023E-02 
360	 6.67304736283442E-02 
361	 4.15556059200928E-02 
362	 6.47169635694604E-02 
363	 5.92808821868586E-02 
364	 2.45592612035443E-02 
365	 9.46200088839467E-02 
366	 9.04829823627198E-02 
367	 4.68186813980566E-02 
368	 3.87616875210497E-02 
369	 0.124468778799581 
370	 0.143017859648216 
371	 0.100182995832097 
372	 0.101520567497144 
373	 0.140482542791768 
374	 0.107155607713003 
375	 1.77476755288013E-02 
376	 9.08633695695242E-02 
377	 9.76139052506897E-02 
378	 7.73663832502324E-02 
379	 9.71027712045955E-02 
380	 7.00146775507551E-02 
381	 7.44776272928056E-02 
382	 9.39852660658418E-02 
383	 6.58351955839649E-02 
384	 7.73105320600244E-02 
385	 0.068921508550401 
386	 3.21527288284817E-02 
387	 5.97842950864745E-02 
388	 7.23410769381537E-02 
389	 7.57296958416111E-02 
390	 8.63072205177299E-02 
391	 7.64134368206394E-02 
392	 7.30684312585456E-02 
393	 7.51488791763589E-02 
394	 6.51007745249967E-02 
395	 5.51430603906866E-02 
396	 5.91758237914714E-02 
397	 7.32521998631374E-02 
398	 6.33887815186353E-02 
399	 8.35992821373652E-02 
400	 9.99111361877915E-02 
401	 0.076931920900826 
402	 6.03339741602284E-02 
403	 5.90138977195734E-02 
404	 6.80479062802687E-02 
405	 7.38437505731353E-02 
406	 7.89162683615694E-02 
407	 0.080428011182815 
408	 7.71821979256541E-02 
409	 7.09188909523658E-02 
410	 6.79970158441302E-02 
411	 6.84942719595678E-02 
412	 7.02074773970535E-02 
413	 0.071750504587545 
414	 7.15886810496823E-02 
415	 6.98479326867553E-02 
416	 6.81663158780643E-02 
417	 7.32159273563637E-02 
418	 0.074456850335796 
419	 6.63725633930511E-02 
420	 6.05187117503652E-02 
421	 5.71743343647429E-02 
422	 5.78086320463412E-02 
423	 6.20131855922071E-02 
424	 5.50905744958382E-02 
425	 5.51420957873684E-02 
426	 6.42302570644176E-02 
427	 6.50691973376654E-02 
428	 6.71236218126227E-02 
429	 6.73813624276796E-02 
430	 6.34723050316413E-02 
431	 6.11417438324691E-02 
432	 6.41689642232984E-02 
433	 6.79844682740908E-02 
434	 6.48173144036693E-02 
435	 6.10247695850462E-02 
436	 6.05429682796162E-02 
437	 6.32477303441048E-02 
438	 6.38581649373209E-02 
439	 5.99174154072423E-02 
440	 5.69106676027508E-02 
441	 6.01094401616504E-02 
442	 6.54598179085325E-02 
443	 6.17056442499164E-02 
444	 5.44013053386036E-02 
445	 6.01555891725438E-02 
446	 5.88972875492615E-02 
447	 5.68602361707897E-02 
448	 5.91175820733591E-02 
449	 6.01783791369674E-02 
450	 5.66683520261647E-02 
451	 5.31905121946608E-02 
452	 5.54246258816716E-02 
453	 0.055096904810359 
454	 5.51046740581879E-02 
455	 5.60876087256343E-02 
456	 0.055584707331133 
457	 0.055694449855755 
458	 5.70548345628812E-02 
459	 5.89145229011674E-02 
460	 5.72417833762544E-02 
461	 0.05802720677832 
462	 5.97054131087965E-02 
463	 5.75385319268968E-02 
464	 5.70594971784931E-02 
465	 0.05710005952089 
466	 5.64946503516602E-02 
467	 0.055092104695555 
468	 5.57607538261512E-02 
469	 5.62128348396103E-02 
470	 0.054451562227206 
471	 5.60135776711245E-02 
472	 5.65124859965061E-02 
473	 5.52910530903958E-02 
474	 0.054708809639232 
475	 5.43307712013026E-02 
476	 5.49038066992518E-02 
477	 5.60716710787916E-02 
478	 5.47857347276624E-02 
479	 0.053340012126724 
480	 5.29768863257118E-02 
481	 5.40217513966209E-02 
482	 5.38611747116141E-02 
483	 5.41509148997963E-02 
484	 0.054944947476613 
485	 5.42706503183589E-02 
486	 5.45217868411617E-02 
487	 5.43870465886303E-02 
488	 5.28353011993829E-02 
489	 5.19279288530834E-02 
490	 5.24063789060497E-02 
491	 5.33494549827828E-02 
492	 5.30766239040714E-02 
493	 5.25604232506627E-02 
494	 5.22848850015416E-02 
495	 5.26382419425867E-02 
496	 5.41397394214602E-02 
497	 5.33888990834593E-02 
498	 0.052021914352801 
499	 5.23368537136767E-02 
500	 0.052107940483002 
501	 5.20528767673024E-02 
502	 5.22216651717521E-02 
503	 5.20236310662755E-02 
504	 5.12214099687675E-02 
505	 5.12728076885228E-02 
506	 5.25177162216185E-02 
507	 5.20053499470418E-02 
508	 5.16210413619924E-02 
509	 5.16083860751753E-02 
510	 0.051592621611318 
511	 0.052085595769922 
512	 5.19766457787881E-02 
513	 5.13155260559742E-02 
514	 5.17422724394084E-02 
515	 5.15620300536476E-02 
516	 5.14543085158994E-02 
517	 5.19579211404344E-02 
518	 5.09751411402461E-02 
519	 5.04370155673087E-02 
520	 5.06676701992332E-02 
521	 5.08375094806737E-02 
522	 5.07073723201536E-02 
523	 5.07987857396914E-02 
524	 0.051236790656466 
525	 5.11362312855457E-02 
526	 5.13384832851817E-02 
527	 5.12732208183601E-02 
528	 5.03756273434264E-02 
529	 0.050915026961431 
530	 5.09011586066026E-02 
531	 5.02377055775889E-02 
532	 5.09737189006576E-02 
533	 5.11304299685565E-02 
534	 5.07015794665322E-02 
535	 5.02039892313781E-02 
536	 5.03844771270318E-02 
537	 5.05646019243091E-02 
538	 5.05572165425539E-02 
539	 5.04693219561782E-02 
540	 0.050404885450082 
541	 5.02386136149554E-02 
542	 5.00501334751323E-02 
543	 5.03109385792144E-02 
544	 5.02511554461021E-02 
545	 5.01180482055774E-02 
546	 5.02895314201119E-02 
547	 5.02508952750828E-02 
548	 5.03264740530124E-02 
549	 5.03918110239127E-02 
550	 4.99581289429912E-02 
551	 4.98280475711162E-02 
552	 5.00142056207812E-02 
553	 5.02846525541553E-02 
554	 5.01951336461045E-02 
555	 0.050034072691944 
556	 4.99709998471775E-02 
557	 5.00667639878983E-02 
558	 4.99748057360676E-02 
559	 4.99101828581251E-02 
560	 4.99747458812764E-02 
561	 5.00418835256465E-02 
562	 5.01121925458366E-02 
563	 5.00939288200716E-02 
564	 0.049953875749084 
565	 0.049930897056331 
566	 4.99734208764807E-02 
567	 5.00242937129499E-02 
568	 5.00301194017224E-02 
569	 5.00170393334679E-02 
570	 4.99453039393985E-02 
571	 4.98110667751782E-02 
572	 4.96957906549229E-02 
573	 4.96029489735306E-02 
574	 4.95804707398513E-02 
575	 4.96438883223229E-02 
576	 4.95664981472091E-02 
577	 4.94034208960022E-02 
578	 4.93091947585262E-02 
579	 4.95120344146122E-02 
580	 4.96024404167865E-02 
581	 4.96276969698321E-02 
582	 4.97046017227204E-02 
583	 4.98396451567446E-02 
584	 4.97456696774872E-02 
585	 4.96394673111362E-02 
586	 4.99305477645365E-02 
587	 4.98406640512283E-02 
588	 4.97368437869556E-02 
589	 4.97644866902477E-02 
590	 4.94673365102786E-02 
591	 4.95035013834173E-02 
592	 4.97061487000955E-02 
593	 4.97306205912446E-02 
594	 4.96493056536794E-02 
595	 4.95988635296013E-02 
596	 4.96220329229093E-02 
597	 4.96687494962421E-02 
598	 4.96027186987097E-02 
599	 4.94682001457558E-02 
600	 4.93686577414726E-02 
601	 4.94768791988958E-02 
602	 4.95780198065545E-02 
603	 4.95923646068884E-02 
604	 4.95203562957054E-02 
605	 0.049452589372536 
606	 4.94154132600896E-02 
607	 4.94680687211605E-02 
608	 4.97168087916145E-02 
609	 4.96614764720269E-02 
610	 4.94716281739115E-02 
611	 4.94207383037948E-02 
612	 4.95308192934129E-02 
613	 4.95760575815841E-02 
614	 4.94839739751068E-02 
615	 4.93119381209508E-02 
616	 4.92623761565789E-02 
617	 0.049381667481171 
618	 4.95600828236565E-02 
619	 4.94516816494534E-02 
620	 4.94509265457939E-02 
621	 4.94355873525198E-02 
622	 4.92371464284323E-02 
623	 4.93323941079685E-02 
624	 4.92777116463273E-02 
625	 4.91335567351524E-02 
626	 0.049408767118198 
627	 4.93121286904047E-02 
628	 4.91689773043821E-02 
629	 4.92771858338937E-02 
630	 4.93500038748032E-02 
631	 4.93881330201864E-02 
632	 4.92835402725586E-02 
633	 4.89949233499295E-02 
634	 4.91805046945786E-02 
635	 0.049323923946049 
636	 4.91974001336557E-02 
637	 4.90537528694941E-02 
638	 4.90920349042453E-02 
639	 4.92191986067753E-02 
640	 0.049308284232539 
641	 4.94282317325428E-02 
642	 4.93952217430928E-02 
643	 4.93259882607826E-02 
644	 4.94567610919367E-02 
645	 0.049260222653645 
646	 0.049063435764264 
647	 4.90695117224888E-02 
648	 4.91166049912988E-02 
649	 4.90893531831465E-02 
650	 4.90908365667442E-02 
651	 4.92017707553152E-02 
652	 4.90805920943704E-02 
653	 4.89729440596921E-02 
654	 4.90025089788532E-02 
655	 4.91496834113554E-02 
656	 4.90388074676623E-02 
657	 4.89687396878008E-02 
658	 4.90983094074226E-02 
659	 4.90635074317066E-02 
660	 4.89728341927292E-02 
661	 4.89303689476285E-02 
662	 4.89936917462715E-02 
663	 0.048913874480299 
664	 4.89649530956863E-02 
665	 4.91501238732557E-02 
666	 4.91791237940015E-02 
667	 4.90482874346589E-02 
668	 4.89201121020982E-02 
669	 0.04892315045529 
670	 4.90308661466116E-02 
671	 4.89760903944304E-02 
672	 4.88726167414996E-02 
673	 4.89458967723198E-02 
674	 4.88353374325506E-02 
675	 4.88358769779606E-02 
676	 4.89870691277164E-02 
677	 4.89672055477605E-02 
678	 0.048950468443047 
679	 0.048904841340942 
680	 4.88103843115632E-02 
681	 4.88204358616501E-02 
682	 4.87983915455651E-02 
683	 4.88121110509639E-02 
684	 4.89780531568158E-02 
685	 4.88367202128669E-02 
686	 4.87939583104663E-02 
687	 4.89472976896137E-02 
688	 4.88436994058641E-02 
689	 4.88214261506392E-02 
690	 4.88225213091583E-02 
691	 4.87632517155344E-02 
692	 4.88452590574535E-02 
693	 4.88367939158041E-02 
694	 4.87277145950324E-02 
695	 4.86600218160081E-02 
696	 0.048755234348333 
697	 4.88031741623039E-02 
698	 0.04870911675159 
699	 4.86122718948198E-02 
700	 4.87073699065057E-02 
701	 4.88454664472558E-02 
702	 4.88303117754241E-02 
703	 4.86953657686855E-02 
704	 0.048671482234594 
705	 4.87295847342821E-02 
706	 4.86771074310875E-02 
707	 4.86439516980816E-02 
708	 4.87527625637077E-02 
709	 4.89484201287886E-02 
710	 4.88863641457176E-02 
711	 4.88485776009358E-02 
712	 4.88401191595905E-02 
713	 4.88025629858399E-02 
714	 4.87480371060384E-02 
715	 4.88169837064622E-02 
716	 4.88969308089047E-02 
717	 0.048741884792227 
718	 4.87352937645832E-02 
719	 4.87835846875018E-02 
720	 4.87870573483619E-02 
721	 4.87426725858382E-02 
722	 0.048827688968644 
723	 4.89271255063293E-02 
724	 4.89070136447048E-02 
725	 0.048942404027135 
726	 4.89502512623498E-02 
727	 4.89048853644438E-02 
728	 4.88406920108347E-02 
729	 0.048934608604409 
730	 4.89793064169315E-02 
731	 4.88886702776429E-02 
732	 4.88509169443038E-02 
733	 4.89280023472057E-02 
734	 4.89879295004863E-02 
735	 0.048917038036324 
736	 4.89009271190262E-02 
737	 4.89500840647466E-02 
738	 4.90012652806862E-02 
739	 4.89634359607504E-02 
740	 4.89523551165902E-02 
741	 4.90300704289468E-02 
742	 4.91582112390811E-02 
743	 4.91655333021998E-02 
744	 4.91909925125949E-02 
745	 0.049231303465897 
746	 4.92398299510103E-02 
747	 4.91513019057527E-02 
748	 4.90606341322089E-02 
749	 0.049031412700194 
750	 0.049090762791061 
751	 4.91736618710914E-02 
752	 4.92277951174528E-02 
753	 4.92342984352502E-02 
754	 4.92144816910412E-02 
755	 4.91946771908863E-02 
756	 4.92077993411936E-02 
757	 4.92572621919263E-02 
758	 4.92731248820612E-02 
759	 4.92357262741853E-02 
760	 0.049184807226056 
761	 4.91873999860486E-02 
762	 4.92847437507501E-02 
763	 4.92928253356669E-02 
764	 4.92021549544625E-02 
765	 4.91994602567224E-02 
766	 4.92677311563407E-02 
767	 4.92899499688873E-02 
768	 4.92338611776269E-02 
769	 4.93157853272768E-02 
770	 4.93510345986097E-02 
771	 4.93400366700026E-02 
772	 4.93485353683713E-02 
773	 4.94133884208723E-02 
774	 4.94472869931577E-02 
775	 4.94057643109179E-02 
776	 4.93019842993767E-02 
777	 4.93098974510381E-02 
778	 4.93500803360035E-02 
779	 4.93420776708907E-02 
780	 4.92677919148499E-02 
781	 4.93267215244124E-02 
782	 4.93781212384073E-02 
783	 4.92941002354965E-02 
784	 4.93618977402334E-02 
785	 4.93673071204633E-02 
786	 4.93252114793005E-02 
787	 4.93628293017442E-02 
788	 4.93777410793393E-02 
789	 4.93612417968058E-02 
790	 4.93227984889708E-02 
791	 4.92839335501853E-02 
792	 0.049288163603338 
793	 4.93584931503931E-02 
794	 4.94576964624494E-02 
795	 0.049415549115384 
796	 4.94169635395076E-02 
797	 0.049406370037396 
798	 4.93029409875252E-02 
799	 4.93425026310761E-02 
800	 4.94421520876317E-02 
801	 4.94955911027522E-02 
802	 4.94143921027449E-02 
803	 4.93475602428569E-02 
804	 4.93392309856745E-02 
805	 4.93916792064974E-02 
806	 4.94703835363946E-02 
807	 4.93289374611715E-02 
808	 0.049221826643594 
809	 4.93590737071701E-02 
810	 4.94524545662948E-02 
811	 4.93706980390031E-02 
812	 4.92560651747925E-02 
813	 0.049327388288826 
814	 4.94379588888861E-02 
815	 4.93880561208758E-02 
816	 4.92574444849513E-02 
817	 4.93382570941922E-02 
818	 4.93328062312522E-02 
819	 4.93037032496253E-02 
820	 4.93171442200943E-02 
821	 4.93557546307204E-02 
822	 4.93999585837521E-02 
823	 0.049378725900682 
824	 4.92872041772431E-02 
825	 4.93562157341217E-02 
826	 4.93996476899572E-02 
827	 4.94386967117665E-02 
828	 4.95333383949758E-02 
829	 4.93702631715731E-02 
830	 4.93613027226462E-02 
831	 4.94962199976074E-02 
832	 0.049402050800537 
833	 4.93999994757384E-02 
834	 4.94145594017347E-02 
835	 4.93907632452181E-02 
836	 4.93905539394796E-02 
837	 4.94691144978871E-02 
838	 4.95018687756971E-02 
839	 4.94145658694674E-02 
840	 0.049390480250922 
841	 0.049454918147193 
842	 4.94896833508982E-02 
843	 4.93953310977985E-02 
844	 4.94933853499396E-02 
845	 0.049499311694546 
846	 4.94409988180273E-02 
847	 0.049551063183051 
848	 4.95747355946399E-02 
849	 4.95322744577139E-02 
850	 4.94879299810062E-02 
851	 4.95125509225905E-02 
852	 4.95311223429207E-02 
853	 4.94959990447477E-02 
854	 0.049430926509243 
855	 4.94893525500103E-02 
856	 4.96472927323882E-02 
857	 4.96747889812913E-02 
858	 4.94641469023559E-02 
859	 4.95815620277388E-02 
860	 4.95672321350152E-02 
861	 4.94511688734702E-02 
862	 4.94701717892745E-02 
863	 4.94048165219483E-02 
864	 4.94760839738065E-02 
865	 4.96766636606283E-02 
866	 4.97763731453187E-02 
867	 4.95955114596129E-02 
868	 4.95393593985357E-02 
869	 4.96911907322774E-02 
870	 4.96026275936646E-02 
871	 4.96378429747565E-02 
872	 4.97391785605705E-02 
873	 0.049777435092798 
874	 4.96561320101539E-02 
875	 4.97554277931364E-02 
876	 4.98946946695148E-02 
877	 4.98085963458535E-02 
878	 4.95865597909444E-02 
879	 4.96037809944943E-02 
880	 4.97699874918544E-02 
881	 4.98020316213086E-02 
882	 4.97774971275927E-02 
883	 4.98442547112228E-02 
884	 4.98657637346592E-02 
885	 4.95913382643392E-02 
886	 4.97443716901589E-02 
887	 4.98580267334751E-02 
888	 4.97171479963584E-02 
889	 0.04956663653627 
890	 4.96713132398259E-02 
891	 0.049792521668053 
892	 4.97736880323982E-02 
893	 4.97673754621039E-02 
894	 4.97211238512091E-02 
895	 4.96541671355908E-02 
896	 4.96475987999173E-02 
897	 4.99367066201836E-02 
898	 4.98486434918265E-02 
899	 4.96196058049543E-02 
900	 4.96622426482144E-02 
901	 0.049753275300826 
902	 4.97808773537889E-02 
903	 4.97225991775319E-02 
904	 4.96359738842088E-02 
905	 4.96687640627784E-02 
906	 0.049811748074275 
907	 4.99293837671101E-02 
908	 4.98553891189448E-02 
909	 4.98147951541378E-02 
910	 4.98587125276667E-02 
911	 4.99184084473892E-02 
912	 4.98520110692074E-02 
913	 4.98870530000976E-02 
914	 0.049843251509289 
915	 4.97683709982724E-02 
916	 0.050053508774476 
917	 4.99357116620982E-02 
918	 4.97765152844219E-02 
919	 4.98657854910558E-02 
920	 4.99242836874406E-02 
921	 5.00427520048633E-02 
922	 0.049975669718175 
923	 4.96918439015158E-02 
924	 0.049885883459551 
925	 5.00122093049871E-02 
926	 0.049930077883758 
927	 4.97411981486574E-02 
928	 4.98614478777623E-02 
929	 5.00267070453358E-02 
930	 5.00407531774498E-02 
931	 4.98817750211227E-02 
932	 5.01110769316827E-02 
933	 5.00858474440189E-02 
934	 4.98704796944322E-02 
935	 4.98698707897137E-02 
936	 4.99314166677676E-02 
937	 5.00745483037818E-02 
938	 5.01003758127875E-02 
939	 4.98146786637761E-02 
940	 5.00654454336587E-02 
941	 5.02700781137208E-02 
942	 5.01665680307849E-02 
943	 4.99415436553147E-02 
944	 5.00634634382882E-02 
945	 5.02385486852083E-02 
946	 5.02230419509765E-02 
947	 0.050000797376372 
948	 5.02393749431148E-02 
949	 5.03779778985929E-02 
950	 5.02442263236796E-02 
951	 5.03458430548141E-02 
952	 5.03473839908009E-02 
953	 5.02806359149519E-02 
954	 5.02501810179003E-02 
955	 5.03581208790934E-02 
956	 5.04542374558194E-02 
957	 5.03536215075492E-02 
958	 0.050172849342182 
959	 0.050498840539964 
960	 5.04346501795493E-02 
961	 5.03951255240024E-02 
962	 5.06175329521303E-02 
963	 5.03902129863942E-02 
964	 5.02852573913977E-02 
965	 5.03427986898948E-02 
966	 5.03734215439905E-02 
967	 4.99979556351645E-02 
968	 5.01754539873865E-02 
969	 5.05522098444944E-02 
970	 5.06319902679067E-02 
971	 5.05811534106701E-02 
972	 5.06029201942542E-02 
973	 5.04915657876486E-02 
974	 5.01805000729463E-02 
975	 5.03435136910316E-02 
976	 5.05101309920597E-02 
977	 5.04033043288793E-02 
978	 5.00289591018657E-02 
979	 0.049960483069484 
980	 5.03550912401964E-02 
981	 5.06173288611502E-02 
982	 5.03229418735901E-02 
983	 5.04651546815496E-02 
984	 5.04109212321993E-02 
985	 0.050330264231172 
986	 5.05216405002447E-02 
987	 5.07825222617784E-02 
988	 0.050821574567605 
989	 5.06856318876702E-02 
990	 5.05053532669524E-02 
991	 5.01338581276181E-02 
992	 5.02369684219233E-02 
993	 5.06129025200096E-02 
994	 5.07490200181312E-02 
995	 5.02680235367498E-02 
996	 5.04128119244594E-02 
997	 5.05750525303421E-02 
998	 5.00792461828378E-02 
999	 5.04035217023851E-02 
1000	 5.06661621919101E-02 
1001	 5.16063125529718E-02 
1002	 5.13797377952165E-02 
1003	 5.14776886886018E-02 
1004	 5.14948869048743E-02 
1005	 5.13901398936024E-02 
1006	 5.14318655640638E-02 
1007	 0.051738558055003 
1008	 5.17894725069972E-02 
1009	 5.16634249031632E-02 
1010	 5.17338655057585E-02 
1011	 5.18550052294164E-02 
1012	 5.19092004701854E-02 
1013	 0.052132669558316 
1014	 5.21958056316435E-02 
1015	 5.21053458315476E-02 
1016	 5.19128523077422E-02 
1017	 5.21112594796631E-02 
1018	 5.21172801441456E-02 
1019	 5.20495849356635E-02 
1020	 5.22207293739873E-02 
1021	 5.21529436240505E-02 
1022	 5.17383495633189E-02 
1023	 5.16531103071783E-02 
1024	 5.17257366312249E-02 
1025	 5.16803998103416E-02 
1026	 5.16452661213366E-02 
1027	 0.051664271784268 
1028	 5.16976211915065E-02 
1029	 5.16695507328099E-02 
1030	 5.16989153126439E-02 
1031	 0.051886439137404 
1032	 0.051901679939807 
1033	 5.18830986909573E-02 
1034	 5.19370687741663E-02 
1035	 5.18431460346294E-02 
1036	 5.17998993829924E-02 
1037	 5.17299427878041E-02 
1038	 5.17253435197759E-02 
1039	 5.17995221469038E-02 
1040	 5.18277170146293E-02 
1041	 0.051814704967261 
1042	 5.18568719576844E-02 
1043	 5.19414111468998E-02 
1044	 0.051960224241206 
1045	 5.18587730194203E-02 
1046	 5.19142186223667E-02 
1047	 5.18360585677461E-02 
1048	 5.15721866904107E-02 
1049	 5.15214840834182E-02 
1050	 5.16528886572372E-02 
1051	 5.18993777997178E-02 
1052	 5.21659197871686E-02 
1053	 5.22323516246729E-02 
1054	 5.21889235638242E-02 
1055	 5.20754439046213E-02 
1056	 5.16914652967225E-02 
1057	 5.16074898503818E-02 
1058	 0.051614769537734 
1059	 5.17154621911531E-02 
1060	 5.18062386394196E-02 
1061	 5.17497163258163E-02 
1062	 5.17312455661119E-02 
1063	 5.17524281175246E-02 
1064	 0.051890913076411 
1065	 5.20699573920982E-02 
1066	 5.20447914358051E-02 
1067	 5.20071592170697E-02 
1068	 5.20090016501293E-02 
1069	 5.19255201965011E-02 
1070	 5.18950320293845E-02 
1071	 5.19058309019719E-02 
1072	 5.19137752988363E-02 
1073	 5.19239326600795E-02 
1074	 0.052010137614883 
1075	 5.20377226454299E-02 
1076	 0.052161107762331 
1077	 5.22315011886501E-02 
1078	 5.21324353390151E-02 
1079	 5.21668699428296E-02 
1080	 5.22126687105636E-02 
1081	 5.21798153546714E-02 
1082	 5.22391689382654E-02 
1083	 5.23506276866965E-02 
1084	 5.24173305106344E-02 
1085	 5.24382553852804E-02 
1086	 5.24680261973952E-02 
1087	 5.25281938666487E-02 
1088	 5.25183634864078E-02 
1089	 5.25088349821011E-02 
1090	 5.27094949507485E-02 
1091	 5.27725392725237E-02 
1092	 5.27172747707797E-02 
1093	 5.27414379053783E-02 
1094	 5.25864916371569E-02 
1095	 5.25664948760723E-02 
1096	 0.052621058267127 
1097	 5.25577643121486E-02 
1098	 5.26496548995027E-02 
1099	 5.26978158342634E-02 
1100	 5.26738326333172E-02 
1101	 0.05264473493611 
1102	 5.25192215300211E-02 
1103	 5.24550117171288E-02 
1104	 0.052342284815404 
1105	 5.23479988176717E-02 
1106	 5.24477257680707E-02 
1107	 5.25018414826003E-02 
1108	 5.24984892985645E-02 
1109	 5.25349751188275E-02 
1110	 5.25402167629063E-02 
1111	 5.25496308348699E-02 
1112	 5.25596103367576E-02 
1113	 0.052498060100132 
1114	 0.052442345682441 
1115	 5.23900741036546E-02 
1116	 5.23824165225594E-02 
1117	 5.24777967546301E-02 
1118	 5.25196167126397E-02 
1119	 5.25700340651513E-02 
1120	 5.25834636453896E-02 
1121	 5.25735984383079E-02 
1122	 5.25518923721219E-02 
1123	 5.25396517685115E-02 
1124	 5.25322440343312E-02 
1125	 5.24763958293295E-02 
1126	 5.24135299771105E-02 
1127	 5.23907927678993E-02 
1128	 0.052362981941724 
1129	 5.23868971650931E-02 
1130	 5.23912189236394E-02 
1131	 0.052320444256381 
1132	 5.22590633742627E-02 
1133	 5.22309312880809E-02 
1134	 5.22753817167953E-02 
1135	 5.22678818840174E-02 
1136	 5.22127978625941E-02 
1137	 5.22461833611047E-02 
1138	 5.23428801859771E-02 
1139	 5.23498661157594E-02 
1140	 5.23598694788214E-02 
1141	 0.052392454931381 
1142	 0.052376911444341 
1143	 5.23200432843792E-02 
1144	 5.22780179724975E-02 
1145	 5.22754528589466E-02 
1146	 5.22520492678172E-02 
1147	 5.22205310280446E-02 
1148	 5.21713329283721E-02 
1149	 5.21461577674539E-02 
1150	 5.21537523934492E-02 
1151	 5.21426317324512E-02 
1152	 5.21502631073685E-02 
1153	 5.22324132777837E-02 
1154	 5.22622634572268E-02 
1155	 5.22417212407603E-02 
1156	 5.22425860397415E-02 
1157	 5.23153016912796E-02 
1158	 5.22639598579057E-02 
1159	 5.21228780031986E-02 
1160	 5.20183430622404E-02 
1161	 5.19134208923011E-02 
1162	 5.18270204117395E-02 
1163	 5.18597684489888E-02 
1164	 5.19646486403249E-02 
1165	 5.20362024724063E-02 
1166	 5.20985255054563E-02 
1167	 5.21321840905615E-02 
1168	 5.20891291352391E-02 
1169	 0.052049484091658 
1170	 5.19294791396641E-02 
1171	 5.19001177456892E-02 
1172	 5.18888979158711E-02 
1173	 5.19087688013266E-02 
1174	 5.19909075428196E-02 
1175	 0.052038495033541 
1176	 5.21507599458219E-02 
1177	 5.21744160902643E-02 
1178	 5.21467477025643E-02 
1179	 5.20728982078533E-02 
1180	 5.20531096044587E-02 
1181	 5.20129510124827E-02 
1182	 5.19941453630633E-02 
1183	 0.052086137944504 
1184	 5.21929440890882E-02 
1185	 5.21854132137893E-02 
1186	 5.21808745827674E-02 
1187	 5.21789384707088E-02 
1188	 5.21685246408488E-02 
1189	 5.20812387476748E-02 
1190	 5.20780613112595E-02 
1191	 0.052125411937073 
1192	 5.21673340564961E-02 
1193	 5.22680900332142E-02 
1194	 0.052291294083646 
1195	 0.052275598422741 
1196	 0.052281231060892 
1197	 5.22727715994594E-02 
1198	 5.22234143442259E-02 
1199	 5.22067111731921E-02 
1200	 0.052163950951334 
1201	 5.21059121158486E-02 
1202	 5.20953201481679E-02 
1203	 5.21781194438384E-02 
1204	 5.23126643001729E-02 
1205	 5.23542600233557E-02 
1206	 5.23698717681725E-02 
1207	 5.23990331523591E-02 
1208	 0.052390901018533 
1209	 5.23837744129133E-02 
1210	 5.24119492384731E-02 
1211	 5.24080499721693E-02 
1212	 5.23363981348879E-02 
1213	 5.22967693757696E-02 
1214	 5.22801553397086E-02 
1215	 5.22551486403792E-02 
1216	 5.22142461889427E-02 
1217	 5.22036548490376E-02 
1218	 5.22142158604686E-02 
1219	 5.22204543917505E-02 
1220	 5.22110913637294E-02 
1221	 5.22049648887691E-02 
1222	 5.22224446391721E-02 
1223	 5.22611685314321E-02 
1224	 5.22843484675654E-02 
1225	 5.23585090884712E-02 
1226	 5.23601131618913E-02 
1227	 5.22781526865399E-02 
1228	 5.22814079252555E-02 
1229	 5.23279375819938E-02 
1230	 5.23278258308866E-02 
1231	 5.23400613963136E-02 
1232	 5.23405747352801E-02 
1233	 5.23011347727042E-02 
1234	 5.22609377940038E-02 
1235	 5.21979085918575E-02 
1236	 5.22030353575339E-02 
1237	 5.22218575123002E-02 
1238	 5.22481466312203E-02 
1239	 5.23797571889358E-02 
1240	 5.24347231695564E-02 
1241	 5.24006410410831E-02 
1242	 5.23948103117743E-02 
1243	 5.23830398279099E-02 
1244	 5.23265684741117E-02 
1245	 5.23340389104294E-02 
1246	 0.05239544673812 
1247	 0.052413464844366 
1248	 5.24191395021176E-02 
1249	 5.24561065011416E-02 
1250	 5.25066176125218E-02 
1251	 5.25225264822962E-02 
1252	 5.25793624233263E-02 
1253	 5.25674855760625E-02 
1254	 5.24273359334453E-02 
1255	 5.24111255145618E-02 
1256	 5.24736821273429E-02 
1257	 5.24659140127344E-02 
1258	 5.24999716979091E-02 
1259	 5.24919679110569E-02 
1260	 5.23642481761841E-02 
1261	 5.23061537730498E-02 
1262	 5.22629275717107E-02 
1263	 5.22680903541666E-02 
1264	 5.22862444754671E-02 
1265	 5.23538734919122E-02 
1266	 5.23633833462901E-02 
1267	 5.23892747267208E-02 
1268	 5.23608865784457E-02 
1269	 5.22467566325438E-02 
1270	 0.052231951501728 
1271	 5.22336338796509E-02 
1272	 5.22508161267518E-02 
1273	 0.052375756976758 
1274	 5.23755991222562E-02 
1275	 5.22712887758726E-02 
1276	 0.052255448736321 
1277	 5.22190655431301E-02 
1278	 5.22106306435451E-02 
1279	 5.23073169703795E-02 
1280	 5.23296262661262E-02 
1281	 5.22725514090438E-02 
1282	 0.052271637536519 
1283	 5.23016031921115E-02 
1284	 5.23023345707602E-02 
1285	 0.052301807262266 
1286	 5.23197078567311E-02 
1287	 0.052337404866992 
1288	 5.23031604077314E-02 
1289	 5.23660753662673E-02 
1290	 5.25402061225902E-02 
1291	 5.25707442516009E-02 
1292	 5.25589482534027E-02 
1293	 0.052584909744835 
1294	 5.25353521621614E-02 
1295	 5.25536504868789E-02 
1296	 5.26476853515228E-02 
1297	 5.27170825847483E-02 
1298	 5.27788940180522E-02 
1299	 5.28418601981957E-02 
1300	 5.29465003350589E-02 
1301	 5.30004115302826E-02 
1302	 5.30463912584878E-02 
1303	 5.30405626772304E-02 
1304	 5.29268130864896E-02 
1305	 5.29055455707096E-02 
1306	 5.28878195029039E-02 
1307	 5.28905673159316E-02 
1308	 5.29726894050613E-02 
1309	 5.30535978413717E-02 
1310	 5.30868147583454E-02 
1311	 5.30813145899846E-02 
1312	 5.31085540030243E-02 
1313	 5.31214352298556E-02 
1314	 5.31641395245587E-02 
1315	 0.053244599444495 
1316	 5.32825737255294E-02 
1317	 5.33014682018715E-02 
1318	 5.33447862679714E-02 
1319	 0.053406260040591 
1320	 0.053417883449969 
1321	 5.34013598142668E-02 
1322	 5.34239225027464E-02 
1323	 5.34574027723544E-02 
1324	 5.34343598892306E-02 
1325	 5.34219802101102E-02 
1326	 5.33943493863883E-02 
1327	 0.053262697459799 
1328	 5.32073548113679E-02 
1329	 5.32271029959232E-02 
1330	 5.32116160147828E-02 
1331	 5.31854523272544E-02 
1332	 5.31757166359594E-02 
1333	 5.31648177367954E-02 
1334	 5.31611796061637E-02 
1335	 5.31441337189648E-02 
1336	 5.31323983784939E-02 
1337	 5.31259767426314E-02 
1338	 5.31087601155597E-02 
1339	 5.30992769664783E-02 
1340	 5.31274858106525E-02 
1341	 5.30913926282199E-02 
1342	 5.29965026862535E-02 
1343	 5.29649441402957E-02 
1344	 5.29328527164926E-02 
1345	 5.29100716005322E-02 
1346	 5.29535270891695E-02 
1347	 5.29231700908408E-02 
1348	 5.28157175796155E-02 
1349	 5.27853656897568E-02 
1350	 5.27765206131401E-02 
1351	 0.052752953093194 
1352	 5.27845780043659E-02 
1353	 5.27646947270876E-02 
1354	 5.26699077927192E-02 
1355	 5.26313011639694E-02 
1356	 5.25947514293794E-02 
1357	 5.25841992429545E-02 
1358	 5.26472971698092E-02 
1359	 5.26545696593676E-02 
1360	 5.26372376324258E-02 
1361	 5.26272205651918E-02 
1362	 0.052600370784609 
1363	 5.25627416758715E-02 
1364	 5.25455158923263E-02 
1365	 5.25521413562925E-02 
1366	 5.25422238906139E-02 
1367	 5.25256772718181E-02 
1368	 5.25123505461629E-02 
1369	 5.25157717276297E-02 
1370	 5.24787141643306E-02 
1371	 5.24027235691329E-02 
1372	 5.23779493128801E-02 
1373	 5.23668592088261E-02 
1374	 5.23271267522018E-02 
1375	 5.23147147196434E-02 
1376	 5.22741504692415E-02 
1377	 5.21649349572404E-02 
1378	 5.21149219626448E-02 
1379	 5.21000834923771E-02 
1380	 5.20749062363999E-02 
1381	 5.20603358153447E-02 
1382	 5.20462939573359E-02 
1383	 5.20531854646094E-02 
1384	 5.20262486672769E-02 
1385	 5.19663569158628E-02 
1386	 5.19393085686729E-02 
1387	 0.051918737635685 
1388	 5.18812195392788E-02 
1389	 5.18614042293739E-02 
1390	 5.18324532554346E-02 
1391	 5.17996020905812E-02 
1392	 5.17292911444174E-02 
1393	 5.16093319888242E-02 
1394	 5.15626483982585E-02 
1395	 5.15155936308449E-02 
1396	 5.14457755172085E-02 
1397	 5.14290697657106E-02 
1398	 5.14855731765749E-02 
1399	 5.14775153843474E-02 
1400	 5.14562535888312E-02 
1401	 0.051435979895757 
1402	 5.14023513198424E-02 
1403	 5.13669375535858E-02 
1404	 5.13216735874177E-02 
1405	 5.13036445022354E-02 
1406	 5.12790474592348E-02 
1407	 0.051274649505979 
1408	 5.13159394441872E-02 
1409	 5.13169616391095E-02 
1410	 5.13234866336012E-02 
1411	 5.12980573311839E-02 
1412	 5.12134372919204E-02 
1413	 5.11831288537974E-02 
1414	 5.11412837723283E-02 
1415	 5.11380147746448E-02 
1416	 0.051208939464122 
1417	 5.12366925270216E-02 
1418	 5.12759580029169E-02 
1419	 5.12804116905088E-02 
1420	 5.12234000470222E-02 
1421	 5.12107132207878E-02 
1422	 0.051204181570768 
1423	 5.12021453090463E-02 
1424	 5.12245372249535E-02 
1425	 5.12580137221293E-02 
1426	 5.12612996146026E-02 
1427	 0.051259041676463 
1428	 5.12832430505476E-02 
1429	 5.12946111711389E-02 
1430	 5.12873667928988E-02 
1431	 5.12582515575961E-02 
1432	 5.12739498608661E-02 
1433	 5.12860907154204E-02 
1434	 5.13125339086276E-02 
1435	 0.05139796178949 
1436	 5.14253542640009E-02 
1437	 0.051420280475815 
1438	 5.14194278755453E-02 
1439	 5.14029357659646E-02 
1440	 5.13925919343164E-02 
1441	 5.13690884999339E-02 
1442	 5.13709135456839E-02 
1443	 0.051403088588438 
1444	 5.13945944656385E-02 
1445	 5.13761915736662E-02 
1446	 5.13601483323083E-02 
1447	 5.12959544602741E-02 
1448	 5.12903614792489E-02 
1449	 5.13256397225341E-02 
1450	 5.13532252108328E-02 
1451	 5.14290399040665E-02 
1452	 5.14496407768122E-02 
1453	 5.14273289194123E-02 
1454	 5.14316967308764E-02 
1455	 5.14041742047507E-02 
1456	 0.051412817352173 
1457	 5.14821399156759E-02 
1458	 5.15112688845551E-02 
1459	 5.15320303893467E-02 
1460	 5.15491366771835E-02 
1461	 0.051537839662697 
1462	 5.15371337044261E-02 
1463	 5.15498457982617E-02 
1464	 0.051551780353434 
1465	 5.15461337526656E-02 
1466	 5.15522035931352E-02 
1467	 0.051511814141754 
1468	 0.05146477891021 
1469	 5.14423514816865E-02 
1470	 5.14292717554238E-02 
1471	 5.14399078247188E-02 
1472	 5.14940032309822E-02 
1473	 5.15191021688178E-02 
1474	 5.15528527856841E-02 
1475	 5.15526880157001E-02 
1476	 5.15295422269085E-02 
1477	 5.15319141999589E-02 
1478	 5.15316138223434E-02 
1479	 5.15092307459706E-02 
1480	 5.14846697586394E-02 
1481	 0.051479479675784 
1482	 5.14396011007059E-02 
1483	 5.14536271953952E-02 
1484	 5.15424101961527E-02 
1485	 0.051564095123183 
1486	 5.15584459837502E-02 
1487	 5.15781310249629E-02 
1488	 5.15937406845524E-02 
1489	 5.15965305697572E-02 
1490	 5.16086072871332E-02 
1491	 5.16216076190721E-02 
1492	 5.16233219436743E-02 
1493	 5.16125265378383E-02 
1494	 5.16098260282275E-02 
1495	 0.051595672354896 
1496	 5.15299302591507E-02 
1497	 5.15174051371498E-02 
1498	 5.15369182350364E-02 
1499	 5.15577086615686E-02 
1500	 5.16034377215322E-02 
1501	 5.16434984718092E-02 
1502	 5.17210868579559E-02 
1503	 5.17328730279009E-02 
1504	 5.16915765823089E-02 
1505	 5.16836897411109E-02 
1506	 5.16335254602438E-02 
1507	 5.16194475326103E-02 
1508	 5.16633540232372E-02 
1509	 5.16824110538708E-02 
1510	 0.051716741649411 
1511	 0.05171065546637 
1512	 5.16554022655302E-02 
1513	 5.16356083181331E-02 
1514	 5.15999715646874E-02 
1515	 5.15811682788356E-02 
1516	 5.15978135967993E-02 
1517	 5.16149629131593E-02 
1518	 5.16520584551547E-02 
1519	 5.16575931238807E-02 
1520	 5.16420460338864E-02 
1521	 5.16427859000886E-02 
1522	 5.16329239220867E-02 
1523	 5.16440208740447E-02 
1524	 5.16519215004113E-02 
1525	 5.16906062843014E-02 
1526	 5.17071985747915E-02 
1527	 5.17166731161413E-02 
1528	 5.16961692966109E-02 
1529	 5.16635636018756E-02 
1530	 5.16493827049191E-02 
1531	 5.16010488656222E-02 
1532	 5.15971286265478E-02 
1533	 5.16375396426033E-02 
1534	 5.16518813878791E-02 
1535	 5.16718494855806E-02 
1536	 5.16650182640296E-02 
1537	 5.16404623845849E-02 
1538	 5.16366820895512E-02 
1539	 5.16072450663478E-02 
1540	 5.16281295794795E-02 
1541	 5.17219359195816E-02 
1542	 5.17135413254546E-02 
1543	 5.16641283130925E-02 
1544	 5.16484861859131E-02 
1545	 0.05158210799273 
1546	 5.15666249505225E-02 
1547	 5.16227054574642E-02 
1548	 5.16190434694297E-02 
1549	 5.15599010425371E-02 
1550	 0.051577063389688 
1551	 5.16352149207407E-02 
1552	 5.16549671729712E-02 
1553	 5.17277427578528E-02 
1554	 5.17159218384559E-02 
1555	 5.15946666103128E-02 
1556	 5.15737956834306E-02 
1557	 5.15652259799547E-02 
1558	 5.15723492200888E-02 
1559	 5.16673155540433E-02 
1560	 5.16704310079742E-02 
1561	 5.16026380923047E-02 
1562	 5.15950338170875E-02 
1563	 5.15894528800256E-02 
1564	 5.15738947151407E-02 
1565	 5.15936880622635E-02 
1566	 5.15868635243968E-02 
1567	 5.15231571040631E-02 
1568	 5.15127984936364E-02 
1569	 5.15297868072522E-02 
1570	 0.051552382134669 
1571	 5.16308375360555E-02 
1572	 5.16361553557629E-02 
1573	 5.16115454501143E-02 
1574	 5.15853510837034E-02 
1575	 5.14815964449227E-02 
1576	 0.051455019469782 
1577	 0.051465311740756 
1578	 5.14889192480065E-02 
1579	 5.15798686181327E-02 
1580	 5.16113280238082E-02 
1581	 5.16280532421559E-02 
1582	 5.16391943333753E-02 
1583	 0.051615906128787 
1584	 0.051601024052175 
1585	 5.15892629312138E-02 
1586	 5.15772428380937E-02 
1587	 5.15660570455889E-02 
1588	 5.15405608102078E-02 
1589	 5.14903503247404E-02 
1590	 0.051478093659469 
1591	 5.14623317047492E-02 
1592	 5.14702450298811E-02 
1593	 5.15417916382307E-02 
1594	 5.15730479903844E-02 
1595	 5.16063316053976E-02 
1596	 5.16071255983184E-02 
1597	 5.15613229882041E-02 
1598	 5.15386437220091E-02 
1599	 5.15009398569182E-02 
1600	 5.14783342028908E-02 
1601	 5.14862275117857E-02 
1602	 0.051475206510878 
1603	 5.14370845421668E-02 
1604	 5.14312035888502E-02 
1605	 5.14560853706508E-02 
1606	 5.14484558625771E-02 
1607	 5.14350744261737E-02 
1608	 5.14334894521418E-02 
1609	 5.14019519247604E-02 
1610	 5.13979208492427E-02 
1611	 5.14271546614743E-02 
1612	 5.14559880252759E-02 
1613	 0.051529752999944 
1614	 5.15281041345787E-02 
1615	 5.14606182713681E-02 
1616	 5.14499623163929E-02 
1617	 5.14182263448268E-02 
1618	 5.13944098549542E-02 
1619	 5.14343323350356E-02 
1620	 5.14445986387498E-02 
1621	 5.14182730571186E-02 
1622	 0.051402606752676 
1623	 5.13778705307174E-02 
1624	 5.13783954288359E-02 
1625	 5.13927938929653E-02 
1626	 5.14008906665481E-02 
1627	 5.14631296138635E-02 
1628	 5.14609505059368E-02 
1629	 5.13830414494717E-02 
1630	 5.13521857452801E-02 
1631	 5.12778450630211E-02 
1632	 5.12815043827032E-02 
1633	 5.14276485606382E-02 
1634	 5.14436079501866E-02 
1635	 5.14009441363714E-02 
1636	 5.13951569492967E-02 
1637	 0.051321999178904 
1638	 5.12811327166861E-02 
1639	 5.12992474212124E-02 
1640	 5.13104181325903E-02 
1641	 5.12887681265033E-02 
1642	 0.05129972229623 
1643	 5.13867127185414E-02 
1644	 0.051405986477717 
1645	 5.14040464114515E-02 
1646	 5.13843678869078E-02 
1647	 5.12682032603269E-02 
1648	 5.12450500980919E-02 
1649	 5.12888921229587E-02 
1650	 5.12923890557286E-02 
1651	 5.13249724196582E-02 
1652	 5.13566304655566E-02 
1653	 5.13816044063587E-02 
1654	 5.13581103619752E-02 
1655	 5.13158607481694E-02 
1656	 5.12874635354136E-02 
1657	 5.12024644707434E-02 
1658	 0.051150581171824 
1659	 0.051131844534482 
1660	 5.11352135532164E-02 
1661	 5.11590355949139E-02 
1662	 5.11675680597908E-02 
1663	 5.11845234808942E-02 
1664	 5.12151107070245E-02 
1665	 5.12530784645053E-02 
1666	 0.051261295189899 
1667	 5.13019934538389E-02 
1668	 5.13029008157804E-02 
1669	 5.12181236175508E-02 
1670	 5.11918326276944E-02 
1671	 5.11870250927734E-02 
1672	 5.11738412960026E-02 
1673	 5.12013138836761E-02 
1674	 5.11801333071391E-02 
1675	 5.11082203453841E-02 
1676	 5.10934735404934E-02 
1677	 5.10673881490707E-02 
1678	 5.10671292377875E-02 
1679	 5.11352016764623E-02 
1680	 5.11500436629366E-02 
1681	 5.11616850352512E-02 
1682	 5.11426636622654E-02 
1683	 5.10682519610888E-02 
1684	 5.10444139983891E-02 
1685	 5.10026156417788E-02 
1686	 5.10093030791823E-02 
1687	 0.051118303511006 
1688	 5.11097300848487E-02 
1689	 5.10382252168522E-02 
1690	 5.10147964988736E-02 
1691	 5.09415928189564E-02 
1692	 5.09345264697894E-02 
1693	 5.10049624734495E-02 
1694	 5.10471973830585E-02 
1695	 0.051082762065031 
1696	 5.10948968811787E-02 
1697	 0.051129668487606 
1698	 5.11151046121586E-02 
1699	 5.10568210849525E-02 
1700	 5.10229236518393E-02 
1701	 5.09435450839974E-02 
1702	 5.09395337213979E-02 
1703	 5.09842192173051E-02 
1704	 0.051003256243325 
1705	 5.10657473662325E-02 
1706	 5.10518388791849E-02 
1707	 5.10540202522723E-02 
1708	 5.10945640280359E-02 
1709	 0.05104583521993 
1710	 5.10519228283356E-02 
1711	 5.10921849698657E-02 
1712	 5.10456977816185E-02 
1713	 5.10838944436206E-02 
1714	 5.10975156109047E-02 
1715	 5.10156536291513E-02 
1716	 0.051017153883986 
1717	 5.10274372947638E-02 
1718	 5.10502921929081E-02 
1719	 5.11301911109653E-02 
1720	 0.051150133738628 
1721	 5.11214295485953E-02 
1722	 5.10789493105307E-02 
1723	 5.10100374718235E-02 
1724	 0.050974017689697 
1725	 5.09940389218636E-02 
1726	 0.051007569283414 
1727	 5.10227454437815E-02 
1728	 5.10502251184905E-02 
1729	 5.10488118483432E-02 
1730	 5.10384168375084E-02 
1731	 5.09909109242174E-02 
1732	 5.09127288359598E-02 
1733	 5.08471148460983E-02 
1734	 5.07820351616422E-02 
1735	 5.07777416520135E-02 
1736	 5.08326466287898E-02 
1737	 5.08921107854199E-02 
1738	 5.09274411876021E-02 
1739	 5.09277709024814E-02 
1740	 5.08513420251364E-02 
1741	 5.08124986344194E-02 
1742	 5.07819122155633E-02 
1743	 5.07794833371838E-02 
1744	 0.050813195216547 
1745	 5.07866427388252E-02 
1746	 5.07375757824703E-02 
1747	 5.07275910506567E-02 
1748	 5.07238039112907E-02 
1749	 0.050709841885957 
1750	 0.050698877366415 
1751	 5.06907815612918E-02 
1752	 5.06791257676126E-02 
1753	 5.06370178159259E-02 
1754	 5.05989803247179E-02 
1755	 5.05841406586234E-02 
1756	 5.05157868836134E-02 
1757	 5.04887183133431E-02 
1758	 5.05430268693195E-02 
1759	 5.05580058208259E-02 
1760	 5.05107787107037E-02 
1761	 5.05049709162801E-02 
1762	 5.05184323178081E-02 
1763	 5.04921947055544E-02 
1764	 5.05077251556939E-02 
1765	 5.05683271397252E-02 
1766	 5.05950120271962E-02 
1767	 5.05815734639549E-02 
1768	 5.05534827679191E-02 
1769	 5.05078501264839E-02 
1770	 5.04618797956555E-02 
1771	 5.04262661105364E-02 
1772	 5.03701084161828E-02 
1773	 5.03299137972643E-02 
1774	 0.050351067014101 
1775	 5.04117305431962E-02 
1776	 5.04852933476551E-02 
1777	 5.05336109793357E-02 
1778	 5.04960821930237E-02 
1779	 5.03970613345817E-02 
1780	 5.03736123702267E-02 
1781	 5.04001630630086E-02 
1782	 5.04061098659172E-02 
1783	 5.04323493566873E-02 
1784	 5.04475156226181E-02 
1785	 5.04759936671094E-02 
1786	 5.04811970430314E-02 
1787	 5.05306824641492E-02 
1788	 5.05417427119813E-02 
1789	 5.04551554612956E-02 
1790	 0.050424300980173 
1791	 5.04092856782829E-02 
1792	 5.04115661166077E-02 
1793	 5.04595738138755E-02 
1794	 5.04637985811707E-02 
1795	 5.04584346063316E-02 
1796	 5.04278560994349E-02 
1797	 5.04114339838789E-02 
1798	 0.05048508229522 
1799	 5.05642517610123E-02 
1800	 5.05198106320545E-02 
1801	 5.01374089728031E-02 
1802	 5.00859983620556E-02 
1803	 5.00700628080067E-02 
1804	 5.00019516351026E-02 
1805	 4.99422091807365E-02 
1806	 4.99575741609878E-02 
1807	 5.00613309328372E-02 
1808	 5.01063446725141E-02 
1809	 5.02041333848732E-02 
1810	 5.02183344200279E-02 
1811	 5.01565525769238E-02 
1812	 5.01361564878904E-02 
1813	 5.01230688708442E-02 
1814	 5.00421047641486E-02 
1815	 4.99885028940543E-02 
1816	 5.00441977116762E-02 
1817	 5.00492347917606E-02 
1818	 5.00538300005176E-02 
1819	 5.00458757420549E-02 
1820	 5.00073749959205E-02 
1821	 5.00142575240682E-02 
1822	 5.00113334983381E-02 
1823	 5.00624196641276E-02 
1824	 5.01571809103874E-02 
1825	 5.02412199138765E-02 
1826	 5.02848327391016E-02 
1827	 5.03064182116345E-02 
1828	 5.03284937862316E-02 
1829	 5.03051827235935E-02 
1830	 0.050319722720875 
1831	 5.03659488339344E-02 
1832	 5.03910519269082E-02 
1833	 5.03557971946863E-02 
1834	 5.02942118005423E-02 
1835	 5.01973946819681E-02 
1836	 5.01308868014616E-02 
1837	 5.01128850661631E-02 
1838	 5.01757369763733E-02 
1839	 0.050194116079537 
1840	 5.02181411794897E-02 
1841	 5.02331501536909E-02 
1842	 5.02575103095274E-02 
1843	 5.02479176032737E-02 
1844	 5.01802383220979E-02 
1845	 0.050123284256656 
1846	 5.01133550622522E-02 
1847	 5.01067258863278E-02 
1848	 5.01003720577708E-02 
1849	 5.01704000069482E-02 
1850	 5.01759820328632E-02 
1851	 5.01263664164784E-02 
1852	 5.00895703672846E-02 
1853	 5.00927362588731E-02 
1854	 5.01100746627401E-02 
1855	 5.01798925638444E-02 
1856	 5.02110110470984E-02 
1857	 5.02217133472391E-02 
1858	 5.02998444969178E-02 
1859	 5.03357870288239E-02 
1860	 5.03425118383282E-02 
1861	 5.03529833003081E-02 
1862	 5.03799980791919E-02 
1863	 5.03590492406219E-02 
1864	 5.02949345431535E-02 
1865	 0.050263728911858 
1866	 5.02435303363582E-02 
1867	 5.02189027724612E-02 
1868	 5.02363233640869E-02 
1869	 5.02101483156838E-02 
1870	 5.01827927480851E-02 
1871	 5.01435255868105E-02 
1872	 5.01188395144022E-02 
1873	 5.00702883483517E-02 
1874	 5.00741034548621E-02 
1875	 5.01141040386541E-02 
1876	 5.00761101936802E-02 
1877	 4.99993280497301E-02 
1878	 4.99372899804603E-02 
1879	 4.99120952857629E-02 
1880	 4.99006842089254E-02 
1881	 4.99001719985264E-02 
1882	 4.99463720673811E-02 
1883	 4.99968136353519E-02 
1884	 4.99554927310486E-02 
1885	 4.99407058939317E-02 
1886	 4.99243733298559E-02 
1887	 0.049826107729503 
1888	 4.97554925671258E-02 
1889	 4.96888066533775E-02 
1890	 4.95995210867792E-02 
1891	 4.95573405700082E-02 
1892	 4.95449753296993E-02 
1893	 4.95172361383062E-02 
1894	 4.94728355008729E-02 
1895	 4.94490685687984E-02 
1896	 4.94493882800597E-02 
1897	 4.94423056241846E-02 
1898	 4.94479524309221E-02 
1899	 4.94500701615827E-02 
1900	 4.93939134584201E-02 
1901	 4.93253663324648E-02 
1902	 4.93200602003532E-02 
1903	 4.92752407760528E-02 
1904	 4.92065491514837E-02 
1905	 4.91306355732732E-02 
1906	 4.90741141110552E-02 
1907	 4.89946582631412E-02 
1908	 4.89738786425079E-02 
1909	 4.89846500181313E-02 
1910	 4.89590495597447E-02 
1911	 4.89468157131604E-02 
1912	 4.89123191159791E-02 
1913	 4.88435417455658E-02 
1914	 4.88448764913715E-02 
1915	 4.88363559632888E-02 
1916	 4.88387085112012E-02 
1917	 0.048764646084893 
1918	 4.87148543276959E-02 
1919	 4.86676294313654E-02 
1920	 4.85836475392956E-02 
1921	 4.85885444515579E-02 
1922	 4.86187287971412E-02 
1923	 0.048609009416203 
1924	 4.86246578215117E-02 
1925	 0.048603142874672 
1926	 4.85743218267964E-02 
1927	 4.85212686809125E-02 
1928	 4.85112926549412E-02 
1929	 4.85088273335872E-02 
1930	 0.048509689382576 
1931	 4.85112216135078E-02 
1932	 0.048518889018706 
1933	 4.84974574796516E-02 
1934	 4.84524474771714E-02 
1935	 4.84606232077014E-02 
1936	 4.84846841184143E-02 
1937	 4.84944233798128E-02 
1938	 4.85212369887353E-02 
1939	 4.85509149807829E-02 
1940	 4.85741392895797E-02 
1941	 4.85782201060177E-02 
1942	 4.86341844373608E-02 
1943	 4.86417517797944E-02 
1944	 4.86368713324816E-02 
1945	 4.86166358816572E-02 
1946	 4.85865368218597E-02 
1947	 0.048612971119006 
1948	 4.86073862624853E-02 
1949	 4.86081532109241E-02 
1950	 4.86173435017735E-02 
1951	 4.86081196584532E-02 
1952	 4.86272188771597E-02 
1953	 4.86724282395639E-02 
1954	 4.87169834343407E-02 
1955	 4.87608705706892E-02 
1956	 4.87850825428907E-02 
1957	 4.87708122726234E-02 
1958	 4.87879824658028E-02 
1959	 4.87568830573304E-02 
1960	 4.87509758770359E-02 
1961	 4.87685233739297E-02 
1962	 4.87752081369563E-02 
1963	 4.87914852486257E-02 
1964	 4.88958455268537E-02 
1965	 4.88982928741561E-02 
1966	 4.88105461360018E-02 
1967	 4.87949650506718E-02 
1968	 4.88185212864714E-02 
1969	 4.88225800464791E-02 
1970	 4.89050718300259E-02 
1971	 0.049016012007755 
1972	 4.90270201954898E-02 
1973	 0.049006347124233 
1974	 4.89970029647196E-02 
1975	 4.89405357619213E-02 
1976	 4.89301994010808E-02 
1977	 4.89299401866117E-02 
1978	 4.89659408899508E-02 
1979	 4.90504398042778E-02 
1980	 4.91219014057351E-02 
1981	 4.91735702880198E-02 
1982	 4.91570491147902E-02 
1983	 4.90871113431765E-02 
1984	 4.90435566666179E-02 
1985	 4.90522359651286E-02 
1986	 4.91227362530589E-02 
1987	 4.91815557500669E-02 
1988	 4.93096889898719E-02 
1989	 4.93636041421678E-02 
1990	 4.93776658085783E-02 
1991	 4.93959392657847E-02 
1992	 4.93942435867515E-02 
1993	 4.93747540709533E-02 
1994	 4.93949059052132E-02 
1995	 4.94169291097656E-02 
1996	 4.94381240728044E-02 
1997	 0.049483448185478 
1998	 4.94813489313317E-02 
1999	 4.94470055415519E-02 
2000	 0.049424836855511 
2001	 4.93293326099309E-02 
2002	 4.93460843674031E-02 
2003	 4.94446348810522E-02 
2004	 4.95041681242442E-02 
2005	 4.96441642971606E-02 
2006	 4.97220150903544E-02 
2007	 4.97465008372897E-02 
2008	 4.97441722430551E-02 
2009	 4.98041104301845E-02 
2010	 4.97997172264459E-02 
2011	 4.98296293594892E-02 
2012	 4.98764384289221E-02 
2013	 4.99021421794874E-02 
2014	 4.99165090203257E-02 
2015	 4.99433016441659E-02 
2016	 4.99664827059975E-02 
2017	 4.99945807366812E-02 
2018	 5.00524616086792E-02 
2019	 5.00654567334572E-02 
2020	 5.00573749012448E-02 
2021	 5.00157033351245E-02 
2022	 0.050040381213436 
2023	 5.00578688458777E-02 
2024	 5.00872182110713E-02 
2025	 5.01955880077518E-02 
2026	 5.02440109424866E-02 
2027	 5.02416680999675E-02 
2028	 0.050281200570474 
2029	 5.03395741676355E-02 
2030	 5.03837988877153E-02 
2031	 5.04655055101767E-02 
2032	 5.04894766107092E-02 
2033	 5.04516906021557E-02 
2034	 5.04492959734738E-02 
2035	 0.050446341756606 
2036	 5.04056374810059E-02 
2037	 5.03968287570157E-02 
2038	 5.04803321614778E-02 
2039	 5.05131600318786E-02 
2040	 5.05489415089058E-02 
2041	 0.050565572876173 
2042	 5.05640893766212E-02 
2043	 5.05654627992066E-02 
2044	 0.050545042675847 
2045	 5.05478974130006E-02 
2046	 5.05804392351801E-02 
2047	 5.05884908009654E-02 
2048	 5.05591991745324E-02 
2049	 5.05810095734251E-02 
2050	 5.06097854567695E-02 
2051	 0.050672244056942 
2052	 5.07668824535097E-02 
2053	 5.08203721865088E-02 
2054	 5.08403671009409E-02 
2055	 0.050804848898558 
2056	 5.08132148883505E-02 
2057	 5.08052250684167E-02 
2058	 5.08263001834536E-02 
2059	 5.08875046723738E-02 
2060	 5.09149229712839E-02 
2061	 5.09464006316093E-02 
2062	 5.09555069274298E-02 
2063	 5.09203768941115E-02 
2064	 5.09295502426832E-02 
2065	 0.050945290624606 
2066	 5.09518874787816E-02 
2067	 5.10811867157644E-02 
2068	 5.11299269721026E-02 
2069	 5.11506154651835E-02 
2070	 5.11812798505757E-02 
2071	 5.11479119668569E-02 
2072	 5.10056263211243E-02 
2073	 5.09602246360062E-02 
2074	 5.09037671934471E-02 
2075	 5.08856969736913E-02 
2076	 5.09214221241001E-02 
2077	 5.09599998583129E-02 
2078	 5.10242097351109E-02 
2079	 5.10866306238662E-02 
2080	 5.12147179750829E-02 
2081	 5.12549249162965E-02 
2082	 5.12497674856273E-02 
2083	 5.12102177507304E-02 
2084	 5.11732192219881E-02 
2085	 5.11563598216515E-02 
2086	 5.11594770423116E-02 
2087	 5.11976143675524E-02 
2088	 5.12628789953654E-02 
2089	 5.13847151150614E-02 
2090	 5.14117464546173E-02 
2091	 5.14372754981577E-02 
2092	 5.14488304933049E-02 
2093	 5.13532342611042E-02 
2094	 0.051332888469218 
2095	 5.13716811002683E-02 
2096	 5.13881323769633E-02 
2097	 5.14144188135806E-02 
2098	 5.14400778591104E-02 
2099	 5.13751505556267E-02 
2100	 5.13649981236672E-02 
2101	 5.13721001773903E-02 
2102	 5.13688389727097E-02 
2103	 5.13685623651553E-02 
2104	 5.14145504607207E-02 
2105	 5.14334973988954E-02 
2106	 5.13965037468014E-02 
2107	 5.14282804434172E-02 
2108	 5.15663081814301E-02 
2109	 5.15773081768205E-02 
2110	 5.15222017617591E-02 
2111	 5.15015856365314E-02 
2112	 5.13828884008915E-02 
2113	 5.13592681023507E-02 
2114	 0.051432641662965 
2115	 5.14871965426422E-02 
2116	 5.15718043185263E-02 
2117	 5.16516241494674E-02 
2118	 5.17021995973067E-02 
2119	 5.17407059412399E-02 
2120	 5.17608436166704E-02 
2121	 5.17421204898285E-02 
2122	 5.17498290720496E-02 
2123	 5.17509917393093E-02 
2124	 5.17860420584865E-02 
2125	 5.18793683523922E-02 
2126	 5.18978453515966E-02 
2127	 5.18847451268387E-02 
2128	 5.18746127595715E-02 
2129	 5.18010056315813E-02 
2130	 5.17759646264382E-02 
2131	 5.17938094037809E-02 
2132	 5.18103367592209E-02 
2133	 0.051853442745352 
2134	 5.18690230132933E-02 
2135	 5.18515349403832E-02 
2136	 5.18198155424354E-02 
2137	 0.051834237126568 
2138	 5.18785463917701E-02 
2139	 5.18254539136095E-02 
2140	 5.17489591665442E-02 
2141	 5.17018569651279E-02 
2142	 5.15380506349985E-02 
2143	 5.15141846711321E-02 
2144	 5.16620093794069E-02 
2145	 0.051682615641436 
2146	 5.16934915798695E-02 
2147	 5.16688986364642E-02 
2148	 5.15756054199071E-02 
2149	 0.051492112351199 
2150	 5.13825044110232E-02 
2151	 5.13000380471684E-02 
2152	 5.12184356915619E-02 
2153	 5.11272577450048E-02 
2154	 5.11040397231411E-02 
2155	 5.11000895201447E-02 
2156	 5.10853646758781E-02 
2157	 5.10963102527734E-02 
2158	 5.10830397979665E-02 
2159	 5.10636252091602E-02 
2160	 5.10221508607512E-02 
2161	 5.09500390027784E-02 
2162	 5.09237370870572E-02 
2163	 5.09228555683692E-02 
2164	 5.08776741812896E-02 
2165	 5.08398970311159E-02 
2166	 5.07890450750661E-02 
2167	 0.050684711774458 
2168	 5.06006609111231E-02 
2169	 5.05128952339147E-02 
2170	 0.050467106753451 
2171	 5.04567303763891E-02 
2172	 5.04174614525602E-02 
2173	 5.03848072833216E-02 
2174	 5.03858754929287E-02 
2175	 5.03349452925636E-02 
2176	 5.02365873368096E-02 
2177	 5.01620764957594E-02 
2178	 5.00852655054315E-02 
2179	 5.00155519317022E-02 
2180	 4.99351970841904E-02 
2181	 4.98859833720076E-02 
2182	 4.98613837625186E-02 
2183	 4.98277764611994E-02 
2184	 4.98064894680055E-02 
2185	 4.97799641188628E-02 
2186	 4.97387532125435E-02 
2187	 4.97231749586313E-02 
2188	 4.97544344636318E-02 
2189	 4.97189827148196E-02 
2190	 4.96841998083594E-02 
2191	 4.96092489768037E-02 
2192	 4.94432621245724E-02 
2193	 4.93325752371662E-02 
2194	 4.92215128109137E-02 
2195	 4.91228083122949E-02 
2196	 4.90988644111724E-02 
2197	 4.89498252258216E-02 
2198	 4.88931345935076E-02 
2199	 4.88962990033495E-02 
2200	 4.89043994456203E-02 
2201	 4.89934619274827E-02 
2202	 4.90032863231567E-02 
2203	 4.89712381041874E-02 
2204	 4.89841297105566E-02 
2205	 4.90157213885363E-02 
2206	 4.89955155178893E-02 
2207	 4.89927020407185E-02 
2208	 4.89359546426776E-02 
2209	 4.87587809286731E-02 
2210	 4.87012054629753E-02 
2211	 4.87024724365829E-02 
2212	 4.86793178962951E-02 
2213	 4.86700469423679E-02 
2214	 4.86826076208881E-02 
2215	 4.87062622508758E-02 
2216	 4.87279390527556E-02 
2217	 4.87982338839869E-02 
2218	 4.88388544948029E-02 
2219	 4.87923793089071E-02 
2220	 4.88266570384454E-02 
2221	 4.88870163206751E-02 
2222	 4.90500383899691E-02 
2223	 4.90568178593006E-02 
2224	 4.90721609833114E-02 
2225	 4.90187334781822E-02 
2226	 4.88257747300366E-02 
2227	 0.048796964712284 
2228	 4.88221168388016E-02 
2229	 4.88835773413577E-02 
2230	 4.90830839397123E-02 
2231	 4.91035312096655E-02 
2232	 4.91106531531324E-02 
2233	 4.90546634327944E-02 
2234	 0.048766676219412 
2235	 4.87282448860648E-02 
2236	 4.88094337354848E-02 
2237	 4.88475491467563E-02 
2238	 4.90342657104352E-02 
2239	 4.90756117349453E-02 
2240	 0.049009231666939 
2241	 4.89811673292832E-02 
2242	 0.048903244613023 
2243	 4.88576368150525E-02 
2244	 4.88061589378765E-02 
2245	 4.87920880611542E-02 
2246	 0.048814510361892 
2247	 4.88339532731911E-02 
2248	 4.88627769714313E-02 
2249	 4.89322535097969E-02 
2250	 4.90211179235813E-02 
2251	 4.91599440352855E-02 
2252	 4.91728459926443E-02 
2253	 4.91704668463714E-02 
2254	 4.91500620449163E-02 
2255	 4.90305256222778E-02 
2256	 0.049093413237889 
2257	 4.91527073716573E-02 
2258	 4.91781626683038E-02 
2259	 4.91950385291818E-02 
2260	 0.049214515674622 
2261	 4.92352686011733E-02 
2262	 4.92355982532431E-02 
2263	 4.92321851975911E-02 
2264	 4.91946655113075E-02 
2265	 4.90301875928256E-02 
2266	 4.90604269246742E-02 
2267	 4.92336001694258E-02 
2268	 4.92686310129537E-02 
2269	 0.049419608459616 
2270	 4.94303930421862E-02 
2271	 4.92238796868566E-02 
2272	 4.91143375315898E-02 
2273	 4.89667895992779E-02 
2274	 4.89057287605107E-02 
2275	 4.88730932647802E-02 
2276	 4.89139349572904E-02 
2277	 4.90779864639598E-02 
2278	 4.91927435015208E-02 
2279	 4.93883570729923E-02 
2280	 4.94557191892282E-02 
2281	 4.94217207001469E-02 
2282	 4.94460163742461E-02 
2283	 4.94500511759658E-02 
2284	 4.93950718903386E-02 
2285	 4.93982769300821E-02 
2286	 4.94205404748833E-02 
2287	 0.049380300332697 
2288	 4.93779112383538E-02 
2289	 4.95574357810987E-02 
2290	 4.96629514864304E-02 
2291	 0.049590162395011 
2292	 4.95145980825787E-02 
2293	 4.92753404742823E-02 
2294	 4.92096505323381E-02 
2295	 4.93945938774987E-02 
2296	 4.94908820254143E-02 
2297	 4.96273766959895E-02 
2298	 4.98769481428858E-02 
2299	 4.99071745345564E-02 
2300	 0.049820097174819 
2301	 4.98576266319259E-02 
2302	 4.98346356683326E-02 
2303	 4.98301591922325E-02 
2304	 4.99413645273037E-02 
2305	 4.99038404491337E-02 
2306	 4.97168248474421E-02 
2307	 4.96721420414629E-02 
2308	 4.96386868813357E-02 
2309	 4.96725265392472E-02 
2310	 4.97834540023068E-02 
2311	 4.98291421307222E-02 
2312	 4.99174186215547E-02 
2313	 4.99383785156406E-02 
2314	 0.049911055431886 
2315	 4.99426312481215E-02 
2316	 0.04992678856854 
2317	 4.99745129883628E-02 
2318	 5.01128646296175E-02 
2319	 5.01763579869117E-02 
2320	 5.02482215979058E-02 
2321	 5.02528268848846E-02 
2322	 5.01728491869171E-02 
2323	 5.01751676440088E-02 
2324	 5.01947193850665E-02 
2325	 5.02147973137779E-02 
2326	 5.03042703660452E-02 
2327	 5.02541896590942E-02 
2328	 5.00825532114381E-02 
2329	 4.99963944739156E-02 
2330	 4.98947341487651E-02 
2331	 4.97772811906148E-02 
2332	 4.97546652319675E-02 
2333	 4.98507431929967E-02 
2334	 5.00222287042686E-02 
2335	 5.00753539881276E-02 
2336	 4.99895800301288E-02 
2337	 4.99576183915702E-02 
2338	 4.97541168834194E-02 
2339	 4.97025600090884E-02 
2340	 4.99930340809321E-02 
2341	 5.01355407367243E-02 
2342	 5.03090686741173E-02 
2343	 5.05253639621968E-02 
2344	 5.04213435962501E-02 
2345	 5.02890672257145E-02 
2346	 5.03160109084551E-02 
2347	 5.01974073337217E-02 
2348	 5.03298407774529E-02 
2349	 5.06435822524584E-02 
2350	 5.06912682648812E-02 
2351	 5.09049836521877E-02 
2352	 5.10863740554854E-02 
2353	 5.09384627537675E-02 
2354	 5.09074745878039E-02 
2355	 5.09319108604208E-02 
2356	 5.07956593800599E-02 
2357	 5.06409244369171E-02 
2358	 0.050345950779644 
2359	 4.99561457388868E-02 
2360	 4.96185562482171E-02 
2361	 4.93929354524758E-02 
2362	 4.93948051690231E-02 
2363	 4.95048760222014E-02 
2364	 4.96957652684862E-02 
2365	 4.98517968129682E-02 
2366	 5.01049819687207E-02 
2367	 5.05046039625655E-02 
2368	 5.06439139966315E-02 
2369	 5.06873982735826E-02 
2370	 0.050579596949257 
2371	 5.01444921667021E-02 
2372	 0.049899497875992 
2373	 0.050108570338871 
2374	 5.04829107811033E-02 
2375	 5.08140582986377E-02 
2376	 0.050739090671542 
2377	 5.03204900263215E-02 
2378	 0.049943487316461 
2379	 4.95487445654737E-02 
2380	 4.97205623158679E-02 
2381	 5.01998278821891E-02 
2382	 5.02815609827672E-02 
2383	 5.02978918488339E-02 
2384	 5.02541732867626E-02 
2385	 4.98357799616378E-02 
2386	 4.97361689688982E-02 
2387	 0.049837889875525 
2388	 4.98111316737168E-02 
2389	 0.049762147011036 
2390	 4.97587985418757E-02 
2391	 4.97313882857926E-02 
2392	 4.97501368218199E-02 
2393	 4.98713878461455E-02 
2394	 5.00399440421994E-02 
2395	 5.02413860966302E-02 
2396	 5.03619656781232E-02 
2397	 5.05190463129432E-02 
2398	 5.06448449213004E-02 
2399	 5.06828371161383E-02 
2400	 5.07122087682116E-02 
2401	 0.050876938502125 
2402	 5.08605438082438E-02 
2403	 5.05113656261331E-02 
2404	 5.04477951579683E-02 
2405	 5.00652422982913E-02 
2406	 4.97028592750277E-02 
2407	 4.99766347172148E-02 
2408	 5.00961585619016E-02 
2409	 5.03433215176974E-02 
2410	 5.06042354696242E-02 
2411	 5.04326257239104E-02 
2412	 0.050282527668538 
2413	 5.00458235939974E-02 
2414	 4.98487679828587E-02 
2415	 4.99139113693839E-02 
2416	 4.99516257332872E-02 
2417	 4.99879490401461E-02 
2418	 4.96876551943134E-02 
2419	 4.92660718020273E-02 
2420	 4.91802320810004E-02 
2421	 4.93442730874199E-02 
2422	 4.96117361266145E-02 
2423	 4.97315568706585E-02 
2424	 4.97755430589948E-02 
2425	 4.95461113335583E-02 
2426	 4.96220269595895E-02 
2427	 5.00586111600062E-02 
2428	 4.99247682165691E-02 
2429	 4.96708544434254E-02 
2430	 4.97147866836162E-02 
2431	 4.99046234111445E-02 
2432	 5.01392003426687E-02 
2433	 5.05639132708589E-02 
2434	 5.08240775498218E-02 
2435	 5.05511319474829E-02 
2436	 0.050188535593927 
2437	 0.050023871162366 
2438	 4.97960673339233E-02 
2439	 4.94225917486139E-02 
2440	 4.96220234542057E-02 
2441	 4.99015710878749E-02 
2442	 4.99507799494345E-02 
2443	 5.01243432196284E-02 
2444	 4.98378991255531E-02 
2445	 4.95910723504363E-02 
2446	 4.97372910112035E-02 
2447	 5.00251390285877E-02 
2448	 5.08285656246671E-02 
2449	 5.11651583812338E-02 
2450	 5.05223610875108E-02 
2451	 5.01998259712876E-02 
2452	 4.97415715877399E-02 
2453	 4.91681968796298E-02 
2454	 4.94063955571237E-02 
2455	 4.94840014249624E-02 
2456	 4.93930764394045E-02 
2457	 4.97609445910018E-02 
2458	 4.96395628866781E-02 
2459	 4.94270976620139E-02 
2460	 4.99953543079073E-02 
2461	 5.02741603181368E-02 
2462	 5.03762692651805E-02 
2463	 5.03884046651299E-02 
2464	 4.96849583301121E-02 
2465	 4.92062179581182E-02 
2466	 4.95353624198503E-02 
2467	 4.96401292030171E-02 
2468	 4.91328325271389E-02 
2469	 4.87158360385406E-02 
2470	 4.84369534726139E-02 
2471	 4.85029025547696E-02 
2472	 4.89729560622049E-02 
2473	 4.89648064057851E-02 
2474	 4.83537605532517E-02 
2475	 4.78327424366926E-02 
2476	 4.82372988072196E-02 
2477	 4.85465858373486E-02 
2478	 4.87170635032856E-02 
2479	 5.00426666029042E-02 
2480	 4.92973512571103E-02 
2481	 0.04928962269825 
2482	 0.049193662457911 
2483	 4.85911331221218E-02 
2484	 4.90294932184148E-02 
2485	 4.91751457875894E-02 
2486	 4.94823334535577E-02 
2487	 4.93053733486449E-02 
2488	 4.90299756019247E-02 
2489	 4.86575595053219E-02 
2490	 0.047654522219418 
2491	 4.77461580461385E-02 
2492	 0.048719834125154 
2493	 4.96821199872459E-02 
2494	 5.09238067070334E-02 
2495	 5.15363011405063E-02 
2496	 5.07126173769343E-02 
2497	 0.049672075313692 
2498	 4.93573474448693E-02 
2499	 4.92272490958032E-02 
2500	 5.01382067584747E-02 
