Wavelength	Tablay400036.asd
350	 0.263146466813699 
351	 0.244041923411614 
352	 0.184399509317768 
353	 0.162315427766863 
354	 0.24680888531708 
355	 0.217260817258324 
356	 0.180966219324973 
357	 0.241476571003621 
358	 0.253278975468948 
359	 0.204997459848998 
360	 0.175761410463929 
361	 0.240298336403408 
362	 0.183037698799421 
363	 0.155215034318694 
364	 0.190966071266091 
365	 8.58105261335543E-02 
366	 0.125095701667901 
367	 0.177347850042637 
368	 0.112792388106865 
369	 0.144512356361878 
370	 0.158606897411993 
371	 0.146370269549014 
372	 0.153930233497205 
373	 0.126620039219081 
374	 0.101899311212421 
375	 0.101503248859852 
376	 0.115742286686891 
377	 0.108507730000408 
378	 0.12176116862924 
379	 0.168314361854471 
380	 8.80775084846515E-02 
381	 6.40732565499875E-02 
382	 0.107411995636329 
383	 0.119569461886334 
384	 0.105218281062324 
385	 9.68409962231006E-02 
386	 0.106702070754377 
387	 0.110107804346346 
388	 0.101400533172463 
389	 9.35737314700199E-02 
390	 9.73898101085365E-02 
391	 9.62701187060461E-02 
392	 0.109537282016291 
393	 0.117911826017501 
394	 8.58152068966166E-02 
395	 8.04952517612378E-02 
396	 9.49608580053632E-02 
397	 0.110778149406167 
398	 0.106891143635317 
399	 0.103204688427752 
400	 9.66085241127394E-02 
401	 8.37588550597938E-02 
402	 8.63325925586385E-02 
403	 7.49700677169679E-02 
404	 6.57227824989594E-02 
405	 0.099982261410525 
406	 8.75845197051227E-02 
407	 8.02245906900644E-02 
408	 0.10158841517233 
409	 8.44888352738884E-02 
410	 7.69669983791183E-02 
411	 0.079750604870641 
412	 7.95879596892861E-02 
413	 0.072536039028598 
414	 6.78697397715159E-02 
415	 7.14937574075168E-02 
416	 8.40674065538959E-02 
417	 8.84567982095507E-02 
418	 8.01377480218798E-02 
419	 0.064965735478994 
420	 6.59247620819655E-02 
421	 6.99477247264802E-02 
422	 7.38500983953888E-02 
423	 7.74365944741968E-02 
424	 7.48810524921115E-02 
425	 7.17575037520846E-02 
426	 6.93918859800639E-02 
427	 6.34420476047605E-02 
428	 6.27766808822593E-02 
429	 0.064961534642276 
430	 6.66282070026579E-02 
431	 6.97352575861942E-02 
432	 6.96014865327514E-02 
433	 6.79792879388686E-02 
434	 6.94725655146399E-02 
435	 7.14342531456125E-02 
436	 7.20210392235063E-02 
437	 7.06821365537458E-02 
438	 6.83781268471091E-02 
439	 6.87641112841225E-02 
440	 6.99498421115213E-02 
441	 6.93224873472344E-02 
442	 6.83688094914296E-02 
443	 0.068235652140073 
444	 6.69446166464446E-02 
445	 6.10041036995258E-02 
446	 6.02290207725729E-02 
447	 6.43812835358239E-02 
448	 6.97599348073527E-02 
449	 6.93979021082235E-02 
450	 6.45142828657208E-02 
451	 6.20718874822854E-02 
452	 0.067732197947106 
453	 6.59114866998885E-02 
454	 6.25529833328762E-02 
455	 6.27112851967309E-02 
456	 6.85847495564362E-02 
457	 6.83425159297991E-02 
458	 6.50095696214151E-02 
459	 6.34925166866344E-02 
460	 6.37257849266552E-02 
461	 6.54239309500015E-02 
462	 0.065863260241475 
463	 6.22885911993779E-02 
464	 6.29842962260946E-02 
465	 6.37859485730869E-02 
466	 6.25421497764136E-02 
467	 6.19469247295804E-02 
468	 6.46585597945412E-02 
469	 6.65462245700471E-02 
470	 0.063978632391132 
471	 6.32641109986382E-02 
472	 6.42854088354126E-02 
473	 6.48427387575304E-02 
474	 6.19118217468537E-02 
475	 6.28598649959573E-02 
476	 6.33077791079913E-02 
477	 6.08988306438699E-02 
478	 6.16294221179539E-02 
479	 6.13849776517851E-02 
480	 6.17475917919519E-02 
481	 6.47637749158808E-02 
482	 6.21883312223491E-02 
483	 6.04637956013056E-02 
484	 6.19021307553125E-02 
485	 0.063177192405002 
486	 6.25228642946296E-02 
487	 6.16800636210041E-02 
488	 0.062324535035127 
489	 0.063536966660877 
490	 6.25095076225964E-02 
491	 0.060991003708727 
492	 6.26370478193757E-02 
493	 0.062423617985263 
494	 6.30069649941508E-02 
495	 6.47490624672956E-02 
496	 6.27840582656951E-02 
497	 6.29265266765419E-02 
498	 6.35816165674223E-02 
499	 6.22906008011801E-02 
500	 6.32759254389876E-02 
501	 6.36203916325555E-02 
502	 0.063265339903244 
503	 6.45965676447242E-02 
504	 6.44386295028671E-02 
505	 6.42308371286214E-02 
506	 0.065109421337805 
507	 6.57121277186385E-02 
508	 6.55644854384583E-02 
509	 6.51532419435049E-02 
510	 6.53261870500354E-02 
511	 6.59908513568715E-02 
512	 6.63695213964563E-02 
513	 6.63408987979155E-02 
514	 6.66551834218958E-02 
515	 6.70361751477198E-02 
516	 6.74772629273103E-02 
517	 6.78992130790098E-02 
518	 6.77710325895992E-02 
519	 6.75599634803969E-02 
520	 6.76406910188611E-02 
521	 6.82452283313579E-02 
522	 6.89973734525211E-02 
523	 6.96015092008973E-02 
524	 0.070009116708439 
525	 7.06509912960411E-02 
526	 7.07035810182931E-02 
527	 0.07084374700997 
528	 7.18401425636273E-02 
529	 7.18936286428799E-02 
530	 0.072113656522654 
531	 0.072773582677082 
532	 7.31222810666614E-02 
533	 7.41893659113347E-02 
534	 7.51364291730977E-02 
535	 7.53677711822885E-02 
536	 7.60537067678166E-02 
537	 7.70338301711086E-02 
538	 7.80208627227971E-02 
539	 7.87190744117806E-02 
540	 7.95380923570667E-02 
541	 8.03482201580713E-02 
542	 8.10185158090353E-02 
543	 0.081468632028859 
544	 8.24248325898509E-02 
545	 8.34734665479963E-02 
546	 0.084102914743291 
547	 8.50704643116323E-02 
548	 8.58725242114237E-02 
549	 8.65440094705707E-02 
550	 8.76005133299884E-02 
551	 8.87243149068674E-02 
552	 8.97178355688523E-02 
553	 9.05751809555602E-02 
554	 9.17205335407707E-02 
555	 9.27309290212947E-02 
556	 9.37610184995753E-02 
557	 0.095150148677582 
558	 9.64783197615194E-02 
559	 9.76072586057156E-02 
560	 9.87137003411093E-02 
561	 0.100370570010453 
562	 0.101634995988602 
563	 0.103027227623762 
564	 0.104970540398427 
565	 0.105943358893737 
566	 0.107162297381134 
567	 0.108495342892229 
568	 0.108954018069838 
569	 0.110398171872207 
570	 0.112042395113157 
571	 0.113248760785538 
572	 0.114480127821535 
573	 0.115885754101384 
574	 0.117441085965285 
575	 0.119025837086676 
576	 0.120539557431356 
577	 0.121948654732115 
578	 0.123273443362806 
579	 0.124584136926365 
580	 0.125765620738187 
581	 0.126852864203643 
582	 0.12791872934632 
583	 0.129011900682801 
584	 0.130225823105906 
585	 0.131512564333816 
586	 0.132730737241226 
587	 0.133720046859661 
588	 0.134701085422782 
589	 0.135820979181088 
590	 0.13702364300744 
591	 0.138358381607384 
592	 0.139586186870328 
593	 0.140492472493359 
594	 0.141329006655239 
595	 0.142170224764946 
596	 0.142904763699894 
597	 0.143308066670025 
598	 0.143980180174241 
599	 0.144749528380664 
600	 0.145438262522574 
601	 0.146231692274294 
602	 0.146750915160807 
603	 0.147156411772128 
604	 0.147769594626687 
605	 0.148234082489052 
606	 0.148752780353838 
607	 0.149350646143055 
608	 0.149781570767146 
609	 0.149982398214532 
610	 0.150231590716882 
611	 0.150672353806873 
612	 0.150656035766377 
613	 0.150928151465547 
614	 0.151401081423306 
615	 0.151513840880596 
616	 0.151838986968042 
617	 0.152151076382385 
618	 0.152302689286786 
619	 0.152462502181854 
620	 0.15255607886434 
621	 0.152744122638229 
622	 0.153154201930788 
623	 0.153424637399514 
624	 0.153563582635361 
625	 0.15365660752879 
626	 0.153832165787469 
627	 0.153899885851554 
628	 0.15391844301335 
629	 0.153994300136252 
630	 0.154242326169464 
631	 0.154525027316348 
632	 0.154686402038815 
633	 0.154634421787908 
634	 0.154722294657822 
635	 0.154994195299619 
636	 0.155315012506752 
637	 0.155374073031556 
638	 0.155357073658703 
639	 0.1554706716266 
640	 0.155794332996424 
641	 0.15600840167723 
642	 0.156090502013776 
643	 0.156206100752131 
644	 0.156575973151613 
645	 0.156772567244528 
646	 0.15682946523036 
647	 0.156887682015047 
648	 0.157169314304278 
649	 0.157400615395953 
650	 0.157461419785922 
651	 0.157409691449183 
652	 0.157814729618352 
653	 0.158187038768601 
654	 0.158373991490572 
655	 0.158537082152364 
656	 0.158853037715427 
657	 0.159252862029075 
658	 0.159609442714159 
659	 0.159750109558842 
660	 0.159982293493787 
661	 0.160353391951575 
662	 0.160767330718462 
663	 0.160951261882914 
664	 0.161185758605769 
665	 0.161556814038621 
666	 0.161922136248163 
667	 0.162297348282854 
668	 0.162705005332151 
669	 0.163132572345267 
670	 0.16346724880768 
671	 0.163795653902629 
672	 0.164098982176189 
673	 0.164366892367961 
674	 0.164972334111304 
675	 0.165541281817062 
676	 0.165930435233156 
677	 0.166347997270215 
678	 0.166623677780644 
679	 0.166992783772764 
680	 0.167604704990874 
681	 0.168074414400354 
682	 0.168627448772604 
683	 0.169223869404204 
684	 0.169702763440319 
685	 0.170162855647697 
686	 0.170637111240377 
687	 0.171131040775478 
688	 0.171618790652199 
689	 0.172307777519164 
690	 0.172956893311057 
691	 0.173378265984244 
692	 0.1739924820237 
693	 0.174578068592233 
694	 0.175120473665109 
695	 0.175725522128307 
696	 0.176299045670686 
697	 0.176915609492227 
698	 0.177599589870764 
699	 0.178274509696468 
700	 0.178847962857357 
701	 0.179441318576419 
702	 0.180171839277122 
703	 0.180892396906327 
704	 0.181595735057833 
705	 0.182283405182921 
706	 0.182965376989543 
707	 0.183667215674039 
708	 0.184405030680515 
709	 0.185146429984561 
710	 0.18577790839791 
711	 0.186451527110441 
712	 0.187207570518879 
713	 0.188012712450461 
714	 0.18869114659181 
715	 0.189426098091892 
716	 0.19021954958848 
717	 0.190950013949556 
718	 0.191729958611327 
719	 0.192427294575328 
720	 0.193015740317127 
721	 0.193692736218118 
722	 0.194402896498366 
723	 0.195113246881362 
724	 0.195812820706129 
725	 0.196571173450321 
726	 0.197316536522018 
727	 0.197999804917742 
728	 0.198609027179832 
729	 0.199309803102579 
730	 0.19997143194166 
731	 0.200543163274876 
732	 0.201166757505083 
733	 0.201780054387847 
734	 0.202372242843972 
735	 0.202938589128034 
736	 0.203447176187547 
737	 0.203928055969701 
738	 0.204476278850555 
739	 0.205169163359667 
740	 0.205545590669381 
741	 0.205933940108745 
742	 0.206499224015098 
743	 0.207020941641925 
744	 0.207505717622311 
745	 0.20794941608485 
746	 0.208348653617221 
747	 0.208686252799779 
748	 0.208993193597311 
749	 0.209269104997421 
750	 0.209507907193407 
751	 0.209805525498081 
752	 0.210120604361079 
753	 0.210395996249423 
754	 0.210577244530124 
755	 0.210763337843463 
756	 0.210883160328162 
757	 0.210890623476807 
758	 0.210906077869904 
759	 0.211035791647952 
760	 0.211173528962823 
761	 0.21116342635356 
762	 0.211259194341272 
763	 0.211345426272567 
764	 0.21132613980118 
765	 0.21117144771435 
766	 0.211153427274422 
767	 0.211191470554713 
768	 0.211156261253091 
769	 0.210964798580507 
770	 0.210828440412042 
771	 0.210754411804776 
772	 0.210659793998534 
773	 0.210451542852939 
774	 0.210188042498057 
775	 0.209952810001112 
776	 0.209814870110696 
777	 0.209539856913412 
778	 0.209184861790329 
779	 0.20884585684187 
780	 0.208604649612625 
781	 0.208368081332436 
782	 0.208126085820317 
783	 0.2078583690173 
784	 0.207415909312186 
785	 0.207005665548242 
786	 0.206691382124246 
787	 0.206419928663127 
788	 0.205990890913806 
789	 0.205557651801646 
790	 0.205163780333454 
791	 0.204686193748162 
792	 0.204158787486402 
793	 0.203718772294266 
794	 0.203411720646051 
795	 0.203030930382208 
796	 0.202545168175543 
797	 0.202013916044493 
798	 0.201516064099409 
799	 0.200983790456468 
800	 0.200529230958411 
801	 0.200132860200643 
802	 0.199670862828677 
803	 0.199109578481173 
804	 0.19860670243659 
805	 0.198179003755742 
806	 0.197600257793505 
807	 0.197112438536192 
808	 0.196671337788927 
809	 0.196178128352253 
810	 0.195588146641712 
811	 0.195026409070426 
812	 0.194549949193943 
813	 0.194135926824081 
814	 0.1935419983512 
815	 0.192962472815475 
816	 0.192458512474852 
817	 0.191950251944956 
818	 0.191445655064114 
819	 0.190897165199424 
820	 0.190356398080703 
821	 0.190041142498349 
822	 0.189678825855234 
823	 0.189142352204514 
824	 0.18846182097367 
825	 0.187991377096751 
826	 0.187525168579721 
827	 0.187031851653075 
828	 0.186549613446221 
829	 0.186022085864319 
830	 0.185544255580265 
831	 0.185143717927372 
832	 0.184763351847549 
833	 0.184179909520569 
834	 0.183643129607084 
835	 0.183268743206837 
836	 0.182858415948183 
837	 0.182505051294565 
838	 0.182092846072024 
839	 0.181568473021682 
840	 0.181191711798356 
841	 0.180751258315636 
842	 0.180253599529683 
843	 0.179787105589682 
844	 0.179363041862402 
845	 0.179000179982782 
846	 0.178655511679212 
847	 0.178259278843386 
848	 0.177928571876664 
849	 0.177554446262678 
850	 0.177122498413735 
851	 0.176759135172186 
852	 0.176275521510827 
853	 0.175834905651239 
854	 0.175550753145777 
855	 0.175291677846473 
856	 0.174936176941789 
857	 0.174544508721966 
858	 0.174234026665606 
859	 0.174087500282986 
860	 0.173831587191156 
861	 0.173462893101744 
862	 0.17312613364334 
863	 0.172881164452469 
864	 0.172588579492454 
865	 0.17230922478575 
866	 0.172237966863992 
867	 0.172023378516001 
868	 0.171596949040757 
869	 0.17113613208937 
870	 0.171056036900595 
871	 0.170801898340993 
872	 0.170523879825032 
873	 0.170364692681877 
874	 0.170096934715723 
875	 0.169926982571018 
876	 0.169801829489459 
877	 0.169612437607647 
878	 0.16934735315293 
879	 0.169180026760111 
880	 0.169031763559614 
881	 0.168770297840775 
882	 0.168708168208741 
883	 0.168599904562796 
884	 0.16840844270754 
885	 0.168262135036363 
886	 0.168039183634422 
887	 0.167830529337034 
888	 0.167708045776664 
889	 0.167685331307305 
890	 0.167696579989382 
891	 0.167636926023458 
892	 0.167481025239769 
893	 0.167340288248156 
894	 0.167282156803313 
895	 0.167195402443528 
896	 0.167042173095537 
897	 0.167117075233321 
898	 0.16699004585661 
899	 0.166842678793978 
900	 0.166915049099843 
901	 0.166819381707087 
902	 0.16680666969877 
903	 0.166849487278771 
904	 0.166805753028406 
905	 0.166729366742412 
906	 0.16677918096704 
907	 0.166890542970494 
908	 0.16686510657487 
909	 0.166824407236982 
910	 0.166788076987604 
911	 0.166771406814686 
912	 0.166793606456612 
913	 0.166894642055678 
914	 0.167021255482706 
915	 0.167106440856319 
916	 0.167096104880507 
917	 0.167100281388324 
918	 0.167121177727499 
919	 0.167174184653671 
920	 0.167339592437708 
921	 0.167486280022947 
922	 0.167517982337751 
923	 0.167486828784823 
924	 0.167782599357704 
925	 0.167919110580267 
926	 0.168025859213459 
927	 0.168308007786195 
928	 0.168531999094056 
929	 0.168569582756922 
930	 0.168542433308004 
931	 0.168640994894362 
932	 0.168826359932995 
933	 0.168984383920133 
934	 0.169188006093274 
935	 0.169500913007234 
936	 0.169338067341824 
937	 0.169381768499045 
938	 0.169675905277965 
939	 0.169838403772654 
940	 0.170208803771785 
941	 0.170551133461577 
942	 0.170771041938174 
943	 0.170934078350417 
944	 0.170956036893862 
945	 0.171035730262507 
946	 0.171278493989526 
947	 0.171633880869164 
948	 0.17191471189465 
949	 0.172096952896611 
950	 0.172309578208913 
951	 0.172779863242088 
952	 0.172926440637716 
953	 0.172954176129896 
954	 0.173121408236232 
955	 0.173517655961862 
956	 0.173832068577131 
957	 0.17411136115012 
958	 0.1744311347143 
959	 0.174775056071463 
960	 0.174690121305547 
961	 0.175000696963359 
962	 0.175919393729072 
963	 0.175931716049191 
964	 0.175761688757673 
965	 0.175912084039195 
966	 0.176466753931294 
967	 0.176709182624525 
968	 0.177247502964586 
969	 0.177767855261716 
970	 0.177899219414044 
971	 0.177749019329769 
972	 0.178264798445825 
973	 0.178714897511276 
974	 0.178560113628387 
975	 0.179339591213831 
976	 0.179578976865422 
977	 0.179669719973622 
978	 0.18016141862073 
979	 0.180156083648011 
980	 0.180500658126822 
981	 0.181068616517281 
982	 0.181526459153811 
983	 0.182065025944698 
984	 0.182070490948729 
985	 0.182045279185957 
986	 0.182595466515513 
987	 0.183321625058972 
988	 0.183626671493939 
989	 0.183836848915137 
990	 0.184345854397621 
991	 0.184504557919699 
992	 0.184585891253759 
993	 0.184958410790972 
994	 0.185702672777987 
995	 0.185883605180873 
996	 0.186143987156936 
997	 0.186408636787148 
998	 0.186587436335428 
999	 0.187432205335703 
1000	 0.188025574686151 
1001	 0.190396223414784 
1002	 0.190669542027404 
1003	 0.190814249552754 
1004	 0.191331866726969 
1005	 0.192261345099748 
1006	 0.192705204392958 
1007	 0.193102587574208 
1008	 0.193485332315602 
1009	 0.193588444105731 
1010	 0.19387078351085 
1011	 0.194303512023922 
1012	 0.19466782946488 
1013	 0.194926409782196 
1014	 0.195296818908144 
1015	 0.195721875663966 
1016	 0.196198700031857 
1017	 0.196763478406195 
1018	 0.197250553158247 
1019	 0.197663378183503 
1020	 0.198051197091407 
1021	 0.198551180159018 
1022	 0.199101479548298 
1023	 0.199581942729566 
1024	 0.200102852043349 
1025	 0.20066454321019 
1026	 0.201223410992751 
1027	 0.201645974614777 
1028	 0.202042087010022 
1029	 0.202533637839141 
1030	 0.202780129608925 
1031	 0.203133057896118 
1032	 0.203751678800983 
1033	 0.204117090107643 
1034	 0.204410531924063 
1035	 0.204923296247857 
1036	 0.205322994619618 
1037	 0.205617700394222 
1038	 0.206029015341853 
1039	 0.206453959342456 
1040	 0.206888908618443 
1041	 0.207516205569724 
1042	 0.207946963177567 
1043	 0.208301081889196 
1044	 0.208588406150841 
1045	 0.208862563026105 
1046	 0.209116774110933 
1047	 0.209603873123147 
1048	 0.210225598865633 
1049	 0.210816224235249 
1050	 0.21141697662029 
1051	 0.211926266309264 
1052	 0.212368658999479 
1053	 0.212829617690064 
1054	 0.213189547917158 
1055	 0.213669508057078 
1056	 0.214277736969033 
1057	 0.21482828428194 
1058	 0.215385479101432 
1059	 0.215913915105626 
1060	 0.216591698653056 
1061	 0.217168860524746 
1062	 0.217817246664993 
1063	 0.218479587050522 
1064	 0.21886989241316 
1065	 0.219415974872117 
1066	 0.220137657567865 
1067	 0.220834633153213 
1068	 0.221567971658159 
1069	 0.222187857027963 
1070	 0.22276055419524 
1071	 0.223107470808693 
1072	 0.223669973930496 
1073	 0.224480983618067 
1074	 0.225216342599785 
1075	 0.226019217378684 
1076	 0.226878384125284 
1077	 0.227588713290903 
1078	 0.228235278109685 
1079	 0.228837099311693 
1080	 0.229487374625057 
1081	 0.230181233315581 
1082	 0.230881985650347 
1083	 0.23165592228969 
1084	 0.232320849829635 
1085	 0.232883945077139 
1086	 0.233596495541733 
1087	 0.234382280190431 
1088	 0.235253389798032 
1089	 0.235954978435027 
1090	 0.236579392639651 
1091	 0.237266602334878 
1092	 0.237851954288133 
1093	 0.238455785045624 
1094	 0.239292530951344 
1095	 0.240064387342642 
1096	 0.240648731239638 
1097	 0.24130549179209 
1098	 0.241914736284473 
1099	 0.242510394709179 
1100	 0.243218241828103 
1101	 0.243951903425614 
1102	 0.244842420272742 
1103	 0.245600370012568 
1104	 0.246318415899271 
1105	 0.246885135525229 
1106	 0.24751629475215 
1107	 0.248080202735015 
1108	 0.248642037727324 
1109	 0.249325846654237 
1110	 0.250050008397734 
1111	 0.250699378954686 
1112	 0.251322430894493 
1113	 0.251975000093865 
1114	 0.252532020627511 
1115	 0.25302209591071 
1116	 0.253646098009776 
1117	 0.254261370970459 
1118	 0.254862172981745 
1119	 0.255533997070171 
1120	 0.256169241648373 
1121	 0.256769218638648 
1122	 0.257322314807115 
1123	 0.25794031728626 
1124	 0.258497986427307 
1125	 0.25902688120861 
1126	 0.259617632054556 
1127	 0.260249118642776 
1128	 0.260926045968982 
1129	 0.261578462920507 
1130	 0.262174045118759 
1131	 0.262754649518404 
1132	 0.263324616000888 
1133	 0.263869247914587 
1134	 0.264412949104861 
1135	 0.264996939424871 
1136	 0.265567152860571 
1137	 0.266149419191617 
1138	 0.266861357330667 
1139	 0.26745708451407 
1140	 0.267989978803421 
1141	 0.268476780675045 
1142	 0.269051478322337 
1143	 0.269515299673907 
1144	 0.269980240448847 
1145	 0.270599575096795 
1146	 0.271103619157212 
1147	 0.271496192851842 
1148	 0.272081250017709 
1149	 0.272625049763126 
1150	 0.273109560261121 
1151	 0.273689338187315 
1152	 0.274280883225395 
1153	 0.274919053655457 
1154	 0.275467022555942 
1155	 0.276023510957147 
1156	 0.276552112944378 
1157	 0.276893844114302 
1158	 0.277393037123822 
1159	 0.278017430032724 
1160	 0.278640452013082 
1161	 0.279102046598346 
1162	 0.27959204165736 
1163	 0.280016243296665 
1164	 0.280412304717861 
1165	 0.280940996147692 
1166	 0.281495181174173 
1167	 0.281967580745892 
1168	 0.282427509689133 
1169	 0.282907265705563 
1170	 0.283403712414346 
1171	 0.283870176328185 
1172	 0.284315964956925 
1173	 0.284789030659571 
1174	 0.28528172439595 
1175	 0.28572084020366 
1176	 0.286164354104757 
1177	 0.286586697740232 
1178	 0.286962705859946 
1179	 0.287334129649507 
1180	 0.287679134295261 
1181	 0.288002701626216 
1182	 0.288371985210397 
1183	 0.288696491119529 
1184	 0.289068778446799 
1185	 0.289565208244918 
1186	 0.289971109816152 
1187	 0.290345678527543 
1188	 0.290736738776221 
1189	 0.291111116805335 
1190	 0.291501399039697 
1191	 0.291894942446494 
1192	 0.292297765707208 
1193	 0.292728486958284 
1194	 0.293118858663489 
1195	 0.293501584714496 
1196	 0.293890397630405 
1197	 0.294270653748499 
1198	 0.294626729807806 
1199	 0.294989124032752 
1200	 0.295339535126102 
1201	 0.295724301049693 
1202	 0.29610469559309 
1203	 0.296438306642339 
1204	 0.29683199629492 
1205	 0.297196834259168 
1206	 0.29750105805899 
1207	 0.297889751797842 
1208	 0.2983200626545 
1209	 0.298754501328844 
1210	 0.29924330039269 
1211	 0.29968557812835 
1212	 0.300138986640378 
1213	 0.300575350387112 
1214	 0.300961599883606 
1215	 0.30139268940133 
1216	 0.301815598671307 
1217	 0.302255184877026 
1218	 0.302688353683872 
1219	 0.303206009106088 
1220	 0.303738809401419 
1221	 0.304323248859666 
1222	 0.304879194714432 
1223	 0.305375024566503 
1224	 0.305827308099009 
1225	 0.306173940885063 
1226	 0.306602566094349 
1227	 0.307012447135876 
1228	 0.307487126050273 
1229	 0.308061899889054 
1230	 0.308523843848086 
1231	 0.30897701211005 
1232	 0.309390273802675 
1233	 0.309715927133378 
1234	 0.310068430290885 
1235	 0.310425893954607 
1236	 0.310774438741531 
1237	 0.311101106219237 
1238	 0.311433824692307 
1239	 0.311797030586113 
1240	 0.312114570206438 
1241	 0.312369337417399 
1242	 0.312627247003673 
1243	 0.312915522235409 
1244	 0.313156920435671 
1245	 0.313495064550737 
1246	 0.31394411601481 
1247	 0.314283393936044 
1248	 0.314623381056952 
1249	 0.314918891420129 
1250	 0.315141226309868 
1251	 0.315397743542581 
1252	 0.315652303160688 
1253	 0.315900568238092 
1254	 0.316147974950533 
1255	 0.316391788744072 
1256	 0.316652876075812 
1257	 0.316869739386045 
1258	 0.317066172929566 
1259	 0.317248163276864 
1260	 0.317381058105065 
1261	 0.317525772049146 
1262	 0.317683129360465 
1263	 0.317795375401138 
1264	 0.317967392579046 
1265	 0.318179509649435 
1266	 0.318314495549939 
1267	 0.3184365054083 
1268	 0.318581178680707 
1269	 0.318671784407778 
1270	 0.318803757608571 
1271	 0.318989807832395 
1272	 0.319158747225254 
1273	 0.319313704176949 
1274	 0.319471909785051 
1275	 0.31965831404164 
1276	 0.319819318393721 
1277	 0.319944849191538 
1278	 0.320095831013135 
1279	 0.320234105350083 
1280	 0.320410003299081 
1281	 0.320603853486495 
1282	 0.32081715314653 
1283	 0.321077373563325 
1284	 0.321329490445744 
1285	 0.321586479681903 
1286	 0.321847521244944 
1287	 0.322122857794355 
1288	 0.322401617026477 
1289	 0.322692667638826 
1290	 0.323003270060714 
1291	 0.323308408170327 
1292	 0.323640674998791 
1293	 0.323914303626969 
1294	 0.324163353433238 
1295	 0.324412574324639 
1296	 0.324595492592737 
1297	 0.324849808097545 
1298	 0.325186016288802 
1299	 0.32543052570865 
1300	 0.325618683340694 
1301	 0.325870299944156 
1302	 0.326125465890772 
1303	 0.326349254053706 
1304	 0.326576198964951 
1305	 0.326847341712543 
1306	 0.327140196218552 
1307	 0.327370970418734 
1308	 0.327588217951748 
1309	 0.327861647815762 
1310	 0.328091154074118 
1311	 0.328244552141986 
1312	 0.328427348022804 
1313	 0.328648156439442 
1314	 0.328845688927973 
1315	 0.329005312285321 
1316	 0.32916606733788 
1317	 0.329362609964399 
1318	 0.329503912256155 
1319	 0.329584582871727 
1320	 0.329691494647942 
1321	 0.329831953762768 
1322	 0.329893011850013 
1323	 0.329871851665322 
1324	 0.329925722635684 
1325	 0.329942876942801 
1326	 0.330015990310312 
1327	 0.330227590943821 
1328	 0.330325239633572 
1329	 0.330357740424615 
1330	 0.330415768165351 
1331	 0.330461447102531 
1332	 0.330467957413279 
1333	 0.330424527557809 
1334	 0.330454836368401 
1335	 0.330468124717403 
1336	 0.330449208473707 
1337	 0.330450121393069 
1338	 0.33052148831035 
1339	 0.330472013362849 
1340	 0.330333946127331 
1341	 0.330267954648434 
1342	 0.330187164245993 
1343	 0.330123579371174 
1344	 0.330098903308511 
1345	 0.330050005522452 
1346	 0.329995200432154 
1347	 0.329915347238086 
1348	 0.329861822432416 
1349	 0.329734451986154 
1350	 0.329504111466399 
1351	 0.329356077075924 
1352	 0.329199174662079 
1353	 0.329068630883828 
1354	 0.329033784693379 
1355	 0.328920163662291 
1356	 0.328736554463716 
1357	 0.328601743416565 
1358	 0.328479860021206 
1359	 0.32833268937495 
1360	 0.328169157766626 
1361	 0.328063582709632 
1362	 0.327938543099673 
1363	 0.327743993286237 
1364	 0.327624138723452 
1365	 0.327562002705404 
1366	 0.327431869521707 
1367	 0.327301078297072 
1368	 0.327144209937069 
1369	 0.32694530835635 
1370	 0.326762895912973 
1371	 0.326600408862597 
1372	 0.326375028593312 
1373	 0.326099821656637 
1374	 0.325864304683951 
1375	 0.32558485695997 
1376	 0.325361775345688 
1377	 0.325234914963716 
1378	 0.32500652028584 
1379	 0.324772877630135 
1380	 0.324475054458747 
1381	 0.324060797300497 
1382	 0.323712282686191 
1383	 0.323345631679261 
1384	 0.323006910075621 
1385	 0.322728610210764 
1386	 0.322413355718526 
1387	 0.322069122192941 
1388	 0.32175605503594 
1389	 0.321466728261417 
1390	 0.321148875889065 
1391	 0.320821793788711 
1392	 0.32050634987224 
1393	 0.320204327896258 
1394	 0.319884183493333 
1395	 0.319630724811036 
1396	 0.319439688085324 
1397	 0.31923677702549 
1398	 0.319079824097503 
1399	 0.318844018118058 
1400	 0.31858325460078 
1401	 0.318328169354858 
1402	 0.318040448620383 
1403	 0.317747015759565 
1404	 0.317475020014133 
1405	 0.317165612935248 
1406	 0.316823454211998 
1407	 0.316454870603028 
1408	 0.316077790675242 
1409	 0.315663177411541 
1410	 0.315178596196842 
1411	 0.314731577862615 
1412	 0.314226530790301 
1413	 0.313842945844563 
1414	 0.31348128997781 
1415	 0.313217514470666 
1416	 0.313054859152317 
1417	 0.312934584032861 
1418	 0.312884569871296 
1419	 0.312880187563306 
1420	 0.31298464487621 
1421	 0.313049186664204 
1422	 0.313161102919331 
1423	 0.313230173916819 
1424	 0.313262381042576 
1425	 0.313293995025 
1426	 0.313281785937303 
1427	 0.313264213704629 
1428	 0.313232393219138 
1429	 0.313149786518939 
1430	 0.31309615810522 
1431	 0.313036027334899 
1432	 0.312990137182632 
1433	 0.312951562029768 
1434	 0.312918670645784 
1435	 0.312879378806421 
1436	 0.31287962113615 
1437	 0.312910066327021 
1438	 0.312915797079961 
1439	 0.312940424088523 
1440	 0.312959273768041 
1441	 0.312962003589909 
1442	 0.312966531182318 
1443	 0.312963170494947 
1444	 0.312995202738877 
1445	 0.313019879642521 
1446	 0.313081532581158 
1447	 0.313176605857474 
1448	 0.313305591940366 
1449	 0.313449571498549 
1450	 0.313628082764168 
1451	 0.313864848062261 
1452	 0.314101605680486 
1453	 0.314374869965338 
1454	 0.314626698190488 
1455	 0.314886550938666 
1456	 0.315135507253751 
1457	 0.315348585768903 
1458	 0.315597399925092 
1459	 0.315884609402412 
1460	 0.316143286297727 
1461	 0.316381098497568 
1462	 0.316650659979356 
1463	 0.31692075689709 
1464	 0.317193340169278 
1465	 0.317499828600419 
1466	 0.317815717701231 
1467	 0.318052416472999 
1468	 0.318301133644649 
1469	 0.318558392245776 
1470	 0.318824260594008 
1471	 0.319113027175852 
1472	 0.319461234416179 
1473	 0.319714028969352 
1474	 0.319933779545402 
1475	 0.320163504572919 
1476	 0.32033320856477 
1477	 0.32057840477033 
1478	 0.320875929131515 
1479	 0.321127334383061 
1480	 0.321396108074615 
1481	 0.321621794689082 
1482	 0.321808757353403 
1483	 0.322009425760449 
1484	 0.322195724503459 
1485	 0.322386906581485 
1486	 0.322552650865283 
1487	 0.322777475349487 
1488	 0.323049379431965 
1489	 0.323276913335953 
1490	 0.323551973836724 
1491	 0.323748843372234 
1492	 0.323851177740775 
1493	 0.324013985265564 
1494	 0.324164074647784 
1495	 0.324340984380518 
1496	 0.324560459339028 
1497	 0.324756378683096 
1498	 0.324944385412015 
1499	 0.325146676517434 
1500	 0.325370622414704 
1501	 0.325558899334259 
1502	 0.325741110396267 
1503	 0.325911381000163 
1504	 0.32602340989971 
1505	 0.326186593421497 
1506	 0.326405118795406 
1507	 0.32657304051037 
1508	 0.326732123167653 
1509	 0.326890351326077 
1510	 0.327002813683052 
1511	 0.327136634733661 
1512	 0.327324953331262 
1513	 0.327455646863285 
1514	 0.327534966233489 
1515	 0.327642608532648 
1516	 0.32774817876763 
1517	 0.327830689176637 
1518	 0.327917676852775 
1519	 0.328001443845602 
1520	 0.328063129560484 
1521	 0.328109117291376 
1522	 0.328126147765967 
1523	 0.328223565296617 
1524	 0.328311559731635 
1525	 0.328407012420806 
1526	 0.328479552181346 
1527	 0.328566350703205 
1528	 0.328656745318877 
1529	 0.328727637816293 
1530	 0.328794068547138 
1531	 0.328895076910118 
1532	 0.328946070680636 
1533	 0.328938231385157 
1534	 0.328976739177903 
1535	 0.329044863646954 
1536	 0.329053980874954 
1537	 0.329034448166737 
1538	 0.329045993539647 
1539	 0.329016008686013 
1540	 0.329055573762405 
1541	 0.329180960029983 
1542	 0.329210542260118 
1543	 0.32920993289065 
1544	 0.329235076931196 
1545	 0.329216380151364 
1546	 0.329245787552766 
1547	 0.329309316845303 
1548	 0.329393392229445 
1549	 0.329515613593726 
1550	 0.329585491845603 
1551	 0.329674436332937 
1552	 0.329726438910993 
1553	 0.329706824325362 
1554	 0.329735809228159 
1555	 0.329789754544816 
1556	 0.329826107153877 
1557	 0.329844641646117 
1558	 0.329898339323803 
1559	 0.329946821017819 
1560	 0.330038614347554 
1561	 0.330203756428864 
1562	 0.330302897058092 
1563	 0.330411138807235 
1564	 0.330476646204413 
1565	 0.330476340143097 
1566	 0.330507945366174 
1567	 0.33052023911332 
1568	 0.33056720321144 
1569	 0.330642577746556 
1570	 0.330705302085353 
1571	 0.330786051003179 
1572	 0.330853169533577 
1573	 0.330907662124145 
1574	 0.330963276440194 
1575	 0.33104337722968 
1576	 0.331071944004256 
1577	 0.331045833648603 
1578	 0.331063573468888 
1579	 0.331040366019273 
1580	 0.331085666915368 
1581	 0.331237945347426 
1582	 0.331303291273841 
1583	 0.331346324539419 
1584	 0.331399415580599 
1585	 0.331416592038998 
1586	 0.331438279360903 
1587	 0.331474976935882 
1588	 0.331509645366541 
1589	 0.331494126984955 
1590	 0.331545197490319 
1591	 0.331691931137575 
1592	 0.331751400419589 
1593	 0.331797227041002 
1594	 0.331830814178644 
1595	 0.331760121045905 
1596	 0.331783702191719 
1597	 0.331883630208138 
1598	 0.331946867288306 
1599	 0.332063482193246 
1600	 0.332112753926622 
1601	 0.332099154541598 
1602	 0.332097245988652 
1603	 0.33208007038584 
1604	 0.332044264336321 
1605	 0.331974219296187 
1606	 0.331943569457923 
1607	 0.331914629906654 
1608	 0.331885680173533 
1609	 0.331894393327575 
1610	 0.331887120912295 
1611	 0.331851290610657 
1612	 0.331834277441004 
1613	 0.331813462937229 
1614	 0.331821864431364 
1615	 0.331887710329322 
1616	 0.331894818839696 
1617	 0.331899701602169 
1618	 0.331882083022478 
1619	 0.331791498962445 
1620	 0.331741059524898 
1621	 0.331767542689505 
1622	 0.331687180266274 
1623	 0.331502157909455 
1624	 0.331397368659741 
1625	 0.331246350638783 
1626	 0.33114430290032 
1627	 0.331169604269385 
1628	 0.331125578762824 
1629	 0.331008810761317 
1630	 0.330963836090149 
1631	 0.330947440114828 
1632	 0.330926686902852 
1633	 0.330982949293421 
1634	 0.330965470648981 
1635	 0.330907036569341 
1636	 0.3308290037619 
1637	 0.33068507309039 
1638	 0.330574423563915 
1639	 0.330454769911782 
1640	 0.330355435971101 
1641	 0.330272527860139 
1642	 0.330204389117702 
1643	 0.330157398518494 
1644	 0.330105221303388 
1645	 0.330074005278236 
1646	 0.33002689793657 
1647	 0.329979747500294 
1648	 0.329913040124039 
1649	 0.329834223809291 
1650	 0.329747761731591 
1651	 0.32966432640694 
1652	 0.329529883054467 
1653	 0.32934701368751 
1654	 0.329177907032416 
1655	 0.32897223679435 
1656	 0.328781953747915 
1657	 0.328663332484595 
1658	 0.328458394231567 
1659	 0.328179850795751 
1660	 0.327925898652025 
1661	 0.327651213275917 
1662	 0.327333270417997 
1663	 0.327002807245504 
1664	 0.326673899146909 
1665	 0.32630190277139 
1666	 0.325922289889712 
1667	 0.325587326062009 
1668	 0.325178811217359 
1669	 0.324714875928942 
1670	 0.324226948119273 
1671	 0.323686350034788 
1672	 0.32315075903941 
1673	 0.322627355322699 
1674	 0.322008966637909 
1675	 0.321369826515909 
1676	 0.320664992964875 
1677	 0.319822338540226 
1678	 0.319048559297822 
1679	 0.318281871524539 
1680	 0.317467537839896 
1681	 0.316663418387541 
1682	 0.315807520516873 
1683	 0.314948869283481 
1684	 0.313990892299693 
1685	 0.312939190262759 
1686	 0.31188617306227 
1687	 0.310721161423731 
1688	 0.309620723998095 
1689	 0.308599135047912 
1690	 0.307470674575018 
1691	 0.306309158284315 
1692	 0.305120081534251 
1693	 0.303854117383648 
1694	 0.302583413233384 
1695	 0.301311743182044 
1696	 0.300002970680596 
1697	 0.298649974162397 
1698	 0.297269324092031 
1699	 0.295823470475216 
1700	 0.294492321808036 
1701	 0.293191537231253 
1702	 0.291878746463987 
1703	 0.290625472019562 
1704	 0.289347279122047 
1705	 0.287968590475578 
1706	 0.286797790335607 
1707	 0.285741038874892 
1708	 0.284728487821768 
1709	 0.283790886908906 
1710	 0.283010353666447 
1711	 0.2822429561942 
1712	 0.281446718078753 
1713	 0.280725369491502 
1714	 0.279964209218513 
1715	 0.279247364691426 
1716	 0.278755809197729 
1717	 0.278316013213676 
1718	 0.277889410904885 
1719	 0.277475211353695 
1720	 0.277078329534599 
1721	 0.276694074956011 
1722	 0.276253303858405 
1723	 0.275954242969143 
1724	 0.275723749854273 
1725	 0.275548130485558 
1726	 0.275562573761269 
1727	 0.275624392402028 
1728	 0.275758552877797 
1729	 0.276002235431954 
1730	 0.276364970230765 
1731	 0.276821921037573 
1732	 0.277343732435527 
1733	 0.277925799467357 
1734	 0.278538684464191 
1735	 0.279211438741353 
1736	 0.279830014988764 
1737	 0.280341311541388 
1738	 0.280870900900365 
1739	 0.281258981417477 
1740	 0.281605402486198 
1741	 0.281850948607296 
1742	 0.281944783822725 
1743	 0.281997730322915 
1744	 0.281969532530717 
1745	 0.281898716164717 
1746	 0.281715998284011 
1747	 0.281548477689054 
1748	 0.281313151412743 
1749	 0.281176791942549 
1750	 0.281062678695729 
1751	 0.281005613618111 
1752	 0.28102972765203 
1753	 0.28105758604936 
1754	 0.281086225252936 
1755	 0.281209820022841 
1756	 0.281375695236197 
1757	 0.281562907462716 
1758	 0.281913104973377 
1759	 0.282252476898136 
1760	 0.282629388700582 
1761	 0.283076900959206 
1762	 0.283505065951014 
1763	 0.283987387661103 
1764	 0.284547935572306 
1765	 0.28525877700955 
1766	 0.286089496586686 
1767	 0.286977563007794 
1768	 0.28789153526636 
1769	 0.288731489165391 
1770	 0.289497059368159 
1771	 0.290272466775232 
1772	 0.291070356154011 
1773	 0.291838646181557 
1774	 0.292577891279345 
1775	 0.293245807987476 
1776	 0.293833805475681 
1777	 0.294384766474022 
1778	 0.294921113824407 
1779	 0.295385381480443 
1780	 0.295825453749554 
1781	 0.296241149651855 
1782	 0.296548052313539 
1783	 0.296884652833761 
1784	 0.297192681942155 
1785	 0.297413302335869 
1786	 0.297702122107414 
1787	 0.297983874134315 
1788	 0.298184755885702 
1789	 0.298411491203102 
1790	 0.298571413013958 
1791	 0.298646191160727 
1792	 0.298736686917969 
1793	 0.298788349723759 
1794	 0.298886633470001 
1795	 0.298919259705721 
1796	 0.299064151973412 
1797	 0.299289916880822 
1798	 0.299458466105329 
1799	 0.299532906591032 
1800	 0.299618638192923 
1801	 0.301911021162127 
1802	 0.301911802877906 
1803	 0.302015058190832 
1804	 0.302135849311549 
1805	 0.302275459445318 
1806	 0.302423785533376 
1807	 0.302657593493195 
1808	 0.302797906095053 
1809	 0.302836856118038 
1810	 0.302996060654596 
1811	 0.303197976175421 
1812	 0.30337591124937 
1813	 0.30357111273096 
1814	 0.303861744921123 
1815	 0.304027202606076 
1816	 0.304201531370968 
1817	 0.304383653346144 
1818	 0.30456918186251 
1819	 0.304731445198514 
1820	 0.304825696396201 
1821	 0.305032407053633 
1822	 0.30529295625736 
1823	 0.305581506260588 
1824	 0.305834371950768 
1825	 0.306089524800907 
1826	 0.306328800008033 
1827	 0.306494526193363 
1828	 0.306702460930118 
1829	 0.306974149808563 
1830	 0.307207165612196 
1831	 0.307398652674692 
1832	 0.307604708065784 
1833	 0.30788891238909 
1834	 0.308057781362848 
1835	 0.308255818412959 
1836	 0.308479543116279 
1837	 0.308674632693921 
1838	 0.308847820822247 
1839	 0.309044262002607 
1840	 0.309230266086572 
1841	 0.309426885996226 
1842	 0.309640167813202 
1843	 0.309828874805411 
1844	 0.310023024528349 
1845	 0.310280329185812 
1846	 0.310515696063193 
1847	 0.310744289513079 
1848	 0.310954170696284 
1849	 0.311155471531237 
1850	 0.311308512965458 
1851	 0.311415639735412 
1852	 0.311567573173392 
1853	 0.311679662062597 
1854	 0.311771869698537 
1855	 0.311890833374287 
1856	 0.311985490175344 
1857	 0.312056032691971 
1858	 0.312195987232229 
1859	 0.312294277373774 
1860	 0.312431101074755 
1861	 0.312439478151445 
1862	 0.312384433653821 
1863	 0.312297271646384 
1864	 0.312168065542174 
1865	 0.312051147819755 
1866	 0.31195803962075 
1867	 0.311888913349188 
1868	 0.311799626918864 
1869	 0.311641360830859 
1870	 0.311465665412558 
1871	 0.311286813138716 
1872	 0.311059038837633 
1873	 0.310775640576588 
1874	 0.310481840523533 
1875	 0.310226347474125 
1876	 0.309858827338679 
1877	 0.309458031237137 
1878	 0.309043633164285 
1879	 0.30847851745667 
1880	 0.307911527937343 
1881	 0.307269022665696 
1882	 0.306552072377491 
1883	 0.305773564319027 
1884	 0.304973667645184 
1885	 0.304004716324154 
1886	 0.303064978892659 
1887	 0.302040753451955 
1888	 0.300835849148374 
1889	 0.299691892861952 
1890	 0.298412683882477 
1891	 0.297078892789228 
1892	 0.29579354902411 
1893	 0.294420480724014 
1894	 0.292981475350706 
1895	 0.291502248082359 
1896	 0.289972260318858 
1897	 0.288456779392686 
1898	 0.287030010178143 
1899	 0.285570942889831 
1900	 0.284188003327225 
1901	 0.282824273523188 
1902	 0.28140743137258 
1903	 0.280149882966097 
1904	 0.278920016781318 
1905	 0.277713892578616 
1906	 0.276592127454018 
1907	 0.275661601098345 
1908	 0.274747267451604 
1909	 0.273944452695736 
1910	 0.273156435448133 
1911	 0.272269234330672 
1912	 0.27145230046318 
1913	 0.270734271623011 
1914	 0.270156682631413 
1915	 0.269628197600041 
1916	 0.26924224332113 
1917	 0.268851035735781 
1918	 0.268433803950486 
1919	 0.268020583749167 
1920	 0.26767406105694 
1921	 0.267399770442313 
1922	 0.267160450752865 
1923	 0.266947372355394 
1924	 0.266759089350569 
1925	 0.266578291522368 
1926	 0.266433043581331 
1927	 0.266320129740632 
1928	 0.266245995398982 
1929	 0.266220085429347 
1930	 0.266181203505747 
1931	 0.266156362204904 
1932	 0.266127922299103 
1933	 0.266058117621982 
1934	 0.26605676263501 
1935	 0.266104423217645 
1936	 0.266201366772583 
1937	 0.266332539737238 
1938	 0.266503309535283 
1939	 0.266690508444248 
1940	 0.266914533525413 
1941	 0.267178478337967 
1942	 0.267387706652526 
1943	 0.267714496142555 
1944	 0.26804121627944 
1945	 0.268310988063166 
1946	 0.26865106852813 
1947	 0.268946528688495 
1948	 0.26924084698178 
1949	 0.269593761095404 
1950	 0.269971293501805 
1951	 0.270418814437096 
1952	 0.270838103590572 
1953	 0.271288222854755 
1954	 0.271670523950621 
1955	 0.272093513323965 
1956	 0.272524802272881 
1957	 0.272893203175113 
1958	 0.273314794569532 
1959	 0.273724818305865 
1960	 0.274061370473471 
1961	 0.274470181615058 
1962	 0.274960672030057 
1963	 0.275365179019814 
1964	 0.27576059607726 
1965	 0.276148832535288 
1966	 0.276490058305582 
1967	 0.276837482279749 
1968	 0.277220195018153 
1969	 0.277622058513018 
1970	 0.277990947115 
1971	 0.278362145238028 
1972	 0.278757851285448 
1973	 0.279125955710161 
1974	 0.27949323489063 
1975	 0.279863872503304 
1976	 0.280223155568457 
1977	 0.280566513716507 
1978	 0.280905333649602 
1979	 0.28120628391348 
1980	 0.281596503150971 
1981	 0.281950767635035 
1982	 0.282334129939274 
1983	 0.282776905623234 
1984	 0.283148710136802 
1985	 0.283507034101906 
1986	 0.283851915696644 
1987	 0.284162013345503 
1988	 0.284378645930237 
1989	 0.284693583027212 
1990	 0.285032389419849 
1991	 0.285376386026524 
1992	 0.285757976347641 
1993	 0.286169335350957 
1994	 0.286535052355156 
1995	 0.286891635632871 
1996	 0.287234811807369 
1997	 0.287577235085931 
1998	 0.287892383491405 
1999	 0.288164678501272 
2000	 0.288469052537314 
2001	 0.288789300616913 
2002	 0.289073621533456 
2003	 0.289366510128489 
2004	 0.289631570200836 
2005	 0.289858470280865 
2006	 0.290076643990252 
2007	 0.290286190478578 
2008	 0.290478953285841 
2009	 0.290661832494356 
2010	 0.290823748520466 
2011	 0.290951444393775 
2012	 0.291052411801773 
2013	 0.291146490004543 
2014	 0.291232858117442 
2015	 0.29125704674322 
2016	 0.291236874445435 
2017	 0.291228367890584 
2018	 0.291153962737281 
2019	 0.291111413955674 
2020	 0.291105559533523 
2021	 0.291087596149117 
2022	 0.291007367239441 
2023	 0.290909086719553 
2024	 0.290781602415226 
2025	 0.290669395822943 
2026	 0.29054340854722 
2027	 0.290414814605322 
2028	 0.290271021503691 
2029	 0.290112590371302 
2030	 0.289948187652222 
2031	 0.289750875435096 
2032	 0.289609226095565 
2033	 0.289512274349427 
2034	 0.289372374261496 
2035	 0.289259038627907 
2036	 0.289115438093479 
2037	 0.288881990390544 
2038	 0.288635133709807 
2039	 0.288472215535165 
2040	 0.288363774736321 
2041	 0.288195253300129 
2042	 0.288054982721595 
2043	 0.287879995531623 
2044	 0.28761546862382 
2045	 0.287422517120604 
2046	 0.287275469376566 
2047	 0.287132710858782 
2048	 0.28698913581726 
2049	 0.286871885257774 
2050	 0.286796059363859 
2051	 0.286728870589258 
2052	 0.286588732600646 
2053	 0.286416055378436 
2054	 0.286252200739989 
2055	 0.285987920801493 
2056	 0.285863477600702 
2057	 0.285844280915559 
2058	 0.285745692140007 
2059	 0.285642420470428 
2060	 0.285585695794302 
2061	 0.285536665129895 
2062	 0.2854684002284 
2063	 0.285445366014493 
2064	 0.285407504146603 
2065	 0.285365512842044 
2066	 0.285247296714427 
2067	 0.285172491914342 
2068	 0.285038040668733 
2069	 0.284923348585894 
2070	 0.284764380124846 
2071	 0.284638773251296 
2072	 0.284537226099777 
2073	 0.284436787452173 
2074	 0.284338772645192 
2075	 0.284212986083416 
2076	 0.284086296356875 
2077	 0.283975079776657 
2078	 0.283827290110907 
2079	 0.283707945655647 
2080	 0.283668339049903 
2081	 0.283555233275846 
2082	 0.283391206662116 
2083	 0.283234960122658 
2084	 0.283066284204285 
2085	 0.282934786687049 
2086	 0.282805392271833 
2087	 0.282705809768153 
2088	 0.282614253937736 
2089	 0.282535840414746 
2090	 0.282426348425805 
2091	 0.28234469283749 
2092	 0.282218216548589 
2093	 0.282027190918055 
2094	 0.281883371898437 
2095	 0.281731889715873 
2096	 0.281608371106238 
2097	 0.281535233395223 
2098	 0.281429944790609 
2099	 0.281349116210955 
2100	 0.281156194242434 
2101	 0.280991377561696 
2102	 0.280776363435483 
2103	 0.280625099304872 
2104	 0.280474159853146 
2105	 0.280377016334045 
2106	 0.280380283151082 
2107	 0.280246008010672 
2108	 0.28010211530409 
2109	 0.279915698335245 
2110	 0.279615174322979 
2111	 0.279348007417168 
2112	 0.279062538729744 
2113	 0.278804732537737 
2114	 0.278557067846578 
2115	 0.278296452742576 
2116	 0.278055350425692 
2117	 0.277831444779336 
2118	 0.277535288023741 
2119	 0.277174510072292 
2120	 0.276876444413321 
2121	 0.276539666595972 
2122	 0.276274831350631 
2123	 0.276086164409377 
2124	 0.275850578225646 
2125	 0.275615908757382 
2126	 0.275407603479957 
2127	 0.275204147417121 
2128	 0.274985535460197 
2129	 0.274810069059087 
2130	 0.274584273545296 
2131	 0.274229727955711 
2132	 0.27403060291073 
2133	 0.273908914097634 
2134	 0.273762474514032 
2135	 0.273783660241083 
2136	 0.273822351038254 
2137	 0.273778129906191 
2138	 0.273730479203614 
2139	 0.273615140584319 
2140	 0.273382347155869 
2141	 0.27328181163369 
2142	 0.273189990400294 
2143	 0.273138072844916 
2144	 0.273199035458617 
2145	 0.273168847404564 
2146	 0.273065143643205 
2147	 0.273047771262454 
2148	 0.273065775725482 
2149	 0.273066653957931 
2150	 0.273120722854669 
2151	 0.27314259945103 
2152	 0.273109850928286 
2153	 0.273118249864724 
2154	 0.273121370507723 
2155	 0.273097202281657 
2156	 0.273082047218913 
2157	 0.273056485219196 
2158	 0.273019673235645 
2159	 0.272996513016962 
2160	 0.27292744206593 
2161	 0.272789202889353 
2162	 0.272731333039756 
2163	 0.272679287836239 
2164	 0.272664563411222 
2165	 0.272790580089003 
2166	 0.272726022469827 
2167	 0.27253290027841 
2168	 0.272426937572144 
2169	 0.272219427196391 
2170	 0.272111406189851 
2171	 0.272148814464892 
2172	 0.272123134938867 
2173	 0.27207909968256 
2174	 0.272040538083302 
2175	 0.272041300015291 
2176	 0.272040245368513 
2177	 0.271940025087694 
2178	 0.271797056140275 
2179	 0.271674897753987 
2180	 0.271438271836384 
2181	 0.271342021584416 
2182	 0.271395492392473 
2183	 0.271280791730634 
2184	 0.271144295772958 
2185	 0.270967203597419 
2186	 0.270711693560435 
2187	 0.270416736006617 
2188	 0.270023974237638 
2189	 0.269749925012025 
2190	 0.269490678683534 
2191	 0.269210899070329 
2192	 0.269042073973282 
2193	 0.268796794048378 
2194	 0.268357514347344 
2195	 0.268091536461597 
2196	 0.267944993332259 
2197	 0.267793065370678 
2198	 0.267609023198873 
2199	 0.267442099986516 
2200	 0.267176603113819 
2201	 0.266787639855815 
2202	 0.266418372073665 
2203	 0.26604209544551 
2204	 0.265657177863128 
2205	 0.265223964084828 
2206	 0.264785659649851 
2207	 0.264280466579723 
2208	 0.263907061828137 
2209	 0.26352212463175 
2210	 0.26327730819292 
2211	 0.263219234773518 
2212	 0.263126745247152 
2213	 0.263073371083289 
2214	 0.263034738300101 
2215	 0.263062446786882 
2216	 0.263027312879216 
2217	 0.263027860302584 
2218	 0.262963534334674 
2219	 0.26284219497576 
2220	 0.262688013245578 
2221	 0.262543576563931 
2222	 0.26225912059406 
2223	 0.261926640321914 
2224	 0.261591500801936 
2225	 0.26117607563188 
2226	 0.260694903032805 
2227	 0.26013815754856 
2228	 0.259508064281641 
2229	 0.258853859044908 
2230	 0.258080564397091 
2231	 0.25738779090419 
2232	 0.256735454298212 
2233	 0.255974743775641 
2234	 0.255267034541748 
2235	 0.254361453734021 
2236	 0.253290482906817 
2237	 0.252208803958139 
2238	 0.251028775170325 
2239	 0.249791264347925 
2240	 0.248503311541681 
2241	 0.24715487589674 
2242	 0.245751016503723 
2243	 0.244225961779392 
2244	 0.242593719135419 
2245	 0.240936127890251 
2246	 0.239152002012128 
2247	 0.237363994681366 
2248	 0.235594099082988 
2249	 0.233729171926023 
2250	 0.231696468184072 
2251	 0.229771226559908 
2252	 0.227876827259775 
2253	 0.225985650381782 
2254	 0.224309539190906 
2255	 0.22250070948047 
2256	 0.220595898383731 
2257	 0.218832165386825 
2258	 0.217058254089976 
2259	 0.215279618336789 
2260	 0.213554713228061 
2261	 0.211860025383257 
2262	 0.210228320623011 
2263	 0.208588618998965 
2264	 0.207065249794649 
2265	 0.205729610569419 
2266	 0.20428072730607 
2267	 0.20282152851293 
2268	 0.201412249158013 
2269	 0.200007580908576 
2270	 0.198612720689218 
2271	 0.197266357650646 
2272	 0.195898461018535 
2273	 0.19445125258547 
2274	 0.193102714428364 
2275	 0.191878306623438 
2276	 0.190592029568073 
2277	 0.189326270630218 
2278	 0.18806075347486 
2279	 0.18675826077521 
2280	 0.185422954418047 
2281	 0.184098902799597 
2282	 0.182752148339948 
2283	 0.181390847577687 
2284	 0.179962025925605 
2285	 0.178507384592299 
2286	 0.177047252973663 
2287	 0.175302156015754 
2288	 0.173655683509895 
2289	 0.172263652800587 
2290	 0.170684116803491 
2291	 0.169272501567206 
2292	 0.168019726924734 
2293	 0.166400301184608 
2294	 0.164836198600656 
2295	 0.163552356268975 
2296	 0.162163752179713 
2297	 0.16103571701353 
2298	 0.160153184430209 
2299	 0.159360829939298 
2300	 0.158626446792783 
2301	 0.158221839794815 
2302	 0.158117575894296 
2303	 0.158005165823338 
2304	 0.158046345766199 
2305	 0.158280232852959 
2306	 0.158589661138714 
2307	 0.159152420548556 
2308	 0.160033325741162 
2309	 0.160898471416301 
2310	 0.16188627708654 
2311	 0.163014547232743 
2312	 0.164383781865067 
2313	 0.165626642961271 
2314	 0.167014938065733 
2315	 0.168173578699745 
2316	 0.169145900290031 
2317	 0.170112078712771 
2318	 0.170972460160335 
2319	 0.171883213085063 
2320	 0.172932387830798 
2321	 0.173681600708572 
2322	 0.174319385250374 
2323	 0.174730747185773 
2324	 0.174798728120535 
2325	 0.174908702553812 
2326	 0.175008975859639 
2327	 0.174950123823343 
2328	 0.174732852406898 
2329	 0.174453775966783 
2330	 0.17405421827706 
2331	 0.173530992504094 
2332	 0.172971703881011 
2333	 0.172337897979888 
2334	 0.171472756730939 
2335	 0.170552037769992 
2336	 0.169653909067627 
2337	 0.168683806583162 
2338	 0.167844021687205 
2339	 0.166970481106611 
2340	 0.16590570730436 
2341	 0.16496683425636 
2342	 0.164113701993983 
2343	 0.163395491904723 
2344	 0.163059829301797 
2345	 0.162831876081801 
2346	 0.162476506681231 
2347	 0.162461386309218 
2348	 0.16272422253789 
2349	 0.163061339891011 
2350	 0.163586741041466 
2351	 0.164115108510042 
2352	 0.164707064381176 
2353	 0.165357785016232 
2354	 0.166224198883928 
2355	 0.167197358710903 
2356	 0.168048293657212 
2357	 0.168896087557808 
2358	 0.169360915244198 
2359	 0.169554761292569 
2360	 0.169651505247735 
2361	 0.169719267038598 
2362	 0.170043373469961 
2363	 0.170294209839635 
2364	 0.170358928129214 
2365	 0.170215242705026 
2366	 0.169848049349634 
2367	 0.169669002899215 
2368	 0.169715094414274 
2369	 0.169794511777116 
2370	 0.1698557632205 
2371	 0.169848128311793 
2372	 0.169916762325892 
2373	 0.169770962801432 
2374	 0.169460182558582 
2375	 0.169214357263145 
2376	 0.168699018039716 
2377	 0.168459309759116 
2378	 0.168677779325536 
2379	 0.169026042891324 
2380	 0.169427637823055 
2381	 0.169608419179482 
2382	 0.169641589441674 
2383	 0.169280404106965 
2384	 0.169208725387552 
2385	 0.169123969090284 
2386	 0.169213969596119 
2387	 0.169524540325334 
2388	 0.169689671888884 
2389	 0.169945110453983 
2390	 0.170129233251757 
2391	 0.170076533662541 
2392	 0.170367720081757 
2393	 0.170913105857322 
2394	 0.171033915695743 
2395	 0.171157359782601 
2396	 0.171324497384704 
2397	 0.171253766677293 
2398	 0.171203337338817 
2399	 0.171404103147887 
2400	 0.171183230849913 
2401	 0.170471337300413 
2402	 0.169967625020384 
2403	 0.169748276949018 
2404	 0.169860848208564 
2405	 0.170060529140634 
2406	 0.170532682320513 
2407	 0.17087656759834 
2408	 0.170809784386616 
2409	 0.170706198980777 
2410	 0.170774437086601 
2411	 0.170634701064873 
2412	 0.170908692191642 
2413	 0.171500488797741 
2414	 0.171639859699167 
2415	 0.171714183585741 
2416	 0.171765808368836 
2417	 0.171709506903264 
2418	 0.171291196807444 
2419	 0.171119250928121 
2420	 0.171336746048544 
2421	 0.171089690020128 
2422	 0.170817535941196 
2423	 0.170697404981077 
2424	 0.170543640799072 
2425	 0.170711401105424 
2426	 0.170851617454932 
2427	 0.170885825568412 
2428	 0.170617260782569 
2429	 0.169960398293972 
2430	 0.169984454856569 
2431	 0.170178612551554 
2432	 0.169982675555176 
2433	 0.16962723541982 
2434	 0.169230124140998 
2435	 0.169263273362115 
2436	 0.169028596772459 
2437	 0.168985774206998 
2438	 0.16953919128205 
2439	 0.169414166311791 
2440	 0.169186847300888 
2441	 0.169146578246314 
2442	 0.168594486886951 
2443	 0.167529331584818 
2444	 0.166912398449885 
2445	 0.167050538542965 
2446	 0.167010452685861 
2447	 0.167089814334616 
2448	 0.167245421574361 
2449	 0.166874712021767 
2450	 0.166304254287659 
2451	 0.166306954548649 
2452	 0.166338662015161 
2453	 0.166072951794442 
2454	 0.166029245021514 
2455	 0.165386653987321 
2456	 0.164820770038962 
2457	 0.165031840949149 
2458	 0.165475361815927 
2459	 0.165742098642924 
2460	 0.165488628554515 
2461	 0.165156448404497 
2462	 0.164253403668862 
2463	 0.16328418078318 
2464	 0.163198982228743 
2465	 0.163156393863055 
2466	 0.162787989188113 
2467	 0.162591805424474 
2468	 0.162712661711441 
2469	 0.162689280728211 
2470	 0.163092118070638 
2471	 0.163598490205175 
2472	 0.163497824880234 
2473	 0.163059292285602 
2474	 0.162184389836704 
2475	 0.16135160714415 
2476	 0.160715447198387 
2477	 0.160680069202865 
2478	 0.161140119392405 
2479	 0.161288116649747 
2480	 0.161153960183099 
2481	 0.160853978449159 
2482	 0.159670196209438 
2483	 0.159377183726933 
2484	 0.158958682809891 
2485	 0.158960155519853 
2486	 0.159221496833746 
2487	 0.160022433637647 
2488	 0.160742171019749 
2489	 0.160950846539974 
2490	 0.16136309551387 
2491	 0.161342204678912 
2492	 0.161328444062647 
2493	 0.161414619908206 
2494	 0.161406793926499 
2495	 0.162118062264506 
2496	 0.1634680066759 
2497	 0.165061954719401 
2498	 0.166434280211747 
2499	 0.167193942060335 
2500	 0.167747816524503 
