Wavelength	Tablay400013.asd
350	 0.336928614665644 
351	 0.319112767249202 
352	 0.282225428795421 
353	 0.268197728227791 
354	 0.264444475937101 
355	 0.261461021241851 
356	 0.257892136825121 
357	 0.25522460909878 
358	 0.253768132879393 
359	 0.245303412832181 
360	 0.251735260488044 
361	 0.294160004723376 
362	 0.26145408330969 
363	 0.231385551915635 
364	 0.233841380240171 
365	 0.206996934402062 
366	 0.213333329421361 
367	 0.224778982458649 
368	 0.210682825587983 
369	 0.20588007213406 
370	 0.196362580982143 
371	 0.188675429799715 
372	 0.197167317583003 
373	 0.194784831224065 
374	 0.194597977964051 
375	 0.196035186655845 
376	 0.173261305053996 
377	 0.171030614503655 
378	 0.180298335539683 
379	 0.181206449786066 
380	 0.168982245183253 
381	 0.16720155973585 
382	 0.172704692336402 
383	 0.166390325487502 
384	 0.14613568258169 
385	 0.14302374570919 
386	 0.161436411784087 
387	 0.163140519680028 
388	 0.164143330568251 
389	 0.159891764685954 
390	 0.146483095654812 
391	 0.137230221169338 
392	 0.140281351897845 
393	 0.148037901438289 
394	 0.14463625142855 
395	 0.13257642691654 
396	 0.130375587482771 
397	 0.139723283139788 
398	 0.132984765124447 
399	 0.126749541587702 
400	 0.126257112305637 
401	 0.129901362315516 
402	 0.12188781723699 
403	 0.113648780447442 
404	 0.112524730351137 
405	 0.120263615559564 
406	 0.118819526946016 
407	 0.113021407340231 
408	 0.109221606749686 
409	 0.110930101142042 
410	 0.107319601623064 
411	 0.106176285940608 
412	 0.114845438248805 
413	 0.108889921256606 
414	 0.104873964350114 
415	 0.106332732441167 
416	 0.103950252883367 
417	 0.102388688848592 
418	 0.103026740460074 
419	 0.104752500992876 
420	 0.101806283314536 
421	 0.100412340286914 
422	 0.101328941419246 
423	 0.102569319924461 
424	 9.96589706716916E-02 
425	 0.100298578082211 
426	 0.103853897043914 
427	 9.99406361842544E-02 
428	 0.10265758662776 
429	 0.103887691709358 
430	 9.80630214998257E-02 
431	 0.101064401228329 
432	 0.101888602487088 
433	 0.101580638194151 
434	 0.106178817727884 
435	 0.103735525772349 
436	 0.10237057117441 
437	 0.105335710098887 
438	 0.10562136116556 
439	 0.104797111049543 
440	 0.106352287343908 
441	 0.111591479167371 
442	 0.110817731589266 
443	 0.110485429225616 
444	 0.112454053872045 
445	 0.114539558433919 
446	 0.114907296685748 
447	 0.11473555488411 
448	 0.115507334193269 
449	 0.118669882448778 
450	 0.119410571151644 
451	 0.119216971875997 
452	 0.121335765708438 
453	 0.124211761848612 
454	 0.125716464416883 
455	 0.12608307445825 
456	 0.128013931678826 
457	 0.129255112789373 
458	 0.131036588240637 
459	 0.13400841123881 
460	 0.135038219486223 
461	 0.136738864840979 
462	 0.138949806050948 
463	 0.14035182970166 
464	 0.143203799890117 
465	 0.14580512986852 
466	 0.147332595627398 
467	 0.148802654875904 
468	 0.15105734291177 
469	 0.153358879177098 
470	 0.155105848539623 
471	 0.15845772382035 
472	 0.16088371572502 
473	 0.162287745957376 
474	 0.1644723436941 
475	 0.166870054591544 
476	 0.169358448473198 
477	 0.171942443342022 
478	 0.174829250992748 
479	 0.177304448373879 
480	 0.179930232943493 
481	 0.183337843429417 
482	 0.185360808549851 
483	 0.187561247478929 
484	 0.190393311053788 
485	 0.192829327673772 
486	 0.195745124574299 
487	 0.198634547142693 
488	 0.20113235448267 
489	 0.204250356112026 
490	 0.207094104208815 
491	 0.209775601806892 
492	 0.212845346296123 
493	 0.215124483868599 
494	 0.217701693777994 
495	 0.220889332714617 
496	 0.223338311110322 
497	 0.22622287006541 
498	 0.229140380297372 
499	 0.231498679360603 
500	 0.23389579629249 
501	 0.236729946727078 
502	 0.239847832117067 
503	 0.242645560000777 
504	 0.244666200587542 
505	 0.247202053787514 
506	 0.250752429728183 
507	 0.25330957173016 
508	 0.255766452181764 
509	 0.258179534626377 
510	 0.260356562412289 
511	 0.262791360159971 
512	 0.265387674083084 
513	 0.267957317950552 
514	 0.270266840132708 
515	 0.272870129107556 
516	 0.275412969099673 
517	 0.277535868600053 
518	 0.279614397359545 
519	 0.282010052192544 
520	 0.284540042908025 
521	 0.286715888986951 
522	 0.289081852769895 
523	 0.291381094836994 
524	 0.293522474760971 
525	 0.295985719165307 
526	 0.298061118364998 
527	 0.299978651306066 
528	 0.302227792617635 
529	 0.304834301099536 
530	 0.307075388731375 
531	 0.308892730575124 
532	 0.310934273606267 
533	 0.312993271620177 
534	 0.315042232626733 
535	 0.317112381897823 
536	 0.319351177935287 
537	 0.321518665122304 
538	 0.323524546585245 
539	 0.325411368660933 
540	 0.327535168176411 
541	 0.329707732231398 
542	 0.331751865774532 
543	 0.333598575050337 
544	 0.335505947537445 
545	 0.337411059605713 
546	 0.339202855995992 
547	 0.341018117294586 
548	 0.342870666213188 
549	 0.344743107121004 
550	 0.346592707066324 
551	 0.348387693698416 
552	 0.350095659828523 
553	 0.351779290783716 
554	 0.353762815749626 
555	 0.355504968576748 
556	 0.357089224086378 
557	 0.358846568796872 
558	 0.360507577090723 
559	 0.362108968244387 
560	 0.363716244153135 
561	 0.365393119489802 
562	 0.36699948771015 
563	 0.368500135668057 
564	 0.369900390543391 
565	 0.371204647614021 
566	 0.372611420448795 
567	 0.374072196795509 
568	 0.375374629369565 
569	 0.376651165127972 
570	 0.378070423463455 
571	 0.379640306804202 
572	 0.381004550138592 
573	 0.38252564832672 
574	 0.384154622890849 
575	 0.385732345688839 
576	 0.387435729763513 
577	 0.389069809226272 
578	 0.390559113197434 
579	 0.391991410361111 
580	 0.393476126469 
581	 0.394912923133073 
582	 0.396260988520271 
583	 0.397803230611999 
584	 0.399431775827463 
585	 0.400994217569423 
586	 0.402345990847078 
587	 0.403677259224798 
588	 0.40489894835009 
589	 0.406017454090846 
590	 0.407238128559064 
591	 0.40850149443351 
592	 0.409704249611174 
593	 0.410765916697685 
594	 0.411763713093495 
595	 0.4128143694075 
596	 0.413854350615007 
597	 0.414681952292017 
598	 0.41555952722391 
599	 0.416353229961403 
600	 0.417019756363802 
601	 0.417913977803501 
602	 0.418682080483248 
603	 0.419281538822924 
604	 0.419826958672609 
605	 0.420504902064833 
606	 0.421112028252616 
607	 0.421599103107348 
608	 0.422143991750213 
609	 0.422730384699166 
610	 0.423189961724782 
611	 0.42346423202821 
612	 0.423977152391272 
613	 0.424509020321208 
614	 0.424984063534215 
615	 0.425422185317506 
616	 0.425776473966574 
617	 0.426150860320673 
618	 0.426555176779004 
619	 0.426792395561806 
620	 0.427113068822783 
621	 0.427515450783643 
622	 0.427902092402483 
623	 0.428156366678446 
624	 0.428460985649035 
625	 0.428861853737822 
626	 0.429258934417348 
627	 0.429503856027196 
628	 0.429685394743955 
629	 0.429920490590508 
630	 0.430293503585538 
631	 0.430524324241812 
632	 0.43069421711594 
633	 0.431006689991137 
634	 0.431279428389955 
635	 0.431474090514628 
636	 0.431616544690446 
637	 0.431794575101767 
638	 0.432020156468378 
639	 0.432284194103068 
640	 0.432553262746044 
641	 0.432748153123272 
642	 0.432932097389062 
643	 0.433114139766525 
644	 0.433271480350628 
645	 0.4334150350165 
646	 0.43357986358083 
647	 0.433777132127656 
648	 0.433981662001967 
649	 0.434055286819101 
650	 0.434170889483894 
651	 0.434474586686347 
652	 0.434570294046805 
653	 0.434675358723708 
654	 0.434828952228075 
655	 0.434923863489641 
656	 0.435119073515275 
657	 0.435270360894346 
658	 0.435317268180668 
659	 0.435484121308652 
660	 0.435551039311991 
661	 0.435603988366028 
662	 0.435785174385572 
663	 0.435897152597825 
664	 0.435987353034467 
665	 0.43610190818548 
666	 0.436263122028726 
667	 0.436283999876674 
668	 0.436260890236786 
669	 0.436322145655523 
670	 0.436542463860957 
671	 0.436698047112274 
672	 0.436739768708518 
673	 0.436729455412426 
674	 0.436827891114319 
675	 0.436996515801135 
676	 0.437126440250165 
677	 0.43705636009688 
678	 0.437034258723971 
679	 0.437081102374781 
680	 0.437165224653098 
681	 0.437287736459127 
682	 0.437346552130644 
683	 0.437366115015809 
684	 0.437427824562176 
685	 0.437435397921693 
686	 0.437477208501887 
687	 0.437559671883905 
688	 0.437550483732992 
689	 0.437607758521275 
690	 0.437658115338963 
691	 0.437630417837324 
692	 0.43767992526585 
693	 0.437703401273641 
694	 0.437688396095437 
695	 0.437685320703349 
696	 0.437744915936345 
697	 0.437780612909524 
698	 0.437757218016576 
699	 0.437739108730726 
700	 0.437892006435778 
701	 0.438000853001967 
702	 0.437873783767397 
703	 0.437837053836661 
704	 0.437830536353738 
705	 0.437851489460348 
706	 0.43792542404115 
707	 0.437925991888032 
708	 0.437906040901168 
709	 0.437920689407536 
710	 0.437992491591772 
711	 0.437963672942669 
712	 0.437920033594057 
713	 0.437957082139805 
714	 0.437884250399931 
715	 0.437882446301283 
716	 0.43793729182732 
717	 0.437907131558122 
718	 0.437943548910877 
719	 0.43798571774956 
720	 0.43798356468207 
721	 0.437949740102641 
722	 0.437965465299255 
723	 0.437991574741438 
724	 0.43797419595271 
725	 0.437959712613683 
726	 0.437968084936962 
727	 0.437991765522452 
728	 0.438005689168798 
729	 0.438032028075854 
730	 0.437992402974353 
731	 0.437877724351032 
732	 0.437801049755856 
733	 0.437915088937344 
734	 0.438041792323514 
735	 0.437999250742842 
736	 0.437988864200056 
737	 0.437995197218362 
738	 0.438016954654498 
739	 0.438052523608412 
740	 0.438007153761183 
741	 0.43797897921068 
742	 0.43801615995586 
743	 0.438059887179501 
744	 0.438009243715841 
745	 0.437986658985109 
746	 0.438078927759974 
747	 0.438030860769057 
748	 0.438062367928939 
749	 0.438108288587429 
750	 0.437989649358575 
751	 0.438017023053686 
752	 0.438108327949758 
753	 0.438184169837138 
754	 0.438224668078289 
755	 0.43818110284993 
756	 0.43818679207237 
757	 0.43831975829386 
758	 0.438387137061009 
759	 0.438419235802941 
760	 0.438429073144672 
761	 0.438431278247128 
762	 0.438467521486827 
763	 0.438529150768794 
764	 0.438597101548056 
765	 0.438650214505422 
766	 0.438761060678552 
767	 0.438860192224793 
768	 0.438904766446268 
769	 0.438973606510617 
770	 0.439062860524957 
771	 0.439121147634823 
772	 0.439116127878898 
773	 0.43920433694022 
774	 0.43928104695498 
775	 0.439317993807955 
776	 0.439363877776361 
777	 0.43948611321741 
778	 0.439625498359885 
779	 0.439726348229689 
780	 0.439770799150997 
781	 0.439880094078225 
782	 0.43999511334393 
783	 0.440036347349729 
784	 0.440037012209597 
785	 0.440138506290809 
786	 0.440264176287487 
787	 0.440249844633059 
788	 0.440295541705892 
789	 0.440394337371112 
790	 0.440517950441644 
791	 0.440635382580955 
792	 0.440647055024257 
793	 0.440652778673804 
794	 0.440731125610561 
795	 0.440805860718555 
796	 0.440875049229594 
797	 0.440950040273803 
798	 0.441039590206279 
799	 0.441099462334963 
800	 0.441193054903568 
801	 0.441301972665992 
802	 0.441354336667062 
803	 0.441442446754353 
804	 0.441548616092243 
805	 0.441634042350416 
806	 0.44165360023665 
807	 0.441639577051481 
808	 0.441682784229019 
809	 0.441825576322104 
810	 0.441944335440726 
811	 0.441975992752791 
812	 0.441981633666159 
813	 0.442061722027523 
814	 0.4421735528332 
815	 0.442197906707659 
816	 0.44216165232508 
817	 0.442212583419469 
818	 0.442264590460555 
819	 0.442350579369854 
820	 0.442450282736653 
821	 0.442434118354465 
822	 0.442422533257138 
823	 0.442473294577379 
824	 0.442573650989702 
825	 0.442553883269077 
826	 0.442561176401006 
827	 0.442577681782764 
828	 0.44253838983139 
829	 0.442576672998715 
830	 0.44261309908644 
831	 0.442614790887673 
832	 0.442604132307763 
833	 0.44261023315613 
834	 0.442605258962701 
835	 0.442579068182692 
836	 0.442561444709577 
837	 0.442578156666135 
838	 0.442578061314601 
839	 0.442530867601796 
840	 0.442519204475107 
841	 0.442514014126445 
842	 0.442498665766824 
843	 0.44246936762647 
844	 0.442467773254547 
845	 0.442428320023569 
846	 0.442374284287741 
847	 0.442388874633123 
848	 0.442456531159314 
849	 0.442468035022454 
850	 0.442408425062614 
851	 0.44238828098753 
852	 0.442331468943851 
853	 0.442260499752688 
854	 0.442223909695632 
855	 0.442284505492858 
856	 0.442357974056213 
857	 0.442361494554578 
858	 0.442273207741421 
859	 0.442271297036498 
860	 0.442242351796317 
861	 0.442171835596542 
862	 0.442094833676861 
863	 0.441986690291809 
864	 0.441974345677854 
865	 0.442003721428192 
866	 0.441889859069873 
867	 0.44186221437412 
868	 0.441789006862537 
869	 0.441655189848139 
870	 0.441658952304579 
871	 0.441606336665623 
872	 0.44152370751261 
873	 0.441463369263258 
874	 0.441423580921089 
875	 0.441422467127621 
876	 0.441408746060677 
877	 0.44131957614334 
878	 0.441113694820566 
879	 0.44105566534563 
880	 0.441067664934763 
881	 0.440951484398296 
882	 0.440873586120796 
883	 0.440796984204238 
884	 0.440719181602908 
885	 0.44066951552785 
886	 0.440661639722315 
887	 0.440604248517515 
888	 0.440498910766012 
889	 0.440453732463728 
890	 0.440305370840413 
891	 0.440193586932451 
892	 0.44017064100516 
893	 0.440053430916557 
894	 0.439991732701624 
895	 0.439941582238543 
896	 0.43985290742139 
897	 0.439786600896353 
898	 0.439723558772713 
899	 0.439626941623109 
900	 0.439502746967564 
901	 0.439536587131268 
902	 0.439569329986959 
903	 0.439536837591568 
904	 0.439443002362488 
905	 0.439330809002866 
906	 0.439284966509806 
907	 0.43930765589258 
908	 0.439328710325016 
909	 0.439247845613389 
910	 0.439167878205154 
911	 0.439111554318233 
912	 0.439009435354427 
913	 0.438946476856634 
914	 0.438986171130217 
915	 0.439084277050697 
916	 0.439066787825258 
917	 0.438881525562542 
918	 0.438773518145079 
919	 0.438824051550702 
920	 0.438704680705254 
921	 0.438732646168131 
922	 0.438773221305151 
923	 0.438695428466428 
924	 0.438673511663625 
925	 0.438711918390206 
926	 0.438731513135824 
927	 0.438661659342783 
928	 0.438557993343927 
929	 0.438533306172456 
930	 0.438579548698555 
931	 0.438623997257002 
932	 0.4385877222506 
933	 0.438556376162486 
934	 0.438616660793454 
935	 0.438779352961365 
936	 0.438713666728796 
937	 0.438595174859326 
938	 0.438549468640788 
939	 0.438623896988372 
940	 0.438783417949022 
941	 0.43885413269495 
942	 0.438787883200687 
943	 0.438676601211199 
944	 0.438688134663289 
945	 0.438732334820805 
946	 0.438765043433133 
947	 0.438821274643291 
948	 0.438858593550286 
949	 0.438814325535478 
950	 0.438738408954606 
951	 0.438806292818923 
952	 0.438979984900389 
953	 0.439075116585135 
954	 0.438982056555849 
955	 0.438759240681517 
956	 0.43882326776405 
957	 0.438957437597093 
958	 0.438933113520084 
959	 0.438762332325626 
960	 0.43870372679722 
961	 0.438811791464935 
962	 0.438981213302331 
963	 0.438930086200968 
964	 0.43880674436456 
965	 0.438860253532031 
966	 0.439076045185238 
967	 0.438813074980324 
968	 0.438794710471386 
969	 0.438887431409307 
970	 0.43886467816237 
971	 0.438911839960863 
972	 0.439017793316891 
973	 0.438990117728502 
974	 0.438804472037051 
975	 0.439053098907685 
976	 0.439154699730346 
977	 0.439003642089119 
978	 0.438762342289863 
979	 0.438876006627566 
980	 0.438824630114887 
981	 0.438876396615221 
982	 0.439229982830743 
983	 0.438996889158562 
984	 0.438859349445732 
985	 0.438864221734756 
986	 0.438906125410432 
987	 0.439195394772476 
988	 0.439254983095195 
989	 0.439105806582049 
990	 0.438969040570045 
991	 0.439035023843303 
992	 0.438875433963542 
993	 0.438870834404541 
994	 0.439293601565912 
995	 0.439053978087443 
996	 0.43877138112362 
997	 0.438769698431473 
998	 0.43905975996879 
999	 0.439071352762542 
1000	 0.438893632562159 
1001	 0.434106678872304 
1002	 0.434100120229775 
1003	 0.434060955545279 
1004	 0.434028958806393 
1005	 0.433871420461849 
1006	 0.433854989844363 
1007	 0.434018959687432 
1008	 0.433998068376632 
1009	 0.433858445775648 
1010	 0.43380837929568 
1011	 0.43374348167214 
1012	 0.433681175993306 
1013	 0.433678744337293 
1014	 0.433662535440692 
1015	 0.433630997910802 
1016	 0.433541007910456 
1017	 0.433548351565451 
1018	 0.433522927074952 
1019	 0.43351415345281 
1020	 0.43352493497504 
1021	 0.433433337851406 
1022	 0.433224499498957 
1023	 0.433191632454348 
1024	 0.433214284702848 
1025	 0.433173229171978 
1026	 0.433195338345076 
1027	 0.433168837952006 
1028	 0.433070547489722 
1029	 0.432935042888661 
1030	 0.432866780166687 
1031	 0.432971830217057 
1032	 0.433019649443155 
1033	 0.432967941317164 
1034	 0.433039708196033 
1035	 0.433066605264409 
1036	 0.433022320181572 
1037	 0.432966619154929 
1038	 0.432910865996432 
1039	 0.432689110575631 
1040	 0.432654374552372 
1041	 0.432772174688513 
1042	 0.432794374739972 
1043	 0.432814472342559 
1044	 0.432929027811538 
1045	 0.432925692536474 
1046	 0.432754647210383 
1047	 0.432693453018544 
1048	 0.432674709810046 
1049	 0.432720706658189 
1050	 0.432892027728366 
1051	 0.433008465750364 
1052	 0.432990007173368 
1053	 0.432952838330468 
1054	 0.432814787718116 
1055	 0.432740551518957 
1056	 0.432646181538214 
1057	 0.432583337629208 
1058	 0.432582043036983 
1059	 0.432462623394273 
1060	 0.432343755082492 
1061	 0.432369836849637 
1062	 0.432319191948299 
1063	 0.43226904902847 
1064	 0.432339413937016 
1065	 0.432287280439807 
1066	 0.432147024962336 
1067	 0.432054341249305 
1068	 0.431936099278376 
1069	 0.431912103519837 
1070	 0.431848397180604 
1071	 0.431859605361728 
1072	 0.431731913450737 
1073	 0.43160949470426 
1074	 0.43150797886487 
1075	 0.431399714651664 
1076	 0.431439604130545 
1077	 0.431455288066918 
1078	 0.431311605324013 
1079	 0.431204751845751 
1080	 0.431139485344521 
1081	 0.431066181073836 
1082	 0.430949140619431 
1083	 0.430755761417508 
1084	 0.430635541838139 
1085	 0.430542968685225 
1086	 0.430443523599414 
1087	 0.430360919516931 
1088	 0.430394412023285 
1089	 0.430399865096026 
1090	 0.430305401270239 
1091	 0.430257772644414 
1092	 0.430253225890293 
1093	 0.430188915584001 
1094	 0.430134283807565 
1095	 0.430124778309383 
1096	 0.430091639874466 
1097	 0.430030615770458 
1098	 0.42999226839133 
1099	 0.429968477218562 
1100	 0.429958693482957 
1101	 0.429964386157861 
1102	 0.429913852669053 
1103	 0.429913354091196 
1104	 0.429955985594006 
1105	 0.429989319858813 
1106	 0.429924981512599 
1107	 0.429934855256706 
1108	 0.429912658083557 
1109	 0.429835953494594 
1110	 0.429863036804344 
1111	 0.429926528671329 
1112	 0.429969414098763 
1113	 0.429987136970222 
1114	 0.430010187351025 
1115	 0.430047410536435 
1116	 0.43008898924101 
1117	 0.430165975687645 
1118	 0.430236385855054 
1119	 0.430319250308414 
1120	 0.430371631625195 
1121	 0.43041140256202 
1122	 0.430467655987821 
1123	 0.430477232733599 
1124	 0.430487443140245 
1125	 0.430540927637031 
1126	 0.430580356293612 
1127	 0.430638934147028 
1128	 0.430703603613453 
1129	 0.430745231232999 
1130	 0.430766241364541 
1131	 0.430790749497074 
1132	 0.430840702770028 
1133	 0.430882565300182 
1134	 0.430938643228113 
1135	 0.430986107566841 
1136	 0.431043984767431 
1137	 0.43106531396245 
1138	 0.431082544495353 
1139	 0.431063283906292 
1140	 0.430988854311998 
1141	 0.430948813983258 
1142	 0.430938562326483 
1143	 0.430963628292621 
1144	 0.431037513606026 
1145	 0.431047655564842 
1146	 0.431014458343045 
1147	 0.430939778993356 
1148	 0.430805077385289 
1149	 0.430739900093639 
1150	 0.430661951179773 
1151	 0.430543360171107 
1152	 0.430471456180206 
1153	 0.430417183906006 
1154	 0.430356646253633 
1155	 0.430340965856607 
1156	 0.430287359194765 
1157	 0.43018605147249 
1158	 0.430155381650404 
1159	 0.430184291235519 
1160	 0.430134185638228 
1161	 0.430040516495515 
1162	 0.429915264123744 
1163	 0.429750485228982 
1164	 0.429591905522637 
1165	 0.429477386837835 
1166	 0.429387909826969 
1167	 0.429256059285827 
1168	 0.429120376831127 
1169	 0.429033225852217 
1170	 0.429023612590977 
1171	 0.428938532720589 
1172	 0.428852591015048 
1173	 0.428734854120347 
1174	 0.428540749505689 
1175	 0.42840919331192 
1176	 0.428326469357882 
1177	 0.428198746135135 
1178	 0.428080230065401 
1179	 0.427938902257925 
1180	 0.427749083784358 
1181	 0.42751569679705 
1182	 0.427265324044834 
1183	 0.427053084789538 
1184	 0.426883608700287 
1185	 0.426699638367141 
1186	 0.426523913138752 
1187	 0.426379386863039 
1188	 0.426214304122923 
1189	 0.426024510784419 
1190	 0.425869484114503 
1191	 0.425738709721786 
1192	 0.425600187213174 
1193	 0.425466680150377 
1194	 0.425333912790533 
1195	 0.425184652503478 
1196	 0.425065805055039 
1197	 0.424956296855794 
1198	 0.42487376028862 
1199	 0.424816638487208 
1200	 0.424751723945759 
1201	 0.424671162263897 
1202	 0.424583098389573 
1203	 0.424485019662817 
1204	 0.424463975154875 
1205	 0.424480534896823 
1206	 0.424574553810981 
1207	 0.42461927732737 
1208	 0.424655643077345 
1209	 0.424756134514598 
1210	 0.424851145141554 
1211	 0.4250019740412 
1212	 0.425218221252264 
1213	 0.425465377705402 
1214	 0.42574001950453 
1215	 0.426050573156147 
1216	 0.426405907383186 
1217	 0.426794991533512 
1218	 0.427221068734674 
1219	 0.427660969961079 
1220	 0.428142917719997 
1221	 0.428682948149692 
1222	 0.42917466200428 
1223	 0.429685779495002 
1224	 0.430171696930571 
1225	 0.430645227675256 
1226	 0.431099469242729 
1227	 0.431539375083 
1228	 0.431971214849851 
1229	 0.432408554874935 
1230	 0.432797571768928 
1231	 0.433146037840238 
1232	 0.433511895399358 
1233	 0.433857966021709 
1234	 0.434181610494596 
1235	 0.434530008063022 
1236	 0.434827918384292 
1237	 0.435063180175779 
1238	 0.435306559723816 
1239	 0.435538719043197 
1240	 0.43574896398199 
1241	 0.435962365742548 
1242	 0.436188238377865 
1243	 0.436400034075688 
1244	 0.436611322987444 
1245	 0.436816190849708 
1246	 0.437012470596238 
1247	 0.437201152243438 
1248	 0.437399058999481 
1249	 0.437560581980649 
1250	 0.437676872871138 
1251	 0.437839177330306 
1252	 0.43800084380314 
1253	 0.438167981013445 
1254	 0.438366517897242 
1255	 0.438553767469947 
1256	 0.438745261837517 
1257	 0.438908464155927 
1258	 0.43907034812231 
1259	 0.439218287378321 
1260	 0.439298331498382 
1261	 0.439432848714694 
1262	 0.43960414086819 
1263	 0.439752920636103 
1264	 0.439954677384572 
1265	 0.440229703270667 
1266	 0.440406168125104 
1267	 0.440571849705982 
1268	 0.440714328709364 
1269	 0.440770561188843 
1270	 0.440905017699226 
1271	 0.441067865296325 
1272	 0.441235256700969 
1273	 0.441452501847584 
1274	 0.441613621473786 
1275	 0.441763557520772 
1276	 0.441895839651984 
1277	 0.441976628284306 
1278	 0.442082505741535 
1279	 0.442200540318115 
1280	 0.442306124160389 
1281	 0.442404704671098 
1282	 0.442507829011609 
1283	 0.442614892498012 
1284	 0.442706136156523 
1285	 0.442791207577392 
1286	 0.442869567739858 
1287	 0.44296670016796 
1288	 0.443062819093091 
1289	 0.443147172686888 
1290	 0.443266156937635 
1291	 0.443313665411304 
1292	 0.443294066692399 
1293	 0.443327704575706 
1294	 0.443349948374698 
1295	 0.443385116230456 
1296	 0.443458629992692 
1297	 0.443501999717908 
1298	 0.443524175897985 
1299	 0.443553968277976 
1300	 0.443580693791743 
1301	 0.443610185732714 
1302	 0.443641909316406 
1303	 0.443669973933138 
1304	 0.443679870714664 
1305	 0.443719670465696 
1306	 0.443775920623825 
1307	 0.443830757443276 
1308	 0.443907845450968 
1309	 0.443987907037616 
1310	 0.444043227435724 
1311	 0.444078268634825 
1312	 0.444130792080325 
1313	 0.44417042440541 
1314	 0.444240593296658 
1315	 0.444326388695867 
1316	 0.444419268057664 
1317	 0.444535141204819 
1318	 0.444634907488093 
1319	 0.444730943861692 
1320	 0.444837503007167 
1321	 0.444952777745591 
1322	 0.445051188952189 
1323	 0.445141852759979 
1324	 0.445246481977569 
1325	 0.445335148808438 
1326	 0.44544585580459 
1327	 0.4455874758863 
1328	 0.44571692429681 
1329	 0.445853926625853 
1330	 0.445977973269947 
1331	 0.446075779619003 
1332	 0.446203598578534 
1333	 0.44635828278344 
1334	 0.446489003774569 
1335	 0.446608253845487 
1336	 0.446728124492701 
1337	 0.446867932929353 
1338	 0.446998814228965 
1339	 0.447116932360613 
1340	 0.447266726442488 
1341	 0.447373844333227 
1342	 0.44744075801612 
1343	 0.447509654587349 
1344	 0.447567386427408 
1345	 0.447636483794023 
1346	 0.447683820116132 
1347	 0.447752723769694 
1348	 0.447850942844702 
1349	 0.447932557271946 
1350	 0.44801772386019 
1351	 0.448085721066945 
1352	 0.448145399205357 
1353	 0.448200062864713 
1354	 0.448252071493078 
1355	 0.448282968594058 
1356	 0.448303515197666 
1357	 0.448312860055355 
1358	 0.448296652114124 
1359	 0.448280079181689 
1360	 0.448244758378817 
1361	 0.448236362709326 
1362	 0.448218268163362 
1363	 0.448171702978381 
1364	 0.44811066667725 
1365	 0.448025222901641 
1366	 0.447968342829365 
1367	 0.447917670219231 
1368	 0.447830254990865 
1369	 0.447760990477129 
1370	 0.447635780832211 
1371	 0.447453190621239 
1372	 0.447281407474317 
1373	 0.447098825399383 
1374	 0.446904094282342 
1375	 0.446707166184807 
1376	 0.44646847532673 
1377	 0.446194592346205 
1378	 0.445924425865181 
1379	 0.445612933872979 
1380	 0.445329798770567 
1381	 0.4450816631872 
1382	 0.444790281894642 
1383	 0.444484055729882 
1384	 0.444165744424579 
1385	 0.443808621171 
1386	 0.443471217315672 
1387	 0.443115785659276 
1388	 0.442803829615863 
1389	 0.442469617762093 
1390	 0.442222230878604 
1391	 0.442047979972895 
1392	 0.441902051406899 
1393	 0.441795663698021 
1394	 0.441714781929007 
1395	 0.441619135523069 
1396	 0.441534552918194 
1397	 0.441412315520745 
1398	 0.441293422581385 
1399	 0.441134996435701 
1400	 0.440946957682855 
1401	 0.440726117723493 
1402	 0.440514859208921 
1403	 0.440193930102922 
1404	 0.439800342606241 
1405	 0.439378803685232 
1406	 0.438883043880277 
1407	 0.438373990345512 
1408	 0.437811329883531 
1409	 0.437278076493727 
1410	 0.436722435995515 
1411	 0.436167817073466 
1412	 0.43561387137434 
1413	 0.43508884993901 
1414	 0.434534527817043 
1415	 0.434045478484366 
1416	 0.433583973981517 
1417	 0.433181484457464 
1418	 0.43285832397688 
1419	 0.4325181766716 
1420	 0.432233929251485 
1421	 0.431931559098467 
1422	 0.431600286463622 
1423	 0.431287075187584 
1424	 0.430975910136414 
1425	 0.430691448569896 
1426	 0.430412088199503 
1427	 0.430141316212542 
1428	 0.429861466692391 
1429	 0.429586315392137 
1430	 0.429330983464089 
1431	 0.429072543187256 
1432	 0.428842335876311 
1433	 0.428643308780259 
1434	 0.428434950857313 
1435	 0.428236055922243 
1436	 0.428035160756986 
1437	 0.427832200462328 
1438	 0.42764858503222 
1439	 0.427469413557428 
1440	 0.427301471939011 
1441	 0.427135493867886 
1442	 0.427007429494193 
1443	 0.426879984817646 
1444	 0.426809743388802 
1445	 0.426782629330277 
1446	 0.426790595786079 
1447	 0.426834855115445 
1448	 0.426915447491957 
1449	 0.42701740174393 
1450	 0.427190469524771 
1451	 0.427409807547652 
1452	 0.427685132695195 
1453	 0.428033618784342 
1454	 0.42841052938913 
1455	 0.428859292499714 
1456	 0.429295808336761 
1457	 0.429764420792967 
1458	 0.430236063207857 
1459	 0.430704680209853 
1460	 0.431189516578381 
1461	 0.431707284624392 
1462	 0.43220675141118 
1463	 0.43269409167871 
1464	 0.433197526876537 
1465	 0.433705864184952 
1466	 0.434228845961999 
1467	 0.434688123222302 
1468	 0.435152573536921 
1469	 0.435633602724651 
1470	 0.436057450769456 
1471	 0.436495957514848 
1472	 0.436957184899763 
1473	 0.437405246257699 
1474	 0.437820255281145 
1475	 0.438255220882309 
1476	 0.43872931495346 
1477	 0.439145516228408 
1478	 0.439531447256603 
1479	 0.439903757407545 
1480	 0.440243135308047 
1481	 0.440604150175395 
1482	 0.440978354237779 
1483	 0.441300725652385 
1484	 0.441606696105135 
1485	 0.441906298846474 
1486	 0.442144457071501 
1487	 0.442431648863218 
1488	 0.442751060429477 
1489	 0.443056936761806 
1490	 0.443372228425687 
1491	 0.443671776298717 
1492	 0.44394440693875 
1493	 0.444259613821427 
1494	 0.444598251570781 
1495	 0.444915198617842 
1496	 0.445256878049169 
1497	 0.445575702651416 
1498	 0.445849135382666 
1499	 0.4461594378949 
1500	 0.446493935011266 
1501	 0.446817161962283 
1502	 0.447154896611138 
1503	 0.447470272186944 
1504	 0.447767607435071 
1505	 0.448069198302333 
1506	 0.44836583851687 
1507	 0.448657793862979 
1508	 0.448964403334131 
1509	 0.44923832801964 
1510	 0.449487632675172 
1511	 0.449730176830018 
1512	 0.449941998672592 
1513	 0.450164307754078 
1514	 0.450397403271513 
1515	 0.450612441657497 
1516	 0.450839294813498 
1517	 0.451025816989132 
1518	 0.451170963647239 
1519	 0.451315507376079 
1520	 0.451420400728858 
1521	 0.451548523613418 
1522	 0.451652509703291 
1523	 0.451776110634366 
1524	 0.451889296183128 
1525	 0.451998955709985 
1526	 0.452093597360651 
1527	 0.452185560640751 
1528	 0.45227221838553 
1529	 0.452339379564941 
1530	 0.452424653028738 
1531	 0.452521528868641 
1532	 0.452605428931079 
1533	 0.452679674636138 
1534	 0.452773500304844 
1535	 0.452870731458438 
1536	 0.452971021902554 
1537	 0.453088312533824 
1538	 0.453191502903239 
1539	 0.453277760260001 
1540	 0.453393420410479 
1541	 0.453515884689733 
1542	 0.453654198533138 
1543	 0.453820584564594 
1544	 0.453967953328344 
1545	 0.454106784613113 
1546	 0.454270342302321 
1547	 0.454440136942935 
1548	 0.454615146052953 
1549	 0.454807708475302 
1550	 0.455003630672371 
1551	 0.455207470595518 
1552	 0.455397379302269 
1553	 0.455588403856117 
1554	 0.455787061922228 
1555	 0.455983179937615 
1556	 0.456167888161273 
1557	 0.456359971417303 
1558	 0.456546275971622 
1559	 0.456708249874309 
1560	 0.456886268358393 
1561	 0.457086361221911 
1562	 0.457265269587863 
1563	 0.457430186597261 
1564	 0.457601234965621 
1565	 0.457753983461705 
1566	 0.457938868636776 
1567	 0.458146779359302 
1568	 0.458344633191569 
1569	 0.458566993264492 
1570	 0.458763374191613 
1571	 0.45893140750495 
1572	 0.459120287844784 
1573	 0.459316240773177 
1574	 0.459502475362066 
1575	 0.459697584682748 
1576	 0.459879579672488 
1577	 0.460032180392832 
1578	 0.460213840306708 
1579	 0.460407449516717 
1580	 0.460601191563406 
1581	 0.460836508763247 
1582	 0.461015339494894 
1583	 0.46113467279533 
1584	 0.461309759865932 
1585	 0.461476660357869 
1586	 0.461663113538707 
1587	 0.461906719154708 
1588	 0.462124385811645 
1589	 0.462329429222509 
1590	 0.46253317937073 
1591	 0.462742317047402 
1592	 0.46294111158891 
1593	 0.4631262581427 
1594	 0.463314919517929 
1595	 0.463512308662786 
1596	 0.463688611695312 
1597	 0.463847510180566 
1598	 0.464009126680163 
1599	 0.464152390200767 
1600	 0.464308594415388 
1601	 0.464465621222725 
1602	 0.464640640573203 
1603	 0.464852529823788 
1604	 0.465016552627511 
1605	 0.465151945947024 
1606	 0.465313954749583 
1607	 0.465471458985808 
1608	 0.46561503247356 
1609	 0.465778612531047 
1610	 0.465928629073664 
1611	 0.466020192996169 
1612	 0.466158175941252 
1613	 0.466356700754457 
1614	 0.466506136742314 
1615	 0.466662813015575 
1616	 0.466785796853349 
1617	 0.466853623158847 
1618	 0.466932938219571 
1619	 0.467002078933082 
1620	 0.467068616979834 
1621	 0.467135634322694 
1622	 0.467189791225293 
1623	 0.467214432523373 
1624	 0.467269996893532 
1625	 0.467333439299926 
1626	 0.467405470796841 
1627	 0.467531320187483 
1628	 0.467602894399685 
1629	 0.467639731398566 
1630	 0.467680202500909 
1631	 0.467668213685758 
1632	 0.467702604493123 
1633	 0.467774527556501 
1634	 0.46783808334995 
1635	 0.467938257124273 
1636	 0.46799847315394 
1637	 0.468028838532194 
1638	 0.468062889943794 
1639	 0.468070738452995 
1640	 0.468093824968146 
1641	 0.468128006083878 
1642	 0.468160323043944 
1643	 0.46820270332822 
1644	 0.468230153117217 
1645	 0.468277458978603 
1646	 0.468266373975226 
1647	 0.468194069869929 
1648	 0.46815550364676 
1649	 0.468123106772452 
1650	 0.468046500318753 
1651	 0.467968902776507 
1652	 0.467875178620391 
1653	 0.467737697633968 
1654	 0.467583823292693 
1655	 0.467444494780049 
1656	 0.467252257745508 
1657	 0.466994590319606 
1658	 0.466746192928369 
1659	 0.466488665815283 
1660	 0.466200700253712 
1661	 0.465916609758638 
1662	 0.465572404088221 
1663	 0.465190386897536 
1664	 0.46475714391413 
1665	 0.464282017749294 
1666	 0.463741503156851 
1667	 0.463144947970101 
1668	 0.462508759698637 
1669	 0.4618273302288 
1670	 0.461071813645397 
1671	 0.460243028643138 
1672	 0.459382553377514 
1673	 0.458493903291071 
1674	 0.457485995953759 
1675	 0.456395504260796 
1676	 0.45529038923876 
1677	 0.454102148892102 
1678	 0.452864647353948 
1679	 0.451597366897219 
1680	 0.45028030369961 
1681	 0.448884714146142 
1682	 0.447441848997933 
1683	 0.445994572218076 
1684	 0.444472425252785 
1685	 0.442871286471391 
1686	 0.441200387076023 
1687	 0.4394520306252 
1688	 0.437661613756257 
1689	 0.435810855218988 
1690	 0.433872014051364 
1691	 0.431874402232742 
1692	 0.429865453854541 
1693	 0.427786077498631 
1694	 0.425667934973842 
1695	 0.423513283654563 
1696	 0.421328510567334 
1697	 0.419088043324872 
1698	 0.4167781240148 
1699	 0.414456855872017 
1700	 0.412112645691261 
1701	 0.409631224880027 
1702	 0.407311068094822 
1703	 0.4049954210064 
1704	 0.402800979124021 
1705	 0.400678565891609 
1706	 0.398588310567106 
1707	 0.396772587566361 
1708	 0.395004437471392 
1709	 0.393390942484192 
1710	 0.391924826229254 
1711	 0.390469112058863 
1712	 0.389212441350999 
1713	 0.387977762620245 
1714	 0.386798233678313 
1715	 0.385790420596913 
1716	 0.384751710824856 
1717	 0.383774357606075 
1718	 0.382819722154621 
1719	 0.381857112686411 
1720	 0.381049653912851 
1721	 0.380298060573642 
1722	 0.379623932497471 
1723	 0.379109440869118 
1724	 0.378615559078768 
1725	 0.378231001713556 
1726	 0.378080645273856 
1727	 0.378145417260563 
1728	 0.378375281270476 
1729	 0.378825635865586 
1730	 0.379557433895315 
1731	 0.380396203141792 
1732	 0.38146208090214 
1733	 0.382702146502112 
1734	 0.384022263495992 
1735	 0.385471147412094 
1736	 0.386913712195816 
1737	 0.388304393981436 
1738	 0.389544425758115 
1739	 0.390587063613888 
1740	 0.391518317673701 
1741	 0.392221037720703 
1742	 0.392701906917811 
1743	 0.393065650025703 
1744	 0.393206654602315 
1745	 0.393264874714251 
1746	 0.393160677456265 
1747	 0.393036835082063 
1748	 0.392791336385316 
1749	 0.39257519278391 
1750	 0.392284333705176 
1751	 0.392103054458751 
1752	 0.391912452677646 
1753	 0.39183704885673 
1754	 0.391858162248035 
1755	 0.391976002674534 
1756	 0.392165834157318 
1757	 0.392410633172159 
1758	 0.392803050884533 
1759	 0.393290730050086 
1760	 0.393908408400068 
1761	 0.394714837251931 
1762	 0.395580590251817 
1763	 0.396560308734721 
1764	 0.397690171447553 
1765	 0.398941943743862 
1766	 0.400346686873776 
1767	 0.40183368628542 
1768	 0.403440995398245 
1769	 0.405072102677654 
1770	 0.406581794466536 
1771	 0.408103344574889 
1772	 0.409503540736176 
1773	 0.410851286912987 
1774	 0.412300366554392 
1775	 0.41357459135388 
1776	 0.414787887108232 
1777	 0.415910529799345 
1778	 0.416831709305292 
1779	 0.417762942641841 
1780	 0.418619654455182 
1781	 0.41938545926791 
1782	 0.420164695147938 
1783	 0.420867532795496 
1784	 0.4215342339085 
1785	 0.422127048242745 
1786	 0.422636992173893 
1787	 0.423046286913299 
1788	 0.423472811070796 
1789	 0.423899689092852 
1790	 0.424236897728997 
1791	 0.424511756570296 
1792	 0.424788233351057 
1793	 0.424942356367773 
1794	 0.425220726584841 
1795	 0.425536051674447 
1796	 0.42582706392109 
1797	 0.426124663396334 
1798	 0.426391822193084 
1799	 0.426657428702974 
1800	 0.426959696766167 
1801	 0.430035476989341 
1802	 0.43026404637387 
1803	 0.430512860227598 
1804	 0.430775500093003 
1805	 0.431076993208498 
1806	 0.431357473619237 
1807	 0.431642147181523 
1808	 0.431918204149792 
1809	 0.432212902788208 
1810	 0.432463134647214 
1811	 0.432652241138625 
1812	 0.432903171906222 
1813	 0.433129867873906 
1814	 0.433425354798576 
1815	 0.433792572732993 
1816	 0.434109114625888 
1817	 0.434406697242925 
1818	 0.434648096775239 
1819	 0.434971355099068 
1820	 0.435319148277391 
1821	 0.435654711267993 
1822	 0.43600833635568 
1823	 0.436412015301345 
1824	 0.436774536975053 
1825	 0.43714576242592 
1826	 0.437529458156602 
1827	 0.437955599770471 
1828	 0.438333325674485 
1829	 0.438677234836605 
1830	 0.439055357342447 
1831	 0.439436998491518 
1832	 0.439843095349821 
1833	 0.440228826257526 
1834	 0.440571402532731 
1835	 0.440892873614753 
1836	 0.441211825543347 
1837	 0.441552951689068 
1838	 0.441902203710164 
1839	 0.442259007013583 
1840	 0.442631737018936 
1841	 0.443004332345949 
1842	 0.443389293766693 
1843	 0.4437555495957 
1844	 0.44413866286914 
1845	 0.444493705292075 
1846	 0.444833109787551 
1847	 0.445184087940012 
1848	 0.4455265663241 
1849	 0.445904813667978 
1850	 0.446204041666704 
1851	 0.446472081743001 
1852	 0.446719146061227 
1853	 0.446897740456341 
1854	 0.447016061402747 
1855	 0.447176153010963 
1856	 0.44731854722573 
1857	 0.447467345427874 
1858	 0.447600099103148 
1859	 0.447699578189228 
1860	 0.447775939455132 
1861	 0.447826096667932 
1862	 0.447856951925836 
1863	 0.447854010644991 
1864	 0.44779663372539 
1865	 0.447717863795658 
1866	 0.447599648326947 
1867	 0.447442358596573 
1868	 0.447285447332905 
1869	 0.447098461047203 
1870	 0.446846795639643 
1871	 0.446546137097513 
1872	 0.446214268912787 
1873	 0.445850774433442 
1874	 0.445413076599647 
1875	 0.444936283753224 
1876	 0.444362197649843 
1877	 0.44373691753492 
1878	 0.44306782379555 
1879	 0.442328507545864 
1880	 0.441581862981805 
1881	 0.440715442470271 
1882	 0.43976990236557 
1883	 0.438717782105359 
1884	 0.437551733923396 
1885	 0.436269965351348 
1886	 0.434954990446015 
1887	 0.43349227690103 
1888	 0.431937023365351 
1889	 0.430379431506275 
1890	 0.428640984186031 
1891	 0.42689097307167 
1892	 0.425127699746401 
1893	 0.423284202700419 
1894	 0.421329170054131 
1895	 0.419439187553015 
1896	 0.417506102917696 
1897	 0.415571545661599 
1898	 0.413787242630326 
1899	 0.411991763736205 
1900	 0.410281247162184 
1901	 0.408646449025046 
1902	 0.406988845690377 
1903	 0.405458017598352 
1904	 0.403961401657341 
1905	 0.402490916357663 
1906	 0.401113877748367 
1907	 0.399898976101296 
1908	 0.398706652807447 
1909	 0.397656597784676 
1910	 0.396708776768247 
1911	 0.395729768083581 
1912	 0.394874935440669 
1913	 0.394085794571655 
1914	 0.393315746831287 
1915	 0.392636407055778 
1916	 0.392066514673828 
1917	 0.391497124062466 
1918	 0.390946735889249 
1919	 0.39048371849188 
1920	 0.390018596203832 
1921	 0.389547827637532 
1922	 0.38911857027544 
1923	 0.388728583916739 
1924	 0.38836564135818 
1925	 0.388040406241153 
1926	 0.387740446232872 
1927	 0.387487042794836 
1928	 0.387218327849814 
1929	 0.386946474786715 
1930	 0.386722270173471 
1931	 0.386524034506936 
1932	 0.386346271942899 
1933	 0.386242102966234 
1934	 0.38618794117139 
1935	 0.386169563241356 
1936	 0.386213881696134 
1937	 0.386289438723852 
1938	 0.386399206675914 
1939	 0.386571197690693 
1940	 0.386797041327743 
1941	 0.387049631176291 
1942	 0.387365680380877 
1943	 0.387692639834589 
1944	 0.387977888247847 
1945	 0.388325536895397 
1946	 0.388760768166274 
1947	 0.389216558813704 
1948	 0.389715934313865 
1949	 0.39026827954783 
1950	 0.390790657672728 
1951	 0.391257280951414 
1952	 0.391794546227233 
1953	 0.392367763375822 
1954	 0.392954100896869 
1955	 0.39357143584924 
1956	 0.394202317275907 
1957	 0.394862752278363 
1958	 0.395532276364164 
1959	 0.396154445626096 
1960	 0.396781184443178 
1961	 0.397364635557569 
1962	 0.397884313144432 
1963	 0.398427051428571 
1964	 0.39895906021778 
1965	 0.399481634894448 
1966	 0.400013558046111 
1967	 0.400516936839488 
1968	 0.400972746754664 
1969	 0.401462093395338 
1970	 0.401942562778763 
1971	 0.402404203356725 
1972	 0.402897320773858 
1973	 0.403359557053228 
1974	 0.403835941958801 
1975	 0.404321785180009 
1976	 0.404799634348991 
1977	 0.405282056534554 
1978	 0.4057599851767 
1979	 0.406233057985503 
1980	 0.40668082055927 
1981	 0.407160475118081 
1982	 0.407633429604828 
1983	 0.408139610702638 
1984	 0.40863356024971 
1985	 0.409115168926238 
1986	 0.409613864619116 
1987	 0.410081449906905 
1988	 0.410503647648825 
1989	 0.410984045675891 
1990	 0.411453753965677 
1991	 0.411952722690467 
1992	 0.412490720182452 
1993	 0.41305392160751 
1994	 0.413571006823261 
1995	 0.414171381451009 
1996	 0.414770203721535 
1997	 0.415342840010588 
1998	 0.415920006133194 
1999	 0.416522517610256 
2000	 0.417050960153491 
2001	 0.417568936882495 
2002	 0.418028190676109 
2003	 0.418423685372693 
2004	 0.418811816198153 
2005	 0.419149403109016 
2006	 0.41949678695817 
2007	 0.419830915103045 
2008	 0.420156893031209 
2009	 0.420483633827535 
2010	 0.420738321959974 
2011	 0.420993602609247 
2012	 0.421261232228027 
2013	 0.421455282820976 
2014	 0.421602355553591 
2015	 0.421746100598581 
2016	 0.421859974777363 
2017	 0.421925469247323 
2018	 0.421988138284354 
2019	 0.421996878174968 
2020	 0.421951611798863 
2021	 0.421835295054579 
2022	 0.4217044188393 
2023	 0.42158108140951 
2024	 0.421471879675158 
2025	 0.421337547906361 
2026	 0.421174188804715 
2027	 0.420999595423276 
2028	 0.420817858311282 
2029	 0.420612358272782 
2030	 0.420379040019292 
2031	 0.420144977830255 
2032	 0.419879465850401 
2033	 0.419531469900217 
2034	 0.419232591983854 
2035	 0.418925357251666 
2036	 0.418660562648478 
2037	 0.418445152912201 
2038	 0.418219910503995 
2039	 0.417978054547831 
2040	 0.417763685860572 
2041	 0.417504564108401 
2042	 0.417188049047051 
2043	 0.416921648243894 
2044	 0.416652202566795 
2045	 0.416398729744029 
2046	 0.416173389272766 
2047	 0.415939240499384 
2048	 0.415712486184746 
2049	 0.415489373075413 
2050	 0.415244706630692 
2051	 0.415047054381959 
2052	 0.414885608946094 
2053	 0.41468507959671 
2054	 0.414504115592602 
2055	 0.414366759066007 
2056	 0.414165881038741 
2057	 0.413909782674898 
2058	 0.413708662992343 
2059	 0.413487904441463 
2060	 0.413312670799122 
2061	 0.41320199798816 
2062	 0.413067110722829 
2063	 0.412960767228896 
2064	 0.412805606143641 
2065	 0.412645298206696 
2066	 0.412437590781785 
2067	 0.412182800293374 
2068	 0.411977338017914 
2069	 0.411780106741215 
2070	 0.411584408256955 
2071	 0.411413375571717 
2072	 0.41127827530026 
2073	 0.411125624479132 
2074	 0.410970471006233 
2075	 0.4108354765475 
2076	 0.410740112778924 
2077	 0.41058632612 
2078	 0.410398086654122 
2079	 0.410233751284327 
2080	 0.410043860744006 
2081	 0.40986342047125 
2082	 0.409686019954779 
2083	 0.409560655498967 
2084	 0.409430947682529 
2085	 0.409252336422997 
2086	 0.409112764855005 
2087	 0.409006380754634 
2088	 0.408881616209977 
2089	 0.408757391246879 
2090	 0.408627224030622 
2091	 0.408513677927629 
2092	 0.408354244596842 
2093	 0.408143312472942 
2094	 0.40797773472498 
2095	 0.407816585310464 
2096	 0.407643620041493 
2097	 0.407514930483077 
2098	 0.407337523552451 
2099	 0.407121291955467 
2100	 0.406892513982898 
2101	 0.406663903161522 
2102	 0.406442926221579 
2103	 0.406166559131576 
2104	 0.405841307389287 
2105	 0.405568531197725 
2106	 0.405283769548897 
2107	 0.404991038202765 
2108	 0.404778717760317 
2109	 0.404444861697102 
2110	 0.40399472669966 
2111	 0.403606541296521 
2112	 0.403168606453738 
2113	 0.402775058644743 
2114	 0.402436113037388 
2115	 0.402086035812737 
2116	 0.401761285264796 
2117	 0.40142351588592 
2118	 0.401026728819938 
2119	 0.400606694778687 
2120	 0.400171086587808 
2121	 0.399657145153889 
2122	 0.399215643597839 
2123	 0.398761492722295 
2124	 0.398395970235424 
2125	 0.398069438383501 
2126	 0.397792663018731 
2127	 0.397610324961514 
2128	 0.397416937716491 
2129	 0.39725152349704 
2130	 0.397095720748655 
2131	 0.396956193185381 
2132	 0.396832769783973 
2133	 0.396722159404576 
2134	 0.396633524804948 
2135	 0.39655677707275 
2136	 0.396522502065486 
2137	 0.396495988767869 
2138	 0.39648418336533 
2139	 0.396509100922397 
2140	 0.396571836389957 
2141	 0.396623161868012 
2142	 0.396688949987058 
2143	 0.396771048927831 
2144	 0.39685371334521 
2145	 0.396962567968028 
2146	 0.39712278714231 
2147	 0.397257424796132 
2148	 0.397345299613994 
2149	 0.397513439810338 
2150	 0.397724627685382 
2151	 0.39793232524302 
2152	 0.398176027974614 
2153	 0.398467616320959 
2154	 0.398717644843904 
2155	 0.398940231431451 
2156	 0.399149962380287 
2157	 0.399369557998936 
2158	 0.399521324795625 
2159	 0.399609327974438 
2160	 0.399734783851767 
2161	 0.399860805793265 
2162	 0.39994828383422 
2163	 0.400062636370039 
2164	 0.400078709112521 
2165	 0.399960037505977 
2166	 0.399950660830258 
2167	 0.399971268952255 
2168	 0.399945947174844 
2169	 0.399971114388459 
2170	 0.399928749110656 
2171	 0.399799351479514 
2172	 0.399678130990193 
2173	 0.399489457200682 
2174	 0.399391544656263 
2175	 0.399364325370852 
2176	 0.399281652135145 
2177	 0.399224765184306 
2178	 0.399248521360789 
2179	 0.399184643416673 
2180	 0.399043701469326 
2181	 0.398966165221236 
2182	 0.398919508153034 
2183	 0.398833017429563 
2184	 0.398739441897771 
2185	 0.398642787782985 
2186	 0.398517141913712 
2187	 0.398409238630832 
2188	 0.398354517792227 
2189	 0.398210717787595 
2190	 0.398018329177136 
2191	 0.397822769424338 
2192	 0.397565966731745 
2193	 0.39732166892833 
2194	 0.397071069668867 
2195	 0.396834148307907 
2196	 0.396600774967951 
2197	 0.396363488814123 
2198	 0.396111820570124 
2199	 0.395806040401812 
2200	 0.395503487075492 
2201	 0.395159443549618 
2202	 0.394809956242154 
2203	 0.394471482817081 
2204	 0.394086682602716 
2205	 0.393647770023378 
2206	 0.393225615175537 
2207	 0.392792327186946 
2208	 0.392362214584507 
2209	 0.391943176362082 
2210	 0.391480517653907 
2211	 0.390994267198007 
2212	 0.390507072659513 
2213	 0.389978558729439 
2214	 0.389478998415863 
2215	 0.389002629086563 
2216	 0.38850790795868 
2217	 0.388034804381001 
2218	 0.387508439037003 
2219	 0.387017211251475 
2220	 0.386408643452001 
2221	 0.385672116343339 
2222	 0.384945922689371 
2223	 0.384279698032544 
2224	 0.38349124649921 
2225	 0.382795198508469 
2226	 0.382159551593928 
2227	 0.381323535556124 
2228	 0.380373526636428 
2229	 0.379399865227694 
2230	 0.37833327407727 
2231	 0.377202862037054 
2232	 0.376041903241049 
2233	 0.374764172503579 
2234	 0.373412983121973 
2235	 0.371908150672717 
2236	 0.370300840180582 
2237	 0.368582282538893 
2238	 0.366636742299066 
2239	 0.364750342603356 
2240	 0.362865865043831 
2241	 0.36081594062582 
2242	 0.35879527050344 
2243	 0.356503866203106 
2244	 0.353950821804374 
2245	 0.351365765028542 
2246	 0.348477964109562 
2247	 0.345729914660818 
2248	 0.343035322023481 
2249	 0.340253441076767 
2250	 0.337475525518275 
2251	 0.334713302044056 
2252	 0.331662504333342 
2253	 0.328664699875058 
2254	 0.325620753941116 
2255	 0.322592461248133 
2256	 0.31990463190131 
2257	 0.317093499816439 
2258	 0.314373112048062 
2259	 0.311798078538355 
2260	 0.309135047009932 
2261	 0.30639811115171 
2262	 0.303818533086014 
2263	 0.301254614492889 
2264	 0.298810359409767 
2265	 0.296493800284621 
2266	 0.294203803552053 
2267	 0.292050684306525 
2268	 0.289830593207174 
2269	 0.287642775704321 
2270	 0.285458762809134 
2271	 0.283136539948426 
2272	 0.281056488734409 
2273	 0.279171527924141 
2274	 0.277201544397215 
2275	 0.275444519457179 
2276	 0.273468847967645 
2277	 0.271314515060537 
2278	 0.26918663702421 
2279	 0.266910842753955 
2280	 0.26475227471491 
2281	 0.262666476842443 
2282	 0.260548893331879 
2283	 0.258522995956801 
2284	 0.256429690029374 
2285	 0.254032252140628 
2286	 0.251680386232829 
2287	 0.249147549873684 
2288	 0.246516685483009 
2289	 0.244222941592145 
2290	 0.241738078435788 
2291	 0.239162953409583 
2292	 0.236671231397495 
2293	 0.233877796558476 
2294	 0.231131388356321 
2295	 0.22854103018318 
2296	 0.225995434593448 
2297	 0.223740754744376 
2298	 0.221668674847234 
2299	 0.219816477090201 
2300	 0.218198584594966 
2301	 0.216821471359534 
2302	 0.215625905738792 
2303	 0.214829565491681 
2304	 0.214378068211506 
2305	 0.214150964824146 
2306	 0.214287600210743 
2307	 0.214604763015795 
2308	 0.21505598523524 
2309	 0.215965480241663 
2310	 0.217251286752628 
2311	 0.21877585475835 
2312	 0.22080002490609 
2313	 0.222850929800387 
2314	 0.225140767699333 
2315	 0.227519700585065 
2316	 0.23019244499801 
2317	 0.232679025649695 
2318	 0.235359672994638 
2319	 0.237625550375482 
2320	 0.239748995759603 
2321	 0.241533059863283 
2322	 0.242986899958547 
2323	 0.244254021481384 
2324	 0.245240898035134 
2325	 0.245995901831206 
2326	 0.246501512970386 
2327	 0.246803397668612 
2328	 0.246813550914371 
2329	 0.246689446241805 
2330	 0.246365384495688 
2331	 0.2458604962896 
2332	 0.245189178195864 
2333	 0.244315053803782 
2334	 0.243288279495718 
2335	 0.242052603655652 
2336	 0.240588289598073 
2337	 0.239146559638814 
2338	 0.237632862894584 
2339	 0.236013085897549 
2340	 0.234545373150724 
2341	 0.232940321901253 
2342	 0.231267752028493 
2343	 0.22986225115059 
2344	 0.228590875392704 
2345	 0.227574647238383 
2346	 0.227011038795361 
2347	 0.226736621708072 
2348	 0.226740545823571 
2349	 0.227108401923644 
2350	 0.227675465322157 
2351	 0.228563639630827 
2352	 0.229808321656963 
2353	 0.231307518369661 
2354	 0.232883898594077 
2355	 0.234574292376189 
2356	 0.236170175368142 
2357	 0.237587594596656 
2358	 0.238965123760248 
2359	 0.240144486524948 
2360	 0.241140235192944 
2361	 0.241788325702935 
2362	 0.24226712375599 
2363	 0.242515556186072 
2364	 0.242517689239842 
2365	 0.242511249405384 
2366	 0.242402892125328 
2367	 0.242394109244833 
2368	 0.242418050871456 
2369	 0.24234106455049 
2370	 0.242263063699452 
2371	 0.242173790560441 
2372	 0.242186590070948 
2373	 0.242350056589662 
2374	 0.242563330688403 
2375	 0.242632878459167 
2376	 0.242537828380433 
2377	 0.242396715891834 
2378	 0.24211283126746 
2379	 0.241872549635815 
2380	 0.241968921646558 
2381	 0.242081362227839 
2382	 0.242179105186085 
2383	 0.242488146301093 
2384	 0.242672631956641 
2385	 0.242738232639084 
2386	 0.242832408305064 
2387	 0.242908660991377 
2388	 0.243048515029062 
2389	 0.243125315780626 
2390	 0.243381806074852 
2391	 0.243852775223244 
2392	 0.244211579295198 
2393	 0.244609436442457 
2394	 0.244896502155454 
2395	 0.245092158754833 
2396	 0.245332671765303 
2397	 0.245538926983325 
2398	 0.245771995854929 
2399	 0.246076510065377 
2400	 0.24623513836749 
2401	 0.246332637282589 
2402	 0.246346240105077 
2403	 0.246364464197531 
2404	 0.246497535348754 
2405	 0.24673690073947 
2406	 0.246883698811309 
2407	 0.247144477814508 
2408	 0.24752000745594 
2409	 0.247396142738362 
2410	 0.247360801894904 
2411	 0.247459656524963 
2412	 0.247248276646459 
2413	 0.247525904687184 
2414	 0.24805431845995 
2415	 0.248287574505472 
2416	 0.248495191479715 
2417	 0.248657580358683 
2418	 0.248655125870562 
2419	 0.248681324272613 
2420	 0.248820275144804 
2421	 0.248748401769333 
2422	 0.248613625406392 
2423	 0.248724264936717 
2424	 0.249009047085651 
2425	 0.249386567138673 
2426	 0.249813948816232 
2427	 0.249931116447955 
2428	 0.249761308514697 
2429	 0.249740981918167 
2430	 0.249742267189518 
2431	 0.249781671551996 
2432	 0.249839718861808 
2433	 0.249788048475801 
2434	 0.249757809734209 
2435	 0.249660477478293 
2436	 0.249509268870088 
2437	 0.249483326027184 
2438	 0.249340738035863 
2439	 0.249230765407155 
2440	 0.249345513181319 
2441	 0.249290056477396 
2442	 0.249354759189609 
2443	 0.249550374781339 
2444	 0.249810584260244 
2445	 0.250080417047055 
2446	 0.250085689172601 
2447	 0.250144225220356 
2448	 0.250100625702902 
2449	 0.249911731279057 
2450	 0.249947263281229 
2451	 0.250004201277215 
2452	 0.24985673037235 
2453	 0.249787870546157 
2454	 0.249751290348414 
2455	 0.249615588873558 
2456	 0.249372095685639 
2457	 0.248774993277852 
2458	 0.24827380021752 
2459	 0.247786938920219 
2460	 0.247082478741078 
2461	 0.246708927605306 
2462	 0.246357420488359 
2463	 0.246139551657596 
2464	 0.246360083579561 
2465	 0.246666142485859 
2466	 0.246538988682251 
2467	 0.246232574780493 
2468	 0.246345542777199 
2469	 0.246333581063598 
2470	 0.246408344221518 
2471	 0.246691385375695 
2472	 0.24681387453351 
2473	 0.246834984949115 
2474	 0.247173241419862 
2475	 0.247764500059579 
2476	 0.247256905635755 
2477	 0.246735077571777 
2478	 0.247173776182773 
2479	 0.247176688712165 
2480	 0.247764568001604 
2481	 0.248063252283729 
2482	 0.247765080348709 
2483	 0.247833161934463 
2484	 0.247980152190092 
2485	 0.2481722250114 
2486	 0.248673303014997 
2487	 0.248832041088936 
2488	 0.248952557858023 
2489	 0.249684981819928 
2490	 0.250252992547352 
2491	 0.250530387107502 
2492	 0.250796731731739 
2493	 0.250800600429263 
2494	 0.251020035705597 
2495	 0.252311470222405 
2496	 0.253934166697503 
2497	 0.254892421269123 
2498	 0.255900036383082 
2499	 0.256316474973823 
2500	 0.25586879360649 
