Wavelength	Tablay400034.asd
350	 0.13240380060044 
351	 7.63326651358453E-02 
352	 3.61019884951235E-02 
353	 7.02234058060318E-02 
354	 9.51610830413448E-02 
355	 9.52390725339535E-02 
356	 9.09539007313207E-02 
357	 0.101206061078578 
358	 0.120239257205814 
359	 8.88813271083908E-02 
360	 0.05040850461353 
361	 7.87797795363517E-02 
362	 8.12346169165239E-02 
363	 7.12192782188041E-02 
364	 7.20614260895667E-02 
365	 0.102364219318138 
366	 0.089058697432351 
367	 8.76028062204495E-02 
368	 0.133692896139196 
369	 9.64163429439098E-02 
370	 4.81165958345144E-02 
371	 0.036351187149847 
372	 8.63479958048932E-02 
373	 8.72097982780002E-02 
374	 6.66557562154561E-02 
375	 5.15269700691972E-02 
376	 4.49800014421667E-02 
377	 3.53650792208357E-02 
378	 4.80711806453641E-02 
379	 8.44943273543844E-02 
380	 4.51690673626922E-02 
381	 6.35005566228624E-02 
382	 0.107593947976768 
383	 6.96833221107384E-02 
384	 6.76148939101302E-02 
385	 6.77378761998876E-02 
386	 5.19559381510002E-02 
387	 5.19922221735331E-02 
388	 3.33875117190259E-02 
389	 0.039374985393961 
390	 9.58004415875908E-02 
391	 9.42869889995406E-02 
392	 8.91432517816829E-02 
393	 0.085310329501268 
394	 5.78693455735244E-02 
395	 5.57475111268765E-02 
396	 6.52737136040276E-02 
397	 6.62649971442477E-02 
398	 4.00582950351178E-02 
399	 6.93033971023215E-02 
400	 9.65068480816884E-02 
401	 6.36698863982714E-02 
402	 0.066418182474859 
403	 6.64539466531903E-02 
404	 5.85531431651276E-02 
405	 6.33740311734737E-02 
406	 7.20163738465788E-02 
407	 7.08417749991459E-02 
408	 5.94380004514276E-02 
409	 6.26862503831262E-02 
410	 0.058926980728432 
411	 5.54486367078145E-02 
412	 6.29849438692381E-02 
413	 6.50736404380822E-02 
414	 6.17614743658819E-02 
415	 0.056300076661284 
416	 5.37932935465525E-02 
417	 5.76234817698088E-02 
418	 5.99014330370664E-02 
419	 5.66246983166262E-02 
420	 5.78544194578466E-02 
421	 5.00091144032149E-02 
422	 4.29667934618606E-02 
423	 5.17137534437186E-02 
424	 5.95162807042487E-02 
425	 6.38125663904073E-02 
426	 6.28399041915999E-02 
427	 5.47921559769947E-02 
428	 0.053374434416697 
429	 5.36000937599085E-02 
430	 5.05383046391713E-02 
431	 5.30402999352473E-02 
432	 4.94713077958743E-02 
433	 4.55616077647394E-02 
434	 5.35440676544689E-02 
435	 5.58373502341935E-02 
436	 5.55421141805967E-02 
437	 5.54883715084017E-02 
438	 0.054552406762509 
439	 5.16012320414833E-02 
440	 5.04554896536537E-02 
441	 5.38675776110868E-02 
442	 5.54714841188399E-02 
443	 5.31540714772598E-02 
444	 4.98663148855214E-02 
445	 5.16362467277025E-02 
446	 5.04947059105646E-02 
447	 5.04812927412947E-02 
448	 5.36707730920919E-02 
449	 5.43144939110118E-02 
450	 5.37336151869162E-02 
451	 5.23848183706021E-02 
452	 5.10952245823217E-02 
453	 5.37820799516131E-02 
454	 0.054136721204891 
455	 5.14119431791461E-02 
456	 5.13461285594451E-02 
457	 5.18703571587471E-02 
458	 5.08744876391057E-02 
459	 4.83118318809068E-02 
460	 5.02848980165906E-02 
461	 5.13331079542966E-02 
462	 5.03160263769426E-02 
463	 0.048867372933092 
464	 5.05409549024457E-02 
465	 5.19139468598676E-02 
466	 5.12516552576161E-02 
467	 5.04235469276241E-02 
468	 4.95641610968964E-02 
469	 4.87637525268554E-02 
470	 4.83695684510772E-02 
471	 5.03873856141346E-02 
472	 5.06187792616521E-02 
473	 4.88260603194137E-02 
474	 4.79643939464156E-02 
475	 4.90785915276704E-02 
476	 5.08863543573034E-02 
477	 5.17209011853809E-02 
478	 4.95771842267117E-02 
479	 4.92932787686911E-02 
480	 5.01801346495162E-02 
481	 4.96881537188998E-02 
482	 4.80657947246715E-02 
483	 4.77333966395027E-02 
484	 4.89088487296652E-02 
485	 4.92717148687916E-02 
486	 4.87221746320704E-02 
487	 4.85486914457608E-02 
488	 4.92593930865915E-02 
489	 4.78547182787361E-02 
490	 4.74095170730404E-02 
491	 4.78881029165226E-02 
492	 4.76409514551882E-02 
493	 4.80525806886475E-02 
494	 4.84657314944972E-02 
495	 0.048652078829213 
496	 4.94921113056076E-02 
497	 4.96002514057183E-02 
498	 4.89610398389856E-02 
499	 4.81350854110587E-02 
500	 4.80848363036611E-02 
501	 4.80611921700902E-02 
502	 4.79936670517581E-02 
503	 4.83875771741524E-02 
504	 4.81424239080994E-02 
505	 4.78781252180741E-02 
506	 4.81547339220352E-02 
507	 4.88325214244121E-02 
508	 4.84400869666465E-02 
509	 4.77498455325833E-02 
510	 4.81750948699999E-02 
511	 4.80643435069113E-02 
512	 0.047818835794577 
513	 4.77832112572144E-02 
514	 4.80140968234847E-02 
515	 4.80242720017967E-02 
516	 4.78156142332394E-02 
517	 0.047546970177898 
518	 0.047442160915068 
519	 4.70182817075332E-02 
520	 0.046753892587951 
521	 4.75822098944478E-02 
522	 0.047643159066388 
523	 4.78691347127735E-02 
524	 4.85458184367636E-02 
525	 4.78806745893964E-02 
526	 4.73721788320125E-02 
527	 4.74773728186781E-02 
528	 4.80433431298919E-02 
529	 4.77418541506318E-02 
530	 4.75028607244786E-02 
531	 4.76992151671414E-02 
532	 4.79747244461885E-02 
533	 0.047924138796889 
534	 0.047803297805661 
535	 4.78837257565308E-02 
536	 4.80787181203908E-02 
537	 4.78887133730091E-02 
538	 4.76993545855228E-02 
539	 4.82192239686074E-02 
540	 4.83786150910596E-02 
541	 4.83406919044088E-02 
542	 4.82945445743179E-02 
543	 4.82331077955909E-02 
544	 4.81328266542465E-02 
545	 4.82284266444905E-02 
546	 4.86318240084566E-02 
547	 4.85876760240009E-02 
548	 4.86371076676984E-02 
549	 4.88451057605918E-02 
550	 4.88333937748153E-02 
551	 4.88180258209488E-02 
552	 4.88830300634107E-02 
553	 4.90219901350594E-02 
554	 4.90616995967198E-02 
555	 4.91234931489942E-02 
556	 4.92056183157342E-02 
557	 4.92413638525142E-02 
558	 4.91143865470473E-02 
559	 4.91098243774652E-02 
560	 4.93252704024113E-02 
561	 4.95565754158851E-02 
562	 0.049663372845318 
563	 0.049766384491692 
564	 4.99873675825787E-02 
565	 5.01573076163121E-02 
566	 5.02109399247517E-02 
567	 5.01893980491365E-02 
568	 0.050228729455527 
569	 5.06403346203193E-02 
570	 0.050925791895927 
571	 5.08191528261572E-02 
572	 5.07710000438851E-02 
573	 5.07799406995614E-02 
574	 5.08769644300092E-02 
575	 5.10449155178873E-02 
576	 0.051048760060339 
577	 0.051000717210942 
578	 5.09888234134828E-02 
579	 5.10444763467538E-02 
580	 5.12193470970377E-02 
581	 0.051462153783559 
582	 5.16835542755121E-02 
583	 5.17692767049332E-02 
584	 5.17311047058464E-02 
585	 5.17094003634648E-02 
586	 5.18828253601904E-02 
587	 5.20442302963698E-02 
588	 5.21155910343086E-02 
589	 5.21197877229609E-02 
590	 5.22118866250203E-02 
591	 5.22903342267461E-02 
592	 5.23921020841412E-02 
593	 5.25462197739513E-02 
594	 5.25645691473781E-02 
595	 5.26283993509542E-02 
596	 5.27343675676743E-02 
597	 5.27264849606048E-02 
598	 5.28741408656781E-02 
599	 0.052932330013997 
600	 5.27808361005601E-02 
601	 5.27974426636599E-02 
602	 5.29336098385989E-02 
603	 5.30678569117568E-02 
604	 5.30618953667741E-02 
605	 5.29500653288289E-02 
606	 5.31098842012577E-02 
607	 5.34468905858877E-02 
608	 0.053268089083631 
609	 5.33602759855701E-02 
610	 5.34738809437214E-02 
611	 5.33155717386453E-02 
612	 5.33009026968762E-02 
613	 5.34561643380459E-02 
614	 5.36344750031364E-02 
615	 5.36185506878204E-02 
616	 5.37509040717175E-02 
617	 0.053690726370914 
618	 5.34205072612199E-02 
619	 5.36507730161674E-02 
620	 5.38806059763966E-02 
621	 5.40259578611628E-02 
622	 5.41110040160097E-02 
623	 5.40163510119029E-02 
624	 5.38884984369218E-02 
625	 0.053837810144701 
626	 0.053919364354557 
627	 5.40444311196069E-02 
628	 5.41496110450224E-02 
629	 5.42174763484292E-02 
630	 5.43401030528514E-02 
631	 5.43317323516971E-02 
632	 5.42578439469813E-02 
633	 5.42864034216242E-02 
634	 5.44354023120016E-02 
635	 5.44962529287683E-02 
636	 5.44614539100832E-02 
637	 5.45903403850938E-02 
638	 5.45511745980242E-02 
639	 5.45774101917074E-02 
640	 5.48233590887768E-02 
641	 5.47296035978305E-02 
642	 5.46586413326453E-02 
643	 5.46761194589631E-02 
644	 5.46638784469366E-02 
645	 5.46237214741003E-02 
646	 5.46633970805648E-02 
647	 5.48010441474201E-02 
648	 5.49009979465584E-02 
649	 5.47700969660015E-02 
650	 5.46984209636264E-02 
651	 5.49482929453217E-02 
652	 5.49901911096113E-02 
653	 5.50163004730549E-02 
654	 5.51115026573374E-02 
655	 5.52433430416616E-02 
656	 5.52283883840774E-02 
657	 5.52049171246856E-02 
658	 5.52373526986682E-02 
659	 5.50999759086179E-02 
660	 5.51339891465259E-02 
661	 5.52206807368629E-02 
662	 5.51506898576162E-02 
663	 0.05522986460273 
664	 5.53161926208806E-02 
665	 5.53517029757439E-02 
666	 5.53881012590828E-02 
667	 5.53993411279515E-02 
668	 5.54357257852998E-02 
669	 5.55368968005469E-02 
670	 0.055701056112186 
671	 5.57490664948916E-02 
672	 5.56774756251303E-02 
673	 5.55826812111803E-02 
674	 5.55678968134024E-02 
675	 5.56398586254496E-02 
676	 0.055771677547004 
677	 5.59102200194853E-02 
678	 5.58531057304837E-02 
679	 5.57960747008961E-02 
680	 5.58901981588555E-02 
681	 5.58420943504048E-02 
682	 5.58509954478115E-02 
683	 5.59973259215665E-02 
684	 5.62432709694757E-02 
685	 5.62018782576387E-02 
686	 5.61365219460544E-02 
687	 5.61799474908155E-02 
688	 5.61830615124143E-02 
689	 5.62179156130622E-02 
690	 5.62550726328891E-02 
691	 0.056268235941995 
692	 5.63330208290328E-02 
693	 5.63758208727734E-02 
694	 5.63739879863069E-02 
695	 5.63514066139892E-02 
696	 5.64178474828318E-02 
697	 5.65302291866136E-02 
698	 5.66117022255218E-02 
699	 5.65608451156884E-02 
700	 0.056644316423285 
701	 5.67095414293287E-02 
702	 5.66153335401679E-02 
703	 5.67471885717772E-02 
704	 5.68446100893867E-02 
705	 0.056871004664164 
706	 5.69438043081167E-02 
707	 5.69874669282747E-02 
708	 5.70324312142586E-02 
709	 5.70722199047007E-02 
710	 5.70112327612422E-02 
711	 5.70535301482857E-02 
712	 5.71778413378722E-02 
713	 0.057293008875149 
714	 5.73268805627954E-02 
715	 5.74429487841304E-02 
716	 5.75629607036664E-02 
717	 5.74757004113436E-02 
718	 5.75462113077471E-02 
719	 5.76214349249614E-02 
720	 5.76128132635767E-02 
721	 5.76591087659746E-02 
722	 5.77316178162576E-02 
723	 0.057791023105677 
724	 5.78257898233667E-02 
725	 5.79661915763581E-02 
726	 5.80482886726706E-02 
727	 5.80358010699164E-02 
728	 5.80037964512359E-02 
729	 5.81197887472435E-02 
730	 5.82001451828457E-02 
731	 5.81812895160849E-02 
732	 5.82720687343736E-02 
733	 5.83591817688771E-02 
734	 5.84258101807087E-02 
735	 5.84851370382721E-02 
736	 5.85685986331637E-02 
737	 5.85827980244441E-02 
738	 0.058571037205832 
739	 5.86508165973648E-02 
740	 5.87083090540062E-02 
741	 5.88316196010457E-02 
742	 5.90104139750076E-02 
743	 5.90587128997525E-02 
744	 5.90992668330036E-02 
745	 5.91138856707192E-02 
746	 5.91004485242596E-02 
747	 5.92380032048239E-02 
748	 0.059337954597577 
749	 5.93565686242054E-02 
750	 5.93608645046416E-02 
751	 5.95442827556741E-02 
752	 5.96798735818249E-02 
753	 5.96975459740036E-02 
754	 5.97818219395495E-02 
755	 5.98249924804462E-02 
756	 5.98749751872993E-02 
757	 5.99713362240202E-02 
758	 0.060035898362894 
759	 6.00599513745788E-02 
760	 6.01125523337949E-02 
761	 6.02608822493331E-02 
762	 6.03092986675949E-02 
763	 6.03639269179224E-02 
764	 6.04307161508012E-02 
765	 6.03988209243876E-02 
766	 6.05110319616597E-02 
767	 6.06144555347583E-02 
768	 6.06022383650464E-02 
769	 6.06439190939541E-02 
770	 0.060756243166091 
771	 6.08668892733389E-02 
772	 6.09022997634794E-02 
773	 6.09824065550853E-02 
774	 0.061075196254962 
775	 6.11349978838329E-02 
776	 6.11259569696302E-02 
777	 6.11830775220723E-02 
778	 6.12924753458713E-02 
779	 6.14051740216261E-02 
780	 6.14545832826864E-02 
781	 6.15337902417877E-02 
782	 0.061617346483003 
783	 6.16615142997584E-02 
784	 6.16800000919146E-02 
785	 6.17118178055551E-02 
786	 6.17913275456113E-02 
787	 6.19253096438877E-02 
788	 6.19686512892643E-02 
789	 6.20015421437946E-02 
790	 6.20519699889602E-02 
791	 6.20628739762723E-02 
792	 6.20824291449803E-02 
793	 6.21484293231986E-02 
794	 6.22640806329463E-02 
795	 0.062371818610196 
796	 6.23543717013415E-02 
797	 6.23336337841967E-02 
798	 6.24548953941191E-02 
799	 6.24930933344397E-02 
800	 6.25418739984593E-02 
801	 6.26251530115582E-02 
802	 0.062704294326921 
803	 6.27865135067591E-02 
804	 6.28309891937581E-02 
805	 6.28383452840061E-02 
806	 6.28761856769415E-02 
807	 6.29762475804996E-02 
808	 6.30551247736144E-02 
809	 0.063056483365455 
810	 6.30967406825625E-02 
811	 6.30864450070305E-02 
812	 6.31138686667743E-02 
813	 6.32845660662923E-02 
814	 0.06334756828531 
815	 6.33498593288766E-02 
816	 0.063379278400619 
817	 6.35173977636698E-02 
818	 6.35237555918921E-02 
819	 6.35643144756458E-02 
820	 6.37078895610605E-02 
821	 6.37660855769486E-02 
822	 6.38345176518335E-02 
823	 6.38668658720881E-02 
824	 0.063837546076439 
825	 6.38873055980232E-02 
826	 6.39696182065996E-02 
827	 6.40417866201439E-02 
828	 6.40735542882504E-02 
829	 6.40899354917127E-02 
830	 0.064198541702094 
831	 6.43309668594392E-02 
832	 6.42965311390467E-02 
833	 6.43600428471479E-02 
834	 6.44519860046012E-02 
835	 6.45092024124441E-02 
836	 0.064555784319082 
837	 6.46828565079475E-02 
838	 6.46783960578319E-02 
839	 6.44900814930485E-02 
840	 6.47272836000344E-02 
841	 6.48844082146176E-02 
842	 6.49023083376589E-02 
843	 6.49126141633007E-02 
844	 6.50030746567868E-02 
845	 6.51361895487239E-02 
846	 0.065223903103173 
847	 6.51841126605868E-02 
848	 6.52601560013747E-02 
849	 6.53049024926597E-02 
850	 6.52901018070386E-02 
851	 6.53833819854922E-02 
852	 6.54870707823327E-02 
853	 6.55479883850485E-02 
854	 6.55809245950222E-02 
855	 6.57316158553374E-02 
856	 6.57354108082605E-02 
857	 6.56794195697253E-02 
858	 6.57174117762808E-02 
859	 6.58035855851159E-02 
860	 6.59183625451047E-02 
861	 6.59985089292347E-02 
862	 6.59849645293561E-02 
863	 6.59407793666802E-02 
864	 6.60613888691279E-02 
865	 6.62746457749094E-02 
866	 6.63045532028089E-02 
867	 6.63213305578493E-02 
868	 6.63815917846404E-02 
869	 6.64469212718363E-02 
870	 0.066381626167136 
871	 6.64876007650764E-02 
872	 6.66151830771115E-02 
873	 6.66381617848619E-02 
874	 6.67071097187537E-02 
875	 6.67745281003465E-02 
876	 6.68757017251568E-02 
877	 6.70113221879433E-02 
878	 6.69775275924623E-02 
879	 6.70135364881369E-02 
880	 6.70630633405789E-02 
881	 6.70006895008451E-02 
882	 6.71829717889655E-02 
883	 6.72629346579423E-02 
884	 6.72508428254747E-02 
885	 0.067405125826144 
886	 6.73729726309221E-02 
887	 6.74021216629858E-02 
888	 6.75429489903733E-02 
889	 6.75612793796685E-02 
890	 6.76164509891861E-02 
891	 6.77881633603911E-02 
892	 6.79665662569416E-02 
893	 0.067763622017856 
894	 6.77856089742883E-02 
895	 6.78841918231896E-02 
896	 6.78833570877435E-02 
897	 6.80780598289209E-02 
898	 6.80292821183967E-02 
899	 6.80242578433032E-02 
900	 6.83400506740898E-02 
901	 6.82207764535661E-02 
902	 6.83038139613378E-02 
903	 6.84903425797462E-02 
904	 6.84232896325424E-02 
905	 6.85198957107368E-02 
906	 6.87609272167076E-02 
907	 6.89128814113232E-02 
908	 6.87253620652287E-02 
909	 0.068860271091708 
910	 6.89835415608379E-02 
911	 6.89905288129239E-02 
912	 6.90974135569667E-02 
913	 6.92801487363887E-02 
914	 6.93458366191813E-02 
915	 6.92807937518213E-02 
916	 6.93364358300101E-02 
917	 6.94322373478828E-02 
918	 6.94912874264891E-02 
919	 0.069501104028481 
920	 0.069567272480719 
921	 6.96510363546045E-02 
922	 6.97744893119851E-02 
923	 6.99377252648644E-02 
924	 7.00443940210756E-02 
925	 7.03166661026423E-02 
926	 7.05313373373129E-02 
927	 7.04943856239237E-02 
928	 7.06078518162366E-02 
929	 7.06884265680105E-02 
930	 7.07639493584534E-02 
931	 7.08821512875827E-02 
932	 0.070762302387504 
933	 7.09391406963619E-02 
934	 7.12401516646813E-02 
935	 7.11960960457603E-02 
936	 7.10426603160243E-02 
937	 7.11013532454872E-02 
938	 7.12960085673225E-02 
939	 7.13576449146327E-02 
940	 7.18004660319473E-02 
941	 7.20061817374581E-02 
942	 7.19204897156803E-02 
943	 0.071994538064982 
944	 7.18372016799433E-02 
945	 7.19114547387797E-02 
946	 7.22081829847101E-02 
947	 7.22071403708298E-02 
948	 7.24883277049134E-02 
949	 7.27352761181869E-02 
950	 7.27763526809306E-02 
951	 7.27891447398624E-02 
952	 7.28771708518901E-02 
953	 7.29167918490732E-02 
954	 7.29834205734771E-02 
955	 7.34531762087905E-02 
956	 7.33642149788688E-02 
957	 7.31136768150071E-02 
958	 7.31871499319341E-02 
959	 7.36709850758112E-02 
960	 7.37597085349961E-02 
961	 7.37570736665154E-02 
962	 7.39868706298132E-02 
963	 7.42567731234746E-02 
964	 7.41951479955996E-02 
965	 7.41240848970175E-02 
966	 7.43035069911224E-02 
967	 7.44166355678921E-02 
968	 7.44861385889254E-02 
969	 7.46605526185864E-02 
970	 7.49361748205553E-02 
971	 7.48332176779844E-02 
972	 7.48719007342581E-02 
973	 7.50279118583015E-02 
974	 7.51410015934606E-02 
975	 7.51710072242493E-02 
976	 0.075279376942042 
977	 7.53325088755136E-02 
978	 7.52821420898849E-02 
979	 7.56373606488492E-02 
980	 7.58849032518417E-02 
981	 7.59691225747868E-02 
982	 7.60202214955617E-02 
983	 7.62394549070959E-02 
984	 7.60497283423468E-02 
985	 7.59017990981238E-02 
986	 7.63020399215407E-02 
987	 7.66947641915875E-02 
988	 7.69451160411028E-02 
989	 7.71370539235017E-02 
990	 7.73302010012515E-02 
991	 7.71366976085875E-02 
992	 0.077153922880557 
993	 7.73985765065751E-02 
994	 7.75828692575843E-02 
995	 7.72082467196444E-02 
996	 7.72200399469165E-02 
997	 7.74994534984049E-02 
998	 7.76496562422658E-02 
999	 7.78137930728726E-02 
1000	 7.78411246332013E-02 
1001	 7.83632677672055E-02 
1002	 7.80628079075969E-02 
1003	 0.078172877591699 
1004	 7.83729871832969E-02 
1005	 7.87606600604251E-02 
1006	 7.88900928428499E-02 
1007	 7.91695885931725E-02 
1008	 7.92840149472712E-02 
1009	 0.079057626753897 
1010	 7.91481050982745E-02 
1011	 7.94958606133508E-02 
1012	 0.079571481606925 
1013	 0.07950894389964 
1014	 7.96432423921203E-02 
1015	 7.98254700575928E-02 
1016	 7.98144972829476E-02 
1017	 8.01123516788763E-02 
1018	 0.080368376826218 
1019	 8.04993296241142E-02 
1020	 8.07306645098515E-02 
1021	 8.08416910205488E-02 
1022	 8.08897149590508E-02 
1023	 8.09852580735363E-02 
1024	 8.09919897461073E-02 
1025	 8.10710176819274E-02 
1026	 8.12422075064812E-02 
1027	 8.14244710855378E-02 
1028	 8.16452417111275E-02 
1029	 8.17770927787405E-02 
1030	 8.20608259396656E-02 
1031	 8.21999177366141E-02 
1032	 8.21558974146489E-02 
1033	 8.22229355032215E-02 
1034	 8.23638145499236E-02 
1035	 8.23464677975713E-02 
1036	 8.24277926333204E-02 
1037	 8.26948568074859E-02 
1038	 8.28024878110663E-02 
1039	 8.27009899521073E-02 
1040	 8.28400117732335E-02 
1041	 8.31241623836517E-02 
1042	 8.32404993776205E-02 
1043	 8.32977196519965E-02 
1044	 8.36219229082326E-02 
1045	 8.37516978226047E-02 
1046	 8.37592700091778E-02 
1047	 8.39654631961556E-02 
1048	 8.40881021911013E-02 
1049	 8.41109237477662E-02 
1050	 8.42992910272476E-02 
1051	 8.44376517109805E-02 
1052	 8.44521649623381E-02 
1053	 8.45006091224177E-02 
1054	 8.44758374701292E-02 
1055	 8.44855783280639E-02 
1056	 8.45243780415942E-02 
1057	 8.46214960542794E-02 
1058	 8.47413797885133E-02 
1059	 8.49046682970073E-02 
1060	 8.50756383893515E-02 
1061	 8.52223428360288E-02 
1062	 8.54355840643457E-02 
1063	 8.57500122560131E-02 
1064	 8.61165637333329E-02 
1065	 8.63907062089161E-02 
1066	 8.64716984170387E-02 
1067	 8.65490639489651E-02 
1068	 0.08664062763604 
1069	 8.65890171236616E-02 
1070	 8.66338698341252E-02 
1071	 8.67577278525888E-02 
1072	 8.68852172234247E-02 
1073	 8.69063932139007E-02 
1074	 8.70872605699057E-02 
1075	 8.72985982094886E-02 
1076	 0.087434805348078 
1077	 0.087634630883614 
1078	 8.78380427113408E-02 
1079	 8.79557818573116E-02 
1080	 8.80484704192559E-02 
1081	 8.81696670706384E-02 
1082	 8.83028842405181E-02 
1083	 8.85358129757016E-02 
1084	 8.87314411693999E-02 
1085	 8.88200905722607E-02 
1086	 8.89676804866901E-02 
1087	 0.089136444411873 
1088	 8.91907051512156E-02 
1089	 8.92076035675255E-02 
1090	 8.93089445225397E-02 
1091	 8.93843690539009E-02 
1092	 8.95624093056143E-02 
1093	 8.98379881240406E-02 
1094	 9.01601940825928E-02 
1095	 9.04211729998425E-02 
1096	 9.04924397420228E-02 
1097	 9.05500826763845E-02 
1098	 9.05818853573205E-02 
1099	 9.05455242301991E-02 
1100	 9.06319986187029E-02 
1101	 9.07700940337126E-02 
1102	 9.09236829173347E-02 
1103	 9.10727692222508E-02 
1104	 9.12608556192716E-02 
1105	 0.091390866170993 
1106	 9.15368979153816E-02 
1107	 9.16176398896889E-02 
1108	 9.16100169625538E-02 
1109	 0.091644907281082 
1110	 9.17489761300071E-02 
1111	 9.19026975351049E-02 
1112	 0.092113147550892 
1113	 9.23058270210294E-02 
1114	 9.24051783041209E-02 
1115	 9.24802341645796E-02 
1116	 9.26170011186841E-02 
1117	 9.28232788480619E-02 
1118	 9.30011403213056E-02 
1119	 9.32243355534386E-02 
1120	 0.093383673442931 
1121	 9.35260948368729E-02 
1122	 9.35979760166546E-02 
1123	 9.36699562990179E-02 
1124	 0.093718905624721 
1125	 9.37859544376353E-02 
1126	 0.093887583036561 
1127	 9.39303126259707E-02 
1128	 9.40442584571225E-02 
1129	 9.42230350982882E-02 
1130	 9.43430031516337E-02 
1131	 9.44709982254011E-02 
1132	 9.45959436432073E-02 
1133	 9.46385534124884E-02 
1134	 9.46802014943427E-02 
1135	 9.47925356944086E-02 
1136	 9.49704828523914E-02 
1137	 9.51405590742916E-02 
1138	 9.53753865057141E-02 
1139	 9.55316773096818E-02 
1140	 9.56753612996644E-02 
1141	 9.57921071858931E-02 
1142	 9.58091054636147E-02 
1143	 9.59063956999908E-02 
1144	 9.60690818959339E-02 
1145	 9.61525467539254E-02 
1146	 9.62935385088518E-02 
1147	 9.64533353527608E-02 
1148	 9.65277331573163E-02 
1149	 9.66709378253045E-02 
1150	 9.68460213768071E-02 
1151	 9.69311006634444E-02 
1152	 9.70384761545687E-02 
1153	 9.71520727373803E-02 
1154	 9.72583307084235E-02 
1155	 9.73334608186567E-02 
1156	 9.74602315069252E-02 
1157	 9.76358726638383E-02 
1158	 9.77699899501707E-02 
1159	 9.79141335046363E-02 
1160	 9.79948320841658E-02 
1161	 9.81617824248209E-02 
1162	 9.83289233635462E-02 
1163	 9.83903546123876E-02 
1164	 9.85610770562254E-02 
1165	 9.87598617357459E-02 
1166	 9.88111465599333E-02 
1167	 9.89477082760473E-02 
1168	 9.91142913237246E-02 
1169	 0.099212492782767 
1170	 9.92041549143377E-02 
1171	 9.93018911298411E-02 
1172	 9.94078040386285E-02 
1173	 9.95673699420453E-02 
1174	 9.98397470595599E-02 
1175	 0.099992845520547 
1176	 0.100101155990334 
1177	 0.100229188767225 
1178	 0.100313557763712 
1179	 0.100395723171176 
1180	 0.100544959378895 
1181	 0.100653024561178 
1182	 0.100696351650512 
1183	 0.100797325035133 
1184	 0.100859555583098 
1185	 0.100985300860702 
1186	 0.10114104832292 
1187	 0.101350180120198 
1188	 0.101506331551664 
1189	 0.101712964144648 
1190	 0.101832438266119 
1191	 0.101847484896519 
1192	 0.101950621645361 
1193	 0.102045460322115 
1194	 0.102170097089198 
1195	 0.10238282313084 
1196	 0.102527481064006 
1197	 0.102617449651989 
1198	 0.102770878863512 
1199	 0.102905449979279 
1200	 0.102972436596568 
1201	 0.103092757379538 
1202	 0.103214370752159 
1203	 0.103331688400972 
1204	 0.103492942687482 
1205	 0.103621118868026 
1206	 0.103740054019748 
1207	 0.10387582752323 
1208	 0.103998576767301 
1209	 0.10414524905481 
1210	 0.104330633007813 
1211	 0.104499499660843 
1212	 0.104670156576994 
1213	 0.104820282166386 
1214	 0.104962240837943 
1215	 0.105101445642689 
1216	 0.105230344366921 
1217	 0.105354679909416 
1218	 0.105462092637516 
1219	 0.105585305887829 
1220	 0.105744922881577 
1221	 0.105938098487834 
1222	 0.106109833598166 
1223	 0.1062551253153 
1224	 0.10641171683282 
1225	 0.106494142020071 
1226	 0.106674722286844 
1227	 0.106963273172607 
1228	 0.107138473607994 
1229	 0.107303378205367 
1230	 0.107451160497782 
1231	 0.107484814094399 
1232	 0.10763585097223 
1233	 0.107872040727431 
1234	 0.108046493989823 
1235	 0.108251808513457 
1236	 0.108432445690526 
1237	 0.1085435517476 
1238	 0.108697551718287 
1239	 0.108904669002648 
1240	 0.109062752432156 
1241	 0.109177949327313 
1242	 0.109345914071918 
1243	 0.109478766349006 
1244	 0.109557658345549 
1245	 0.109714191115351 
1246	 0.109916996714644 
1247	 0.110081358334367 
1248	 0.110277691684052 
1249	 0.110424578522594 
1250	 0.110519379947442 
1251	 0.110652579530599 
1252	 0.11076479325996 
1253	 0.110914084620756 
1254	 0.111115008011443 
1255	 0.111278120534653 
1256	 0.111435662239595 
1257	 0.111605596255581 
1258	 0.111758932905791 
1259	 0.111917227994264 
1260	 0.112089406125695 
1261	 0.112268812442543 
1262	 0.112435666212923 
1263	 0.112628977158318 
1264	 0.112824892278633 
1265	 0.113069097930553 
1266	 0.113204861932066 
1267	 0.113284716411406 
1268	 0.113413139426454 
1269	 0.113487585349793 
1270	 0.113612994104076 
1271	 0.113800276469221 
1272	 0.113961514040411 
1273	 0.114118217135561 
1274	 0.114261890430655 
1275	 0.114407308108853 
1276	 0.114554244632282 
1277	 0.114664452354685 
1278	 0.114815126186623 
1279	 0.115008894709661 
1280	 0.115182783911654 
1281	 0.115378442444525 
1282	 0.115543404578128 
1283	 0.11565713411824 
1284	 0.115809364757381 
1285	 0.115971221058721 
1286	 0.116139531227626 
1287	 0.116283587769535 
1288	 0.116422626651493 
1289	 0.116615901623153 
1290	 0.116821823644185 
1291	 0.116994888296412 
1292	 0.117221756327412 
1293	 0.117385988262593 
1294	 0.1174511264031 
1295	 0.117598965372525 
1296	 0.11777819264023 
1297	 0.117959575700202 
1298	 0.118167456248668 
1299	 0.118362617590309 
1300	 0.1185703565617 
1301	 0.118759920814463 
1302	 0.118930026645563 
1303	 0.11911246076279 
1304	 0.119303943454649 
1305	 0.119475776591115 
1306	 0.11965019082905 
1307	 0.119810427292836 
1308	 0.11997304047922 
1309	 0.120082961043993 
1310	 0.120198074472317 
1311	 0.120285107070947 
1312	 0.120425065311841 
1313	 0.12057848834185 
1314	 0.120710957914752 
1315	 0.12085268905048 
1316	 0.121023135846367 
1317	 0.121182150683124 
1318	 0.121349876001979 
1319	 0.121581127550169 
1320	 0.121752642433357 
1321	 0.12186392327156 
1322	 0.122019298037646 
1323	 0.122210168260375 
1324	 0.12234961325094 
1325	 0.122458854919453 
1326	 0.122593184450649 
1327	 0.122702148685495 
1328	 0.122826921264034 
1329	 0.122983073494657 
1330	 0.123135620195594 
1331	 0.123268967684632 
1332	 0.123423739942603 
1333	 0.123606950130704 
1334	 0.123784331516275 
1335	 0.123948434192958 
1336	 0.124117842902691 
1337	 0.124261776344212 
1338	 0.124377122637135 
1339	 0.124522645842361 
1340	 0.124683379578738 
1341	 0.124804956226416 
1342	 0.124913530752849 
1343	 0.125038800983239 
1344	 0.125130958404549 
1345	 0.125264134110738 
1346	 0.125434219973582 
1347	 0.125595066703882 
1348	 0.125761385780032 
1349	 0.125927638946148 
1350	 0.126141049705978 
1351	 0.126278880004843 
1352	 0.126358657393243 
1353	 0.126468977214501 
1354	 0.126528210795867 
1355	 0.126631858314622 
1356	 0.126780431906159 
1357	 0.126926932382983 
1358	 0.127090108403254 
1359	 0.127248040133484 
1360	 0.127404007971527 
1361	 0.127576736449663 
1362	 0.127774427801573 
1363	 0.127908851555167 
1364	 0.12805214621651 
1365	 0.12819152166962 
1366	 0.128327938658903 
1367	 0.12845417379461 
1368	 0.12856236130664 
1369	 0.128656044090623 
1370	 0.128774714344059 
1371	 0.128866349279009 
1372	 0.12900529374201 
1373	 0.129208415519005 
1374	 0.129356479041457 
1375	 0.129501875240659 
1376	 0.129626552998203 
1377	 0.12971531053302 
1378	 0.129822526637943 
1379	 0.129918519995664 
1380	 0.130036977244031 
1381	 0.130180427556034 
1382	 0.130305892003314 
1383	 0.130452491693202 
1384	 0.130560648882043 
1385	 0.130617503714445 
1386	 0.130709705735442 
1387	 0.13079293614027 
1388	 0.130893151496351 
1389	 0.131033527320368 
1390	 0.131154826277064 
1391	 0.131282432139989 
1392	 0.131378091801138 
1393	 0.131485846249422 
1394	 0.131614186806281 
1395	 0.131736624423756 
1396	 0.131875628827466 
1397	 0.13198468208346 
1398	 0.132080428065439 
1399	 0.132175415323451 
1400	 0.132254918264551 
1401	 0.132340162662323 
1402	 0.132431444610465 
1403	 0.132515066806502 
1404	 0.132583038089149 
1405	 0.132665512362195 
1406	 0.132767484541621 
1407	 0.132834620677805 
1408	 0.132880288456749 
1409	 0.13295203208241 
1410	 0.133005015224282 
1411	 0.133086111367051 
1412	 0.133212140682612 
1413	 0.133306636911966 
1414	 0.133373613908112 
1415	 0.133475093588253 
1416	 0.133603668593639 
1417	 0.133705413279569 
1418	 0.133814759711192 
1419	 0.133921379121636 
1420	 0.13398050133505 
1421	 0.134083048998636 
1422	 0.134226710354194 
1423	 0.134359188323772 
1424	 0.134507773135824 
1425	 0.134659086939991 
1426	 0.134736513719818 
1427	 0.134844107449303 
1428	 0.135001293928664 
1429	 0.135119439346691 
1430	 0.135266140213476 
1431	 0.135470052007102 
1432	 0.135612592368426 
1433	 0.135707846437573 
1434	 0.13585316740637 
1435	 0.1360200639203 
1436	 0.136153624411518 
1437	 0.136287803450941 
1438	 0.136423312831368 
1439	 0.136517865118439 
1440	 0.136663136756948 
1441	 0.136845450303236 
1442	 0.137019765392141 
1443	 0.137237079854608 
1444	 0.137391543526556 
1445	 0.137490123805283 
1446	 0.137647728643162 
1447	 0.137799184185468 
1448	 0.137958678429283 
1449	 0.138168001450223 
1450	 0.138360653092714 
1451	 0.138517427429546 
1452	 0.138705914738094 
1453	 0.13892561259877 
1454	 0.139140131618641 
1455	 0.139334035046576 
1456	 0.139578698955366 
1457	 0.139876137487672 
1458	 0.140145389274565 
1459	 0.140460946811862 
1460	 0.140723656737736 
1461	 0.140913437204725 
1462	 0.141139145010748 
1463	 0.141358518276797 
1464	 0.141588976324033 
1465	 0.141833118413269 
1466	 0.142109793141417 
1467	 0.142328293811995 
1468	 0.142539423509201 
1469	 0.142778926141697 
1470	 0.142961961850089 
1471	 0.143200799951083 
1472	 0.143479263134967 
1473	 0.143715502486512 
1474	 0.143949019493978 
1475	 0.144180015552414 
1476	 0.14438082163932 
1477	 0.144620156349316 
1478	 0.144906482779334 
1479	 0.145117706501264 
1480	 0.145311045164434 
1481	 0.145494330403291 
1482	 0.145586539239373 
1483	 0.145799148941236 
1484	 0.146095719518787 
1485	 0.146321480494198 
1486	 0.146571012759668 
1487	 0.146803260505969 
1488	 0.146968688605412 
1489	 0.147191902160894 
1490	 0.147495612612721 
1491	 0.147704037237796 
1492	 0.147842141561879 
1493	 0.14805082039267 
1494	 0.14823181287067 
1495	 0.148458849460791 
1496	 0.148774096508146 
1497	 0.149045591467795 
1498	 0.149311119407327 
1499	 0.149561586120008 
1500	 0.149807606629715 
1501	 0.150039022076033 
1502	 0.150229086186936 
1503	 0.150456462816863 
1504	 0.150726402156209 
1505	 0.150941368508328 
1506	 0.151117505580491 
1507	 0.151337822245581 
1508	 0.151553452827634 
1509	 0.151757644160611 
1510	 0.151986810350018 
1511	 0.15222121984427 
1512	 0.152444707214045 
1513	 0.152654998288514 
1514	 0.152890664776634 
1515	 0.153107341405506 
1516	 0.153257613031823 
1517	 0.153454841266048 
1518	 0.153704004604989 
1519	 0.153917698282344 
1520	 0.154119541542235 
1521	 0.154348166013544 
1522	 0.154510730286788 
1523	 0.154683247139627 
1524	 0.154874286306046 
1525	 0.155074269662482 
1526	 0.155274347764271 
1527	 0.155483763693844 
1528	 0.155701150151675 
1529	 0.155926249857296 
1530	 0.156138093755303 
1531	 0.156370546249419 
1532	 0.156552108958308 
1533	 0.15668672922695 
1534	 0.156870898645356 
1535	 0.157034994529809 
1536	 0.157256251205616 
1537	 0.157546135505458 
1538	 0.157770671919395 
1539	 0.158010407353789 
1540	 0.158189466058274 
1541	 0.158289170259446 
1542	 0.158469111574707 
1543	 0.158645715333974 
1544	 0.158854928293925 
1545	 0.159125385711963 
1546	 0.159358439725321 
1547	 0.159597250673433 
1548	 0.159803014070264 
1549	 0.159982115593825 
1550	 0.160182356094944 
1551	 0.160347841851032 
1552	 0.16057098359083 
1553	 0.160845165665307 
1554	 0.161094218315523 
1555	 0.161374383444364 
1556	 0.161607012102479 
1557	 0.161799923591851 
1558	 0.162019375847736 
1559	 0.162234624787151 
1560	 0.16244188939472 
1561	 0.162652178334011 
1562	 0.162869559712877 
1563	 0.163070435630846 
1564	 0.163288998161179 
1565	 0.163542974283138 
1566	 0.163766059360281 
1567	 0.163972474859987 
1568	 0.164184398429305 
1569	 0.164394907641287 
1570	 0.164593274299011 
1571	 0.164762058707503 
1572	 0.164980900628743 
1573	 0.165213611613697 
1574	 0.165451558415953 
1575	 0.165741773699401 
1576	 0.165998206176758 
1577	 0.166241117133072 
1578	 0.166471123918731 
1579	 0.166678316354424 
1580	 0.166903821357448 
1581	 0.167129643830984 
1582	 0.167348407563329 
1583	 0.167577266860969 
1584	 0.167799979533262 
1585	 0.168007308190437 
1586	 0.168218191288723 
1587	 0.168455393494587 
1588	 0.168648948172387 
1589	 0.168783182035346 
1590	 0.168973404974171 
1591	 0.169158828018366 
1592	 0.169371132626272 
1593	 0.169652125591773 
1594	 0.169896681831245 
1595	 0.170121358667041 
1596	 0.170358010713442 
1597	 0.170591248970169 
1598	 0.170829281417658 
1599	 0.171088921667222 
1600	 0.171327236794231 
1601	 0.171549515614292 
1602	 0.171781089046754 
1603	 0.172014024412007 
1604	 0.17222981831693 
1605	 0.172436302003561 
1606	 0.172649675541737 
1607	 0.172852006855693 
1608	 0.173054801683845 
1609	 0.17326456746904 
1610	 0.173483445457858 
1611	 0.17369920047254 
1612	 0.173912264349278 
1613	 0.174131405876416 
1614	 0.174354814307867 
1615	 0.174572673852217 
1616	 0.174800173038235 
1617	 0.175067280948552 
1618	 0.175289915824861 
1619	 0.175484817277006 
1620	 0.175678978002437 
1621	 0.17583137726308 
1622	 0.176011492652738 
1623	 0.176227192742151 
1624	 0.176411028005184 
1625	 0.176572435310379 
1626	 0.176759414014616 
1627	 0.17692548767961 
1628	 0.177116426403146 
1629	 0.177354398812687 
1630	 0.177573005995176 
1631	 0.177793273352015 
1632	 0.178007358016204 
1633	 0.178216218794664 
1634	 0.1784204191023 
1635	 0.17859716327117 
1636	 0.178812565153435 
1637	 0.179067157982506 
1638	 0.179288812359328 
1639	 0.179544312971549 
1640	 0.179739585424622 
1641	 0.17983636396345 
1642	 0.18000219429633 
1643	 0.180175741576471 
1644	 0.180362998768792 
1645	 0.180623960240699 
1646	 0.180825113960688 
1647	 0.180967643083465 
1648	 0.181150636468451 
1649	 0.181345294541923 
1650	 0.181521691824438 
1651	 0.181712929276043 
1652	 0.181900262556483 
1653	 0.182073901796058 
1654	 0.182227896369687 
1655	 0.182364593674253 
1656	 0.18252672560017 
1657	 0.182672655899532 
1658	 0.182833567614287 
1659	 0.183067472200074 
1660	 0.183222391664064 
1661	 0.183336746195424 
1662	 0.183429617353472 
1663	 0.183465611750358 
1664	 0.183521700851985 
1665	 0.18353091635523 
1666	 0.183614016370969 
1667	 0.1837735587309 
1668	 0.183865110302068 
1669	 0.184000407585502 
1670	 0.184061401085919 
1671	 0.18402713177187 
1672	 0.183993372083017 
1673	 0.183906986840127 
1674	 0.183881491653857 
1675	 0.183915057377818 
1676	 0.183857773894121 
1677	 0.183802506928183 
1678	 0.183687147868298 
1679	 0.183428080113979 
1680	 0.183275103838217 
1681	 0.183173411043086 
1682	 0.183047927225943 
1683	 0.182948006275803 
1684	 0.182808965853795 
1685	 0.182657627922216 
1686	 0.182479967896587 
1687	 0.182299157011693 
1688	 0.182057363478603 
1689	 0.181775911951575 
1690	 0.181445844284125 
1691	 0.181019103983122 
1692	 0.180685889950023 
1693	 0.180378859837108 
1694	 0.180025990479853 
1695	 0.179691710832097 
1696	 0.179341845857702 
1697	 0.178929601064423 
1698	 0.178550028987107 
1699	 0.17822318986108 
1700	 0.177839587387261 
1701	 0.177428919019685 
1702	 0.177027649312542 
1703	 0.176597388135039 
1704	 0.176195813242874 
1705	 0.175772239835149 
1706	 0.175394539220366 
1707	 0.175101903050209 
1708	 0.174822866555205 
1709	 0.174608329797322 
1710	 0.174455743508103 
1711	 0.174298359570147 
1712	 0.174209086637616 
1713	 0.174128971692058 
1714	 0.173981727141985 
1715	 0.173868512260927 
1716	 0.173732159627765 
1717	 0.173576389260948 
1718	 0.173544453548903 
1719	 0.173491373785229 
1720	 0.173417151281626 
1721	 0.173420233431278 
1722	 0.17334913569695 
1723	 0.173364445849981 
1724	 0.173501471258241 
1725	 0.173579503804829 
1726	 0.173679544119997 
1727	 0.173842464399676 
1728	 0.173995574412899 
1729	 0.174188446458032 
1730	 0.174471842997432 
1731	 0.174747630469486 
1732	 0.175089689036463 
1733	 0.175518310185862 
1734	 0.175991429371472 
1735	 0.176447899292575 
1736	 0.176844316644948 
1737	 0.177268091314505 
1738	 0.177664618591943 
1739	 0.178016172402743 
1740	 0.178328802612426 
1741	 0.178612218261005 
1742	 0.178901609000713 
1743	 0.179081679917409 
1744	 0.179166927667148 
1745	 0.179291496257989 
1746	 0.179342464561531 
1747	 0.179404541947845 
1748	 0.17951679209064 
1749	 0.179580896523022 
1750	 0.179539203382477 
1751	 0.179621334456037 
1752	 0.179744223910748 
1753	 0.179925191509545 
1754	 0.180207907011917 
1755	 0.180440367856067 
1756	 0.180666583956442 
1757	 0.180929069146322 
1758	 0.181221690544889 
1759	 0.181481744526873 
1760	 0.181780871593484 
1761	 0.182189025223601 
1762	 0.18259241712206 
1763	 0.18300360594303 
1764	 0.183471004599873 
1765	 0.183836813951162 
1766	 0.184258889215205 
1767	 0.184840612317253 
1768	 0.185434174753224 
1769	 0.186055691622398 
1770	 0.186636251116931 
1771	 0.187199765691951 
1772	 0.187732717254739 
1773	 0.188234535726074 
1774	 0.188757889079284 
1775	 0.189141884940569 
1776	 0.189536027125725 
1777	 0.189988772898822 
1778	 0.190342405856093 
1779	 0.190693259881799 
1780	 0.191068178134763 
1781	 0.191440798664787 
1782	 0.191824544875238 
1783	 0.192246549213918 
1784	 0.192659907759007 
1785	 0.192884417052199 
1786	 0.193146221783247 
1787	 0.193339535288921 
1788	 0.193568517731176 
1789	 0.193849125548925 
1790	 0.194116250712199 
1791	 0.194410277118218 
1792	 0.194641191757939 
1793	 0.194805608870605 
1794	 0.195114025741081 
1795	 0.195340817140969 
1796	 0.195559962286698 
1797	 0.195794063433227 
1798	 0.195997895483383 
1799	 0.196235608212651 
1800	 0.196502873775948 
1801	 0.198685070562131 
1802	 0.198946688056647 
1803	 0.199213640418542 
1804	 0.199504672220604 
1805	 0.199849865551911 
1806	 0.200108192552056 
1807	 0.200331396814745 
1808	 0.200546685010119 
1809	 0.200699936755214 
1810	 0.200909856096347 
1811	 0.201152634388 
1812	 0.201371400613322 
1813	 0.201604925558853 
1814	 0.201811856848301 
1815	 0.201991305814294 
1816	 0.202230890471941 
1817	 0.202499613965763 
1818	 0.202804993906579 
1819	 0.203125094866883 
1820	 0.203539348323122 
1821	 0.203841800438947 
1822	 0.204098602282065 
1823	 0.204378040105687 
1824	 0.204594844461761 
1825	 0.204811341451332 
1826	 0.205041596952367 
1827	 0.205296224423605 
1828	 0.205516062830515 
1829	 0.205676202917458 
1830	 0.205916429008048 
1831	 0.206151040046322 
1832	 0.206491187946654 
1833	 0.206823518523946 
1834	 0.207135192193507 
1835	 0.207526248418217 
1836	 0.207738971844319 
1837	 0.207986237321062 
1838	 0.208254546006416 
1839	 0.208509242692126 
1840	 0.208677779714885 
1841	 0.208935080821534 
1842	 0.209252118621123 
1843	 0.209510352926907 
1844	 0.209838852365535 
1845	 0.210159772483379 
1846	 0.210339757087304 
1847	 0.210518254239204 
1848	 0.210725976657311 
1849	 0.210834078927866 
1850	 0.211060766544967 
1851	 0.211393928357163 
1852	 0.211708855838077 
1853	 0.211968519578353 
1854	 0.212241127225832 
1855	 0.212460057715421 
1856	 0.21260708893347 
1857	 0.212749868094763 
1858	 0.212924174771449 
1859	 0.213095162918038 
1860	 0.213312835236595 
1861	 0.213455040269975 
1862	 0.21356860844413 
1863	 0.213655056248519 
1864	 0.213742998885991 
1865	 0.213792968028538 
1866	 0.213878218348215 
1867	 0.21397546738081 
1868	 0.214008047119624 
1869	 0.214037341075206 
1870	 0.214083877841276 
1871	 0.214169598019888 
1872	 0.21417118407339 
1873	 0.21413826917969 
1874	 0.214108870615389 
1875	 0.214078326307973 
1876	 0.213994711201975 
1877	 0.213858727521877 
1878	 0.213709099704795 
1879	 0.213517843943347 
1880	 0.213296583460053 
1881	 0.213060000559735 
1882	 0.212837882593224 
1883	 0.212591436338643 
1884	 0.212286682933255 
1885	 0.211921852545082 
1886	 0.21154255506798 
1887	 0.211107494902431 
1888	 0.210587342171513 
1889	 0.210045858662357 
1890	 0.209443401660731 
1891	 0.208814110490864 
1892	 0.208201055129387 
1893	 0.207569737026127 
1894	 0.206911955003806 
1895	 0.206261201853921 
1896	 0.205593922327768 
1897	 0.204879327335622 
1898	 0.204173951729361 
1899	 0.203422088217567 
1900	 0.202695677023038 
1901	 0.201985234963519 
1902	 0.201238981228276 
1903	 0.200590471380694 
1904	 0.199923510791711 
1905	 0.199253402866057 
1906	 0.198598167275917 
1907	 0.198071903161468 
1908	 0.197561802578878 
1909	 0.197105235727156 
1910	 0.19674632596697 
1911	 0.196369104475247 
1912	 0.196016354309787 
1913	 0.195767957289301 
1914	 0.195527814157462 
1915	 0.195266406896432 
1916	 0.195013206509388 
1917	 0.194765179205715 
1918	 0.194494017759217 
1919	 0.194270238896821 
1920	 0.194133319695438 
1921	 0.194003104944436 
1922	 0.193887553948728 
1923	 0.193779336868445 
1924	 0.193644252490829 
1925	 0.193511597531665 
1926	 0.193452838613348 
1927	 0.193465408372956 
1928	 0.193455418391491 
1929	 0.193470169159754 
1930	 0.19353057198243 
1931	 0.193554111238767 
1932	 0.193526970875936 
1933	 0.193605715453284 
1934	 0.193727843001937 
1935	 0.193847894187375 
1936	 0.193970821361172 
1937	 0.194101044965356 
1938	 0.194212455280755 
1939	 0.194373831896361 
1940	 0.194543736523682 
1941	 0.194783440770667 
1942	 0.195047234671667 
1943	 0.195267609654498 
1944	 0.195456773997018 
1945	 0.195658657214833 
1946	 0.195949497024359 
1947	 0.196277157510157 
1948	 0.196613654334842 
1949	 0.196982903602098 
1950	 0.19730288439107 
1951	 0.197530740649534 
1952	 0.197820284311854 
1953	 0.198113665348527 
1954	 0.198441782710433 
1955	 0.198809798122547 
1956	 0.199248455541026 
1957	 0.199728301448076 
1958	 0.200162679718358 
1959	 0.200500752233599 
1960	 0.200814362891814 
1961	 0.201170839485052 
1962	 0.201503798558624 
1963	 0.201848125912082 
1964	 0.202264339023416 
1965	 0.202617497612945 
1966	 0.202917013181881 
1967	 0.203207319390374 
1968	 0.203550155655193 
1969	 0.203890472055416 
1970	 0.204237407356458 
1971	 0.204589326210296 
1972	 0.204934542978197 
1973	 0.205270977679752 
1974	 0.205593869349422 
1975	 0.205883130910746 
1976	 0.206227462966301 
1977	 0.206590482604904 
1978	 0.206944175787186 
1979	 0.207327469871379 
1980	 0.207718484790467 
1981	 0.208051327538786 
1982	 0.208360302246596 
1983	 0.208712230089661 
1984	 0.209085556047599 
1985	 0.209417864714601 
1986	 0.209768639749622 
1987	 0.210112368786597 
1988	 0.210383461438905 
1989	 0.210748607746986 
1990	 0.211170171585436 
1991	 0.211594971238917 
1992	 0.212054749735372 
1993	 0.212562130701436 
1994	 0.21300982933196 
1995	 0.213470906847966 
1996	 0.213897084116685 
1997	 0.214309661594817 
1998	 0.214734131866238 
1999	 0.215132637713021 
2000	 0.215565980468318 
2001	 0.216050902476137 
2002	 0.216471674163296 
2003	 0.216890607629843 
2004	 0.217306639692175 
2005	 0.217682607926508 
2006	 0.218051139216016 
2007	 0.218463581757727 
2008	 0.218763576220419 
2009	 0.219067773897702 
2010	 0.219406816307547 
2011	 0.219648543379926 
2012	 0.219935281809089 
2013	 0.220169800207425 
2014	 0.220317261748183 
2015	 0.220538578385195 
2016	 0.220784677292395 
2017	 0.221001262105561 
2018	 0.221261504239888 
2019	 0.221471665992217 
2020	 0.221638382539294 
2021	 0.22180603734317 
2022	 0.221945780742778 
2023	 0.222035520792156 
2024	 0.22217350309342 
2025	 0.222338216631139 
2026	 0.222465844263588 
2027	 0.222613841091774 
2028	 0.222737208081692 
2029	 0.222817390530921 
2030	 0.222909094379162 
2031	 0.223025105712934 
2032	 0.223103782414696 
2033	 0.22313306508288 
2034	 0.223184392596681 
2035	 0.223213530848423 
2036	 0.223295946630042 
2037	 0.223376222750048 
2038	 0.223403906210068 
2039	 0.223443244578371 
2040	 0.223463339753992 
2041	 0.223504410295817 
2042	 0.223560275334289 
2043	 0.223590504379497 
2044	 0.223596468334007 
2045	 0.223640667866568 
2046	 0.223688068326623 
2047	 0.22374873142128 
2048	 0.223873921041868 
2049	 0.223946120938876 
2050	 0.224003880003992 
2051	 0.224006288314545 
2052	 0.224040524505988 
2053	 0.224052769032964 
2054	 0.224099108205213 
2055	 0.224190436226661 
2056	 0.224215339571017 
2057	 0.224196839485277 
2058	 0.224253918508024 
2059	 0.224329778075983 
2060	 0.224364108916521 
2061	 0.224422596072943 
2062	 0.224481836622435 
2063	 0.224480684716235 
2064	 0.224516700659991 
2065	 0.224605768934757 
2066	 0.224690746903253 
2067	 0.22475869437727 
2068	 0.224855210650893 
2069	 0.224935737027284 
2070	 0.225030493839511 
2071	 0.2251345820811 
2072	 0.22524696941026 
2073	 0.225321504028874 
2074	 0.225413432097313 
2075	 0.22546391191874 
2076	 0.225414714403722 
2077	 0.225452574494629 
2078	 0.225536524044934 
2079	 0.225599860194235 
2080	 0.225700230429154 
2081	 0.22578163019705 
2082	 0.225828676417007 
2083	 0.225889224070998 
2084	 0.225985296424752 
2085	 0.226078143342191 
2086	 0.226147897063279 
2087	 0.22624151088608 
2088	 0.226257594740412 
2089	 0.22617175609691 
2090	 0.226193725361329 
2091	 0.226222603739002 
2092	 0.226266752089592 
2093	 0.226414777342673 
2094	 0.226479541320422 
2095	 0.226486717437292 
2096	 0.226512783836983 
2097	 0.226512732464876 
2098	 0.226522870481206 
2099	 0.226596818079123 
2100	 0.226632820485206 
2101	 0.226651285415433 
2102	 0.226673134596876 
2103	 0.226685827686341 
2104	 0.226648274602649 
2105	 0.226660237252759 
2106	 0.226727128018375 
2107	 0.226724865949335 
2108	 0.226705266357137 
2109	 0.226678304324597 
2110	 0.2266223138764 
2111	 0.226552404175079 
2112	 0.226475172226089 
2113	 0.226389216053001 
2114	 0.226233893375435 
2115	 0.226141885228353 
2116	 0.226093131691111 
2117	 0.226028895864285 
2118	 0.225992047283685 
2119	 0.226029348526162 
2120	 0.22595055934795 
2121	 0.225816282483186 
2122	 0.225713617476558 
2123	 0.225547186166132 
2124	 0.225436700694533 
2125	 0.22539087146856 
2126	 0.225300361783185 
2127	 0.22515740923661 
2128	 0.225093445530764 
2129	 0.225047946774344 
2130	 0.225032686255931 
2131	 0.225086316543671 
2132	 0.225124729223913 
2133	 0.225165620311403 
2134	 0.225234378850808 
2135	 0.225268253772617 
2136	 0.225331117466609 
2137	 0.225375358236723 
2138	 0.225415328795188 
2139	 0.225430709312074 
2140	 0.225425028603243 
2141	 0.225446447842611 
2142	 0.225436825976649 
2143	 0.225478680040112 
2144	 0.225563975222542 
2145	 0.225649658027438 
2146	 0.22578002816992 
2147	 0.225872022764395 
2148	 0.225955146113356 
2149	 0.226033228593165 
2150	 0.226049996145104 
2151	 0.226133480817433 
2152	 0.226214497863495 
2153	 0.226387050582283 
2154	 0.226610599209292 
2155	 0.226797250219936 
2156	 0.226958617885634 
2157	 0.227123979029997 
2158	 0.227243272101589 
2159	 0.227304801352374 
2160	 0.227407472923067 
2161	 0.227552323576446 
2162	 0.227596221880275 
2163	 0.227591324308707 
2164	 0.227590149338998 
2165	 0.22748618563948 
2166	 0.227460099880994 
2167	 0.227529257426276 
2168	 0.227510955762162 
2169	 0.227469171475209 
2170	 0.227413024455868 
2171	 0.227258914856491 
2172	 0.227180993740807 
2173	 0.22712370396638 
2174	 0.227098876729478 
2175	 0.227100010374618 
2176	 0.227143832526112 
2177	 0.227189124644428 
2178	 0.227261275524962 
2179	 0.227293682017677 
2180	 0.227335847006467 
2181	 0.227354512075413 
2182	 0.227341169297191 
2183	 0.227351899763242 
2184	 0.227379596221029 
2185	 0.227375759152033 
2186	 0.22739025894136 
2187	 0.227326270524962 
2188	 0.227163501575267 
2189	 0.227085456891218 
2190	 0.226987056258457 
2191	 0.226912849532092 
2192	 0.226954821066348 
2193	 0.226893494726965 
2194	 0.226720066292786 
2195	 0.226637211248111 
2196	 0.22656201491862 
2197	 0.226499275028226 
2198	 0.226461704901342 
2199	 0.226432490649009 
2200	 0.226395968423501 
2201	 0.226338934494965 
2202	 0.226257265805524 
2203	 0.226216103007005 
2204	 0.226083045587648 
2205	 0.225843073486459 
2206	 0.225670078758499 
2207	 0.225484465902096 
2208	 0.225307330921366 
2209	 0.225135540333817 
2210	 0.224997074628566 
2211	 0.224899685888081 
2212	 0.224753092295233 
2213	 0.224661255504781 
2214	 0.224467118506181 
2215	 0.224089980045641 
2216	 0.223873428672015 
2217	 0.223676825235575 
2218	 0.223522463364592 
2219	 0.223593194371799 
2220	 0.223486562410616 
2221	 0.223349179099924 
2222	 0.223054484052043 
2223	 0.222709811759686 
2224	 0.222385762028381 
2225	 0.222177804373146 
2226	 0.221995599769335 
2227	 0.221724875829888 
2228	 0.221485676054263 
2229	 0.221138492065937 
2230	 0.220681543923029 
2231	 0.220224213211768 
2232	 0.219773641447796 
2233	 0.219215665395096 
2234	 0.218577604539403 
2235	 0.217888637885242 
2236	 0.217132848557328 
2237	 0.216316986766385 
2238	 0.215415243278984 
2239	 0.214500046027008 
2240	 0.213506120070384 
2241	 0.212524501415619 
2242	 0.211621538239992 
2243	 0.210525783926352 
2244	 0.209312291456184 
2245	 0.208088044707282 
2246	 0.206687799588568 
2247	 0.205335364997974 
2248	 0.203980831704529 
2249	 0.202651777804898 
2250	 0.201377063846003 
2251	 0.200029957113001 
2252	 0.198539644113854 
2253	 0.197062438171051 
2254	 0.195492931524513 
2255	 0.193839295272208 
2256	 0.192384284986974 
2257	 0.190989773306073 
2258	 0.189615190618069 
2259	 0.188316469926481 
2260	 0.186970477952161 
2261	 0.185621840928995 
2262	 0.184310402440081 
2263	 0.18295666880113 
2264	 0.181726662305151 
2265	 0.180587844227076 
2266	 0.179477423728386 
2267	 0.178476024895441 
2268	 0.177377802560244 
2269	 0.176290205603456 
2270	 0.175175669633618 
2271	 0.173940205847743 
2272	 0.172889539448028 
2273	 0.171952209887773 
2274	 0.170959533082313 
2275	 0.170060101938747 
2276	 0.169089041588637 
2277	 0.168130921415976 
2278	 0.167045379620157 
2279	 0.165829558474846 
2280	 0.164669834388887 
2281	 0.163412734629622 
2282	 0.162170192922326 
2283	 0.160939895861316 
2284	 0.159848820912596 
2285	 0.158506046661123 
2286	 0.157249822206389 
2287	 0.156069007728674 
2288	 0.154754916040832 
2289	 0.153555605038768 
2290	 0.152333003115539 
2291	 0.1510300344963 
2292	 0.1496810248137 
2293	 0.148334028385781 
2294	 0.147052611001156 
2295	 0.14574485378937 
2296	 0.144580017278537 
2297	 0.143620749251188 
2298	 0.142795062544905 
2299	 0.142099694117346 
2300	 0.141656236470391 
2301	 0.141206929955254 
2302	 0.140788606092969 
2303	 0.140568648688206 
2304	 0.14047386030607 
2305	 0.140546151887798 
2306	 0.140723740074287 
2307	 0.141188315768072 
2308	 0.14192157523964 
2309	 0.142726301112685 
2310	 0.143852523526276 
2311	 0.144883109634828 
2312	 0.145934618493218 
2313	 0.147071003994158 
2314	 0.148341727584223 
2315	 0.149505547316289 
2316	 0.150667281307956 
2317	 0.151789167690706 
2318	 0.152912437125028 
2319	 0.153857806382916 
2320	 0.154842786020697 
2321	 0.155598922401297 
2322	 0.156102668095386 
2323	 0.156574756847638 
2324	 0.156837508093536 
2325	 0.157090577328718 
2326	 0.157386889612555 
2327	 0.157437681088993 
2328	 0.157208652134359 
2329	 0.157148922278797 
2330	 0.157057908047339 
2331	 0.156890169185025 
2332	 0.156672448174331 
2333	 0.156399227263509 
2334	 0.155889831618531 
2335	 0.154984373073102 
2336	 0.154139399440451 
2337	 0.153231044781157 
2338	 0.152033838749211 
2339	 0.15087610144438 
2340	 0.14994539695616 
2341	 0.14912989306123 
2342	 0.148491105882475 
2343	 0.148105583206116 
2344	 0.147670812886596 
2345	 0.147261734004912 
2346	 0.146881693538943 
2347	 0.146698945347792 
2348	 0.146763488461548 
2349	 0.146980183260051 
2350	 0.147629494461747 
2351	 0.148540077544091 
2352	 0.149501515283302 
2353	 0.150448188308506 
2354	 0.151312474957324 
2355	 0.15208305841178 
2356	 0.152648775270033 
2357	 0.153285314323911 
2358	 0.153869132744265 
2359	 0.154196843656964 
2360	 0.154604283024628 
2361	 0.154956946371702 
2362	 0.155087157005524 
2363	 0.15515467972853 
2364	 0.155069600179678 
2365	 0.15480676586551 
2366	 0.154753838563512 
2367	 0.154798793826564 
2368	 0.154840639858777 
2369	 0.155103408871785 
2370	 0.155237514106996 
2371	 0.155258994262942 
2372	 0.155273005269997 
2373	 0.155024197749997 
2374	 0.154700608220233 
2375	 0.154569051882306 
2376	 0.154617866201556 
2377	 0.154757885696062 
2378	 0.155024830091019 
2379	 0.155200621505534 
2380	 0.155297566510535 
2381	 0.155485792841053 
2382	 0.155542432164956 
2383	 0.155459138825633 
2384	 0.155626643884839 
2385	 0.155864229236306 
2386	 0.155922212900926 
2387	 0.156100913015851 
2388	 0.156209986771135 
2389	 0.156119594273645 
2390	 0.15615149125379 
2391	 0.156270430176452 
2392	 0.156347833017449 
2393	 0.156281664957232 
2394	 0.156452920072424 
2395	 0.156859109241329 
2396	 0.157088181351499 
2397	 0.157401912092241 
2398	 0.157552179141126 
2399	 0.157485373347919 
2400	 0.157537477814515 
2401	 0.15764720071651 
2402	 0.157609186450105 
2403	 0.157567313316076 
2404	 0.157776109627595 
2405	 0.157728316265098 
2406	 0.157736227678566 
2407	 0.15815112590448 
2408	 0.158177827207029 
2409	 0.158175851590148 
2410	 0.158514987123975 
2411	 0.158479524867259 
2412	 0.15858398076775 
2413	 0.159081507846808 
2414	 0.159334262593846 
2415	 0.159528810972614 
2416	 0.159585226700247 
2417	 0.1593480047199 
2418	 0.158911116092487 
2419	 0.158409206880886 
2420	 0.15824031791738 
2421	 0.158121489529756 
2422	 0.158054952869134 
2423	 0.158241407831626 
2424	 0.158591796787348 
2425	 0.158961692702816 
2426	 0.159344147562112 
2427	 0.159548619735437 
2428	 0.159289279312228 
2429	 0.158990054135435 
2430	 0.158582888261928 
2431	 0.158525710143326 
2432	 0.158595920719942 
2433	 0.158531732454559 
2434	 0.158369603795557 
2435	 0.15803812954043 
2436	 0.158304378555944 
2437	 0.158363939870424 
2438	 0.15834767769957 
2439	 0.158422463273489 
2440	 0.158289811691997 
2441	 0.158442902522018 
2442	 0.158577518529942 
2443	 0.158477213937443 
2444	 0.158114042427005 
2445	 0.157813654265359 
2446	 0.157292359708726 
2447	 0.157129491534412 
2448	 0.157535942806296 
2449	 0.157253517892501 
2450	 0.15726010872928 
2451	 0.157496279012725 
2452	 0.156848206264364 
2453	 0.156440525428416 
2454	 0.156534555995691 
2455	 0.156225325626984 
2456	 0.156122937285699 
2457	 0.156502057781338 
2458	 0.156356310398224 
2459	 0.156206950255426 
2460	 0.156088947193619 
2461	 0.155603495212901 
2462	 0.155256829898996 
2463	 0.15507345465254 
2464	 0.155356323001439 
2465	 0.155483230960179 
2466	 0.155482884380062 
2467	 0.155586996949846 
2468	 0.155041292219058 
2469	 0.154459367561208 
2470	 0.154008601048266 
2471	 0.153903903228004 
2472	 0.15441038100452 
2473	 0.154501802111898 
2474	 0.154626263981084 
2475	 0.154682325943586 
2476	 0.154184858335016 
2477	 0.154433418983934 
2478	 0.154356159484236 
2479	 0.153550905191855 
2480	 0.152216107225048 
2481	 0.152087701856597 
2482	 0.15311160065204 
2483	 0.153617595409894 
2484	 0.154365515043347 
2485	 0.15492284146767 
2486	 0.154494280081307 
2487	 0.154600710537891 
2488	 0.155405996957325 
2489	 0.155476915551011 
2490	 0.155730568273595 
2491	 0.156587414531467 
2492	 0.156426689204048 
2493	 0.156113734461614 
2494	 0.156397170782856 
2495	 0.155740187873893 
2496	 0.154803887321822 
2497	 0.155179618683485 
2498	 0.156431297926516 
2499	 0.156785142400567 
2500	 0.158538877162408 
