Wavelength	Tablay400064.asd
350	 0.347385694152484 
351	 0.220564988371165 
352	 0.156026198254081 
353	 0.23650549409912 
354	 0.27449283829334 
355	 0.265921182186579 
356	 0.243392063097609 
357	 0.237371009821109 
358	 0.226151205574448 
359	 0.197448623411934 
360	 0.20419301691093 
361	 0.292775796929767 
362	 0.25397545540219 
363	 0.189245106065968 
364	 0.167087369271856 
365	 0.149948850794905 
366	 0.130709041627484 
367	 0.126605066158334 
368	 0.149519891094094 
369	 0.184188444572643 
370	 0.165557574556296 
371	 0.134581144095385 
372	 0.184332260215925 
373	 0.180679768995823 
374	 0.179712740501276 
375	 0.1948219046935 
376	 0.152223817585507 
377	 0.152852582792747 
378	 0.167732016654053 
379	 0.153638393823908 
380	 0.119814034844831 
381	 0.149349898049507 
382	 0.185979423137243 
383	 0.11970262624255 
384	 0.120366413188297 
385	 0.154005286062735 
386	 0.175570478718344 
387	 0.164153892889028 
388	 0.163065732023322 
389	 0.169877012985203 
390	 0.171480540358788 
391	 0.164428644733883 
392	 0.169429315221097 
393	 0.173778664281612 
394	 0.149032212301792 
395	 0.141197685965393 
396	 0.124532768394495 
397	 9.82750847747988E-02 
398	 0.119142236075265 
399	 0.163470724215953 
400	 0.176026428251032 
401	 0.129167989270971 
402	 0.115751443738578 
403	 0.125166330768769 
404	 0.136533747319179 
405	 0.127741710967878 
406	 0.135447728930961 
407	 0.138997261443317 
408	 0.12738730964153 
409	 0.120823414281688 
410	 0.118188439522306 
411	 0.126425257590199 
412	 0.145045161377639 
413	 0.133102917660707 
414	 0.121168165063722 
415	 0.124937064818011 
416	 0.141081883715551 
417	 0.131977174042279 
418	 0.125634541877714 
419	 0.137036898601468 
420	 0.125108639634346 
421	 0.118490425065246 
422	 0.121393088958597 
423	 0.127526307200149 
424	 0.127420927318739 
425	 0.129593268858495 
426	 0.133041458537798 
427	 0.125410753309647 
428	 0.126998846512518 
429	 0.129137389113756 
430	 0.12427473192195 
431	 0.126644135051536 
432	 0.130303638250105 
433	 0.133265488372793 
434	 0.135660295956295 
435	 0.135740624705599 
436	 0.134017149439089 
437	 0.132320985695367 
438	 0.134124462186427 
439	 0.133716905305188 
440	 0.133106140753804 
441	 0.135156212540489 
442	 0.137537460458293 
443	 0.135429165127112 
444	 0.132398440652483 
445	 0.137174781683639 
446	 0.13533989250262 
447	 0.135210965129579 
448	 0.140993542126584 
449	 0.141044511023136 
450	 0.1394984047286 
451	 0.139715522162857 
452	 0.143350202210833 
453	 0.142960091390772 
454	 0.140530491599469 
455	 0.139231285559206 
456	 0.14251696624135 
457	 0.141105226903393 
458	 0.140441222473605 
459	 0.144590492157699 
460	 0.144522077080354 
461	 0.143698904125088 
462	 0.143907204816614 
463	 0.145645914623448 
464	 0.146477709800931 
465	 0.146316495283741 
466	 0.145518444207079 
467	 0.144428523995765 
468	 0.148261063077901 
469	 0.15128353107443 
470	 0.148401157702408 
471	 0.150112745621282 
472	 0.150714202274536 
473	 0.149234430026316 
474	 0.148710777961846 
475	 0.150920545590357 
476	 0.152218184182679 
477	 0.150991476170897 
478	 0.151903574817965 
479	 0.150924985863475 
480	 0.150185755244642 
481	 0.152930430997822 
482	 0.154832551691132 
483	 0.15536955551442 
484	 0.154486871261873 
485	 0.152363159071082 
486	 0.151709157042094 
487	 0.152887967905606 
488	 0.155084548932996 
489	 0.156199251191387 
490	 0.156112946698479 
491	 0.15530207563132 
492	 0.154634350091893 
493	 0.154717704907124 
494	 0.155597294549886 
495	 0.156797169964318 
496	 0.157171211960924 
497	 0.157743275172587 
498	 0.158122224495658 
499	 0.15784876842784 
500	 0.157859840564268 
501	 0.159044171731093 
502	 0.160217084837315 
503	 0.158803926096605 
504	 0.159923923099364 
505	 0.161088447757784 
506	 0.16063433764868 
507	 0.162237592870758 
508	 0.162223486338419 
509	 0.161640739387947 
510	 0.162965325894091 
511	 0.163476011717023 
512	 0.163669209278128 
513	 0.164065269893183 
514	 0.164858278151676 
515	 0.16563934537017 
516	 0.166380829699535 
517	 0.16705516268928 
518	 0.167147061516284 
519	 0.16795555565554 
520	 0.169198023437387 
521	 0.169650199741788 
522	 0.170643660275006 
523	 0.171667599509106 
524	 0.17234481606358 
525	 0.172978472223364 
526	 0.174157103145056 
527	 0.175430956934769 
528	 0.176287728530123 
529	 0.178230799211127 
530	 0.179638686931101 
531	 0.180403235709738 
532	 0.182113674560734 
533	 0.18385182071237 
534	 0.185511558611528 
535	 0.187209549010438 
536	 0.18921185869053 
537	 0.191405688432725 
538	 0.193976194092312 
539	 0.19717816622836 
540	 0.200449847364833 
541	 0.203592258277759 
542	 0.206725591378515 
543	 0.210348644609721 
544	 0.214420605612239 
545	 0.218752187918616 
546	 0.223171796453728 
547	 0.227867865799712 
548	 0.232707541013033 
549	 0.237672319438493 
550	 0.242844428564437 
551	 0.24825715816662 
552	 0.253946569784754 
553	 0.259838557605104 
554	 0.265562098368427 
555	 0.271286397738621 
556	 0.277081406181884 
557	 0.28297699247939 
558	 0.289098424563938 
559	 0.295081680531316 
560	 0.300878381628208 
561	 0.306953280777044 
562	 0.312288398312312 
563	 0.31712437916976 
564	 0.321942573653808 
565	 0.326757740148988 
566	 0.331041662488155 
567	 0.334628822040742 
568	 0.33769097456916 
569	 0.34069706767061 
570	 0.343636758059237 
571	 0.346405642617001 
572	 0.348878837607422 
573	 0.351270383888066 
574	 0.353412306852056 
575	 0.355165136829222 
576	 0.35738557147885 
577	 0.359409207850745 
578	 0.360984006431046 
579	 0.362436181971786 
580	 0.363641997960505 
581	 0.364800407533343 
582	 0.366002506944214 
583	 0.366729581897827 
584	 0.367836743459201 
585	 0.369118103282781 
586	 0.369798564645888 
587	 0.370141288522803 
588	 0.37066562989521 
589	 0.37147330287839 
590	 0.371947338398436 
591	 0.372456451614229 
592	 0.372910092415363 
593	 0.373224461407836 
594	 0.373957842911536 
595	 0.37447927416585 
596	 0.374679550487014 
597	 0.374934484430133 
598	 0.375338091620656 
599	 0.375718381096356 
600	 0.375968704032387 
601	 0.376280673286082 
602	 0.376427596121826 
603	 0.376535587630399 
604	 0.376826526988209 
605	 0.377069814346311 
606	 0.377175296090951 
607	 0.377188964481318 
608	 0.377302740791212 
609	 0.377637056623612 
610	 0.377898827053609 
611	 0.377840760493298 
612	 0.377692471036224 
613	 0.377668281280631 
614	 0.377868584673759 
615	 0.378256496313719 
616	 0.378320634112777 
617	 0.378347171338462 
618	 0.37849552577327 
619	 0.378495089385012 
620	 0.378646772849296 
621	 0.378785460443797 
622	 0.378694424483722 
623	 0.37868532123773 
624	 0.378649986951188 
625	 0.378570758974512 
626	 0.378529169143061 
627	 0.378576462459015 
628	 0.378566380482676 
629	 0.378465563662809 
630	 0.37863970817811 
631	 0.378638437045779 
632	 0.378500599215451 
633	 0.378467807723091 
634	 0.378525274623032 
635	 0.378555101160807 
636	 0.378501035517106 
637	 0.378396811139326 
638	 0.378203313695141 
639	 0.37815163732889 
640	 0.378331449368013 
641	 0.378169540854183 
642	 0.378080026266988 
643	 0.37810402846321 
644	 0.378058426567155 
645	 0.378000291489401 
646	 0.37789781032626 
647	 0.37780805096072 
648	 0.377965040354023 
649	 0.377771885157999 
650	 0.377446886408534 
651	 0.377365334666637 
652	 0.377429794092713 
653	 0.377312179110805 
654	 0.377068961469435 
655	 0.377043174510665 
656	 0.376925257360503 
657	 0.376858127552703 
658	 0.376900439523399 
659	 0.37679478914513 
660	 0.376581103997238 
661	 0.376402499637255 
662	 0.37637595692369 
663	 0.37621263586676 
664	 0.376079083311304 
665	 0.375988288862398 
666	 0.375784350939053 
667	 0.375669932108101 
668	 0.375587616931932 
669	 0.375480408943075 
670	 0.37546381947094 
671	 0.375138512385858 
672	 0.3748310952306 
673	 0.375014433770583 
674	 0.374708445293725 
675	 0.374480555254456 
676	 0.37449011694015 
677	 0.37426276279839 
678	 0.37415862838006 
679	 0.373960141952397 
680	 0.373557922567335 
681	 0.37357705030551 
682	 0.373509890715799 
683	 0.373269499575322 
684	 0.373014256324034 
685	 0.372818854245897 
686	 0.37275090423706 
687	 0.372723415903154 
688	 0.372446139490168 
689	 0.372232099629994 
690	 0.372161568978596 
691	 0.372170301850278 
692	 0.371940172473506 
693	 0.371688777626873 
694	 0.371483876085373 
695	 0.371293446736187 
696	 0.371127061576365 
697	 0.371019746124356 
698	 0.37092329353197 
699	 0.370652853477558 
700	 0.370510153792089 
701	 0.370365951268096 
702	 0.370081793516645 
703	 0.369974567185393 
704	 0.369887122696868 
705	 0.36974128923676 
706	 0.369535403037414 
707	 0.369391755787237 
708	 0.369220667630233 
709	 0.369026000156862 
710	 0.369024646501006 
711	 0.368825628199958 
712	 0.368565794640049 
713	 0.368460737493075 
714	 0.368368123545432 
715	 0.368264334004797 
716	 0.368117850470297 
717	 0.367903890692849 
718	 0.367700609769728 
719	 0.367596216941841 
720	 0.367558050627735 
721	 0.367353764991117 
722	 0.367161351216601 
723	 0.367058796458719 
724	 0.367041490936923 
725	 0.36691051901046 
726	 0.366804362279422 
727	 0.366718233522841 
728	 0.366553287011097 
729	 0.366386415059339 
730	 0.366269415945824 
731	 0.366213255629389 
732	 0.366175449768591 
733	 0.36603782328801 
734	 0.365882936955162 
735	 0.365807654215688 
736	 0.365716725900082 
737	 0.365633508785457 
738	 0.365595859057726 
739	 0.365630687682879 
740	 0.365595139729791 
741	 0.365497899037222 
742	 0.365377623591293 
743	 0.365282700308617 
744	 0.36524444569444 
745	 0.365267775937924 
746	 0.365322710487769 
747	 0.365304572701583 
748	 0.365283087943312 
749	 0.365269097696405 
750	 0.365246503255726 
751	 0.365273293214012 
752	 0.365345057103452 
753	 0.365374467231756 
754	 0.365187733473663 
755	 0.365214965590239 
756	 0.365322528796206 
757	 0.365326435144915 
758	 0.365296187964576 
759	 0.365322146487655 
760	 0.365381813520647 
761	 0.365407114912184 
762	 0.365433190617492 
763	 0.365482053805992 
764	 0.365584658893712 
765	 0.365768935554727 
766	 0.365771419036702 
767	 0.365750959898747 
768	 0.36585028586711 
769	 0.36597798371664 
770	 0.366154261771829 
771	 0.366331490718405 
772	 0.366450197825977 
773	 0.366511750082005 
774	 0.366545375048466 
775	 0.366648148769384 
776	 0.366930018305289 
777	 0.367051138149741 
778	 0.367050758427643 
779	 0.367044599857041 
780	 0.367165662413647 
781	 0.367431067576991 
782	 0.367628905393168 
783	 0.367613037718029 
784	 0.367688181442959 
785	 0.3678733075564 
786	 0.368082740010767 
787	 0.368187808506459 
788	 0.368239614537837 
789	 0.368380652031161 
790	 0.368595335842375 
791	 0.368683207496352 
792	 0.368767529392783 
793	 0.368930227621323 
794	 0.369172739281646 
795	 0.369334017479012 
796	 0.369422878749675 
797	 0.369473823731764 
798	 0.369552076400781 
799	 0.369796286022803 
800	 0.369888752947387 
801	 0.36993543807085 
802	 0.370297933322665 
803	 0.370285735168048 
804	 0.370241619702683 
805	 0.370388646714305 
806	 0.37056223356131 
807	 0.37057926492972 
808	 0.370691983488073 
809	 0.371041062403777 
810	 0.371116051110005 
811	 0.371047199197172 
812	 0.371002340508808 
813	 0.371139708070569 
814	 0.371437350315561 
815	 0.371524875600155 
816	 0.371464227925411 
817	 0.37167056042899 
818	 0.37178122808197 
819	 0.371739379956809 
820	 0.371648467791981 
821	 0.371784028363031 
822	 0.372040583820839 
823	 0.372153291760627 
824	 0.372030473210288 
825	 0.372267309777686 
826	 0.372201006926514 
827	 0.372005443117219 
828	 0.372123319675305 
829	 0.372089168025401 
830	 0.37227223380351 
831	 0.372542273356138 
832	 0.372369625460506 
833	 0.372245069706632 
834	 0.372228942126694 
835	 0.372285760825475 
836	 0.372333716883488 
837	 0.372418644460359 
838	 0.372425669328614 
839	 0.372310964424879 
840	 0.372333575551417 
841	 0.372281127136649 
842	 0.372183566299937 
843	 0.37215421857826 
844	 0.372198442868073 
845	 0.372236896849009 
846	 0.372212351872439 
847	 0.372108381623565 
848	 0.372049761114164 
849	 0.37197223387825 
850	 0.371877028515045 
851	 0.371866513286186 
852	 0.371799204718755 
853	 0.371758507092546 
854	 0.371798894537848 
855	 0.371824620520818 
856	 0.371738946508171 
857	 0.371616267865655 
858	 0.37155296222498 
859	 0.371506675746149 
860	 0.371361195802045 
861	 0.371136982912779 
862	 0.370956324325563 
863	 0.371053645715931 
864	 0.371053657375397 
865	 0.370891803679933 
866	 0.370793688645863 
867	 0.370663460119383 
868	 0.370486509201498 
869	 0.370346419286762 
870	 0.370428310864309 
871	 0.370379232673846 
872	 0.370169973311995 
873	 0.369930659924235 
874	 0.369969620655453 
875	 0.369846497000761 
876	 0.369748877956519 
877	 0.369848076533475 
878	 0.369508227714503 
879	 0.369420907162967 
880	 0.369458060045507 
881	 0.369198806509171 
882	 0.36900410920259 
883	 0.368958527651205 
884	 0.368944270127587 
885	 0.36874498041605 
886	 0.368584943162488 
887	 0.368535741246828 
888	 0.368488662702051 
889	 0.368191934105438 
890	 0.368110615625691 
891	 0.367953053656553 
892	 0.367651144663489 
893	 0.367732433091248 
894	 0.367597759700022 
895	 0.367377493981394 
896	 0.367300619762542 
897	 0.36737378228236 
898	 0.367251449146434 
899	 0.367067728596896 
900	 0.367021668485053 
901	 0.366870297862085 
902	 0.366625548460607 
903	 0.366387429251806 
904	 0.36627653726068 
905	 0.366270602586908 
906	 0.366277382736637 
907	 0.366156789740349 
908	 0.365834223477229 
909	 0.365904110006505 
910	 0.365824349443035 
911	 0.365559077868679 
912	 0.365622366376855 
913	 0.365427942567117 
914	 0.365375954780593 
915	 0.365505647017104 
916	 0.365217801370265 
917	 0.365089588794433 
918	 0.365026897005123 
919	 0.364905474078296 
920	 0.36480258020566 
921	 0.364663893797987 
922	 0.364541368194248 
923	 0.364519323592408 
924	 0.364709611479469 
925	 0.364716043562706 
926	 0.36465972393783 
927	 0.364691425707198 
928	 0.364412391067858 
929	 0.364365411988592 
930	 0.36444247865825 
931	 0.364350344269984 
932	 0.364287854130661 
933	 0.364417404008007 
934	 0.364571001347493 
935	 0.364476863170108 
936	 0.364332676022852 
937	 0.36431480910524 
938	 0.364447617383526 
939	 0.364615815608166 
940	 0.364587473889213 
941	 0.364613588679342 
942	 0.364679137604651 
943	 0.364543836498029 
944	 0.364362561972718 
945	 0.364570232784635 
946	 0.364905684677127 
947	 0.364512390598167 
948	 0.364463599052481 
949	 0.364525657113708 
950	 0.364560053785685 
951	 0.364759701943591 
952	 0.364749911165301 
953	 0.364556448827139 
954	 0.364455720935936 
955	 0.364900373864294 
956	 0.364834596006004 
957	 0.364674578008795 
958	 0.364702741018423 
959	 0.364443301653527 
960	 0.364685228153946 
961	 0.364860574924582 
962	 0.364593730142258 
963	 0.364512097483125 
964	 0.364625795913237 
965	 0.364680095755914 
966	 0.364566394327167 
967	 0.364682754768198 
968	 0.364713636630923 
969	 0.364537355506633 
970	 0.364233412259557 
971	 0.364197701875984 
972	 0.364372617118046 
973	 0.364512853661891 
974	 0.3644066316438 
975	 0.364093645344613 
976	 0.364029249528738 
977	 0.364225739788014 
978	 0.364420464082933 
979	 0.364064317665227 
980	 0.363735971029779 
981	 0.363720821805262 
982	 0.36402294458677 
983	 0.364195446047453 
984	 0.364048008287378 
985	 0.36386305929023 
986	 0.36398560022938 
987	 0.364329289213108 
988	 0.364694746018211 
989	 0.364617674093387 
990	 0.363961391369427 
991	 0.363849041563383 
992	 0.363748806191376 
993	 0.363746032810355 
994	 0.363935302551146 
995	 0.363676170837157 
996	 0.36398873991339 
997	 0.364203880923253 
998	 0.363650061484273 
999	 0.363759593083617 
1000	 0.363657251271061 
1001	 0.368980006188264 
1002	 0.36891463107939 
1003	 0.36886284463803 
1004	 0.368854474018203 
1005	 0.368601527594729 
1006	 0.368502211977643 
1007	 0.368661696892248 
1008	 0.368661068885694 
1009	 0.368512320968551 
1010	 0.36844768295083 
1011	 0.368430972444966 
1012	 0.368362473974059 
1013	 0.368234852552999 
1014	 0.368187342176238 
1015	 0.368200864830326 
1016	 0.368206034917458 
1017	 0.368186709785707 
1018	 0.368066855080762 
1019	 0.36787314841759 
1020	 0.367818813270199 
1021	 0.367776840976596 
1022	 0.367782507829539 
1023	 0.367764482688916 
1024	 0.367783954856498 
1025	 0.367816150382032 
1026	 0.367814790214917 
1027	 0.367848682813702 
1028	 0.367991507600517 
1029	 0.368044230213929 
1030	 0.367783434381833 
1031	 0.367706899167198 
1032	 0.367716217069135 
1033	 0.367537734812027 
1034	 0.367690087177801 
1035	 0.367883580738948 
1036	 0.367868623690728 
1037	 0.367754667427856 
1038	 0.367629439200802 
1039	 0.367315600091305 
1040	 0.367192766574728 
1041	 0.367184830646663 
1042	 0.367084741052686 
1043	 0.367033972815194 
1044	 0.366870705219313 
1045	 0.366651910795403 
1046	 0.366531463797495 
1047	 0.36646815843101 
1048	 0.366554661131899 
1049	 0.36672129257485 
1050	 0.366710916232352 
1051	 0.366677038454291 
1052	 0.366491560994137 
1053	 0.366359398021119 
1054	 0.366173034225657 
1055	 0.366102423758905 
1056	 0.366044562092396 
1057	 0.366073012298843 
1058	 0.366237428584182 
1059	 0.366256530366211 
1060	 0.366238313303716 
1061	 0.366351659807098 
1062	 0.366320400876892 
1063	 0.366114327105339 
1064	 0.366018783749728 
1065	 0.366041399364424 
1066	 0.365997246382372 
1067	 0.366025982475785 
1068	 0.366238679098253 
1069	 0.366355700595464 
1070	 0.366384530708601 
1071	 0.366394422104529 
1072	 0.366414884538405 
1073	 0.366272530634462 
1074	 0.366146103368311 
1075	 0.366147148418457 
1076	 0.366227630516765 
1077	 0.366264769058947 
1078	 0.366230718097606 
1079	 0.366271839381364 
1080	 0.366277322354688 
1081	 0.366265279203401 
1082	 0.366283599502914 
1083	 0.366198859813042 
1084	 0.366279325736335 
1085	 0.366417570946928 
1086	 0.36646473343631 
1087	 0.366500590027967 
1088	 0.366667207957138 
1089	 0.366647862357588 
1090	 0.366547443656917 
1091	 0.366616651667864 
1092	 0.366610291792296 
1093	 0.366657002119311 
1094	 0.366766729582772 
1095	 0.366837102451021 
1096	 0.366910623223571 
1097	 0.366943180285579 
1098	 0.366972130393305 
1099	 0.366940516690064 
1100	 0.366942569016378 
1101	 0.367031527541651 
1102	 0.367126418903798 
1103	 0.367179169915914 
1104	 0.367274007368977 
1105	 0.367343933635542 
1106	 0.367394657854451 
1107	 0.367274125175881 
1108	 0.367134173195167 
1109	 0.367065102457996 
1110	 0.367046367872193 
1111	 0.36722824123939 
1112	 0.367452325513771 
1113	 0.367688106518851 
1114	 0.367782894574475 
1115	 0.367740602144413 
1116	 0.367774467054357 
1117	 0.367699002182946 
1118	 0.367645366725385 
1119	 0.367520752362414 
1120	 0.367560657527434 
1121	 0.367653388484332 
1122	 0.36779271388668 
1123	 0.367933134840258 
1124	 0.367905123541796 
1125	 0.367834173919793 
1126	 0.367797644104851 
1127	 0.367816884890704 
1128	 0.367959027903014 
1129	 0.368076703200636 
1130	 0.368129210812998 
1131	 0.368198256517646 
1132	 0.368212219065422 
1133	 0.368173773036905 
1134	 0.368166857455513 
1135	 0.36815692562416 
1136	 0.368151110143768 
1137	 0.368141474587102 
1138	 0.36810377157288 
1139	 0.368110014167408 
1140	 0.368128949096194 
1141	 0.36816779039828 
1142	 0.368294396945209 
1143	 0.368355543859532 
1144	 0.368251571855845 
1145	 0.368201081099442 
1146	 0.36813190875212 
1147	 0.367985179105516 
1148	 0.367983151344329 
1149	 0.368069258594499 
1150	 0.367996041044638 
1151	 0.367929156410521 
1152	 0.367907968102331 
1153	 0.367870483787624 
1154	 0.367820096908003 
1155	 0.367850863703748 
1156	 0.367817102294597 
1157	 0.367759928946889 
1158	 0.36768673863364 
1159	 0.367556180251299 
1160	 0.367420113473688 
1161	 0.367468133614063 
1162	 0.367430757868977 
1163	 0.367385425574934 
1164	 0.367335902603555 
1165	 0.367157395056914 
1166	 0.367018256127452 
1167	 0.366961269381685 
1168	 0.36694184242856 
1169	 0.36688919767474 
1170	 0.36685300842566 
1171	 0.366763561159345 
1172	 0.366611854140998 
1173	 0.366525446425569 
1174	 0.36644329132657 
1175	 0.366339823462751 
1176	 0.36630242924596 
1177	 0.366200379944785 
1178	 0.366031748357487 
1179	 0.365879953332951 
1180	 0.365758299499952 
1181	 0.365595135628835 
1182	 0.365374366793585 
1183	 0.365273973669466 
1184	 0.36519063074624 
1185	 0.36500033983543 
1186	 0.364897027851312 
1187	 0.364885212469388 
1188	 0.364758127586064 
1189	 0.364579115141331 
1190	 0.364471897300306 
1191	 0.364289870767933 
1192	 0.364245054022991 
1193	 0.364380954496142 
1194	 0.364370473921934 
1195	 0.364319545890023 
1196	 0.364311737699087 
1197	 0.364274292519597 
1198	 0.364209229407813 
1199	 0.364206892326466 
1200	 0.364266047410237 
1201	 0.364339036634503 
1202	 0.364377046441932 
1203	 0.364438767774251 
1204	 0.364581119678188 
1205	 0.364698892185809 
1206	 0.364771825912292 
1207	 0.364948126096737 
1208	 0.365163922119445 
1209	 0.365425387236984 
1210	 0.365759129433018 
1211	 0.366089170650898 
1212	 0.366447488249258 
1213	 0.366848431762534 
1214	 0.367232716817508 
1215	 0.367723778218358 
1216	 0.368290967021616 
1217	 0.368895911263613 
1218	 0.369592316393118 
1219	 0.370299436821903 
1220	 0.371016265332387 
1221	 0.371808906858782 
1222	 0.372528658696704 
1223	 0.373262923454232 
1224	 0.373991608432632 
1225	 0.374722185367653 
1226	 0.37539476129173 
1227	 0.376040112706683 
1228	 0.376691435198578 
1229	 0.3772964437353 
1230	 0.377917981315708 
1231	 0.378597576601544 
1232	 0.37921014912794 
1233	 0.379760760361321 
1234	 0.380326413973321 
1235	 0.380864522333786 
1236	 0.381402542813354 
1237	 0.382007906991631 
1238	 0.382504002971941 
1239	 0.382907261864068 
1240	 0.383341151246363 
1241	 0.383758386223346 
1242	 0.384090287856402 
1243	 0.384454509971531 
1244	 0.384837492030613 
1245	 0.385225299302278 
1246	 0.385572387346065 
1247	 0.385967980481449 
1248	 0.386392818771769 
1249	 0.38684802208965 
1250	 0.387381246609586 
1251	 0.387802458077988 
1252	 0.388203027207143 
1253	 0.388602759739707 
1254	 0.388946263294418 
1255	 0.389265964983703 
1256	 0.389572510975295 
1257	 0.389905483459875 
1258	 0.390215128443857 
1259	 0.390501235807886 
1260	 0.390837380637775 
1261	 0.391127799699069 
1262	 0.39134041200355 
1263	 0.391532781395679 
1264	 0.391809221833816 
1265	 0.392118087447547 
1266	 0.392429136208135 
1267	 0.392786193848912 
1268	 0.393125399459894 
1269	 0.39347884660501 
1270	 0.393790271403243 
1271	 0.394102947646033 
1272	 0.394392427869422 
1273	 0.394598486989657 
1274	 0.39489110597843 
1275	 0.395259219300525 
1276	 0.39554572733329 
1277	 0.395779741882856 
1278	 0.396098505095885 
1279	 0.396473100916479 
1280	 0.396754676740883 
1281	 0.397026724036161 
1282	 0.397328406612733 
1283	 0.397555805214517 
1284	 0.397793675396683 
1285	 0.398053945062249 
1286	 0.398398188541017 
1287	 0.398689421998041 
1288	 0.398927843572875 
1289	 0.399207100309029 
1290	 0.399537808601121 
1291	 0.399815303715303 
1292	 0.400033389057699 
1293	 0.400330912143361 
1294	 0.40064126115525 
1295	 0.400980886601422 
1296	 0.401402268231753 
1297	 0.401754379118945 
1298	 0.402076469822309 
1299	 0.402421775358919 
1300	 0.40278028599851 
1301	 0.403090957919076 
1302	 0.403366939973329 
1303	 0.403680941435879 
1304	 0.403984131130996 
1305	 0.404274186785353 
1306	 0.40457821489969 
1307	 0.404900792880375 
1308	 0.405209751975903 
1309	 0.405510180300239 
1310	 0.405835206888448 
1311	 0.40622394619939 
1312	 0.406522074979949 
1313	 0.406796002338675 
1314	 0.407024035405282 
1315	 0.407140784613564 
1316	 0.407423697356133 
1317	 0.407757036558024 
1318	 0.408063425933628 
1319	 0.408469904069826 
1320	 0.408801888059872 
1321	 0.409074497856084 
1322	 0.409342186687093 
1323	 0.409607505438844 
1324	 0.409866957067528 
1325	 0.410105125775519 
1326	 0.410317442571463 
1327	 0.410535884338243 
1328	 0.410729036157014 
1329	 0.410851610890379 
1330	 0.411009468766418 
1331	 0.411196612804732 
1332	 0.41135935684311 
1333	 0.411501460778381 
1334	 0.411667438882008 
1335	 0.411826451251625 
1336	 0.41196627288269 
1337	 0.412136393414556 
1338	 0.412329723462194 
1339	 0.412511822978193 
1340	 0.412730050392976 
1341	 0.412857121685623 
1342	 0.412935783702158 
1343	 0.413037750468518 
1344	 0.413103355481471 
1345	 0.413163724672931 
1346	 0.413265403979702 
1347	 0.413295096235108 
1348	 0.413244203638718 
1349	 0.413234721847686 
1350	 0.413235697544938 
1351	 0.413204464695552 
1352	 0.413154093670786 
1353	 0.413119505654544 
1354	 0.413059512869157 
1355	 0.413011459386588 
1356	 0.412988707414452 
1357	 0.412961249469939 
1358	 0.412948269895871 
1359	 0.412901965053172 
1360	 0.412849499505046 
1361	 0.412773359837752 
1362	 0.412668115954919 
1363	 0.412616892351752 
1364	 0.41255979431562 
1365	 0.412539261712946 
1366	 0.412468804378104 
1367	 0.412386961067529 
1368	 0.412288626672891 
1369	 0.412197866956193 
1370	 0.412022764648564 
1371	 0.411818298515912 
1372	 0.411568760387443 
1373	 0.411221467744387 
1374	 0.410923505561683 
1375	 0.410626376746567 
1376	 0.410310532418314 
1377	 0.409974383913431 
1378	 0.409663396338123 
1379	 0.409368993296464 
1380	 0.409034675523581 
1381	 0.408690834919492 
1382	 0.408351448609575 
1383	 0.407971139190129 
1384	 0.407614008035475 
1385	 0.407310175610853 
1386	 0.406960580726906 
1387	 0.406559623291741 
1388	 0.406203450117528 
1389	 0.405835183481965 
1390	 0.405494957329867 
1391	 0.405184119638949 
1392	 0.404874821132859 
1393	 0.404615624405097 
1394	 0.404492144318589 
1395	 0.404447836736187 
1396	 0.404568350130842 
1397	 0.4045630618942 
1398	 0.404646686196219 
1399	 0.404536584958443 
1400	 0.404333127354489 
1401	 0.404068860511791 
1402	 0.403706140744782 
1403	 0.403305561953262 
1404	 0.402862188144708 
1405	 0.402326033464613 
1406	 0.401719368852578 
1407	 0.401051766288355 
1408	 0.400255721585607 
1409	 0.399506429982475 
1410	 0.398708216212577 
1411	 0.397941636495096 
1412	 0.397169376370867 
1413	 0.396451441230686 
1414	 0.395744179726067 
1415	 0.395079775457673 
1416	 0.39442368572076 
1417	 0.393858562249811 
1418	 0.393398220024975 
1419	 0.392900359158108 
1420	 0.392466160149049 
1421	 0.392021394856404 
1422	 0.391556347407396 
1423	 0.391076068354216 
1424	 0.390608386348558 
1425	 0.390131869807175 
1426	 0.389616460740099 
1427	 0.38909955440704 
1428	 0.388640773464625 
1429	 0.388185650477952 
1430	 0.387694550336078 
1431	 0.387206200994727 
1432	 0.386694089415403 
1433	 0.3861500086782 
1434	 0.385590427418511 
1435	 0.385013969934349 
1436	 0.384444657414836 
1437	 0.383851368416946 
1438	 0.383275727682817 
1439	 0.382717608644134 
1440	 0.382151015791566 
1441	 0.381548905072209 
1442	 0.381004870563846 
1443	 0.380406486182646 
1444	 0.380004346531213 
1445	 0.37965485776487 
1446	 0.379482653903739 
1447	 0.3794172097419 
1448	 0.379577773055003 
1449	 0.379959674578042 
1450	 0.380395550857538 
1451	 0.381034795342762 
1452	 0.381711404112953 
1453	 0.38244084093927 
1454	 0.383254093184413 
1455	 0.384249403483611 
1456	 0.385182546564772 
1457	 0.38615317837246 
1458	 0.387100701397093 
1459	 0.388017893350223 
1460	 0.388952102995239 
1461	 0.389932918969276 
1462	 0.390848140045926 
1463	 0.391690250057508 
1464	 0.392589195272419 
1465	 0.393474797639977 
1466	 0.394396237812661 
1467	 0.395262647057673 
1468	 0.396145117773971 
1469	 0.396941457187085 
1470	 0.397658022007405 
1471	 0.398462681404297 
1472	 0.399313292776121 
1473	 0.400107800624921 
1474	 0.40093108164471 
1475	 0.401659985944121 
1476	 0.402318432866569 
1477	 0.402987575699036 
1478	 0.403644762325872 
1479	 0.404214850646015 
1480	 0.404768579393017 
1481	 0.405237095613272 
1482	 0.405559080749242 
1483	 0.405982960830703 
1484	 0.406434272681677 
1485	 0.406813233954266 
1486	 0.407164304963622 
1487	 0.407553303418028 
1488	 0.407912325667352 
1489	 0.408266284651387 
1490	 0.408627382334562 
1491	 0.409049602871385 
1492	 0.409399225737286 
1493	 0.409903462896091 
1494	 0.410592675918459 
1495	 0.411202249974506 
1496	 0.411828482782051 
1497	 0.412478506280799 
1498	 0.413135908568507 
1499	 0.413796404102565 
1500	 0.414477218342541 
1501	 0.41517462988842 
1502	 0.415890317694396 
1503	 0.416577533102858 
1504	 0.417325330442635 
1505	 0.417980898635615 
1506	 0.418562243946793 
1507	 0.419125585196468 
1508	 0.419615630924669 
1509	 0.420130258320059 
1510	 0.420686439415934 
1511	 0.42115121951939 
1512	 0.42154240900596 
1513	 0.421962021268916 
1514	 0.422360907153644 
1515	 0.42270982772182 
1516	 0.423080885463153 
1517	 0.423399061609337 
1518	 0.423604030628746 
1519	 0.423836083822484 
1520	 0.42407579651076 
1521	 0.424293424911668 
1522	 0.42451703445011 
1523	 0.424729917208315 
1524	 0.424959660535154 
1525	 0.425200571765242 
1526	 0.42541460127239 
1527	 0.42563974212104 
1528	 0.425809601281731 
1529	 0.425929715122866 
1530	 0.426087403319304 
1531	 0.426262051720115 
1532	 0.426347500129012 
1533	 0.426388233769093 
1534	 0.426486027019696 
1535	 0.426524289789172 
1536	 0.426631380043027 
1537	 0.426813751161307 
1538	 0.426989518904567 
1539	 0.427128364482645 
1540	 0.427375769619325 
1541	 0.427708279869788 
1542	 0.428038286197601 
1543	 0.428415502458095 
1544	 0.428791611794569 
1545	 0.429190123392487 
1546	 0.429586269622747 
1547	 0.429976683416015 
1548	 0.430421298416123 
1549	 0.43090027101811 
1550	 0.431367178813471 
1551	 0.431850785848834 
1552	 0.432369580197393 
1553	 0.432912620057378 
1554	 0.433425054011952 
1555	 0.433990997870054 
1556	 0.434485697003355 
1557	 0.434933040473412 
1558	 0.435342289953053 
1559	 0.435690680066707 
1560	 0.436085183112247 
1561	 0.436431380726485 
1562	 0.436838990538471 
1563	 0.437329798531101 
1564	 0.437763852694758 
1565	 0.438197750383603 
1566	 0.438605551315511 
1567	 0.438966687888406 
1568	 0.439367136603639 
1569	 0.439794566196614 
1570	 0.440175275904888 
1571	 0.44054578192893 
1572	 0.44091963602658 
1573	 0.441257096435617 
1574	 0.441605914456136 
1575	 0.44197479842381 
1576	 0.442335933219804 
1577	 0.442668486204265 
1578	 0.44303240557342 
1579	 0.44345012265788 
1580	 0.443805953314927 
1581	 0.4441174035559 
1582	 0.444466363990511 
1583	 0.444787669629721 
1584	 0.445144200263322 
1585	 0.445540733819897 
1586	 0.445951321106784 
1587	 0.446426284645778 
1588	 0.446804261401117 
1589	 0.447148365858905 
1590	 0.447494700120285 
1591	 0.447750139207807 
1592	 0.448066233943774 
1593	 0.448454134555304 
1594	 0.448790911358792 
1595	 0.449103609194206 
1596	 0.449419576261594 
1597	 0.449697640733047 
1598	 0.450021471516408 
1599	 0.450409464513749 
1600	 0.45072929333695 
1601	 0.451005619022185 
1602	 0.451325154267798 
1603	 0.451636354379321 
1604	 0.451936296072314 
1605	 0.452293257656624 
1606	 0.452601686919333 
1607	 0.452814756790978 
1608	 0.453100771109736 
1609	 0.453441356605111 
1610	 0.453736357722275 
1611	 0.454051185702846 
1612	 0.454336702558415 
1613	 0.454548895444061 
1614	 0.454811008187561 
1615	 0.455115686179302 
1616	 0.455384887891497 
1617	 0.455689371204711 
1618	 0.455923943706568 
1619	 0.456051103356144 
1620	 0.456250069967462 
1621	 0.4564600321647 
1622	 0.456658481664116 
1623	 0.456907764364527 
1624	 0.457121253341388 
1625	 0.457300161311997 
1626	 0.457465686252193 
1627	 0.457590730845001 
1628	 0.457761189597216 
1629	 0.457964636391566 
1630	 0.458122224838812 
1631	 0.458310596322925 
1632	 0.458449591000173 
1633	 0.458476484525259 
1634	 0.458576124883848 
1635	 0.45870401833114 
1636	 0.458827731120449 
1637	 0.458965950277583 
1638	 0.459131866229639 
1639	 0.459345540162522 
1640	 0.459493628749886 
1641	 0.459657846334858 
1642	 0.45977738332865 
1643	 0.459807033481781 
1644	 0.459860747415888 
1645	 0.459916224637528 
1646	 0.459954481192149 
1647	 0.459962107606245 
1648	 0.459993068713122 
1649	 0.460073786479718 
1650	 0.460080711196476 
1651	 0.460099209512571 
1652	 0.460024099656459 
1653	 0.459817077902696 
1654	 0.459651112918277 
1655	 0.459456723244405 
1656	 0.459255892276887 
1657	 0.459106127938827 
1658	 0.458861455024192 
1659	 0.45855270323598 
1660	 0.45822317892212 
1661	 0.457834029587643 
1662	 0.457433380449471 
1663	 0.457043056381535 
1664	 0.456547157294638 
1665	 0.45599720965765 
1666	 0.455374375789145 
1667	 0.454721080562998 
1668	 0.453915172944144 
1669	 0.452981296947442 
1670	 0.452002453309551 
1671	 0.450855760173875 
1672	 0.449729768816926 
1673	 0.448650033502941 
1674	 0.447419985625599 
1675	 0.446084071354493 
1676	 0.444733000446902 
1677	 0.443305499979371 
1678	 0.441807383857195 
1679	 0.440313867410182 
1680	 0.438643372613368 
1681	 0.436842230129924 
1682	 0.434946313791383 
1683	 0.432890069641726 
1684	 0.430840596274964 
1685	 0.428752394593662 
1686	 0.426554704998038 
1687	 0.424281352972159 
1688	 0.421942722440718 
1689	 0.41951177770018 
1690	 0.416962084784326 
1691	 0.414350543765888 
1692	 0.411697735321709 
1693	 0.408897346912916 
1694	 0.406134849414911 
1695	 0.403368250984674 
1696	 0.400487712113066 
1697	 0.397578882596106 
1698	 0.394519004344616 
1699	 0.391339578193032 
1700	 0.388231895207691 
1701	 0.385006562326682 
1702	 0.381910103569535 
1703	 0.378822657577203 
1704	 0.375843653910314 
1705	 0.372873172493899 
1706	 0.370084227225876 
1707	 0.367588706451238 
1708	 0.365214085232701 
1709	 0.363014038315771 
1710	 0.360929771096256 
1711	 0.358832085333013 
1712	 0.356906867034017 
1713	 0.355078882989396 
1714	 0.353361607692098 
1715	 0.351812770699273 
1716	 0.350284203879763 
1717	 0.348819699234744 
1718	 0.347377711802412 
1719	 0.346031462665167 
1720	 0.344906176755522 
1721	 0.343853363721654 
1722	 0.342917164720522 
1723	 0.34216518296987 
1724	 0.341439231736778 
1725	 0.340876674779092 
1726	 0.340585012047614 
1727	 0.340441455496973 
1728	 0.34052039977994 
1729	 0.340908124241713 
1730	 0.341564314473589 
1731	 0.342476260617915 
1732	 0.343749102650403 
1733	 0.345091045030848 
1734	 0.346563663425796 
1735	 0.348352422942907 
1736	 0.350043465647311 
1737	 0.351687061669178 
1738	 0.353198307720119 
1739	 0.354412688492258 
1740	 0.355455117968165 
1741	 0.356262321630336 
1742	 0.35682442997957 
1743	 0.357204676315829 
1744	 0.3573161110868 
1745	 0.357333733693189 
1746	 0.357150831100454 
1747	 0.356927741324753 
1748	 0.356528055525287 
1749	 0.356168713255864 
1750	 0.355669139304041 
1751	 0.355387382937679 
1752	 0.35518035285287 
1753	 0.355089467767916 
1754	 0.355142374771148 
1755	 0.355244211871899 
1756	 0.355373575696003 
1757	 0.355662694268068 
1758	 0.356143866782487 
1759	 0.356803297105563 
1760	 0.357601995724524 
1761	 0.358493341117143 
1762	 0.359561433735814 
1763	 0.360868920933554 
1764	 0.362280140897431 
1765	 0.363922545873275 
1766	 0.365712886244773 
1767	 0.367564811812011 
1768	 0.369627403361525 
1769	 0.371679127360169 
1770	 0.373745411152205 
1771	 0.375814338188729 
1772	 0.377710707448148 
1773	 0.379697179333386 
1774	 0.381612196939514 
1775	 0.383269347571428 
1776	 0.384936162133592 
1777	 0.386470443620794 
1778	 0.387798766733522 
1779	 0.389121225328124 
1780	 0.390366428060687 
1781	 0.391502158507895 
1782	 0.392616952258129 
1783	 0.393653519578794 
1784	 0.394599432080143 
1785	 0.395277020944602 
1786	 0.396022575973564 
1787	 0.396712077431492 
1788	 0.39740752797571 
1789	 0.398221052909401 
1790	 0.398818786441004 
1791	 0.399262252588061 
1792	 0.399781715447667 
1793	 0.400137344019093 
1794	 0.400663854827457 
1795	 0.401211406428988 
1796	 0.401708688531968 
1797	 0.402342421403287 
1798	 0.402881169599688 
1799	 0.403330406188967 
1800	 0.403786104058024 
1801	 0.399331670274014 
1802	 0.399877471722264 
1803	 0.400340002330987 
1804	 0.40082041816197 
1805	 0.401326294605288 
1806	 0.40175855653083 
1807	 0.402090438707834 
1808	 0.402508113811441 
1809	 0.402951623170522 
1810	 0.403371308816881 
1811	 0.40385148002469 
1812	 0.4042496075907 
1813	 0.40458421127531 
1814	 0.404889159708399 
1815	 0.405266791834497 
1816	 0.405676922076722 
1817	 0.406156272382744 
1818	 0.406758416917693 
1819	 0.407319471823526 
1820	 0.407894444286666 
1821	 0.408459952237537 
1822	 0.409046253346542 
1823	 0.409658543948378 
1824	 0.410061147472684 
1825	 0.410571538546891 
1826	 0.411049566032295 
1827	 0.411386997998489 
1828	 0.411874536427942 
1829	 0.412520372767221 
1830	 0.413020685867731 
1831	 0.413472456153497 
1832	 0.413994315391203 
1833	 0.414393228590732 
1834	 0.414785854022666 
1835	 0.415177148719364 
1836	 0.41546537643996 
1837	 0.415854277997201 
1838	 0.416257851100029 
1839	 0.41668609098627 
1840	 0.41721823946134 
1841	 0.417691903309636 
1842	 0.418176612615992 
1843	 0.418546545056368 
1844	 0.419004029748253 
1845	 0.419380635621773 
1846	 0.41974846591621 
1847	 0.420225310148871 
1848	 0.420611265285174 
1849	 0.420989322850625 
1850	 0.421270439724374 
1851	 0.421486788076788 
1852	 0.421677538363614 
1853	 0.421863929240979 
1854	 0.422035335602477 
1855	 0.422206843923911 
1856	 0.422294614207821 
1857	 0.422250224986888 
1858	 0.422109882178673 
1859	 0.421960145124867 
1860	 0.421758871222497 
1861	 0.421536075473686 
1862	 0.421263800826467 
1863	 0.421004662264091 
1864	 0.420707308836242 
1865	 0.420354362785491 
1866	 0.419983916715192 
1867	 0.419539565004631 
1868	 0.419048255437744 
1869	 0.418426380156079 
1870	 0.417724353536672 
1871	 0.416896293076351 
1872	 0.416058756405111 
1873	 0.415152843663588 
1874	 0.414265523218815 
1875	 0.413266626209293 
1876	 0.412122628361333 
1877	 0.410871946184959 
1878	 0.409443072084211 
1879	 0.407916027308726 
1880	 0.406461394778544 
1881	 0.40490839076972 
1882	 0.403305422267324 
1883	 0.401600628754296 
1884	 0.399730086134247 
1885	 0.39764800670008 
1886	 0.395537712280902 
1887	 0.393240194548842 
1888	 0.390869053837216 
1889	 0.38865922208023 
1890	 0.386229263121602 
1891	 0.383741196689882 
1892	 0.381309023242059 
1893	 0.378762325957477 
1894	 0.376042504721084 
1895	 0.373388286957945 
1896	 0.370784481084475 
1897	 0.368142333332316 
1898	 0.365628754815269 
1899	 0.363125296498847 
1900	 0.360674399806149 
1901	 0.358332331754119 
1902	 0.355914332305491 
1903	 0.353579332659174 
1904	 0.351320440225246 
1905	 0.349082526712223 
1906	 0.346899753143438 
1907	 0.345002644707507 
1908	 0.343166559884988 
1909	 0.341395188347394 
1910	 0.339791934354171 
1911	 0.338151963125108 
1912	 0.33657805895768 
1913	 0.335053919341367 
1914	 0.333568569573138 
1915	 0.332204428733874 
1916	 0.330966440774172 
1917	 0.329692775168506 
1918	 0.328458012181131 
1919	 0.327279268022556 
1920	 0.325939544280917 
1921	 0.324676247426106 
1922	 0.323485713481981 
1923	 0.322196328670166 
1924	 0.321022910141493 
1925	 0.319861671642195 
1926	 0.318710484317438 
1927	 0.31759533722421 
1928	 0.316517457956105 
1929	 0.31545083553423 
1930	 0.314383814070452 
1931	 0.31338566902039 
1932	 0.312456582735946 
1933	 0.311653769664782 
1934	 0.310927316460118 
1935	 0.310338941162299 
1936	 0.309911458158191 
1937	 0.309489243601059 
1938	 0.309081458109053 
1939	 0.308838252806802 
1940	 0.308723085354563 
1941	 0.308606711283212 
1942	 0.308558471672022 
1943	 0.308746832005857 
1944	 0.308917332712619 
1945	 0.309100285020251 
1946	 0.309490231440527 
1947	 0.309877382821988 
1948	 0.310365916637825 
1949	 0.311078514057516 
1950	 0.311826759907099 
1951	 0.312703372586572 
1952	 0.313617415152352 
1953	 0.314617986255851 
1954	 0.315606182489979 
1955	 0.316752977304093 
1956	 0.31797682890015 
1957	 0.319192826381067 
1958	 0.320456040494768 
1959	 0.321583824575427 
1960	 0.32260826811274 
1961	 0.323619615076047 
1962	 0.324589428156868 
1963	 0.325487682455502 
1964	 0.326373832589596 
1965	 0.327131681824265 
1966	 0.327774092604134 
1967	 0.328393520978705 
1968	 0.328956966450546 
1969	 0.32950344673529 
1970	 0.33006326246914 
1971	 0.330592158645301 
1972	 0.331100476074163 
1973	 0.331568818919208 
1974	 0.332118159731045 
1975	 0.332722270260486 
1976	 0.333333057816826 
1977	 0.333971070018186 
1978	 0.334644203104186 
1979	 0.33533679746696 
1980	 0.336032119064646 
1981	 0.33681126554588 
1982	 0.337639306480939 
1983	 0.33846605172711 
1984	 0.33925529940542 
1985	 0.340059874795268 
1986	 0.340897462170764 
1987	 0.34180998927211 
1988	 0.342764262869154 
1989	 0.34380420380883 
1990	 0.344922810319442 
1991	 0.346096636768269 
1992	 0.347326448879983 
1993	 0.348654173042342 
1994	 0.350039880566188 
1995	 0.351480280909664 
1996	 0.352895590106668 
1997	 0.354390662270224 
1998	 0.355918013271725 
1999	 0.357498912720531 
2000	 0.358967178892349 
2001	 0.360530878046479 
2002	 0.361923721760558 
2003	 0.363181491313681 
2004	 0.364413425186715 
2005	 0.36551959950384 
2006	 0.366664741901737 
2007	 0.367825263224782 
2008	 0.368895117351335 
2009	 0.369900331497482 
2010	 0.370856343058339 
2011	 0.371565453999091 
2012	 0.372163622143811 
2013	 0.372810745749481 
2014	 0.373390187292084 
2015	 0.373998785353151 
2016	 0.374701034858653 
2017	 0.375247888564111 
2018	 0.375745352067201 
2019	 0.376164804264283 
2020	 0.376490501719975 
2021	 0.376711703540405 
2022	 0.376907747392871 
2023	 0.377111609226907 
2024	 0.377303484204839 
2025	 0.377371645205447 
2026	 0.377451145692078 
2027	 0.377504759494928 
2028	 0.377547282096127 
2029	 0.377577516666455 
2030	 0.377565722289808 
2031	 0.377523163594856 
2032	 0.377447315633429 
2033	 0.377304965922667 
2034	 0.377181981738432 
2035	 0.377028193296659 
2036	 0.376930173894185 
2037	 0.376821164782441 
2038	 0.376603495803521 
2039	 0.376449274040233 
2040	 0.376304057059837 
2041	 0.376140975587464 
2042	 0.375973454502867 
2043	 0.375821600659535 
2044	 0.375656160957105 
2045	 0.375508887225999 
2046	 0.375395464466913 
2047	 0.37527249725769 
2048	 0.375141674149266 
2049	 0.375010438991286 
2050	 0.374882412922856 
2051	 0.374740644888205 
2052	 0.374641618311484 
2053	 0.374584436743546 
2054	 0.374468811818591 
2055	 0.374368488983862 
2056	 0.374242918183349 
2057	 0.374018419541868 
2058	 0.373890379603945 
2059	 0.373862967144051 
2060	 0.373727077791055 
2061	 0.373578164585441 
2062	 0.373426118182582 
2063	 0.373153875494458 
2064	 0.372979071704078 
2065	 0.37288731898977 
2066	 0.372770340236588 
2067	 0.372621812817865 
2068	 0.372489146515607 
2069	 0.372382483857079 
2070	 0.372261640558702 
2071	 0.372160352387659 
2072	 0.372112447002524 
2073	 0.372034677706223 
2074	 0.371961945637046 
2075	 0.371829801764159 
2076	 0.371697646458827 
2077	 0.371527046919791 
2078	 0.371232130637675 
2079	 0.371016326054434 
2080	 0.37084532076613 
2081	 0.37065710493493 
2082	 0.370465351208485 
2083	 0.370328224818974 
2084	 0.370117083582379 
2085	 0.369899108060131 
2086	 0.369768968041577 
2087	 0.369719263533247 
2088	 0.369571715187541 
2089	 0.369459651085501 
2090	 0.369294919268438 
2091	 0.369047879490828 
2092	 0.368800054440167 
2093	 0.368549743002258 
2094	 0.368287215483379 
2095	 0.367962964106717 
2096	 0.36766873188223 
2097	 0.367390470415735 
2098	 0.36712998960135 
2099	 0.366864116403864 
2100	 0.366561039274436 
2101	 0.366232740346734 
2102	 0.36587368101759 
2103	 0.365542691887897 
2104	 0.365195796682202 
2105	 0.364844647215101 
2106	 0.364530143265697 
2107	 0.364154702528534 
2108	 0.363780420226084 
2109	 0.363307991771183 
2110	 0.362759139144797 
2111	 0.362209478422216 
2112	 0.361567298589593 
2113	 0.360946442549374 
2114	 0.360312784245166 
2115	 0.359695778271829 
2116	 0.359067649071425 
2117	 0.358452087801629 
2118	 0.357869666483195 
2119	 0.357332919157328 
2120	 0.356790437986334 
2121	 0.356261970481229 
2122	 0.355725300877846 
2123	 0.355153015954085 
2124	 0.354683339963271 
2125	 0.354255936656131 
2126	 0.353848087191849 
2127	 0.353485931267429 
2128	 0.353182596754595 
2129	 0.352890872060123 
2130	 0.352660274875765 
2131	 0.352538588821563 
2132	 0.352421882396641 
2133	 0.352292700318063 
2134	 0.352284162906291 
2135	 0.352297861685694 
2136	 0.352170200792878 
2137	 0.352096028144102 
2138	 0.351985691241392 
2139	 0.351940784756357 
2140	 0.351953082519069 
2141	 0.351903784076904 
2142	 0.351803422117978 
2143	 0.351803928059989 
2144	 0.351819782009586 
2145	 0.351849394190268 
2146	 0.352002294796229 
2147	 0.352073020442122 
2148	 0.35203517836707 
2149	 0.352097917796859 
2150	 0.352178138442289 
2151	 0.35231134840767 
2152	 0.352587199736524 
2153	 0.352758599607806 
2154	 0.352876901024911 
2155	 0.353001235776955 
2156	 0.353086180696009 
2157	 0.353097622975686 
2158	 0.353122831421938 
2159	 0.353109959042816 
2160	 0.353208665324338 
2161	 0.353379855449398 
2162	 0.353409042805005 
2163	 0.353497570605363 
2164	 0.353460311430888 
2165	 0.353225197187765 
2166	 0.353070288818571 
2167	 0.352945818615868 
2168	 0.352775607263586 
2169	 0.35250237893706 
2170	 0.352332111763426 
2171	 0.352220102293314 
2172	 0.352072618025223 
2173	 0.351949739947957 
2174	 0.35184462396794 
2175	 0.351692255218284 
2176	 0.351610950046559 
2177	 0.351570788808801 
2178	 0.351626726420674 
2179	 0.351603708989832 
2180	 0.351618322377715 
2181	 0.351540989275825 
2182	 0.351355173036713 
2183	 0.351269748489558 
2184	 0.351198860756624 
2185	 0.351089436651215 
2186	 0.351020037761139 
2187	 0.350942721934356 
2188	 0.350870877393767 
2189	 0.350687665089432 
2190	 0.350492830630967 
2191	 0.350236589390787 
2192	 0.349768189079837 
2193	 0.349444147656351 
2194	 0.349260493245087 
2195	 0.348945742173549 
2196	 0.34861891202458 
2197	 0.348248658301837 
2198	 0.347789221811954 
2199	 0.347276795767647 
2200	 0.346842721669365 
2201	 0.346459773760468 
2202	 0.346021478699154 
2203	 0.345622256233475 
2204	 0.345090992477692 
2205	 0.344448112213618 
2206	 0.343881100907686 
2207	 0.343295123128209 
2208	 0.342666741212122 
2209	 0.34208969689802 
2210	 0.341406354314654 
2211	 0.340630693302692 
2212	 0.339835931529034 
2213	 0.338887362518372 
2214	 0.338138215509058 
2215	 0.33742508802447 
2216	 0.336752187136953 
2217	 0.336332581845905 
2218	 0.335729931787241 
2219	 0.334942739403214 
2220	 0.334295996186225 
2221	 0.333675310427804 
2222	 0.333055428410332 
2223	 0.332487695352072 
2224	 0.331886815375653 
2225	 0.331182024526669 
2226	 0.330426086327004 
2227	 0.329613948068039 
2228	 0.328823266040912 
2229	 0.327834072985958 
2230	 0.326686181139034 
2231	 0.325525571830763 
2232	 0.324253429930889 
2233	 0.322922864415514 
2234	 0.321658840565833 
2235	 0.320079527959947 
2236	 0.31828278673219 
2237	 0.316430264329756 
2238	 0.314326897584992 
2239	 0.312239638744372 
2240	 0.31023331323486 
2241	 0.307909811839835 
2242	 0.305390430421662 
2243	 0.302774368360215 
2244	 0.299952195863359 
2245	 0.297007268675196 
2246	 0.29381658014001 
2247	 0.290714344563773 
2248	 0.287498340425536 
2249	 0.284259601661416 
2250	 0.281081593178987 
2251	 0.277940596883838 
2252	 0.274378453204164 
2253	 0.27097633052636 
2254	 0.26748729931833 
2255	 0.264030024222031 
2256	 0.260959978443444 
2257	 0.257680665694786 
2258	 0.254484271681021 
2259	 0.251438466661976 
2260	 0.248193305846123 
2261	 0.244763744525454 
2262	 0.241586958750655 
2263	 0.238314250326347 
2264	 0.235370626440659 
2265	 0.232710959214613 
2266	 0.230058422067225 
2267	 0.227696255941214 
2268	 0.225098307874194 
2269	 0.222428384901423 
2270	 0.219867586407074 
2271	 0.217191340637342 
2272	 0.214695912342278 
2273	 0.212427608003648 
2274	 0.210046470056086 
2275	 0.207720166701533 
2276	 0.205337944776013 
2277	 0.20285674655645 
2278	 0.200452035395761 
2279	 0.198082294523175 
2280	 0.195660270469658 
2281	 0.193301307777094 
2282	 0.190855485712301 
2283	 0.188346946910608 
2284	 0.185804683010852 
2285	 0.183056321211895 
2286	 0.180358029909917 
2287	 0.177563697751473 
2288	 0.174590467119436 
2289	 0.171732918034841 
2290	 0.16877929856814 
2291	 0.165868707860998 
2292	 0.16301763167674 
2293	 0.159945213969877 
2294	 0.156931182298089 
2295	 0.153853893894412 
2296	 0.150781206160315 
2297	 0.148134540011128 
2298	 0.145745111972812 
2299	 0.143535818998834 
2300	 0.141600505242791 
2301	 0.139962117771021 
2302	 0.138478749695679 
2303	 0.137493521163765 
2304	 0.136959359053868 
2305	 0.136615967167737 
2306	 0.136625989531313 
2307	 0.136975597314837 
2308	 0.137607396415115 
2309	 0.138610137166558 
2310	 0.140020251344534 
2311	 0.141675928598995 
2312	 0.143792387889556 
2313	 0.145978390490287 
2314	 0.148595798595167 
2315	 0.151005151038646 
2316	 0.153472507292844 
2317	 0.155844561195994 
2318	 0.158201591884714 
2319	 0.160444124254423 
2320	 0.162835066867375 
2321	 0.164702557691696 
2322	 0.166322594118625 
2323	 0.16764445625154 
2324	 0.168416010339592 
2325	 0.169219406345493 
2326	 0.169942172775374 
2327	 0.170347734113745 
2328	 0.170621049898909 
2329	 0.170556066201216 
2330	 0.170114014214529 
2331	 0.169441794679173 
2332	 0.16863726721335 
2333	 0.167760485813088 
2334	 0.16676258254638 
2335	 0.165550387441821 
2336	 0.164064263719101 
2337	 0.16239825401867 
2338	 0.160806278728767 
2339	 0.159237359217286 
2340	 0.157530704300856 
2341	 0.155824847399853 
2342	 0.154041871009797 
2343	 0.152098171125845 
2344	 0.150582123694781 
2345	 0.149488446635265 
2346	 0.148575945788209 
2347	 0.148244773167449 
2348	 0.148042816760071 
2349	 0.14817352275089 
2350	 0.149030521688199 
2351	 0.149985908554575 
2352	 0.151446603874622 
2353	 0.153304731383068 
2354	 0.155030425394359 
2355	 0.156974202347312 
2356	 0.158466522385017 
2357	 0.159708936318587 
2358	 0.160923339208238 
2359	 0.16177041006051 
2360	 0.162774956211148 
2361	 0.163481335998439 
2362	 0.163655394895729 
2363	 0.163730231239354 
2364	 0.163874163814825 
2365	 0.164113129687217 
2366	 0.164398293487018 
2367	 0.164452021504217 
2368	 0.164224854818473 
2369	 0.163804971093493 
2370	 0.163328820208412 
2371	 0.163113163999909 
2372	 0.162982118840984 
2373	 0.162976918640201 
2374	 0.162780316611669 
2375	 0.162485012867781 
2376	 0.162778057829896 
2377	 0.163005550036917 
2378	 0.163111489863095 
2379	 0.163407621126724 
2380	 0.16301333979847 
2381	 0.162397504636002 
2382	 0.162291420094491 
2383	 0.16258161327723 
2384	 0.162583610417712 
2385	 0.162810006669347 
2386	 0.162748741025821 
2387	 0.162250181537234 
2388	 0.162181614240466 
2389	 0.162303152563966 
2390	 0.162369007436206 
2391	 0.16269941553052 
2392	 0.16270686591559 
2393	 0.16238103115646 
2394	 0.162427492673899 
2395	 0.162612389975851 
2396	 0.162603108347103 
2397	 0.16265618709123 
2398	 0.162714622865653 
2399	 0.162439539404501 
2400	 0.162613967133907 
2401	 0.163392789634765 
2402	 0.163538659319409 
2403	 0.163455709895223 
2404	 0.163331647632933 
2405	 0.163288582355957 
2406	 0.163260552755928 
2407	 0.163452698104197 
2408	 0.163895069680693 
2409	 0.164160897218572 
2410	 0.164480556983325 
2411	 0.164594314753943 
2412	 0.1642978100305 
2413	 0.163975469620559 
2414	 0.163484861003315 
2415	 0.163347538643513 
2416	 0.163710092332527 
2417	 0.163815489728497 
2418	 0.16385942322137 
2419	 0.163865667600195 
2420	 0.16357308718512 
2421	 0.163417487400464 
2422	 0.16355916110316 
2423	 0.163610929376823 
2424	 0.163382124268896 
2425	 0.163438445315607 
2426	 0.163481170411196 
2427	 0.163511403056664 
2428	 0.164080154905752 
2429	 0.163873717707585 
2430	 0.163372796857594 
2431	 0.163486812045811 
2432	 0.162752829222832 
2433	 0.162343929218791 
2434	 0.162757176212636 
2435	 0.162328336358189 
2436	 0.16231139785668 
2437	 0.162899362757859 
2438	 0.163383782668272 
2439	 0.163857926789082 
2440	 0.164084453350366 
2441	 0.163959459298882 
2442	 0.163307418851801 
2443	 0.16287307554164 
2444	 0.163178516695796 
2445	 0.163883030815252 
2446	 0.16416572036496 
2447	 0.16400514077188 
2448	 0.163585857626088 
2449	 0.162830887147596 
2450	 0.162680950081844 
2451	 0.162743389170768 
2452	 0.162343067261416 
2453	 0.161769361725296 
2454	 0.161074770803106 
2455	 0.161058348080707 
2456	 0.16176929503224 
2457	 0.162403579918558 
2458	 0.162863715762334 
2459	 0.162726740869048 
2460	 0.162088169053907 
2461	 0.161547969891686 
2462	 0.161163545280083 
2463	 0.161315097038942 
2464	 0.161719788628919 
2465	 0.162406820696285 
2466	 0.162924743536125 
2467	 0.16314819365401 
2468	 0.163782497783288 
2469	 0.163691254836099 
2470	 0.163756970562707 
2471	 0.163550048435309 
2472	 0.162287682822671 
2473	 0.162211135008263 
2474	 0.16269290195194 
2475	 0.162908340402604 
2476	 0.162870995311283 
2477	 0.162780179094273 
2478	 0.163130270576943 
2479	 0.163952625310201 
2480	 0.165354130002613 
2481	 0.165500802585683 
2482	 0.16399688774451 
2483	 0.163318157076384 
2484	 0.163864324208443 
2485	 0.164151233910997 
2486	 0.164669241896494 
2487	 0.16558532301883 
2488	 0.16611654368024 
2489	 0.166997149133657 
2490	 0.167794442232081 
2491	 0.168519454504096 
2492	 0.168586327166913 
2493	 0.168889700307815 
2494	 0.169719479276346 
2495	 0.170069558362416 
2496	 0.171808744018541 
2497	 0.173582561761284 
2498	 0.174775831024264 
2499	 0.176035841073942 
2500	 0.176729153112644 
