Wavelength	Tablay400041.asd
350	 0.106945535641115 
351	 0.118465547247129 
352	 9.77762486824917E-02 
353	 5.49903051204741E-02 
354	 0.10602885566382 
355	 0.14203240203 
356	 0.136967096574162 
357	 0.109211030661364 
358	 0.154636343458199 
359	 0.186788429805901 
360	 0.196092551419112 
361	 0.196174505111662 
362	 0.120026945037807 
363	 9.62488251656191E-02 
364	 0.140943130879315 
365	 7.42326770523054E-02 
366	 0.076792499574586 
367	 0.108006528560031 
368	 0.105023672686037 
369	 0.101302675501659 
370	 0.104374405445225 
371	 0.113435052226267 
372	 0.119999645624435 
373	 0.112509779939239 
374	 0.10245716708834 
375	 9.86091500222238E-02 
376	 0.103184793455685 
377	 8.37260902564716E-02 
378	 8.74367269132452E-02 
379	 0.129469458042805 
380	 7.09154097483998E-02 
381	 3.98948857279612E-02 
382	 6.92883028892851E-02 
383	 0.10902598563774 
384	 7.09467353252191E-02 
385	 3.97104198731932E-02 
386	 4.78673134377544E-02 
387	 2.89662112034973E-02 
388	 5.88770884114932E-02 
389	 9.55794064956662E-02 
390	 9.22086875036297E-02 
391	 0.097619935184945 
392	 9.62060911161729E-02 
393	 8.39477878992609E-02 
394	 6.56718454382169E-02 
395	 6.09837008475189E-02 
396	 6.21208966973465E-02 
397	 6.17267073867423E-02 
398	 6.05822381469492E-02 
399	 6.52434424433137E-02 
400	 7.53538101830513E-02 
401	 8.58170342275647E-02 
402	 8.42001267979968E-02 
403	 7.52145148135093E-02 
404	 6.74955922539049E-02 
405	 7.08797609697952E-02 
406	 7.24008833868059E-02 
407	 7.49798612331378E-02 
408	 7.81349694061008E-02 
409	 6.83087837832706E-02 
410	 7.42259311183604E-02 
411	 8.15018194157319E-02 
412	 7.22555405959774E-02 
413	 8.12781951928163E-02 
414	 8.05147829172545E-02 
415	 6.92519135028914E-02 
416	 7.21310212757781E-02 
417	 7.21443840319499E-02 
418	 6.75700921246202E-02 
419	 6.22092870576662E-02 
420	 6.72662351342628E-02 
421	 6.33417541394348E-02 
422	 5.93931828108172E-02 
423	 6.99914247039706E-02 
424	 0.067727800779165 
425	 6.26292852602087E-02 
426	 6.26300326896291E-02 
427	 7.00398992156149E-02 
428	 0.06321965884495 
429	 0.055072818051473 
430	 5.75687409487296E-02 
431	 5.80747684525869E-02 
432	 5.53527764727358E-02 
433	 5.37636091843563E-02 
434	 5.89384264463714E-02 
435	 5.89885351561421E-02 
436	 5.92482820554566E-02 
437	 6.08158239333914E-02 
438	 5.54266298082704E-02 
439	 5.34100298127049E-02 
440	 5.43877899515975E-02 
441	 5.55374062344424E-02 
442	 5.79985501476943E-02 
443	 5.87379756606458E-02 
444	 5.74252025384215E-02 
445	 0.055929954040464 
446	 5.41095336242757E-02 
447	 5.31533524927733E-02 
448	 5.39771723407555E-02 
449	 0.057177220766139 
450	 0.057151899427447 
451	 0.055743261250383 
452	 0.056658615433816 
453	 0.056044765410451 
454	 5.51153465477236E-02 
455	 5.53046040881946E-02 
456	 5.77902670792616E-02 
457	 5.65402683182084E-02 
458	 5.44119672540608E-02 
459	 5.43217721400988E-02 
460	 5.33408713451122E-02 
461	 5.41873171394478E-02 
462	 5.54527469144008E-02 
463	 5.42189333452842E-02 
464	 5.50567190536636E-02 
465	 5.40526368298607E-02 
466	 5.12263705486798E-02 
467	 5.37960703939229E-02 
468	 5.40714930681851E-02 
469	 5.31228180956722E-02 
470	 5.34097203677357E-02 
471	 5.23355067492418E-02 
472	 5.18377251696656E-02 
473	 5.25476270802516E-02 
474	 5.38411842981555E-02 
475	 5.31641969071552E-02 
476	 5.31535793853584E-02 
477	 5.49782712066302E-02 
478	 5.51915984674239E-02 
479	 0.053008804405869 
480	 5.14322205789731E-02 
481	 5.34678424402356E-02 
482	 5.23983764269963E-02 
483	 5.13682421091653E-02 
484	 5.16452684729933E-02 
485	 5.16868254235391E-02 
486	 5.24539490106806E-02 
487	 5.21714040131226E-02 
488	 5.02553114193466E-02 
489	 5.13223431533855E-02 
490	 5.27209490283478E-02 
491	 5.29351724308626E-02 
492	 5.15791956007116E-02 
493	 5.20801868864894E-02 
494	 5.19731179083585E-02 
495	 5.07847165083236E-02 
496	 5.24685877917208E-02 
497	 5.23744413727364E-02 
498	 5.10979156071444E-02 
499	 5.06027558832838E-02 
500	 5.13654654450429E-02 
501	 0.051902708177788 
502	 5.20351726565368E-02 
503	 5.26763024284381E-02 
504	 5.21688821204663E-02 
505	 5.13452382708651E-02 
506	 5.12081262020803E-02 
507	 5.23266402200531E-02 
508	 5.24065529902948E-02 
509	 5.14828203872556E-02 
510	 0.050760751475297 
511	 5.15234471434036E-02 
512	 5.20254728616038E-02 
513	 5.16239301112223E-02 
514	 5.13784515966525E-02 
515	 5.07432831442453E-02 
516	 0.05061731161763 
517	 5.14545715373445E-02 
518	 5.09990770285086E-02 
519	 5.11224290718404E-02 
520	 5.16334845386203E-02 
521	 5.10950283272874E-02 
522	 5.12109315997659E-02 
523	 5.17570239728913E-02 
524	 5.20796751042153E-02 
525	 5.10576116745965E-02 
526	 0.05113621410938 
527	 5.16016082950552E-02 
528	 5.11079061280534E-02 
529	 5.15059701044936E-02 
530	 5.18122060061226E-02 
531	 5.17536156463764E-02 
532	 5.19521772741095E-02 
533	 5.22121683398842E-02 
534	 5.22715599926155E-02 
535	 5.21021868970803E-02 
536	 5.24048238639066E-02 
537	 5.25802213968253E-02 
538	 5.25543635761733E-02 
539	 5.25734656450438E-02 
540	 0.052956420309724 
541	 0.053171041964101 
542	 0.053058938697801 
543	 5.31789536375694E-02 
544	 5.35171476727898E-02 
545	 5.37472724546491E-02 
546	 5.36663965546154E-02 
547	 5.41178501614759E-02 
548	 5.44518530634204E-02 
549	 5.45538667126695E-02 
550	 5.48137072674899E-02 
551	 5.51085784875246E-02 
552	 5.53254159532721E-02 
553	 5.54663273736625E-02 
554	 5.58349238206004E-02 
555	 5.61039797093879E-02 
556	 5.63887083828411E-02 
557	 5.69397391398986E-02 
558	 0.057393093341352 
559	 5.75704457338789E-02 
560	 5.77488870993761E-02 
561	 0.058807693159932 
562	 5.92521857853509E-02 
563	 5.96866596334732E-02 
564	 6.07241654816514E-02 
565	 6.06867310362021E-02 
566	 6.09788582289275E-02 
567	 0.061621751462319 
568	 6.16826075806566E-02 
569	 6.24086547470563E-02 
570	 0.062943132065125 
571	 6.29411970055738E-02 
572	 6.37773870961752E-02 
573	 6.45629525044234E-02 
574	 6.52559754356077E-02 
575	 6.60532324039898E-02 
576	 6.66971584298897E-02 
577	 6.72402083209071E-02 
578	 6.78064570516517E-02 
579	 6.85648023040602E-02 
580	 6.91501895142954E-02 
581	 6.97325896906108E-02 
582	 7.04763616851332E-02 
583	 7.11127966945946E-02 
584	 0.071889305418907 
585	 7.27040054912554E-02 
586	 7.33006464762954E-02 
587	 7.40190088783105E-02 
588	 0.074865992716582 
589	 0.075729051446097 
590	 0.07635004252911 
591	 7.73432415965501E-02 
592	 7.84222273553326E-02 
593	 7.91488493261553E-02 
594	 7.96909736065317E-02 
595	 8.04208819333058E-02 
596	 8.12656199445259E-02 
597	 8.18091177331079E-02 
598	 8.27989205423624E-02 
599	 8.37021912755714E-02 
600	 8.42067196715129E-02 
601	 8.50639099377331E-02 
602	 8.58699888139784E-02 
603	 8.67295702512369E-02 
604	 8.78278045879168E-02 
605	 8.84192091203928E-02 
606	 8.91385260530848E-02 
607	 9.01602913481609E-02 
608	 9.09571878369304E-02 
609	 9.15322999251675E-02 
610	 0.092056862810057 
611	 9.27161047724172E-02 
612	 9.35429832916079E-02 
613	 9.44712220433907E-02 
614	 9.53461499933845E-02 
615	 9.59969012766544E-02 
616	 9.66384776516265E-02 
617	 9.72862341050882E-02 
618	 9.79507106371463E-02 
619	 9.86845784285489E-02 
620	 9.94989185372785E-02 
621	 0.100198219587515 
622	 0.100643713697901 
623	 0.101284867527477 
624	 0.101894354727609 
625	 0.10251016113148 
626	 0.103402360882654 
627	 0.103911313604523 
628	 0.104293184368337 
629	 0.104858073940968 
630	 0.10561829043339 
631	 0.106371980275031 
632	 0.10695131928433 
633	 0.107295961663004 
634	 0.107884023619534 
635	 0.108610136059805 
636	 0.109275641248541 
637	 0.109638723744877 
638	 0.110151210600942 
639	 0.110822801158193 
640	 0.111503094268722 
641	 0.111909265035414 
642	 0.112404463755325 
643	 0.112992624022149 
644	 0.113473789580737 
645	 0.113978527035603 
646	 0.114558760526034 
647	 0.11518738630055 
648	 0.115725978421034 
649	 0.11630406766873 
650	 0.116843163345496 
651	 0.117293440940323 
652	 0.118003915752219 
653	 0.118611342972763 
654	 0.119067701198301 
655	 0.119591577289359 
656	 0.120148176379091 
657	 0.120721893774258 
658	 0.12127946407065 
659	 0.12173365987588 
660	 0.122333994977653 
661	 0.123005473865614 
662	 0.123579852255741 
663	 0.124112700068089 
664	 0.124708217412639 
665	 0.125338582622764 
666	 0.125851984482437 
667	 0.126436404283623 
668	 0.127049108786992 
669	 0.127645733621879 
670	 0.128307550093251 
671	 0.128909125316198 
672	 0.129480559075963 
673	 0.130111248625377 
674	 0.130761809089277 
675	 0.131339375058985 
676	 0.131886983533905 
677	 0.132606988727195 
678	 0.133299269872001 
679	 0.133909666559897 
680	 0.134472913385497 
681	 0.135176979257786 
682	 0.135891311925825 
683	 0.136567243497154 
684	 0.137215113680075 
685	 0.137918742623344 
686	 0.138643218155284 
687	 0.139339101247286 
688	 0.139956163074991 
689	 0.140755988797326 
690	 0.141528154265551 
691	 0.142104125210117 
692	 0.142912399920333 
693	 0.143662475188854 
694	 0.144324243353797 
695	 0.145030045143272 
696	 0.145758364966132 
697	 0.146451682212969 
698	 0.147123231122503 
699	 0.14790753503451 
700	 0.148595800464981 
701	 0.14928340764823 
702	 0.150085709256631 
703	 0.150853857741558 
704	 0.151554229603795 
705	 0.15220276972628 
706	 0.152850971234011 
707	 0.1535401459515 
708	 0.154217778186161 
709	 0.154874002691448 
710	 0.155594969015398 
711	 0.156239474704968 
712	 0.156865200352935 
713	 0.157558602513193 
714	 0.158266869357576 
715	 0.158985971942119 
716	 0.159648620358903 
717	 0.16017472477436 
718	 0.160838430773718 
719	 0.161496905730149 
720	 0.16205630794284 
721	 0.162598681603778 
722	 0.163208678571246 
723	 0.163746475854895 
724	 0.164125081345916 
725	 0.164759358555825 
726	 0.165338895240985 
727	 0.165795505212798 
728	 0.166250442019475 
729	 0.166782165319063 
730	 0.167253789390683 
731	 0.167610227172595 
732	 0.167972145837061 
733	 0.168400368607119 
734	 0.168811966575859 
735	 0.169133938968368 
736	 0.169510267314076 
737	 0.169865517673388 
738	 0.170121949545091 
739	 0.170244272028981 
740	 0.170566467300761 
741	 0.170916201371043 
742	 0.171155797837667 
743	 0.171295298934817 
744	 0.171506875092329 
745	 0.171723954501649 
746	 0.171855555485165 
747	 0.171974461993956 
748	 0.172030118805394 
749	 0.172042183818971 
750	 0.172080556761017 
751	 0.172270767197173 
752	 0.172378520509486 
753	 0.172337874872157 
754	 0.172343054963497 
755	 0.172313681132876 
756	 0.172230630862515 
757	 0.172107651425911 
758	 0.172006807541921 
759	 0.17197274172303 
760	 0.171920990987988 
761	 0.17174989138908 
762	 0.171680825913606 
763	 0.171548753009617 
764	 0.171328213215797 
765	 0.171165986038269 
766	 0.171040930183242 
767	 0.17086055061819 
768	 0.170582943355363 
769	 0.170301328891258 
770	 0.170125441759022 
771	 0.169971132663376 
772	 0.169711167541719 
773	 0.169418226667009 
774	 0.16911979957278 
775	 0.168857137727935 
776	 0.168661673670668 
777	 0.168329993050709 
778	 0.167933143233646 
779	 0.16759821382348 
780	 0.167480776176468 
781	 0.167078859082709 
782	 0.166607697059725 
783	 0.166350746533381 
784	 0.166060600614522 
785	 0.165734232641022 
786	 0.165351696630872 
787	 0.164913983551182 
788	 0.164601971777699 
789	 0.164314467442168 
790	 0.16397778223891 
791	 0.163587655624626 
792	 0.163173862089101 
793	 0.162816640654295 
794	 0.162531690358241 
795	 0.162162503247519 
796	 0.161789882479986 
797	 0.161436807121575 
798	 0.16110023632786 
799	 0.160756719885845 
800	 0.160350515465752 
801	 0.159942912490232 
802	 0.159658095530256 
803	 0.159301243638264 
804	 0.158902043473132 
805	 0.158504404478795 
806	 0.158124510445281 
807	 0.15778661958283 
808	 0.157461851260227 
809	 0.157130324177922 
810	 0.156852941430408 
811	 0.156484103658626 
812	 0.156098028883162 
813	 0.155833192177259 
814	 0.15558609344313 
815	 0.155243632866764 
816	 0.154868364358782 
817	 0.154647190760425 
818	 0.154296738227761 
819	 0.153965583323284 
820	 0.1537453509729 
821	 0.153528969215589 
822	 0.153282107761416 
823	 0.152970193863025 
824	 0.152635030299306 
825	 0.152557267725947 
826	 0.15225934945268 
827	 0.151844405251801 
828	 0.151621189307961 
829	 0.151349423103533 
830	 0.151149731819325 
831	 0.151040699392241 
832	 0.150923404506159 
833	 0.15061269209058 
834	 0.150304996243361 
835	 0.150138113946312 
836	 0.150064903996957 
837	 0.14993872949803 
838	 0.149733752322789 
839	 0.149508954625051 
840	 0.149448062990109 
841	 0.14943288505909 
842	 0.149314256388243 
843	 0.149028323071403 
844	 0.148960519178097 
845	 0.148940176099005 
846	 0.148863919047423 
847	 0.148718999951242 
848	 0.148658308387849 
849	 0.148505378529966 
850	 0.148304770653491 
851	 0.148391878208924 
852	 0.148283405743147 
853	 0.148138936020886 
854	 0.148132374846479 
855	 0.14819007553967 
856	 0.14809522340693 
857	 0.148030280956581 
858	 0.148166099757592 
859	 0.148139956695105 
860	 0.148127889738172 
861	 0.148146811036051 
862	 0.148137871505366 
863	 0.148112805771879 
864	 0.14819552615204 
865	 0.148337802544598 
866	 0.148358737635824 
867	 0.148360462646679 
868	 0.148400737619289 
869	 0.148485181371867 
870	 0.148558941689488 
871	 0.148752172842205 
872	 0.14888265931977 
873	 0.148877692721817 
874	 0.149045434608413 
875	 0.149291733508956 
876	 0.149427555553733 
877	 0.149377916940121 
878	 0.149563337126465 
879	 0.149822802330484 
880	 0.149996502298835 
881	 0.150013058371965 
882	 0.150231401170446 
883	 0.150470462240273 
884	 0.15068776982744 
885	 0.150953423943813 
886	 0.151140049189018 
887	 0.151320653208808 
888	 0.151538905599853 
889	 0.151778989389775 
890	 0.152085523638068 
891	 0.15243041637737 
892	 0.152731826576167 
893	 0.152847875168805 
894	 0.153130244129065 
895	 0.153424516211931 
896	 0.153628610931202 
897	 0.154148937467849 
898	 0.154391046019214 
899	 0.154572858839133 
900	 0.155039093736707 
901	 0.155484828357721 
902	 0.155934715697148 
903	 0.156322876923213 
904	 0.156580722654577 
905	 0.156823617480492 
906	 0.157178896416133 
907	 0.157634172380843 
908	 0.158079436716897 
909	 0.158512801125093 
910	 0.15892218899148 
911	 0.159343863041593 
912	 0.159849772716955 
913	 0.160384949199019 
914	 0.160842660493801 
915	 0.161250584528268 
916	 0.161807499720879 
917	 0.162184147196261 
918	 0.162624286775902 
919	 0.16323789679697 
920	 0.163682446355484 
921	 0.164173981614282 
922	 0.164732556419695 
923	 0.165341282504052 
924	 0.166023293272524 
925	 0.166741339096466 
926	 0.167323885051357 
927	 0.167723522251586 
928	 0.168416906309939 
929	 0.169138616583711 
930	 0.169737009871813 
931	 0.170206350288941 
932	 0.170925810062364 
933	 0.171452691344501 
934	 0.171935528039941 
935	 0.17275086669785 
936	 0.173588036598018 
937	 0.174257071398286 
938	 0.174857455758501 
939	 0.175623717505354 
940	 0.176259903853964 
941	 0.177067861438911 
942	 0.17792300415764 
943	 0.178403241109605 
944	 0.179120570664395 
945	 0.179956424067443 
946	 0.180756479613731 
947	 0.181449743401945 
948	 0.182261197064287 
949	 0.18308739442355 
950	 0.183803105159113 
951	 0.184358245944489 
952	 0.185288233145481 
953	 0.186218464560614 
954	 0.186904825981475 
955	 0.187557337522817 
956	 0.188493429336981 
957	 0.1894508679527 
958	 0.19025062606764 
959	 0.191081080343384 
960	 0.191858438605383 
961	 0.192757306103641 
962	 0.193802333728738 
963	 0.194639374580612 
964	 0.195501690619615 
965	 0.196208661720921 
966	 0.19672057576092 
967	 0.1975152642693 
968	 0.198404654029186 
969	 0.199319472996005 
970	 0.200239437527391 
971	 0.201199952642459 
972	 0.202097755553679 
973	 0.202945334749866 
974	 0.203851699427306 
975	 0.205128007142001 
976	 0.205593904156191 
977	 0.206112122711159 
978	 0.207488208479033 
979	 0.208244969354702 
980	 0.209225189178172 
981	 0.210118898602592 
982	 0.210649159157451 
983	 0.211898376324409 
984	 0.212516227770337 
985	 0.213092410620496 
986	 0.214402400878084 
987	 0.215486481909596 
988	 0.216301542235002 
989	 0.217177314729641 
990	 0.21830110788234 
991	 0.21881137614702 
992	 0.219887804351271 
993	 0.22098428084237 
994	 0.221437371921768 
995	 0.222446766168549 
996	 0.22327508399282 
997	 0.223897214995094 
998	 0.22459144670656 
999	 0.225757004158329 
1000	 0.22649289619469 
1001	 0.228184512527588 
1002	 0.228945537035823 
1003	 0.230001319721938 
1004	 0.23084447487116 
1005	 0.231443617980559 
1006	 0.232300371957741 
1007	 0.233284623934175 
1008	 0.234227272386375 
1009	 0.235282413682548 
1010	 0.236145768365594 
1011	 0.236943073613838 
1012	 0.237701916424818 
1013	 0.238235157746509 
1014	 0.23897375307014 
1015	 0.239773091018104 
1016	 0.240731331247345 
1017	 0.241437550627413 
1018	 0.242180946001496 
1019	 0.243088863186741 
1020	 0.243952299458028 
1021	 0.244763209123697 
1022	 0.245744476718525 
1023	 0.246501518651631 
1024	 0.246947097223396 
1025	 0.247643577569968 
1026	 0.24845453372668 
1027	 0.249233746973962 
1028	 0.250129060136442 
1029	 0.250871787101605 
1030	 0.251481566962831 
1031	 0.252167547528631 
1032	 0.252864938116059 
1033	 0.253501767655906 
1034	 0.254163552764845 
1035	 0.254823260338528 
1036	 0.255508881289755 
1037	 0.256211972894249 
1038	 0.256858901666755 
1039	 0.2575466697154 
1040	 0.258194553151236 
1041	 0.258711065233706 
1042	 0.259296243880422 
1043	 0.259922528707488 
1044	 0.260532647075334 
1045	 0.261238724296144 
1046	 0.261903560343558 
1047	 0.262497526747235 
1048	 0.263122640749458 
1049	 0.263561567779252 
1050	 0.264052115800916 
1051	 0.264763111056997 
1052	 0.265455582862763 
1053	 0.266121831869504 
1054	 0.266857954495072 
1055	 0.267512826400851 
1056	 0.26810228975141 
1057	 0.268713378146018 
1058	 0.269267000526474 
1059	 0.269977752514272 
1060	 0.270603686687137 
1061	 0.271010884466294 
1062	 0.271746618781716 
1063	 0.272392426945099 
1064	 0.272973969128665 
1065	 0.273764157137572 
1066	 0.274298424290206 
1067	 0.274724257217317 
1068	 0.275242790780429 
1069	 0.275792562094385 
1070	 0.276447585619535 
1071	 0.277185885332292 
1072	 0.277991269314261 
1073	 0.278708412869766 
1074	 0.279324931008297 
1075	 0.2798728497061 
1076	 0.280394164263056 
1077	 0.280995905976039 
1078	 0.28163437300485 
1079	 0.282410111163345 
1080	 0.283109088357843 
1081	 0.283589051052519 
1082	 0.284326780840022 
1083	 0.28502638091666 
1084	 0.285514552741971 
1085	 0.286143516232311 
1086	 0.286708198780756 
1087	 0.287160159317165 
1088	 0.287574887131248 
1089	 0.288251622088229 
1090	 0.288893536914097 
1091	 0.289477593803371 
1092	 0.290039834478863 
1093	 0.290498902775159 
1094	 0.290994608147507 
1095	 0.291562253008532 
1096	 0.292084548976275 
1097	 0.292577371917117 
1098	 0.293094237836927 
1099	 0.293672379155319 
1100	 0.294283815195218 
1101	 0.294831702495829 
1102	 0.295387244536059 
1103	 0.295868676283815 
1104	 0.296267282843334 
1105	 0.296609396274971 
1106	 0.297103083096698 
1107	 0.297562440695862 
1108	 0.298007067825165 
1109	 0.298610530917597 
1110	 0.299103051287104 
1111	 0.299480794381628 
1112	 0.299962687664606 
1113	 0.300444286387979 
1114	 0.300915615332357 
1115	 0.301445298966175 
1116	 0.302007300465752 
1117	 0.302444418692243 
1118	 0.302881680320614 
1119	 0.303344616674706 
1120	 0.303745299959148 
1121	 0.304072642980085 
1122	 0.304409997059669 
1123	 0.304772931832802 
1124	 0.305090078887869 
1125	 0.305474970036493 
1126	 0.30593604427456 
1127	 0.306399731555811 
1128	 0.306761218849747 
1129	 0.307079879489557 
1130	 0.307467362480097 
1131	 0.307861238295293 
1132	 0.308236841521932 
1133	 0.308631747557215 
1134	 0.309000261918579 
1135	 0.309388886521588 
1136	 0.309772014672717 
1137	 0.310166577275589 
1138	 0.310603629818936 
1139	 0.31097249904252 
1140	 0.311296578783958 
1141	 0.311646627417562 
1142	 0.311930127845638 
1143	 0.312245779868903 
1144	 0.312573474064558 
1145	 0.312837108825916 
1146	 0.313087771986537 
1147	 0.313396245400007 
1148	 0.313745992012929 
1149	 0.314030294006145 
1150	 0.31434002751535 
1151	 0.314667151426681 
1152	 0.314963704467092 
1153	 0.315217301695192 
1154	 0.315496403470652 
1155	 0.315793086106673 
1156	 0.316070618857136 
1157	 0.316306756374603 
1158	 0.316592362947126 
1159	 0.316905488525431 
1160	 0.31721100598273 
1161	 0.317520815210387 
1162	 0.317827812517101 
1163	 0.318115083994544 
1164	 0.318396514978252 
1165	 0.318665386502835 
1166	 0.318937882348087 
1167	 0.319245572582935 
1168	 0.319502303392969 
1169	 0.319740138955702 
1170	 0.319940908763601 
1171	 0.320213899222964 
1172	 0.320486503082139 
1173	 0.320773655589466 
1174	 0.321162987302418 
1175	 0.321424737611647 
1176	 0.321568204406861 
1177	 0.32179922579126 
1178	 0.322001796633892 
1179	 0.322289382177105 
1180	 0.322556625011429 
1181	 0.322806532768424 
1182	 0.323086254333887 
1183	 0.323301435595964 
1184	 0.323519060645103 
1185	 0.323773886419564 
1186	 0.324006905423391 
1187	 0.324168280163522 
1188	 0.324406896499768 
1189	 0.324716560986918 
1190	 0.324981861403699 
1191	 0.325241482990422 
1192	 0.325506298317481 
1193	 0.325760956823981 
1194	 0.326016139947012 
1195	 0.326288227387994 
1196	 0.32653753405545 
1197	 0.326753020839456 
1198	 0.32700363157118 
1199	 0.327249527591474 
1200	 0.327549809900333 
1201	 0.327946103868013 
1202	 0.328298965102263 
1203	 0.328640733560094 
1204	 0.328989608406316 
1205	 0.329295604815797 
1206	 0.32950986583673 
1207	 0.329853138753191 
1208	 0.330241900669285 
1209	 0.330604462334958 
1210	 0.331003970986935 
1211	 0.331419753463096 
1212	 0.331819415550212 
1213	 0.332258167265698 
1214	 0.332746827570855 
1215	 0.333240403939666 
1216	 0.33372609246533 
1217	 0.334244265291822 
1218	 0.334812882992033 
1219	 0.335384681057081 
1220	 0.335945965090482 
1221	 0.336451412507238 
1222	 0.336933453595521 
1223	 0.337537198289237 
1224	 0.338095818275113 
1225	 0.338689245697533 
1226	 0.339237718435293 
1227	 0.339775338361698 
1228	 0.340272067017852 
1229	 0.340716906292066 
1230	 0.3412144770901 
1231	 0.341739644554925 
1232	 0.342205792173865 
1233	 0.34263867839519 
1234	 0.343113413554296 
1235	 0.343555955449458 
1236	 0.344012439957065 
1237	 0.344562054122702 
1238	 0.345049064835307 
1239	 0.345497732067329 
1240	 0.345919596259414 
1241	 0.346331185603426 
1242	 0.346656620931416 
1243	 0.347046520840219 
1244	 0.347404530429317 
1245	 0.347827547695116 
1246	 0.348328239538457 
1247	 0.348757599458016 
1248	 0.349198223485937 
1249	 0.349590197083859 
1250	 0.349915083924096 
1251	 0.350275247878535 
1252	 0.350662835544984 
1253	 0.350978452080772 
1254	 0.351240037891032 
1255	 0.351558712927963 
1256	 0.351842897128658 
1257	 0.352149590448022 
1258	 0.352568686174994 
1259	 0.352880685800652 
1260	 0.353055818623505 
1261	 0.353336830230961 
1262	 0.353639820691172 
1263	 0.353958285597801 
1264	 0.354242437719389 
1265	 0.354571094848094 
1266	 0.354881141171185 
1267	 0.35515806923477 
1268	 0.355398523090864 
1269	 0.355641664995 
1270	 0.355905140748843 
1271	 0.356084677002217 
1272	 0.356349392181102 
1273	 0.356727350345059 
1274	 0.357032851013787 
1275	 0.357309683692609 
1276	 0.357599288651552 
1277	 0.357870618278213 
1278	 0.358166729794934 
1279	 0.358475594241281 
1280	 0.35878550713756 
1281	 0.359091439131177 
1282	 0.359431379963544 
1283	 0.359791967391226 
1284	 0.360158253659061 
1285	 0.360540296082595 
1286	 0.36095098293257 
1287	 0.361363278866933 
1288	 0.361789846213622 
1289	 0.362192731635393 
1290	 0.362626377620801 
1291	 0.362987184282227 
1292	 0.363287962425636 
1293	 0.363616088781833 
1294	 0.363882631697014 
1295	 0.364245234102286 
1296	 0.364666592290076 
1297	 0.365068853093164 
1298	 0.365517990340073 
1299	 0.365943657547347 
1300	 0.366367391416013 
1301	 0.366763154627082 
1302	 0.367148863657991 
1303	 0.367528382825942 
1304	 0.367889454771497 
1305	 0.368229832627417 
1306	 0.368554213991496 
1307	 0.368881962067953 
1308	 0.369170952400593 
1309	 0.369480221562081 
1310	 0.369809452158403 
1311	 0.370181268291133 
1312	 0.370477163227273 
1313	 0.370765827969565 
1314	 0.371019514187414 
1315	 0.371187068022194 
1316	 0.371449836479178 
1317	 0.371742068470331 
1318	 0.372026687557609 
1319	 0.372365266739646 
1320	 0.37264529043809 
1321	 0.372891123110464 
1322	 0.373141980076397 
1323	 0.37337813344089 
1324	 0.373609824594732 
1325	 0.373844554648949 
1326	 0.374057213504715 
1327	 0.374255623924248 
1328	 0.37444297100888 
1329	 0.374618574137288 
1330	 0.374778668770646 
1331	 0.374897872793523 
1332	 0.375049097045843 
1333	 0.37520311450642 
1334	 0.375360646913423 
1335	 0.375537765283914 
1336	 0.375751980615501 
1337	 0.375928728053987 
1338	 0.376112911015 
1339	 0.3762442955376 
1340	 0.376345073565326 
1341	 0.376442540579415 
1342	 0.376497803875172 
1343	 0.37658409905194 
1344	 0.376686769507072 
1345	 0.376767505629537 
1346	 0.376862357140533 
1347	 0.37691312196675 
1348	 0.376916410695735 
1349	 0.376949770942674 
1350	 0.376980432444084 
1351	 0.377000411025441 
1352	 0.377043002709208 
1353	 0.377056299461195 
1354	 0.377013354188727 
1355	 0.377010976646339 
1356	 0.377022849525896 
1357	 0.37703538531473 
1358	 0.3770826686872 
1359	 0.377102724520158 
1360	 0.377103873028 
1361	 0.37710165862795 
1362	 0.377114408758493 
1363	 0.377113170908442 
1364	 0.377106008699872 
1365	 0.377118869695522 
1366	 0.377074738407513 
1367	 0.3769842133008 
1368	 0.376929393098958 
1369	 0.376874342073852 
1370	 0.376788818636893 
1371	 0.376739469199561 
1372	 0.376593750294749 
1373	 0.376324147168602 
1374	 0.376177029509518 
1375	 0.37606780029967 
1376	 0.375902687213063 
1377	 0.375784545574248 
1378	 0.375621013955418 
1379	 0.375362968728076 
1380	 0.375150934046597 
1381	 0.374970591855201 
1382	 0.374773756717155 
1383	 0.3745601329961 
1384	 0.374357765766273 
1385	 0.374190827544368 
1386	 0.373976881597744 
1387	 0.373729188454592 
1388	 0.373494154091501 
1389	 0.373189452151778 
1390	 0.372967124013907 
1391	 0.37281013645504 
1392	 0.372641012726118 
1393	 0.372555091223461 
1394	 0.372466001655941 
1395	 0.372318511065323 
1396	 0.372146751014644 
1397	 0.371986256059277 
1398	 0.371812594837657 
1399	 0.371589196372783 
1400	 0.371376875968834 
1401	 0.371097448093651 
1402	 0.370740004947241 
1403	 0.3703834857037 
1404	 0.370020540632471 
1405	 0.36960453416523 
1406	 0.36915187691553 
1407	 0.368664980667689 
1408	 0.368121642742926 
1409	 0.367584957236365 
1410	 0.367014932813123 
1411	 0.366449723640145 
1412	 0.36586330820385 
1413	 0.365314634356394 
1414	 0.364748940142704 
1415	 0.364238862414027 
1416	 0.363749202560052 
1417	 0.363318659960723 
1418	 0.362969852349172 
1419	 0.362598005946632 
1420	 0.362289315543137 
1421	 0.3619330197255 
1422	 0.361510186430986 
1423	 0.361139347629581 
1424	 0.360759824517214 
1425	 0.360421549310079 
1426	 0.360150066592982 
1427	 0.359833291672443 
1428	 0.359549609734383 
1429	 0.359306901117044 
1430	 0.359022486112724 
1431	 0.358760837094368 
1432	 0.358428909104826 
1433	 0.358030244480596 
1434	 0.357680356184764 
1435	 0.357322248131202 
1436	 0.356955842209638 
1437	 0.3566182289512 
1438	 0.356243336348464 
1439	 0.355819861540072 
1440	 0.355427726634013 
1441	 0.35502595964433 
1442	 0.354654246612119 
1443	 0.354241078885772 
1444	 0.353971828597378 
1445	 0.353722381541117 
1446	 0.353637468122991 
1447	 0.353655718654027 
1448	 0.353817041562388 
1449	 0.354135754141207 
1450	 0.354522498146334 
1451	 0.355078884976046 
1452	 0.355632311250823 
1453	 0.356249822178349 
1454	 0.356894333653458 
1455	 0.357606699199387 
1456	 0.358303091735768 
1457	 0.359070488744943 
1458	 0.359761003079946 
1459	 0.360407777779163 
1460	 0.36105110245826 
1461	 0.36166814240028 
1462	 0.362249077474194 
1463	 0.362792950521288 
1464	 0.363347193890389 
1465	 0.363848310083324 
1466	 0.364409084087259 
1467	 0.364937964132691 
1468	 0.36545013714863 
1469	 0.365914499433897 
1470	 0.366287932588091 
1471	 0.366699537201195 
1472	 0.367081172910699 
1473	 0.367496506569363 
1474	 0.367919390072012 
1475	 0.368358223905755 
1476	 0.368827034456876 
1477	 0.369254552224697 
1478	 0.369704649328805 
1479	 0.370069175183861 
1480	 0.370379916287084 
1481	 0.370675383842736 
1482	 0.370937358443324 
1483	 0.371150027405547 
1484	 0.371303691054996 
1485	 0.371494641960462 
1486	 0.371614394861567 
1487	 0.371831770508183 
1488	 0.372117352482098 
1489	 0.37239833426498 
1490	 0.372725538101845 
1491	 0.373029839511058 
1492	 0.373292109917812 
1493	 0.37365669552522 
1494	 0.374051098669509 
1495	 0.374486779315478 
1496	 0.375024028442769 
1497	 0.375532222560553 
1498	 0.376065169284347 
1499	 0.376575221246153 
1500	 0.377071244315709 
1501	 0.37759084136621 
1502	 0.378120135520844 
1503	 0.37862192236787 
1504	 0.379125667006827 
1505	 0.379636116395101 
1506	 0.380152737784291 
1507	 0.380624318809704 
1508	 0.381127871128957 
1509	 0.381549876433256 
1510	 0.381852469147751 
1511	 0.382190444941655 
1512	 0.382523085964153 
1513	 0.382825458509904 
1514	 0.383135612726764 
1515	 0.38341201168317 
1516	 0.38360461958714 
1517	 0.383846105054499 
1518	 0.384121450239913 
1519	 0.384363138201155 
1520	 0.38462982101541 
1521	 0.384859620146405 
1522	 0.385015141035369 
1523	 0.38521408893181 
1524	 0.385347615016674 
1525	 0.385442428109954 
1526	 0.385563206808294 
1527	 0.385666070223967 
1528	 0.385757181350061 
1529	 0.385850794308979 
1530	 0.385962457088838 
1531	 0.386050942482932 
1532	 0.386165806697507 
1533	 0.386336163317308 
1534	 0.386439133576898 
1535	 0.386490829351596 
1536	 0.386601852593891 
1537	 0.386697244419544 
1538	 0.386860109701841 
1539	 0.387081005362384 
1540	 0.387297316674966 
1541	 0.38755166051371 
1542	 0.387780317696048 
1543	 0.387984546678676 
1544	 0.388259498480007 
1545	 0.388541642609964 
1546	 0.388883137397194 
1547	 0.389313664883218 
1548	 0.389699482675323 
1549	 0.390117810062957 
1550	 0.390480591181955 
1551	 0.390770085256165 
1552	 0.391167471203627 
1553	 0.391608389602286 
1554	 0.392009648043905 
1555	 0.392502199324896 
1556	 0.392871504765771 
1557	 0.393101203919878 
1558	 0.393434047465248 
1559	 0.393774489564925 
1560	 0.394121814606017 
1561	 0.394513153249203 
1562	 0.394886360652985 
1563	 0.395245257651786 
1564	 0.395608930655467 
1565	 0.396006154932366 
1566	 0.396350496171811 
1567	 0.396668712827112 
1568	 0.396969858768455 
1569	 0.397216732709179 
1570	 0.397504712378443 
1571	 0.39779146043406 
1572	 0.398093854733492 
1573	 0.398435334575809 
1574	 0.398744287432713 
1575	 0.399056211808866 
1576	 0.399340734215639 
1577	 0.399566755108777 
1578	 0.399856404170885 
1579	 0.400181591092439 
1580	 0.400470058430621 
1581	 0.400791441644391 
1582	 0.40107408146464 
1583	 0.401277058430115 
1584	 0.401540138827092 
1585	 0.401832977285096 
1586	 0.402118623503206 
1587	 0.402423002592419 
1588	 0.402720620214899 
1589	 0.403021501912693 
1590	 0.403307112390934 
1591	 0.403598341156502 
1592	 0.403868367885784 
1593	 0.404119029503644 
1594	 0.40435573731667 
1595	 0.404538510001556 
1596	 0.404785698016001 
1597	 0.405044505580556 
1598	 0.405327380140057 
1599	 0.405699824962141 
1600	 0.406003500458288 
1601	 0.406280886917298 
1602	 0.406552645346031 
1603	 0.406798367690969 
1604	 0.407033207750432 
1605	 0.407248050327531 
1606	 0.407474905361713 
1607	 0.407702288351839 
1608	 0.40790745351312 
1609	 0.408112180871638 
1610	 0.408316552480555 
1611	 0.408506696340959 
1612	 0.408681059261249 
1613	 0.408828651737426 
1614	 0.409010573504629 
1615	 0.409198941429368 
1616	 0.409379849853234 
1617	 0.409605756846769 
1618	 0.409795133930388 
1619	 0.409937082646681 
1620	 0.41009626343904 
1621	 0.410274662775051 
1622	 0.410418025143404 
1623	 0.410531936701344 
1624	 0.410660862356622 
1625	 0.410794262050646 
1626	 0.410894935974651 
1627	 0.41097544413318 
1628	 0.411067178582913 
1629	 0.411116434751603 
1630	 0.411201827168112 
1631	 0.411342676431295 
1632	 0.411462109748248 
1633	 0.411559968399273 
1634	 0.411682611943645 
1635	 0.411832625179423 
1636	 0.411946907189117 
1637	 0.412077965744472 
1638	 0.412175849241011 
1639	 0.412195429581337 
1640	 0.41227503165436 
1641	 0.412391530797028 
1642	 0.412476693603942 
1643	 0.412584905060815 
1644	 0.412667294617727 
1645	 0.412719964848988 
1646	 0.412755365638595 
1647	 0.412772682076952 
1648	 0.412792237537781 
1649	 0.412787279752255 
1650	 0.412792917708691 
1651	 0.412829544550697 
1652	 0.412816217532283 
1653	 0.412764455656577 
1654	 0.412716493746472 
1655	 0.412674108983238 
1656	 0.412585744876893 
1657	 0.412456287028758 
1658	 0.41234099404619 
1659	 0.412223350744141 
1660	 0.412052657760362 
1661	 0.41190076542783 
1662	 0.411666345758035 
1663	 0.411332763551864 
1664	 0.410995034943286 
1665	 0.410683902444832 
1666	 0.410231216259602 
1667	 0.409640644057592 
1668	 0.409106707207898 
1669	 0.408516860734966 
1670	 0.407902311655194 
1671	 0.407329759064145 
1672	 0.406681174459429 
1673	 0.405977281607111 
1674	 0.40517576085885 
1675	 0.404335367424657 
1676	 0.40344655575743 
1677	 0.402434426271619 
1678	 0.401421867890099 
1679	 0.400413151540227 
1680	 0.399311031316739 
1681	 0.398124494971479 
1682	 0.39692196521933 
1683	 0.395661913097289 
1684	 0.394389603651178 
1685	 0.39312288925739 
1686	 0.391750094905881 
1687	 0.390311996262839 
1688	 0.388843215884534 
1689	 0.387304857602684 
1690	 0.385689620390252 
1691	 0.384025523004999 
1692	 0.382363816779959 
1693	 0.380632346200804 
1694	 0.378881623713883 
1695	 0.377116639792554 
1696	 0.375322899912567 
1697	 0.373492698444549 
1698	 0.371596195176585 
1699	 0.369686021191774 
1700	 0.367777616238032 
1701	 0.365741294579782 
1702	 0.363861108688295 
1703	 0.362033582326656 
1704	 0.360273900142457 
1705	 0.358555621965429 
1706	 0.356929053973495 
1707	 0.355440164752321 
1708	 0.354003535328291 
1709	 0.35274171352747 
1710	 0.351532743803329 
1711	 0.350322985082633 
1712	 0.349308910543347 
1713	 0.348241709366108 
1714	 0.347138425624441 
1715	 0.346224123848321 
1716	 0.345246289817454 
1717	 0.344307439161709 
1718	 0.343566141961416 
1719	 0.342769513020257 
1720	 0.342030846954988 
1721	 0.34140677732646 
1722	 0.340741645735081 
1723	 0.340147774511363 
1724	 0.339639161164781 
1725	 0.339182899670666 
1726	 0.338880524174336 
1727	 0.338824189576308 
1728	 0.338925826783779 
1729	 0.339149299563911 
1730	 0.339550130637572 
1731	 0.339985535402577 
1732	 0.340442028770876 
1733	 0.341002861892293 
1734	 0.341696576544436 
1735	 0.342536573895946 
1736	 0.343477817298345 
1737	 0.344335930265623 
1738	 0.345051358091063 
1739	 0.345572632711861 
1740	 0.345906402686652 
1741	 0.346167020752526 
1742	 0.346265191876276 
1743	 0.34628714896312 
1744	 0.346165280786417 
1745	 0.346064656382551 
1746	 0.345919801137162 
1747	 0.345733958377338 
1748	 0.345477916507849 
1749	 0.345289656314624 
1750	 0.345027447782266 
1751	 0.344935108457628 
1752	 0.344952474629741 
1753	 0.345032599001442 
1754	 0.345177531970875 
1755	 0.345417121629964 
1756	 0.345760780223711 
1757	 0.346068824836336 
1758	 0.346565200758881 
1759	 0.346967620073709 
1760	 0.347506737489456 
1761	 0.348312905599401 
1762	 0.349031508784504 
1763	 0.349918240028109 
1764	 0.350961075541435 
1765	 0.351965581530874 
1766	 0.353153351219016 
1767	 0.354374395323995 
1768	 0.355648345369848 
1769	 0.357087400911568 
1770	 0.358358661992825 
1771	 0.359580593311123 
1772	 0.360729183313939 
1773	 0.36177477286111 
1774	 0.362940138594569 
1775	 0.363937730239217 
1776	 0.364864061199835 
1777	 0.365771830032006 
1778	 0.366454202422386 
1779	 0.367194481899746 
1780	 0.367945561152959 
1781	 0.368506855581648 
1782	 0.369085935617658 
1783	 0.369684606910178 
1784	 0.370281381497668 
1785	 0.370896053916709 
1786	 0.371373322048951 
1787	 0.371710789236056 
1788	 0.372112308096325 
1789	 0.372480475681359 
1790	 0.372864554135913 
1791	 0.373303765021507 
1792	 0.373687119756946 
1793	 0.373977669309963 
1794	 0.374402741177418 
1795	 0.374796492284948 
1796	 0.375132753846694 
1797	 0.375585405890317 
1798	 0.375894022917524 
1799	 0.376142190571631 
1800	 0.376461748911091 
1801	 0.377116493311531 
1802	 0.377415743316367 
1803	 0.37773279477816 
1804	 0.377957546813923 
1805	 0.378322553379587 
1806	 0.378623656071166 
1807	 0.378952902047926 
1808	 0.379247768862671 
1809	 0.379509363484715 
1810	 0.379779457199181 
1811	 0.380030899062907 
1812	 0.380329914710526 
1813	 0.380691632760135 
1814	 0.380973191979125 
1815	 0.381207098452282 
1816	 0.381546986944205 
1817	 0.381834919503487 
1818	 0.38202588872502 
1819	 0.382333197519363 
1820	 0.382720515690639 
1821	 0.383058759622315 
1822	 0.383362381781821 
1823	 0.383805840152257 
1824	 0.384203268242803 
1825	 0.384543669798942 
1826	 0.384835886663054 
1827	 0.385045081308358 
1828	 0.385356242631289 
1829	 0.385691085867273 
1830	 0.385977199447809 
1831	 0.386304700899621 
1832	 0.386628369077118 
1833	 0.386851329563709 
1834	 0.387049128526434 
1835	 0.387291586722196 
1836	 0.387568040519564 
1837	 0.387826721233091 
1838	 0.388062473143484 
1839	 0.38830341815357 
1840	 0.388574102569077 
1841	 0.388800197478207 
1842	 0.388989743864771 
1843	 0.389193919239396 
1844	 0.389377555997181 
1845	 0.389585392574494 
1846	 0.389784479092895 
1847	 0.389960551362708 
1848	 0.390139710752925 
1849	 0.390338333067623 
1850	 0.390479078913617 
1851	 0.39061157542049 
1852	 0.3906989441839 
1853	 0.390707658247108 
1854	 0.390678944004313 
1855	 0.390562466811704 
1856	 0.390442068976716 
1857	 0.390363361127669 
1858	 0.390191415553102 
1859	 0.389995919444724 
1860	 0.389802434989109 
1861	 0.389547217585749 
1862	 0.389210910804241 
1863	 0.388895298172382 
1864	 0.3885697576178 
1865	 0.388147718725317 
1866	 0.387723865249901 
1867	 0.387256855152488 
1868	 0.386737021890567 
1869	 0.386143884355608 
1870	 0.385513486138441 
1871	 0.384878840579395 
1872	 0.384129760279581 
1873	 0.383285823381187 
1874	 0.38245713162217 
1875	 0.381546621591312 
1876	 0.380424602339433 
1877	 0.379320884373209 
1878	 0.378094333613262 
1879	 0.376775552581632 
1880	 0.375517383916946 
1881	 0.374135817452835 
1882	 0.372661508255365 
1883	 0.371176138600123 
1884	 0.369583585330429 
1885	 0.367791453330903 
1886	 0.366047971837983 
1887	 0.364162713218426 
1888	 0.362143333379588 
1889	 0.360240313603004 
1890	 0.358179417327522 
1891	 0.356093447902909 
1892	 0.354037373107222 
1893	 0.351842678455483 
1894	 0.349492571455458 
1895	 0.347191323544536 
1896	 0.344877348025459 
1897	 0.342572237042792 
1898	 0.340465277000914 
1899	 0.338331754921884 
1900	 0.336241181597471 
1901	 0.33419448698552 
1902	 0.332046655795294 
1903	 0.330055995246782 
1904	 0.328118931537347 
1905	 0.326222194855036 
1906	 0.324359346782642 
1907	 0.322725308730956 
1908	 0.321088839554389 
1909	 0.319517409186029 
1910	 0.318077106637234 
1911	 0.316588436915365 
1912	 0.31517276670063 
1913	 0.313739106311434 
1914	 0.31228139276447 
1915	 0.310945982909463 
1916	 0.309675151266698 
1917	 0.308439517611782 
1918	 0.307399406405798 
1919	 0.306441649249393 
1920	 0.305423003931767 
1921	 0.30445756821308 
1922	 0.303361517016831 
1923	 0.302217700890404 
1924	 0.301253170973785 
1925	 0.300233734427959 
1926	 0.299234290023699 
1927	 0.298292024212228 
1928	 0.297361759610994 
1929	 0.296378169966373 
1930	 0.295499430953629 
1931	 0.294726458801937 
1932	 0.293985075509707 
1933	 0.293321165719503 
1934	 0.292743379326035 
1935	 0.292297058170564 
1936	 0.291914316314369 
1937	 0.291588429133516 
1938	 0.291362747011345 
1939	 0.291195130398826 
1940	 0.29106019715344 
1941	 0.291020233694915 
1942	 0.291090307160303 
1943	 0.291244961807555 
1944	 0.291441567834846 
1945	 0.291702263970179 
1946	 0.292022945368837 
1947	 0.292416746888849 
1948	 0.293000925876277 
1949	 0.293608172562861 
1950	 0.294251576749217 
1951	 0.295011805827527 
1952	 0.295782127800498 
1953	 0.296500157845668 
1954	 0.297370988182315 
1955	 0.298450643593757 
1956	 0.299480391836594 
1957	 0.300573756791023 
1958	 0.301722117601503 
1959	 0.302691632782253 
1960	 0.303636009999975 
1961	 0.304518236583215 
1962	 0.305336500964798 
1963	 0.306075329337177 
1964	 0.30672681090542 
1965	 0.307365311132115 
1966	 0.307967905746661 
1967	 0.308494857927121 
1968	 0.308968485878525 
1969	 0.309451905012983 
1970	 0.309832585144521 
1971	 0.310213783097981 
1972	 0.310708675717807 
1973	 0.311224666638327 
1974	 0.311746143274521 
1975	 0.312352381562563 
1976	 0.312902088867124 
1977	 0.313378764849922 
1978	 0.313936305809847 
1979	 0.314531929273187 
1980	 0.315103215230465 
1981	 0.315765009967729 
1982	 0.31641728021263 
1983	 0.317059297406807 
1984	 0.317781535237286 
1985	 0.318461934981087 
1986	 0.319196408805542 
1987	 0.319989126796986 
1988	 0.320788515032076 
1989	 0.321688623307498 
1990	 0.32266846780516 
1991	 0.323708884179961 
1992	 0.32483558807369 
1993	 0.326023163591415 
1994	 0.327171418327286 
1995	 0.32840869306024 
1996	 0.329669529190606 
1997	 0.331012846688531 
1998	 0.332353978473235 
1999	 0.333801187428604 
2000	 0.335118753734914 
2001	 0.336425709200236 
2002	 0.337636119260285 
2003	 0.338797278549606 
2004	 0.339904108568501 
2005	 0.340886739175477 
2006	 0.341904012990427 
2007	 0.342916781467417 
2008	 0.343889962478399 
2009	 0.34479413871202 
2010	 0.34565554779674 
2011	 0.346421339319327 
2012	 0.347038133649341 
2013	 0.347632984819919 
2014	 0.348158392522605 
2015	 0.348666970412904 
2016	 0.34909952732672 
2017	 0.349527773445187 
2018	 0.349970468479659 
2019	 0.350333469143847 
2020	 0.350636406518882 
2021	 0.350910876785361 
2022	 0.351112337162459 
2023	 0.351260277651455 
2024	 0.351397318760617 
2025	 0.351464303247413 
2026	 0.351524747243822 
2027	 0.351555546318882 
2028	 0.351571988671188 
2029	 0.351567485671132 
2030	 0.351547911459615 
2031	 0.351513711600798 
2032	 0.351441129069843 
2033	 0.351314855094863 
2034	 0.351207981153793 
2035	 0.351061143872399 
2036	 0.350966901181583 
2037	 0.350924036146934 
2038	 0.350792816664946 
2039	 0.350642960844125 
2040	 0.35046339240679 
2041	 0.350300038114213 
2042	 0.350060808355655 
2043	 0.349934382543251 
2044	 0.349853850257121 
2045	 0.34980290073032 
2046	 0.349871702198684 
2047	 0.349833547656812 
2048	 0.34977753672663 
2049	 0.349713169638727 
2050	 0.349592903010817 
2051	 0.34946216620868 
2052	 0.349380874223979 
2053	 0.34927351669919 
2054	 0.349172545174322 
2055	 0.349057725292214 
2056	 0.348969308924971 
2057	 0.348892231008381 
2058	 0.34882815693188 
2059	 0.348768719161291 
2060	 0.348729792636086 
2061	 0.348706259933826 
2062	 0.348687005780369 
2063	 0.34873664615271 
2064	 0.348712586155991 
2065	 0.348634879653041 
2066	 0.348576926828215 
2067	 0.348541994753075 
2068	 0.348468675578091 
2069	 0.348433962136492 
2070	 0.348451377043484 
2071	 0.348461006823684 
2072	 0.348464346159468 
2073	 0.348467198885866 
2074	 0.348519301841127 
2075	 0.348508935691232 
2076	 0.348457704178056 
2077	 0.348402061778079 
2078	 0.348324130840852 
2079	 0.34823913871757 
2080	 0.348116204420235 
2081	 0.348025450488564 
2082	 0.347968812108385 
2083	 0.347878180623813 
2084	 0.347769157674413 
2085	 0.347609507104805 
2086	 0.347493108263158 
2087	 0.347359812162559 
2088	 0.347230920518902 
2089	 0.347144760315988 
2090	 0.347022924475551 
2091	 0.346855637939585 
2092	 0.34669137822923 
2093	 0.346542895121977 
2094	 0.346380768781756 
2095	 0.346218166749213 
2096	 0.346015684114694 
2097	 0.345831306321494 
2098	 0.345534204922129 
2099	 0.345239022259079 
2100	 0.344982735137444 
2101	 0.344744422524122 
2102	 0.344554827089386 
2103	 0.344318028964684 
2104	 0.344080084339284 
2105	 0.34381532268836 
2106	 0.343535194386673 
2107	 0.343216884174652 
2108	 0.342860089411706 
2109	 0.342528422100737 
2110	 0.34218534642282 
2111	 0.341821719301159 
2112	 0.341457527610025 
2113	 0.341086508607095 
2114	 0.34070900122395 
2115	 0.340291017315367 
2116	 0.339864249347184 
2117	 0.339420623088348 
2118	 0.338945453626066 
2119	 0.338384553387864 
2120	 0.337938314425139 
2121	 0.337530621304668 
2122	 0.337095525777863 
2123	 0.336679495599325 
2124	 0.336294655870433 
2125	 0.335884077577465 
2126	 0.335554191196093 
2127	 0.335349833906193 
2128	 0.335047999410651 
2129	 0.334665661127828 
2130	 0.334384355499542 
2131	 0.334141567893469 
2132	 0.333889241739071 
2133	 0.33369501182544 
2134	 0.333554595714506 
2135	 0.333271905729168 
2136	 0.332898235159297 
2137	 0.332585171013366 
2138	 0.332214277277824 
2139	 0.33194077434753 
2140	 0.33173292151334 
2141	 0.331510686651922 
2142	 0.33132693885857 
2143	 0.331137091364905 
2144	 0.330905043261656 
2145	 0.330762764679817 
2146	 0.330692732957213 
2147	 0.330597326553311 
2148	 0.330561677745073 
2149	 0.330496829636461 
2150	 0.33036863959993 
2151	 0.330304481996577 
2152	 0.3303023651198 
2153	 0.330266227757239 
2154	 0.33020488168244 
2155	 0.330190964688675 
2156	 0.330114786829712 
2157	 0.329984863551659 
2158	 0.329862880474378 
2159	 0.329735990758276 
2160	 0.329589798920379 
2161	 0.329443631362916 
2162	 0.32923666910348 
2163	 0.328955565711773 
2164	 0.328760662136423 
2165	 0.328568016557438 
2166	 0.328359884175106 
2167	 0.328225946161554 
2168	 0.328014072089221 
2169	 0.32770321998952 
2170	 0.327448063381113 
2171	 0.327155807396691 
2172	 0.326953926429291 
2173	 0.326810474183854 
2174	 0.326701936015055 
2175	 0.326560506489932 
2176	 0.32645249622191 
2177	 0.326312838232834 
2178	 0.326119951909104 
2179	 0.325947994636026 
2180	 0.325795147489741 
2181	 0.325639367301856 
2182	 0.325451742249118 
2183	 0.325312749993804 
2184	 0.325214361321242 
2185	 0.325099645181094 
2186	 0.325015647192718 
2187	 0.324875014511314 
2188	 0.324716481913093 
2189	 0.324545510363992 
2190	 0.324366546539034 
2191	 0.324130085594635 
2192	 0.323824728024008 
2193	 0.32356564510523 
2194	 0.323236170429716 
2195	 0.322972896328638 
2196	 0.322788878267654 
2197	 0.322637823024055 
2198	 0.322344855530529 
2199	 0.322070162137217 
2200	 0.321709923865603 
2201	 0.321222472959403 
2202	 0.32081759995631 
2203	 0.320383800241863 
2204	 0.320022663639797 
2205	 0.319746834614825 
2206	 0.319369320023795 
2207	 0.319006684381935 
2208	 0.318595837900431 
2209	 0.318021369607164 
2210	 0.317639524543873 
2211	 0.317411289420804 
2212	 0.317034656120669 
2213	 0.316692130368201 
2214	 0.316289568131466 
2215	 0.315690270505961 
2216	 0.315247605875743 
2217	 0.314880550226068 
2218	 0.314540634786945 
2219	 0.314296923587879 
2220	 0.31400969250158 
2221	 0.31375314953967 
2222	 0.313429875141173 
2223	 0.313176701190863 
2224	 0.312881836138728 
2225	 0.312608718568553 
2226	 0.312307874725102 
2227	 0.311915038356864 
2228	 0.31144178971247 
2229	 0.310973159955984 
2230	 0.3104562352386 
2231	 0.309911830037937 
2232	 0.309411666422822 
2233	 0.308691527966284 
2234	 0.307910128134395 
2235	 0.306926993688506 
2236	 0.305725022239351 
2237	 0.304489058441248 
2238	 0.303039731775972 
2239	 0.301676845051302 
2240	 0.30032803785187 
2241	 0.298863977504423 
2242	 0.297401340907593 
2243	 0.295805586301609 
2244	 0.294149154492561 
2245	 0.29231571776066 
2246	 0.290272158912316 
2247	 0.288245408551968 
2248	 0.286054463855063 
2249	 0.28385162050686 
2250	 0.281642595099885 
2251	 0.279447044075665 
2252	 0.277075962717216 
2253	 0.274673422792817 
2254	 0.272262487933615 
2255	 0.269982210180929 
2256	 0.267791761950658 
2257	 0.265471313756831 
2258	 0.26325132569253 
2259	 0.26105435867592 
2260	 0.258886944576458 
2261	 0.256773393520024 
2262	 0.254687993583719 
2263	 0.252574574401426 
2264	 0.250595590468259 
2265	 0.248707309192737 
2266	 0.246845152773231 
2267	 0.245083094977666 
2268	 0.243328873296709 
2269	 0.241688661104289 
2270	 0.239911710798676 
2271	 0.2379490242012 
2272	 0.236299567750866 
2273	 0.234703688226201 
2274	 0.233189384286378 
2275	 0.232170858485448 
2276	 0.23070232989466 
2277	 0.228916961398418 
2278	 0.227268108427229 
2279	 0.225438460451727 
2280	 0.223728991029757 
2281	 0.222201547834535 
2282	 0.220585093245985 
2283	 0.218982401072297 
2284	 0.217291196635409 
2285	 0.215470779214887 
2286	 0.213581438486313 
2287	 0.211506463342678 
2288	 0.209391147951522 
2289	 0.207472425910635 
2290	 0.20547918518149 
2291	 0.203507023856272 
2292	 0.201654403007303 
2293	 0.199673402863997 
2294	 0.197666343403872 
2295	 0.195667210442595 
2296	 0.193762418825902 
2297	 0.19214641136928 
2298	 0.190648957553931 
2299	 0.189498368459187 
2300	 0.188777904233998 
2301	 0.187930642486166 
2302	 0.187136593724787 
2303	 0.1866813715214 
2304	 0.186251321985157 
2305	 0.18631285449732 
2306	 0.186894241086427 
2307	 0.187527015940535 
2308	 0.188353733265958 
2309	 0.189499977833187 
2310	 0.190989282441565 
2311	 0.192515922953402 
2312	 0.19451093658348 
2313	 0.196195612203448 
2314	 0.19775513817449 
2315	 0.199399108410867 
2316	 0.200909664824108 
2317	 0.202591076625592 
2318	 0.204656366846405 
2319	 0.206219240739194 
2320	 0.207739133865656 
2321	 0.208942457929402 
2322	 0.209746150375588 
2323	 0.210401514605366 
2324	 0.21073315234568 
2325	 0.211133793157058 
2326	 0.211447268991163 
2327	 0.211526769948829 
2328	 0.211610977894499 
2329	 0.211414764374031 
2330	 0.21088416237432 
2331	 0.210186471350756 
2332	 0.209368255577501 
2333	 0.208546254225812 
2334	 0.207565153430128 
2335	 0.206560248667935 
2336	 0.20566412993479 
2337	 0.204530900198652 
2338	 0.203428824667105 
2339	 0.202234993742743 
2340	 0.200829953336179 
2341	 0.199755540835832 
2342	 0.198763773471446 
2343	 0.197738706052637 
2344	 0.196932567721944 
2345	 0.196276836476621 
2346	 0.195847690233861 
2347	 0.195740319994493 
2348	 0.195990517709022 
2349	 0.196586416188784 
2350	 0.197224533203557 
2351	 0.197994250045869 
2352	 0.1989348549326 
2353	 0.200006394631368 
2354	 0.201202389298266 
2355	 0.202560158901431 
2356	 0.203824136358379 
2357	 0.204736438484971 
2358	 0.205447868249242 
2359	 0.205956029432237 
2360	 0.206488743919062 
2361	 0.206927874868482 
2362	 0.207265326030992 
2363	 0.207599328728145 
2364	 0.207628166098762 
2365	 0.207467192919443 
2366	 0.207447420287924 
2367	 0.207193325466318 
2368	 0.206897971158351 
2369	 0.206979957763323 
2370	 0.206652054981595 
2371	 0.206380493041949 
2372	 0.206515212051566 
2373	 0.206289185305727 
2374	 0.206196415784801 
2375	 0.206319722440501 
2376	 0.206168061857543 
2377	 0.205962642991795 
2378	 0.205823963260448 
2379	 0.205843717056441 
2380	 0.206074835271002 
2381	 0.206218187687712 
2382	 0.206226898131969 
2383	 0.206192228994124 
2384	 0.206170191673553 
2385	 0.205932962057861 
2386	 0.205919536824654 
2387	 0.206188026199427 
2388	 0.206162006550194 
2389	 0.206007899540053 
2390	 0.206010222565256 
2391	 0.205859996048025 
2392	 0.205786919880063 
2393	 0.205980683314519 
2394	 0.205860488294508 
2395	 0.205539498199659 
2396	 0.205524786148788 
2397	 0.205422231482129 
2398	 0.20541087253382 
2399	 0.205720708956876 
2400	 0.205664005376466 
2401	 0.205466059160917 
2402	 0.205182047694414 
2403	 0.205050176580197 
2404	 0.205165035833224 
2405	 0.205208662454353 
2406	 0.205093470824817 
2407	 0.204860684378563 
2408	 0.204796624706973 
2409	 0.204738944661201 
2410	 0.204705841938435 
2411	 0.204887030015111 
2412	 0.205084712455221 
2413	 0.204856757260329 
2414	 0.204514154879807 
2415	 0.204417766844738 
2416	 0.204215768224607 
2417	 0.20404694328185 
2418	 0.204128545551052 
2419	 0.204075979638375 
2420	 0.203848804970462 
2421	 0.203989309120662 
2422	 0.204286623732982 
2423	 0.204290288008158 
2424	 0.204379454376836 
2425	 0.204379993977229 
2426	 0.203792475145743 
2427	 0.203260431541326 
2428	 0.202752584487232 
2429	 0.202056505774643 
2430	 0.202204319831001 
2431	 0.202656421400084 
2432	 0.20284078201432 
2433	 0.203037902194876 
2434	 0.202561999249715 
2435	 0.201971427336087 
2436	 0.201872936648218 
2437	 0.20181026260017 
2438	 0.202106260225533 
2439	 0.202024277663377 
2440	 0.201568849841425 
2441	 0.201884085696561 
2442	 0.201871591513778 
2443	 0.202014814352308 
2444	 0.202703305230825 
2445	 0.202191705170602 
2446	 0.201442155749097 
2447	 0.201250033791224 
2448	 0.200662736334313 
2449	 0.200187730973317 
2450	 0.200292056099797 
2451	 0.200055233781909 
2452	 0.199193019151259 
2453	 0.198768115428008 
2454	 0.198522282776316 
2455	 0.198022884456254 
2456	 0.198307858869683 
2457	 0.198356833876423 
2458	 0.197786370734755 
2459	 0.19775843719255 
2460	 0.197059660182165 
2461	 0.196256499507868 
2462	 0.195762322093358 
2463	 0.194392672821104 
2464	 0.193996033313301 
2465	 0.194121310119694 
2466	 0.193915296772377 
2467	 0.194721003680437 
2468	 0.195403958979038 
2469	 0.195079789222613 
2470	 0.194700689432445 
2471	 0.194631266770011 
2472	 0.193513365570813 
2473	 0.192480475226224 
2474	 0.192601626548838 
2475	 0.192123969551357 
2476	 0.192280244775932 
2477	 0.19344209723685 
2478	 0.194191518528661 
2479	 0.194307446302845 
2480	 0.194162690673655 
2481	 0.194023627938869 
2482	 0.193342313694701 
2483	 0.194087812509566 
2484	 0.194455005384166 
2485	 0.194690158145954 
2486	 0.194460088426115 
2487	 0.193741447246634 
2488	 0.193620382031409 
2489	 0.193466311612943 
2490	 0.19376884505228 
2491	 0.193845357630887 
2492	 0.192540410467827 
2493	 0.192559421976887 
2494	 0.193704153997394 
2495	 0.194123674269858 
2496	 0.195570110864737 
2497	 0.197325137902087 
2498	 0.197293751396467 
2499	 0.196709125298923 
2500	 0.197277437180776 
