Wavelength	Tablay400018.asd
350	 0.298491218975914 
351	 0.274024001314063 
352	 0.267032325569568 
353	 0.280000186323334 
354	 0.23850248817674 
355	 0.243031762980223 
356	 0.261907412918507 
357	 0.251256650876198 
358	 0.23469351975157 
359	 0.230485192389024 
360	 0.233190655100203 
361	 0.227742539133701 
362	 0.236937604075637 
363	 0.215918403678189 
364	 0.171060108841878 
365	 0.177328435493882 
366	 0.181528803464582 
367	 0.177034698704719 
368	 0.172351939210283 
369	 0.190506034491983 
370	 0.18387147919487 
371	 0.165017019103345 
372	 0.175207601880895 
373	 0.15842237079465 
374	 0.142696971981594 
375	 0.145026806750744 
376	 0.157705230273232 
377	 0.160940867837053 
378	 0.162019045612076 
379	 0.165621003941127 
380	 0.139076629609882 
381	 0.1328089510599 
382	 0.143498659250827 
383	 0.137147869032117 
384	 0.137373080732289 
385	 0.139716431677391 
386	 0.137859922050644 
387	 0.12588632819863 
388	 0.134971584316711 
389	 0.140272782245862 
390	 0.121751077232602 
391	 0.128854554622821 
392	 0.127701663588305 
393	 0.115596899663682 
394	 0.110385338315719 
395	 0.10711594769067 
396	 0.108388827810448 
397	 0.112241603280715 
398	 0.10822270686886 
399	 0.103920341692963 
400	 0.10155653411459 
401	 0.101705655212326 
402	 0.105425946387409 
403	 0.105328599690549 
404	 0.101242507191188 
405	 0.098617110031656 
406	 9.81453132564477E-02 
407	 9.53544229287694E-02 
408	 8.94354961185804E-02 
409	 8.73226890425781E-02 
410	 8.64775527738929E-02 
411	 8.65127598320219E-02 
412	 8.72394226662872E-02 
413	 8.77678096841405E-02 
414	 8.20859681366278E-02 
415	 7.61585243133974E-02 
416	 8.48693079456743E-02 
417	 0.083831432598574 
418	 7.95201422156399E-02 
419	 7.87706213794554E-02 
420	 7.73171279682278E-02 
421	 7.38811302641363E-02 
422	 0.071100127032967 
423	 7.21527755261178E-02 
424	 7.27276311689115E-02 
425	 7.25099346523306E-02 
426	 0.071592731682048 
427	 7.01267824765217E-02 
428	 6.84250989474623E-02 
429	 6.70931966655162E-02 
430	 6.65582939441761E-02 
431	 0.066750977380797 
432	 6.78676343748451E-02 
433	 6.84325885441103E-02 
434	 6.66769785347126E-02 
435	 0.066238628205222 
436	 6.57682487877207E-02 
437	 6.49956813615907E-02 
438	 6.62052215254551E-02 
439	 6.52243642961712E-02 
440	 6.40903392303957E-02 
441	 6.52991941208177E-02 
442	 0.066079232769609 
443	 6.51662394917727E-02 
444	 6.35183604201103E-02 
445	 6.35125829608037E-02 
446	 6.24756364674899E-02 
447	 6.20534513954186E-02 
448	 6.31329473613697E-02 
449	 6.39720839442643E-02 
450	 6.21417564251868E-02 
451	 6.04056106910256E-02 
452	 6.21753074328806E-02 
453	 0.061811623984221 
454	 6.18872176179119E-02 
455	 0.06251334352563 
456	 6.07409100189689E-02 
457	 6.02706401157562E-02 
458	 6.07971070348846E-02 
459	 6.10700666467738E-02 
460	 5.95744518191294E-02 
461	 5.94992694800097E-02 
462	 6.03372493755187E-02 
463	 0.059928289687887 
464	 6.06220084456729E-02 
465	 6.06771086899952E-02 
466	 5.96692055259053E-02 
467	 5.96995815092334E-02 
468	 6.03979750819583E-02 
469	 0.060268652275658 
470	 5.86660735929234E-02 
471	 5.96916620317489E-02 
472	 6.05871321092817E-02 
473	 6.02542381227405E-02 
474	 5.92009302723647E-02 
475	 5.96455119537618E-02 
476	 6.00025164507257E-02 
477	 5.93827052229677E-02 
478	 5.97138877957966E-02 
479	 6.00090544067351E-02 
480	 5.97921521306325E-02 
481	 5.90845215468622E-02 
482	 5.96903469021875E-02 
483	 6.04111860382746E-02 
484	 6.07367018091013E-02 
485	 6.11457472546071E-02 
486	 6.07929387637431E-02 
487	 6.08206339217685E-02 
488	 6.19266556862964E-02 
489	 6.21935583098976E-02 
490	 6.27202757851468E-02 
491	 6.35538648350497E-02 
492	 6.41616816831894E-02 
493	 6.44915865901779E-02 
494	 6.56243375594539E-02 
495	 6.74034842991597E-02 
496	 6.74614285092613E-02 
497	 6.83943737345277E-02 
498	 6.95221166427149E-02 
499	 6.98148480495433E-02 
500	 7.12698310237698E-02 
501	 7.27142970915721E-02 
502	 0.073715008862274 
503	 7.46148121617427E-02 
504	 7.60389515407429E-02 
505	 7.74976148623073E-02 
506	 0.078756910696929 
507	 0.080718633607017 
508	 8.25554176483216E-02 
509	 8.41868787311704E-02 
510	 8.58488452822724E-02 
511	 8.75965870788802E-02 
512	 8.92707601817539E-02 
513	 9.09495953048918E-02 
514	 9.30318607743687E-02 
515	 9.50711146196691E-02 
516	 9.70775813145966E-02 
517	 0.099117477045821 
518	 0.101014268274859 
519	 0.10300063445073 
520	 0.105157996908801 
521	 0.107432236445871 
522	 0.109536288735251 
523	 0.111777772879612 
524	 0.114207471743712 
525	 0.116193526449261 
526	 0.118314810187058 
527	 0.120603661762846 
528	 0.122925084243583 
529	 0.125375946964557 
530	 0.12761972552922 
531	 0.129707440389183 
532	 0.132093026098365 
533	 0.134553782376825 
534	 0.136868887063092 
535	 0.138971589719461 
536	 0.141204626727961 
537	 0.143494095951711 
538	 0.145859718732206 
539	 0.148336249063532 
540	 0.150654095111428 
541	 0.152886373688163 
542	 0.155108339854749 
543	 0.157326094544416 
544	 0.159419273698023 
545	 0.161645054242833 
546	 0.164167307343385 
547	 0.166240222975565 
548	 0.16825689104956 
549	 0.170368226918089 
550	 0.172462743435901 
551	 0.174439746447487 
552	 0.17636748789508 
553	 0.178324591300294 
554	 0.180317491060073 
555	 0.182373554448269 
556	 0.18438979250356 
557	 0.186221486443833 
558	 0.187935327926008 
559	 0.189657874250176 
560	 0.191446641313256 
561	 0.193256456233769 
562	 0.19511200948038 
563	 0.196885019971545 
564	 0.198509498943633 
565	 0.200303185120045 
566	 0.20205426829733 
567	 0.203708094451747 
568	 0.205348786374307 
569	 0.207180178442152 
570	 0.208945975730891 
571	 0.210525402830574 
572	 0.212227739652208 
573	 0.21393948945265 
574	 0.215605462226043 
575	 0.217197188864128 
576	 0.218716098237467 
577	 0.220258406390326 
578	 0.22185472769528 
579	 0.223453081098754 
580	 0.224934514674551 
581	 0.226317671922739 
582	 0.22767752586507 
583	 0.229134132631632 
584	 0.230550635714053 
585	 0.23190575525696 
586	 0.233253253455741 
587	 0.234623732264267 
588	 0.235961228681144 
589	 0.237276257285487 
590	 0.23870008826304 
591	 0.240187683109662 
592	 0.241570917141603 
593	 0.242744590765543 
594	 0.244030393593201 
595	 0.245334987694958 
596	 0.246617658978515 
597	 0.247890369531966 
598	 0.249055491265081 
599	 0.250181169176339 
600	 0.251354724788019 
601	 0.252645051320711 
602	 0.25380319750189 
603	 0.254972248263971 
604	 0.256372538368448 
605	 0.257516822621861 
606	 0.258597499075585 
607	 0.259756639897852 
608	 0.260997617959647 
609	 0.262105160921625 
610	 0.263126500593664 
611	 0.264165930370795 
612	 0.265255825655706 
613	 0.266412735539699 
614	 0.267549204191756 
615	 0.268534176348527 
616	 0.269467106664171 
617	 0.270516341061599 
618	 0.271658747891825 
619	 0.272518431182268 
620	 0.273468558753519 
621	 0.274475928782079 
622	 0.275404488044973 
623	 0.276299595699757 
624	 0.277223165406171 
625	 0.278203033926156 
626	 0.279223786348261 
627	 0.280080473041259 
628	 0.280867384424405 
629	 0.281708447859564 
630	 0.282667476047582 
631	 0.283512904304339 
632	 0.284235138772915 
633	 0.28493854003777 
634	 0.285721644684231 
635	 0.286542370480117 
636	 0.287341337451136 
637	 0.288057133106949 
638	 0.288745647755069 
639	 0.289461897179714 
640	 0.290208440675488 
641	 0.290820702394157 
642	 0.291455727251036 
643	 0.292153099479947 
644	 0.292858501961638 
645	 0.293377588471627 
646	 0.293964590347167 
647	 0.294682735623607 
648	 0.29519399687346 
649	 0.295748464491031 
650	 0.296337161991762 
651	 0.29688998877161 
652	 0.297417814816986 
653	 0.297975730468874 
654	 0.298535980642665 
655	 0.299015400967057 
656	 0.299547753163837 
657	 0.300124950036117 
658	 0.300697204589897 
659	 0.301170643829933 
660	 0.301681857568156 
661	 0.302208651146169 
662	 0.302694489314817 
663	 0.303238059174816 
664	 0.303808322320457 
665	 0.304356586293512 
666	 0.304832131025735 
667	 0.305384908155538 
668	 0.305943940406542 
669	 0.306449662757015 
670	 0.306996378504239 
671	 0.307470894886748 
672	 0.307942449733083 
673	 0.308524581862561 
674	 0.309017470770925 
675	 0.309521409054567 
676	 0.310061165224778 
677	 0.310544117545502 
678	 0.311073004390918 
679	 0.311584672639522 
680	 0.312028431433964 
681	 0.312508595673109 
682	 0.312981688747784 
683	 0.313437271354584 
684	 0.313892873985017 
685	 0.314433023110303 
686	 0.314975712047864 
687	 0.315449927198854 
688	 0.315826230202711 
689	 0.316279790949043 
690	 0.316833305759061 
691	 0.317409723630059 
692	 0.317749679677738 
693	 0.318124393818042 
694	 0.318585781762864 
695	 0.319039217960192 
696	 0.319477442560936 
697	 0.31988242274986 
698	 0.320267686089653 
699	 0.320695285752197 
700	 0.321126193441009 
701	 0.321568263871503 
702	 0.322015921558338 
703	 0.322359990142411 
704	 0.322736022720678 
705	 0.323136934231357 
706	 0.323465675072274 
707	 0.323808005182449 
708	 0.3241996987634 
709	 0.324624404738757 
710	 0.324991018950108 
711	 0.325381218219108 
712	 0.325766373272009 
713	 0.326109904474296 
714	 0.326474227968202 
715	 0.326844779462717 
716	 0.327197015026523 
717	 0.327512260675782 
718	 0.327901400551714 
719	 0.328303663654771 
720	 0.32866261923273 
721	 0.328969766060525 
722	 0.329271212465143 
723	 0.329585247308825 
724	 0.329922546213939 
725	 0.330320067759531 
726	 0.330619534771242 
727	 0.330865872697654 
728	 0.331232689735968 
729	 0.33160731216089 
730	 0.33197364178881 
731	 0.332317458464607 
732	 0.332605913012564 
733	 0.332899929836453 
734	 0.333238478340472 
735	 0.333625276795639 
736	 0.33397224883147 
737	 0.334301475208395 
738	 0.334619256620396 
739	 0.334921443206895 
740	 0.33522076145953 
741	 0.335529721444753 
742	 0.335839797659243 
743	 0.336113093734778 
744	 0.336388323427139 
745	 0.336717115280936 
746	 0.337107567013353 
747	 0.33742277547555 
748	 0.337711932094422 
749	 0.338033962061327 
750	 0.33843111314471 
751	 0.338779109549558 
752	 0.339110495052365 
753	 0.339453611242767 
754	 0.33980921017257 
755	 0.340151304203286 
756	 0.340524311035988 
757	 0.340955835977294 
758	 0.341381070139556 
759	 0.341812984008056 
760	 0.342200023254353 
761	 0.342501279117883 
762	 0.342926769855097 
763	 0.343355217436796 
764	 0.34374121707846 
765	 0.344146387311539 
766	 0.344532754505251 
767	 0.344903366540454 
768	 0.345285561001988 
769	 0.345753475037431 
770	 0.346144410426323 
771	 0.346511355473251 
772	 0.346956398092085 
773	 0.347390993646197 
774	 0.347839960394074 
775	 0.348268545627702 
776	 0.348611635003796 
777	 0.349064051962313 
778	 0.349524668974778 
779	 0.349919496173483 
780	 0.350292332010265 
781	 0.350700915618641 
782	 0.351136955107446 
783	 0.351579131033503 
784	 0.352048457509754 
785	 0.3524810763275 
786	 0.35286859156142 
787	 0.353243625048212 
788	 0.353664483707934 
789	 0.354111302942201 
790	 0.354540597721225 
791	 0.354899899824735 
792	 0.355323623909435 
793	 0.355773564554461 
794	 0.356187810321134 
795	 0.356524217082873 
796	 0.356983002046563 
797	 0.357437171915673 
798	 0.357717506709692 
799	 0.358088880691619 
800	 0.358505543739323 
801	 0.358940107386584 
802	 0.359384594338986 
803	 0.359799646560484 
804	 0.360171711720153 
805	 0.360527191653043 
806	 0.360941982192277 
807	 0.361305433936245 
808	 0.36164239503207 
809	 0.362007463652159 
810	 0.362444723843029 
811	 0.362814468518991 
812	 0.3631380199471 
813	 0.363492218521617 
814	 0.363794882542604 
815	 0.364121162796915 
816	 0.364468620530098 
817	 0.364769881878275 
818	 0.365151184824933 
819	 0.365476948778443 
820	 0.365721407111552 
821	 0.366097787838196 
822	 0.366441890236111 
823	 0.366696837468761 
824	 0.36689400603886 
825	 0.367252351788656 
826	 0.36746144177108 
827	 0.367636541350637 
828	 0.36800946049685 
829	 0.36825613248106 
830	 0.368477002685591 
831	 0.368711731452457 
832	 0.368926139590869 
833	 0.369122667283128 
834	 0.369291421476265 
835	 0.369471989748143 
836	 0.36977667112498 
837	 0.37002387227193 
838	 0.370214615607332 
839	 0.370382002976511 
840	 0.370491232297747 
841	 0.370729701707505 
842	 0.370970496334203 
843	 0.37103840215532 
844	 0.3712126799231 
845	 0.371346361207295 
846	 0.371448072447579 
847	 0.371640303628189 
848	 0.371895992580515 
849	 0.372034685815302 
850	 0.372052770790778 
851	 0.372178871635913 
852	 0.372394069133444 
853	 0.372530006098268 
854	 0.372549122587435 
855	 0.372762351870893 
856	 0.372881247290692 
857	 0.372945850857497 
858	 0.373062197513645 
859	 0.373180643569559 
860	 0.373292544968047 
861	 0.373407661397347 
862	 0.37352303725186 
863	 0.373493271556188 
864	 0.373532197908451 
865	 0.373677135923175 
866	 0.373791975353218 
867	 0.37384901835446 
868	 0.37385093090352 
869	 0.37385702634813 
870	 0.37398218237562 
871	 0.374081118141836 
872	 0.374094420615625 
873	 0.374056703429173 
874	 0.374160324979317 
875	 0.374206539633324 
876	 0.374230337166325 
877	 0.374284917517116 
878	 0.37420108075227 
879	 0.374242522137185 
880	 0.374362181030792 
881	 0.374379447416798 
882	 0.374306212742217 
883	 0.374318800614737 
884	 0.374396257551863 
885	 0.374379068196613 
886	 0.374369336467348 
887	 0.374330583126893 
888	 0.37428247004272 
889	 0.374316868576843 
890	 0.374415929062338 
891	 0.3743954674494 
892	 0.374258829530375 
893	 0.374362828381649 
894	 0.374268858082264 
895	 0.374202388528207 
896	 0.374347279128902 
897	 0.374345822841007 
898	 0.37432862230601 
899	 0.374333674047776 
900	 0.374364025891109 
901	 0.374401613158644 
902	 0.374372874848417 
903	 0.374323168188926 
904	 0.374330436483789 
905	 0.374272840514019 
906	 0.374412386036373 
907	 0.374593050713541 
908	 0.374440829429798 
909	 0.374413659968735 
910	 0.374458169594859 
911	 0.374509323370828 
912	 0.374548435712766 
913	 0.374641015658284 
914	 0.374688646768846 
915	 0.374688785488049 
916	 0.374787494407621 
917	 0.374747719957923 
918	 0.37470737741142 
919	 0.374752964505528 
920	 0.374732351817222 
921	 0.374874197041766 
922	 0.374993928094079 
923	 0.374962301775989 
924	 0.375066289729478 
925	 0.375126944825095 
926	 0.375158903162241 
927	 0.375241784021103 
928	 0.375455704980905 
929	 0.375706381891428 
930	 0.375819881997813 
931	 0.375717214088717 
932	 0.375818229788959 
933	 0.375911171379805 
934	 0.376000669118023 
935	 0.376175487990526 
936	 0.376259929408931 
937	 0.37635530564043 
938	 0.376469135804031 
939	 0.376548466312945 
940	 0.376673079688012 
941	 0.376796567369107 
942	 0.376897070537501 
943	 0.376986473020817 
944	 0.377080751379821 
945	 0.377188004047151 
946	 0.377328879366105 
947	 0.37751500837863 
948	 0.377504313791137 
949	 0.377434531199984 
950	 0.377441911052614 
951	 0.377568115821975 
952	 0.377715602948367 
953	 0.377823616490203 
954	 0.37790774471428 
955	 0.378069627638703 
956	 0.378075589452363 
957	 0.378028574426137 
958	 0.378078537790459 
959	 0.378312721482481 
960	 0.378326857195801 
961	 0.378222528150764 
962	 0.37821399021963 
963	 0.378464200720834 
964	 0.378537665828281 
965	 0.37857592821769 
966	 0.378713134737291 
967	 0.378704724330319 
968	 0.37880914589491 
969	 0.378976210924377 
970	 0.379099538548774 
971	 0.37917325440296 
972	 0.37918554379662 
973	 0.37912143366888 
974	 0.379045772252929 
975	 0.379233206058294 
976	 0.379381235555832 
977	 0.379479494106762 
978	 0.379603563609438 
979	 0.379792931152995 
980	 0.379795434204308 
981	 0.379779685014981 
982	 0.379939511147034 
983	 0.380082888244629 
984	 0.379968445330739 
985	 0.379836969815869 
986	 0.380005096208496 
987	 0.380430545808819 
988	 0.380663714772805 
989	 0.380750075322427 
990	 0.380851440100265 
991	 0.380797163001394 
992	 0.380828395870557 
993	 0.380836889707706 
994	 0.380738277906195 
995	 0.380996130795628 
996	 0.381012322171492 
997	 0.381002857748357 
998	 0.381308678654976 
999	 0.381669854231921 
1000	 0.381729132843068 
1001	 0.379210294609677 
1002	 0.379072381651025 
1003	 0.379010191874026 
1004	 0.379008071656938 
1005	 0.378978010802811 
1006	 0.379048683536717 
1007	 0.379306387686477 
1008	 0.379341382102235 
1009	 0.379271804293852 
1010	 0.379358354536525 
1011	 0.379444847128318 
1012	 0.379477799900777 
1013	 0.379661267581168 
1014	 0.379698936122514 
1015	 0.379554733648744 
1016	 0.379408175020431 
1017	 0.379489464959471 
1018	 0.379568845424466 
1019	 0.37966735319279 
1020	 0.379835699131436 
1021	 0.379935598548869 
1022	 0.379991591336493 
1023	 0.380030376951806 
1024	 0.380019597911671 
1025	 0.380063134497773 
1026	 0.380123794926088 
1027	 0.380142369760886 
1028	 0.380150966843418 
1029	 0.38019575623393 
1030	 0.380245473923873 
1031	 0.380329734938315 
1032	 0.380440468870307 
1033	 0.380580573291055 
1034	 0.38072139124657 
1035	 0.38075814178003 
1036	 0.380790017161454 
1037	 0.380763996317505 
1038	 0.38082260669735 
1039	 0.380871808459614 
1040	 0.38097588374516 
1041	 0.381214996218006 
1042	 0.381343678912504 
1043	 0.381488648275671 
1044	 0.381474125000771 
1045	 0.38142830485412 
1046	 0.381475354332885 
1047	 0.381518706886884 
1048	 0.381561445674596 
1049	 0.381679419459341 
1050	 0.381711047365377 
1051	 0.381679326288871 
1052	 0.381765568232782 
1053	 0.38182198307879 
1054	 0.381845575396917 
1055	 0.381890615755032 
1056	 0.381982688884168 
1057	 0.382023753411769 
1058	 0.38201426532022 
1059	 0.382054448230891 
1060	 0.382199036516355 
1061	 0.382294269929504 
1062	 0.382377916742907 
1063	 0.382384062431011 
1064	 0.382188356552957 
1065	 0.382122772344946 
1066	 0.382141453228115 
1067	 0.38219744086339 
1068	 0.38233804106336 
1069	 0.382333594823478 
1070	 0.382356740047048 
1071	 0.382342253106044 
1072	 0.382333946878216 
1073	 0.382301270326501 
1074	 0.382297825385186 
1075	 0.38217227571574 
1076	 0.382089842116467 
1077	 0.382092786208658 
1078	 0.382102697711737 
1079	 0.382144355378451 
1080	 0.38217643453103 
1081	 0.382246211287512 
1082	 0.382250376174672 
1083	 0.382225307601928 
1084	 0.382188924373655 
1085	 0.382060275800987 
1086	 0.382052659986349 
1087	 0.382092322621228 
1088	 0.382223042474217 
1089	 0.382328410089017 
1090	 0.38239280711181 
1091	 0.382387712246526 
1092	 0.382329894480196 
1093	 0.382290067193453 
1094	 0.382346095225554 
1095	 0.382397772393827 
1096	 0.382445430852013 
1097	 0.382545870983032 
1098	 0.382649064136042 
1099	 0.382786613500623 
1100	 0.382930744175299 
1101	 0.382956007355351 
1102	 0.382915585816323 
1103	 0.382970717729999 
1104	 0.383031465961594 
1105	 0.383102229758184 
1106	 0.383247115556648 
1107	 0.383443309924385 
1108	 0.383537016774033 
1109	 0.383603174527448 
1110	 0.383684804603242 
1111	 0.383839450005347 
1112	 0.38402557811505 
1113	 0.38415732448957 
1114	 0.384312035925494 
1115	 0.384446392975443 
1116	 0.384547751094743 
1117	 0.384679545282394 
1118	 0.38479539782481 
1119	 0.384895183027962 
1120	 0.385022566091191 
1121	 0.385156953966404 
1122	 0.385266972944502 
1123	 0.385444481667619 
1124	 0.38566778348375 
1125	 0.385791317328848 
1126	 0.385911905663165 
1127	 0.386093094334089 
1128	 0.38621839230102 
1129	 0.386325676399051 
1130	 0.386553233480877 
1131	 0.386753675996987 
1132	 0.386845206117556 
1133	 0.386962638390244 
1134	 0.387086703460074 
1135	 0.387204504080979 
1136	 0.387294482961792 
1137	 0.38739593681427 
1138	 0.387530942991787 
1139	 0.387622384868924 
1140	 0.387658908553491 
1141	 0.387761729863139 
1142	 0.387857201091903 
1143	 0.387875174597411 
1144	 0.387951935804637 
1145	 0.387997987375248 
1146	 0.388011403805364 
1147	 0.388081417743231 
1148	 0.388120580239498 
1149	 0.388124804898347 
1150	 0.388107159731943 
1151	 0.38810633362067 
1152	 0.388118662179973 
1153	 0.388146752742509 
1154	 0.388145126565068 
1155	 0.388152592940739 
1156	 0.388128235670401 
1157	 0.388053608834424 
1158	 0.388010377446279 
1159	 0.387972198907461 
1160	 0.387959872753663 
1161	 0.387875642799719 
1162	 0.387800226163417 
1163	 0.387789169006258 
1164	 0.387693798721402 
1165	 0.387643212602597 
1166	 0.387654702775406 
1167	 0.387569599260781 
1168	 0.387479908526075 
1169	 0.387404389772745 
1170	 0.387342382276716 
1171	 0.387252748834701 
1172	 0.387158540561744 
1173	 0.387058499474193 
1174	 0.38693041770988 
1175	 0.386814903930468 
1176	 0.386701756678582 
1177	 0.386591685201299 
1178	 0.386494491804201 
1179	 0.386397443146257 
1180	 0.386257202281773 
1181	 0.386093775204009 
1182	 0.385923732046646 
1183	 0.385782024806613 
1184	 0.385664255237895 
1185	 0.38555514510984 
1186	 0.385417776291019 
1187	 0.385245842296944 
1188	 0.385120828537249 
1189	 0.384982213311424 
1190	 0.384898744833354 
1191	 0.384880939043586 
1192	 0.384840386305209 
1193	 0.384802417236938 
1194	 0.384782222993079 
1195	 0.384749709989974 
1196	 0.384764730903492 
1197	 0.384826108987948 
1198	 0.3848909718265 
1199	 0.384944501325767 
1200	 0.384998697658089 
1201	 0.384991990495754 
1202	 0.385018144639698 
1203	 0.38515563049853 
1204	 0.385326965451842 
1205	 0.385537283219525 
1206	 0.385848372400103 
1207	 0.386119289368083 
1208	 0.386354891187752 
1209	 0.386681125842305 
1210	 0.387023931584603 
1211	 0.387455476312242 
1212	 0.387966406687688 
1213	 0.388528346907364 
1214	 0.389140157162182 
1215	 0.389827071689374 
1216	 0.390599121965001 
1217	 0.391385703112996 
1218	 0.392256223846883 
1219	 0.393135995499945 
1220	 0.3939494663756 
1221	 0.394824460425261 
1222	 0.395677125607089 
1223	 0.396563523899584 
1224	 0.397458934555041 
1225	 0.398432738490122 
1226	 0.399273543213736 
1227	 0.400075966872757 
1228	 0.4008423548599 
1229	 0.401507949016382 
1230	 0.4022303882517 
1231	 0.40297945353896 
1232	 0.403678544681216 
1233	 0.404377857946548 
1234	 0.405035989335951 
1235	 0.405636153904726 
1236	 0.406236845377319 
1237	 0.406828531760009 
1238	 0.407394058112454 
1239	 0.407933982536014 
1240	 0.408465603103392 
1241	 0.408997692736043 
1242	 0.409479736954445 
1243	 0.409963201720094 
1244	 0.410423717792162 
1245	 0.41090952087188 
1246	 0.411404260567941 
1247	 0.4118647858314 
1248	 0.412329429890075 
1249	 0.412781449024144 
1250	 0.413178671334479 
1251	 0.413613141205634 
1252	 0.414074842682017 
1253	 0.414521941949225 
1254	 0.414981999583709 
1255	 0.41542276362536 
1256	 0.415841665391122 
1257	 0.416274782089717 
1258	 0.416702416695658 
1259	 0.417129530501085 
1260	 0.417565851967595 
1261	 0.418003457343751 
1262	 0.418417700310134 
1263	 0.418867662687786 
1264	 0.419322329145966 
1265	 0.419800451227918 
1266	 0.420255916676506 
1267	 0.420724407799898 
1268	 0.421156827162405 
1269	 0.421560706075675 
1270	 0.421974643182305 
1271	 0.422374036871678 
1272	 0.422781293817686 
1273	 0.423193739587633 
1274	 0.423599884291202 
1275	 0.424020147295111 
1276	 0.424400188548928 
1277	 0.424756289340788 
1278	 0.425113330946815 
1279	 0.425452082013118 
1280	 0.425775825690499 
1281	 0.426075295414458 
1282	 0.426395245948054 
1283	 0.426721532439847 
1284	 0.427023964706769 
1285	 0.427321482966102 
1286	 0.427647847354546 
1287	 0.427905333209672 
1288	 0.428098925949313 
1289	 0.428343180982914 
1290	 0.428585457780628 
1291	 0.428820122006255 
1292	 0.429067345478957 
1293	 0.429303693936734 
1294	 0.429514103151459 
1295	 0.429746048383258 
1296	 0.430008559167905 
1297	 0.430232710294269 
1298	 0.430418706138446 
1299	 0.430647485044016 
1300	 0.430884232323898 
1301	 0.431115063640383 
1302	 0.431368204242077 
1303	 0.431619693997762 
1304	 0.43188671857316 
1305	 0.432107089129358 
1306	 0.43230166134899 
1307	 0.432509364087989 
1308	 0.432693320293965 
1309	 0.432849723526546 
1310	 0.433058923385039 
1311	 0.433304746712971 
1312	 0.433544898373443 
1313	 0.433794237487457 
1314	 0.434045706112834 
1315	 0.434322451000748 
1316	 0.434561859140062 
1317	 0.434775723418371 
1318	 0.435016783917164 
1319	 0.43524860686299 
1320	 0.435493720320837 
1321	 0.435778540198764 
1322	 0.436021901179335 
1323	 0.436231246816863 
1324	 0.43646679660902 
1325	 0.436694859402627 
1326	 0.436934836715114 
1327	 0.437217473675396 
1328	 0.437457269928202 
1329	 0.437666617539248 
1330	 0.437889208834973 
1331	 0.438101963446856 
1332	 0.43830733230733 
1333	 0.438529928162126 
1334	 0.438727060842745 
1335	 0.438919939649562 
1336	 0.439093159153975 
1337	 0.439279026558918 
1338	 0.439470227293021 
1339	 0.439642578766268 
1340	 0.439821702577236 
1341	 0.439954804496057 
1342	 0.440061606275911 
1343	 0.440160616337658 
1344	 0.440236904479721 
1345	 0.440298600723583 
1346	 0.440352040464326 
1347	 0.440384518077164 
1348	 0.44037498880662 
1349	 0.440391355349077 
1350	 0.440430377473975 
1351	 0.440424680061649 
1352	 0.440415775348392 
1353	 0.440379436659487 
1354	 0.440279447973921 
1355	 0.440214949570222 
1356	 0.440180339478947 
1357	 0.440105015307398 
1358	 0.440017533485514 
1359	 0.439922688500824 
1360	 0.439816289884406 
1361	 0.439671348631635 
1362	 0.439519908882719 
1363	 0.439380150960491 
1364	 0.439210157508385 
1365	 0.43902319886931 
1366	 0.438798111130249 
1367	 0.43856618769731 
1368	 0.438276178992243 
1369	 0.437940523888944 
1370	 0.437572380638415 
1371	 0.437173296187308 
1372	 0.436739263580977 
1373	 0.436278357088032 
1374	 0.435758471763219 
1375	 0.435187908510348 
1376	 0.434586907060993 
1377	 0.433915425678498 
1378	 0.433250961680111 
1379	 0.432575749258463 
1380	 0.431871152972004 
1381	 0.431168405673995 
1382	 0.430394947493838 
1383	 0.429562008663373 
1384	 0.428715160570546 
1385	 0.42781877331906 
1386	 0.426917243753472 
1387	 0.425963675283872 
1388	 0.425074889419237 
1389	 0.424172931516446 
1390	 0.423328730268921 
1391	 0.422570229057308 
1392	 0.421783764106653 
1393	 0.42108218438412 
1394	 0.420389641917111 
1395	 0.419691925965995 
1396	 0.419045117737828 
1397	 0.418321651357615 
1398	 0.417591629658141 
1399	 0.416772744428857 
1400	 0.415920829161983 
1401	 0.414971845074299 
1402	 0.41394547714226 
1403	 0.412852260232664 
1404	 0.411691510027729 
1405	 0.410463878987226 
1406	 0.409148124368388 
1407	 0.407810209965592 
1408	 0.40634513256775 
1409	 0.404987172173289 
1410	 0.403635081934343 
1411	 0.402311150493611 
1412	 0.401032937702638 
1413	 0.399784277407547 
1414	 0.398502619363967 
1415	 0.397331342844751 
1416	 0.396244400732579 
1417	 0.395183833024148 
1418	 0.394186850536161 
1419	 0.393226493806673 
1420	 0.392286977844015 
1421	 0.391413424348068 
1422	 0.390628425689384 
1423	 0.389838485171471 
1424	 0.389087499626375 
1425	 0.388335254619819 
1426	 0.387648466098079 
1427	 0.386960642062678 
1428	 0.386305155966588 
1429	 0.385724711471919 
1430	 0.385137755444778 
1431	 0.384560613056751 
1432	 0.384008919597236 
1433	 0.383499047293942 
1434	 0.382962942242505 
1435	 0.382429802329211 
1436	 0.381894712886797 
1437	 0.381349299631863 
1438	 0.380826129357959 
1439	 0.38028963585348 
1440	 0.379816271924054 
1441	 0.379343006246786 
1442	 0.378962046914556 
1443	 0.378608763808156 
1444	 0.37838468014992 
1445	 0.378218069443824 
1446	 0.378208000730401 
1447	 0.378282768478613 
1448	 0.378553157276821 
1449	 0.37900157519649 
1450	 0.379546302652363 
1451	 0.380283875495738 
1452	 0.381065734942072 
1453	 0.381995358759926 
1454	 0.382889081466666 
1455	 0.383840099599943 
1456	 0.384803591958485 
1457	 0.385780501411141 
1458	 0.386756732726711 
1459	 0.387797184712031 
1460	 0.388783135911922 
1461	 0.389741692057713 
1462	 0.390669661998614 
1463	 0.391569593749641 
1464	 0.392446492917853 
1465	 0.393275636819063 
1466	 0.394116373428628 
1467	 0.39491209055098 
1468	 0.395725488267442 
1469	 0.396589348231846 
1470	 0.397389792711659 
1471	 0.398191227361762 
1472	 0.399005180840059 
1473	 0.399774492413153 
1474	 0.400499578911695 
1475	 0.401238560089046 
1476	 0.401970706273878 
1477	 0.402691261528514 
1478	 0.403425661827376 
1479	 0.404074506110971 
1480	 0.404681802907479 
1481	 0.405273184042511 
1482	 0.405807634005628 
1483	 0.406338719219312 
1484	 0.406874157479883 
1485	 0.407362710499782 
1486	 0.407790878062079 
1487	 0.408235097020082 
1488	 0.408616907655651 
1489	 0.409103575688882 
1490	 0.409623489105764 
1491	 0.410182927031273 
1492	 0.410809839219783 
1493	 0.41146066343304 
1494	 0.412117173202513 
1495	 0.412837309338429 
1496	 0.413631877414228 
1497	 0.414430679771827 
1498	 0.41528127951717 
1499	 0.41612236911332 
1500	 0.416992949374815 
1501	 0.417839756215312 
1502	 0.418701320717494 
1503	 0.419514715911181 
1504	 0.420306286129091 
1505	 0.421063803665591 
1506	 0.421780730066228 
1507	 0.422481722617909 
1508	 0.423145302435885 
1509	 0.42380753244459 
1510	 0.424477320963541 
1511	 0.425089792090508 
1512	 0.425678231752734 
1513	 0.426234511164798 
1514	 0.426714104651499 
1515	 0.427211142379598 
1516	 0.427744858207705 
1517	 0.428197331419655 
1518	 0.428603247526878 
1519	 0.428990028729388 
1520	 0.429326477955627 
1521	 0.429610949213091 
1522	 0.42990857735481 
1523	 0.430208920657389 
1524	 0.43046972018558 
1525	 0.430701514740708 
1526	 0.430918797201539 
1527	 0.431121485696219 
1528	 0.43128395354651 
1529	 0.431401586029363 
1530	 0.43155433932067 
1531	 0.431690870362099 
1532	 0.431836586678088 
1533	 0.431997148358249 
1534	 0.432163521589437 
1535	 0.432313175162218 
1536	 0.432498008978476 
1537	 0.432691661555432 
1538	 0.43295162901489 
1539	 0.433247910456194 
1540	 0.433557910257201 
1541	 0.433924400695212 
1542	 0.434292176444959 
1543	 0.434652007757823 
1544	 0.435059687511831 
1545	 0.435510785376323 
1546	 0.435974864720822 
1547	 0.436470341952498 
1548	 0.436961152593273 
1549	 0.437479344033503 
1550	 0.437981695781613 
1551	 0.438471322205603 
1552	 0.438980121914589 
1553	 0.439507772687409 
1554	 0.440012784545462 
1555	 0.44051300437295 
1556	 0.441019219676533 
1557	 0.44151707251423 
1558	 0.442013644829855 
1559	 0.442531623842795 
1560	 0.443014960413457 
1561	 0.443457367795392 
1562	 0.443934301306577 
1563	 0.444414964133794 
1564	 0.444894433387805 
1565	 0.445389039281345 
1566	 0.44588063311212 
1567	 0.446369321522802 
1568	 0.446851389784262 
1569	 0.447344038724433 
1570	 0.447820383731783 
1571	 0.448289374843574 
1572	 0.448735031407614 
1573	 0.449156060480901 
1574	 0.449589571199782 
1575	 0.449996478162382 
1576	 0.450431285318082 
1577	 0.450895727169453 
1578	 0.451346387863777 
1579	 0.451808879548097 
1580	 0.452249029895862 
1581	 0.452684570135708 
1582	 0.453099094566565 
1583	 0.453469480988438 
1584	 0.453878814442872 
1585	 0.454289656068241 
1586	 0.454712166091179 
1587	 0.455173801702196 
1588	 0.455609996739075 
1589	 0.456044561200925 
1590	 0.456461490303489 
1591	 0.456869720888767 
1592	 0.457262531984096 
1593	 0.457618847826824 
1594	 0.457999941591566 
1595	 0.458383023647023 
1596	 0.458765665106976 
1597	 0.45915681307115 
1598	 0.459554470707853 
1599	 0.459980562579712 
1600	 0.460355311126684 
1601	 0.46070244635036 
1602	 0.461059316307535 
1603	 0.461362428380449 
1604	 0.461707156449684 
1605	 0.462104958264933 
1606	 0.462471913782529 
1607	 0.462854392444254 
1608	 0.463196080909128 
1609	 0.463474490980957 
1610	 0.463804464433858 
1611	 0.464142530022618 
1612	 0.46447434487422 
1613	 0.464881354989585 
1614	 0.465197765153865 
1615	 0.465452317810392 
1616	 0.465693576945254 
1617	 0.465859293862893 
1618	 0.466062051800743 
1619	 0.466298942319543 
1620	 0.466483162251013 
1621	 0.466636078886509 
1622	 0.466803576436434 
1623	 0.46693694189891 
1624	 0.467081092184714 
1625	 0.467269638067477 
1626	 0.467411236022945 
1627	 0.467532104156841 
1628	 0.467623098950086 
1629	 0.467643285439587 
1630	 0.467724049210544 
1631	 0.467820833162504 
1632	 0.467907493887157 
1633	 0.468047661354845 
1634	 0.468139809669454 
1635	 0.468174249944193 
1636	 0.468231466146108 
1637	 0.468265584823742 
1638	 0.468341520280936 
1639	 0.468489543016677 
1640	 0.468560125870995 
1641	 0.468626482529482 
1642	 0.46865340493299 
1643	 0.468601550564783 
1644	 0.468562938713047 
1645	 0.468552199538923 
1646	 0.468469305163174 
1647	 0.468322806547075 
1648	 0.468190558293476 
1649	 0.468017936606241 
1650	 0.467846273907451 
1651	 0.467690148330145 
1652	 0.46750701664957 
1653	 0.46730767933525 
1654	 0.46708095063305 
1655	 0.466853948635434 
1656	 0.466570594973645 
1657	 0.466247391108127 
1658	 0.465881204632068 
1659	 0.465509602402703 
1660	 0.465029690575351 
1661	 0.464467704645406 
1662	 0.463864304956707 
1663	 0.46316315553673 
1664	 0.462420197606079 
1665	 0.461679063575075 
1666	 0.46080526270806 
1667	 0.459820906016438 
1668	 0.458811958561209 
1669	 0.457749127027859 
1670	 0.456561552744506 
1671	 0.45531295574158 
1672	 0.453938449828989 
1673	 0.45243326400776 
1674	 0.450835331881216 
1675	 0.449125259184353 
1676	 0.447387761018 
1677	 0.445576359472681 
1678	 0.443668355635761 
1679	 0.441677887210329 
1680	 0.439620816851704 
1681	 0.437474685643271 
1682	 0.435217765802842 
1683	 0.432931095792471 
1684	 0.430516604038248 
1685	 0.427909220146497 
1686	 0.42534639472585 
1687	 0.422732417235452 
1688	 0.420034092158505 
1689	 0.417312631707365 
1690	 0.414466381457244 
1691	 0.411520514364668 
1692	 0.408567450808132 
1693	 0.405535848814656 
1694	 0.402503921709032 
1695	 0.399407023941627 
1696	 0.396293965565826 
1697	 0.393181919029916 
1698	 0.389969377977848 
1699	 0.386725266196947 
1700	 0.383497097813104 
1701	 0.380150714954422 
1702	 0.376954866566434 
1703	 0.373745266861063 
1704	 0.370716239161299 
1705	 0.367757041850137 
1706	 0.364914351912953 
1707	 0.362447381157257 
1708	 0.36013055512008 
1709	 0.358014810338383 
1710	 0.356108943008132 
1711	 0.354192641535931 
1712	 0.352444466277096 
1713	 0.350770340608002 
1714	 0.349165173132626 
1715	 0.347748376536405 
1716	 0.346311188541742 
1717	 0.344932408929468 
1718	 0.343640359459754 
1719	 0.342385026649388 
1720	 0.341251565999355 
1721	 0.340231849645197 
1722	 0.339327046444601 
1723	 0.33854434701134 
1724	 0.337882474561581 
1725	 0.337384404382038 
1726	 0.337116610425114 
1727	 0.337108640349962 
1728	 0.337340812582298 
1729	 0.337870240241923 
1730	 0.338674784262229 
1731	 0.339650897357453 
1732	 0.340893935914032 
1733	 0.342275983041516 
1734	 0.34376549103446 
1735	 0.345328677475423 
1736	 0.346810070095812 
1737	 0.348217080945977 
1738	 0.349500959679796 
1739	 0.350522648889004 
1740	 0.351366682103993 
1741	 0.352002087762548 
1742	 0.352391323375166 
1743	 0.352626977762176 
1744	 0.352641095500512 
1745	 0.352566821818076 
1746	 0.352275375159282 
1747	 0.351999363057593 
1748	 0.351571447515149 
1749	 0.351290311903596 
1750	 0.350998257549618 
1751	 0.350808892707071 
1752	 0.350716115893603 
1753	 0.350696009057812 
1754	 0.350689574954975 
1755	 0.350859071189615 
1756	 0.351138909414116 
1757	 0.35157405047713 
1758	 0.352222949597144 
1759	 0.353038887154498 
1760	 0.354025556573118 
1761	 0.355178088809029 
1762	 0.356411383113774 
1763	 0.357824514558871 
1764	 0.359333021322901 
1765	 0.361008243122298 
1766	 0.362927576209479 
1767	 0.364869530486006 
1768	 0.366907455628201 
1769	 0.369000634124756 
1770	 0.370976643309311 
1771	 0.372934610165802 
1772	 0.374785846361177 
1773	 0.376562882028871 
1774	 0.378342837814617 
1775	 0.379961948469361 
1776	 0.381555126156855 
1777	 0.383036309433171 
1778	 0.384307676237701 
1779	 0.385524784087021 
1780	 0.386624546369895 
1781	 0.387657287302969 
1782	 0.38869392878566 
1783	 0.389685440246592 
1784	 0.390668441466886 
1785	 0.391435986341083 
1786	 0.392137923407618 
1787	 0.39272365804255 
1788	 0.393325923013577 
1789	 0.393902539454001 
1790	 0.394446303275154 
1791	 0.394937500557128 
1792	 0.395448617875573 
1793	 0.395951996572399 
1794	 0.396379853592587 
1795	 0.396815074656151 
1796	 0.397268268273569 
1797	 0.397675516659144 
1798	 0.398137681230362 
1799	 0.398655137906053 
1800	 0.399079905299436 
1801	 0.393773558732713 
1802	 0.394189653001231 
1803	 0.394607058479068 
1804	 0.395048453233161 
1805	 0.395510034180098 
1806	 0.395930643605193 
1807	 0.396356485373851 
1808	 0.396747116364145 
1809	 0.397086574795049 
1810	 0.397459437991235 
1811	 0.397825023813201 
1812	 0.398197682172029 
1813	 0.398567357959192 
1814	 0.398979499338877 
1815	 0.399393167716897 
1816	 0.399769419729978 
1817	 0.400196182968007 
1818	 0.400653129380309 
1819	 0.401122017705428 
1820	 0.401602684202792 
1821	 0.402105865926113 
1822	 0.402645368604539 
1823	 0.403176888876869 
1824	 0.403708323090802 
1825	 0.404228309207886 
1826	 0.404727409709461 
1827	 0.405196569303396 
1828	 0.405681247616042 
1829	 0.406194180099908 
1830	 0.406644436638906 
1831	 0.407068550050604 
1832	 0.407489560577487 
1833	 0.407842939245476 
1834	 0.408249524836335 
1835	 0.408726074377965 
1836	 0.409164087671485 
1837	 0.409613714958218 
1838	 0.410073987967629 
1839	 0.410514231799354 
1840	 0.410956272791925 
1841	 0.411390948411173 
1842	 0.411811905504026 
1843	 0.412267654478782 
1844	 0.412677567273023 
1845	 0.412993725885048 
1846	 0.413282477859358 
1847	 0.413534772957186 
1848	 0.413806195991032 
1849	 0.414102551910513 
1850	 0.414340476463269 
1851	 0.41457741747367 
1852	 0.414757778891214 
1853	 0.414872801038215 
1854	 0.414892749157736 
1855	 0.414915353612283 
1856	 0.414923677431731 
1857	 0.414845720102003 
1858	 0.41470324009309 
1859	 0.414494891490762 
1860	 0.414181834901695 
1861	 0.413856801420683 
1862	 0.413481729583237 
1863	 0.413090247411123 
1864	 0.412653292065945 
1865	 0.412185798744171 
1866	 0.411618493835259 
1867	 0.410906671111776 
1868	 0.410130130759012 
1869	 0.409195243526485 
1870	 0.408212092439569 
1871	 0.407167893619616 
1872	 0.406060957130879 
1873	 0.404874076474189 
1874	 0.403652136705501 
1875	 0.402366128011901 
1876	 0.400868885451329 
1877	 0.399359978877386 
1878	 0.397721367470301 
1879	 0.395870413936942 
1880	 0.39401677564008 
1881	 0.3920203190721 
1882	 0.389873488231925 
1883	 0.387636313567847 
1884	 0.385283628864626 
1885	 0.382658527034556 
1886	 0.380008688222741 
1887	 0.377110051938486 
1888	 0.373977069485421 
1889	 0.370947963194555 
1890	 0.367657047489301 
1891	 0.364332540060204 
1892	 0.361028415895826 
1893	 0.35756199517185 
1894	 0.353911693327429 
1895	 0.350365299128299 
1896	 0.346684086378718 
1897	 0.342985535054175 
1898	 0.339607107780272 
1899	 0.336094272923462 
1900	 0.332711106625084 
1901	 0.329431199532707 
1902	 0.325903218403844 
1903	 0.322601057107719 
1904	 0.319383342509082 
1905	 0.316179434291126 
1906	 0.313100446429873 
1907	 0.310397407635054 
1908	 0.307686413631676 
1909	 0.305141012885026 
1910	 0.302716598382978 
1911	 0.300245081701539 
1912	 0.298044724766196 
1913	 0.295912047220396 
1914	 0.293845673976017 
1915	 0.291941078502058 
1916	 0.290246957643887 
1917	 0.288485594012278 
1918	 0.286833585246429 
1919	 0.285285485288412 
1920	 0.283702732730189 
1921	 0.282264956566151 
1922	 0.280865335287086 
1923	 0.279529637505714 
1924	 0.278364932497709 
1925	 0.277231524489668 
1926	 0.276186990199483 
1927	 0.275275517383635 
1928	 0.274358632023999 
1929	 0.27347238072754 
1930	 0.272675137831062 
1931	 0.271892460239352 
1932	 0.271180137262672 
1933	 0.270663371055215 
1934	 0.270221015478074 
1935	 0.269872270806343 
1936	 0.269650920096082 
1937	 0.26947991844836 
1938	 0.269361513397594 
1939	 0.26934178363227 
1940	 0.269404912425036 
1941	 0.269563669537181 
1942	 0.269791799154044 
1943	 0.270126010329077 
1944	 0.2705243424931 
1945	 0.270965209633218 
1946	 0.27148621226705 
1947	 0.272031827521312 
1948	 0.272647544047063 
1949	 0.273302688234205 
1950	 0.274005121130062 
1951	 0.274737051927775 
1952	 0.275571847431644 
1953	 0.27645286556333 
1954	 0.277436813543897 
1955	 0.278567800679675 
1956	 0.279663672466643 
1957	 0.280788059714848 
1958	 0.281967193495694 
1959	 0.283012393610347 
1960	 0.28403639141718 
1961	 0.28503047895411 
1962	 0.285974674635169 
1963	 0.286881822511195 
1964	 0.28776028577879 
1965	 0.28859781134208 
1966	 0.289402786790998 
1967	 0.290157975957586 
1968	 0.290851058752476 
1969	 0.291595646870015 
1970	 0.29225142158791 
1971	 0.292884282979297 
1972	 0.293629757734631 
1973	 0.294362496317845 
1974	 0.295120313202944 
1975	 0.295973889948166 
1976	 0.296756774345242 
1977	 0.297497092669236 
1978	 0.298261183552452 
1979	 0.298994546354856 
1980	 0.299774779862219 
1981	 0.300636880841917 
1982	 0.301471334354931 
1983	 0.302399677457649 
1984	 0.303346389268586 
1985	 0.304178193247265 
1986	 0.30503107779317 
1987	 0.305922030473022 
1988	 0.306738106718355 
1989	 0.307711247605568 
1990	 0.308785458080014 
1991	 0.309891208332152 
1992	 0.311076829188181 
1993	 0.31233414093069 
1994	 0.313515668422234 
1995	 0.314796691515515 
1996	 0.316072078813235 
1997	 0.317325169546841 
1998	 0.318630231458637 
1999	 0.320006755124765 
2000	 0.321297162291733 
2001	 0.32264501236875 
2002	 0.323852197450039 
2003	 0.324985004092903 
2004	 0.326056841455452 
2005	 0.327003743224861 
2006	 0.327951089628321 
2007	 0.328883110697567 
2008	 0.32973769181816 
2009	 0.330540736481883 
2010	 0.331306333885036 
2011	 0.331935000214728 
2012	 0.332531999752011 
2013	 0.333073394065657 
2014	 0.333540063801188 
2015	 0.333993051986859 
2016	 0.334418357221903 
2017	 0.334770512449797 
2018	 0.335110101437648 
2019	 0.335345108210631 
2020	 0.335469525072498 
2021	 0.335572271026683 
2022	 0.335635177956666 
2023	 0.335603889179217 
2024	 0.335533124014235 
2025	 0.335429307712526 
2026	 0.335282429647142 
2027	 0.335067368024388 
2028	 0.334840247714774 
2029	 0.334571170519468 
2030	 0.33430576696731 
2031	 0.334026448271733 
2032	 0.333712063178233 
2033	 0.333373233020757 
2034	 0.333026990582605 
2035	 0.332646214790951 
2036	 0.332230082321761 
2037	 0.33186739577707 
2038	 0.331543395964472 
2039	 0.331216862926839 
2040	 0.330920598738393 
2041	 0.33059131682556 
2042	 0.330265991456716 
2043	 0.329929042031307 
2044	 0.329546027667365 
2045	 0.329215971343858 
2046	 0.32890906389331 
2047	 0.328597002311287 
2048	 0.328316480392631 
2049	 0.328023957948375 
2050	 0.327708611914773 
2051	 0.327411501375739 
2052	 0.327160621060165 
2053	 0.326938182046119 
2054	 0.326717952672383 
2055	 0.326563500556427 
2056	 0.326327575298096 
2057	 0.326048607618918 
2058	 0.325794396576866 
2059	 0.325528277357049 
2060	 0.325260563298181 
2061	 0.324981724969299 
2062	 0.324728633104896 
2063	 0.324478337842113 
2064	 0.32422833496413 
2065	 0.324002277676616 
2066	 0.32378396812285 
2067	 0.32352966933515 
2068	 0.323274686337015 
2069	 0.323037967009255 
2070	 0.322802256722302 
2071	 0.322588263394665 
2072	 0.322416481856681 
2073	 0.322192984871419 
2074	 0.321971207590078 
2075	 0.321721985014188 
2076	 0.321413957669845 
2077	 0.321138447195082 
2078	 0.320862313752814 
2079	 0.320597118472568 
2080	 0.320365527417769 
2081	 0.320097614775072 
2082	 0.319813425804705 
2083	 0.319527239319207 
2084	 0.319209744813915 
2085	 0.318957443394788 
2086	 0.318674113520148 
2087	 0.318386981377563 
2088	 0.318131157215233 
2089	 0.317885422179977 
2090	 0.317625966468363 
2091	 0.317444303258856 
2092	 0.31715306276096 
2093	 0.316758266925869 
2094	 0.316423956373944 
2095	 0.316055817555564 
2096	 0.315705947493029 
2097	 0.315418018746213 
2098	 0.31509253625589 
2099	 0.314694352831212 
2100	 0.314310766654654 
2101	 0.313899399185054 
2102	 0.313431151413562 
2103	 0.313026312381299 
2104	 0.312650299531824 
2105	 0.312234049095521 
2106	 0.311854873488217 
2107	 0.311406390188765 
2108	 0.310901155707963 
2109	 0.310392441163988 
2110	 0.309870635586545 
2111	 0.309302064847413 
2112	 0.308683982155342 
2113	 0.308067638935303 
2114	 0.307426999834823 
2115	 0.306765819929395 
2116	 0.306098045818392 
2117	 0.305411864675396 
2118	 0.304701895136904 
2119	 0.303951719300814 
2120	 0.303227878874564 
2121	 0.302470597358326 
2122	 0.301786193580271 
2123	 0.301148711430595 
2124	 0.300482040663285 
2125	 0.299824207875283 
2126	 0.299198522601548 
2127	 0.298575985016523 
2128	 0.297961223157026 
2129	 0.297368363603293 
2130	 0.296809881318677 
2131	 0.296251018713826 
2132	 0.295719426062604 
2133	 0.295230725432137 
2134	 0.294770003292708 
2135	 0.294303988612894 
2136	 0.293887443078882 
2137	 0.293477476585684 
2138	 0.293110324350879 
2139	 0.292712078452862 
2140	 0.292305372161475 
2141	 0.291921569315325 
2142	 0.29152997094386 
2143	 0.291186308689414 
2144	 0.290879882593886 
2145	 0.290573315696182 
2146	 0.290261146938774 
2147	 0.290009534066599 
2148	 0.28978719539065 
2149	 0.289600208606196 
2150	 0.289479382494865 
2151	 0.289360037695378 
2152	 0.289245512393018 
2153	 0.289178350818784 
2154	 0.289133372988985 
2155	 0.289078775626936 
2156	 0.289002274102887 
2157	 0.288908293877899 
2158	 0.288850876471726 
2159	 0.288799787638853 
2160	 0.288728702679702 
2161	 0.288685876694461 
2162	 0.288621757688784 
2163	 0.288515734382988 
2164	 0.288421651800518 
2165	 0.288354087149195 
2166	 0.288250243164511 
2167	 0.288113398675051 
2168	 0.287992391370048 
2169	 0.28786587159945 
2170	 0.287734489177551 
2171	 0.287594524703225 
2172	 0.287460950816656 
2173	 0.287296881544783 
2174	 0.287189688787449 
2175	 0.287130481324125 
2176	 0.287051919670531 
2177	 0.286947901319977 
2178	 0.286850174058537 
2179	 0.286753929689103 
2180	 0.286607906046328 
2181	 0.286519033357532 
2182	 0.286490511045201 
2183	 0.286414668464561 
2184	 0.286345824999976 
2185	 0.286238685811574 
2186	 0.286090481147885 
2187	 0.2859686102283 
2188	 0.285856630704634 
2189	 0.285698970575407 
2190	 0.285511709699983 
2191	 0.285350060319966 
2192	 0.285148155475736 
2193	 0.284977509069134 
2194	 0.284894886556437 
2195	 0.28473551854796 
2196	 0.284528039046064 
2197	 0.284319920943753 
2198	 0.284125975041928 
2199	 0.283868789954971 
2200	 0.283587439898544 
2201	 0.283288348147444 
2202	 0.282984349367394 
2203	 0.282608177120785 
2204	 0.282317776425477 
2205	 0.282099710684817 
2206	 0.281798121791874 
2207	 0.281480034595475 
2208	 0.281165559882444 
2209	 0.280820221985849 
2210	 0.280468235222735 
2211	 0.280144927746046 
2212	 0.279770132217131 
2213	 0.279295750795648 
2214	 0.278921381921207 
2215	 0.278575370887505 
2216	 0.278235565675702 
2217	 0.277982435287396 
2218	 0.277669726891083 
2219	 0.277331414885112 
2220	 0.276981317399082 
2221	 0.276630080059721 
2222	 0.276221212888343 
2223	 0.275804601010382 
2224	 0.27540148393362 
2225	 0.274965993560317 
2226	 0.274523223978173 
2227	 0.274014374274243 
2228	 0.27350179934634 
2229	 0.272861013392161 
2230	 0.272157777867091 
2231	 0.271321117406215 
2232	 0.2703590967357 
2233	 0.269328958769692 
2234	 0.268237070656382 
2235	 0.266980411706112 
2236	 0.265600245440676 
2237	 0.264133179607733 
2238	 0.262452927838322 
2239	 0.260811992630562 
2240	 0.259206658358812 
2241	 0.257388323637837 
2242	 0.255548777511783 
2243	 0.253455812048633 
2244	 0.251053464658547 
2245	 0.24867102864977 
2246	 0.246091814021874 
2247	 0.243521464579885 
2248	 0.240929624416337 
2249	 0.238288646297018 
2250	 0.235611040074384 
2251	 0.232899828694848 
2252	 0.229981565906554 
2253	 0.227119317415695 
2254	 0.224215406058865 
2255	 0.221258048273445 
2256	 0.218576846950507 
2257	 0.215911691332449 
2258	 0.21328304578484 
2259	 0.210726750435111 
2260	 0.208217277250243 
2261	 0.2057386294241 
2262	 0.203333404187229 
2263	 0.200963006642663 
2264	 0.19872318171038 
2265	 0.196591206756528 
2266	 0.194465175647647 
2267	 0.192506951776514 
2268	 0.190441681280101 
2269	 0.188293587023243 
2270	 0.186296535996945 
2271	 0.184308163979907 
2272	 0.182410756547075 
2273	 0.180675097725664 
2274	 0.178874869509954 
2275	 0.17712500979945 
2276	 0.175335252275488 
2277	 0.173537116541107 
2278	 0.171730159396552 
2279	 0.169870030107692 
2280	 0.168026796565656 
2281	 0.166250770223476 
2282	 0.164361864204425 
2283	 0.162428211927948 
2284	 0.160475655549717 
2285	 0.158328390913041 
2286	 0.156183799253035 
2287	 0.153940794899036 
2288	 0.151646573340843 
2289	 0.149597743182902 
2290	 0.147453736008174 
2291	 0.145387897594186 
2292	 0.143357739349769 
2293	 0.141015308603281 
2294	 0.138758231305233 
2295	 0.136555082571564 
2296	 0.134507117422717 
2297	 0.132762024763719 
2298	 0.131270234901981 
2299	 0.129969501973221 
2300	 0.12892637256478 
2301	 0.128058590422276 
2302	 0.127424906096394 
2303	 0.127004423571396 
2304	 0.126699661643953 
2305	 0.126864655899447 
2306	 0.127447843171009 
2307	 0.128101671695101 
2308	 0.129127274116564 
2309	 0.130225692681234 
2310	 0.131429150754124 
2311	 0.132805030624248 
2312	 0.134509164495065 
2313	 0.136138081761123 
2314	 0.137853140733745 
2315	 0.139560321799631 
2316	 0.141348637506876 
2317	 0.143010966573886 
2318	 0.144800724908935 
2319	 0.146211040401368 
2320	 0.14738254025508 
2321	 0.148465597219668 
2322	 0.14936001766685 
2323	 0.150053442776908 
2324	 0.150597041861681 
2325	 0.150985259894583 
2326	 0.151104082324659 
2327	 0.151094860853724 
2328	 0.150943221671869 
2329	 0.150685875266496 
2330	 0.150263618463816 
2331	 0.149712855316506 
2332	 0.148996493670961 
2333	 0.148287406684268 
2334	 0.147337550191143 
2335	 0.146198272671055 
2336	 0.14496218876718 
2337	 0.143626408757809 
2338	 0.142394852337823 
2339	 0.140965708962353 
2340	 0.139576955588331 
2341	 0.138299592732638 
2342	 0.136900262390734 
2343	 0.135782158405109 
2344	 0.134967659327237 
2345	 0.134338187468788 
2346	 0.133989903030285 
2347	 0.133910960262043 
2348	 0.134041780801995 
2349	 0.134408684451316 
2350	 0.134962266784068 
2351	 0.135828320193054 
2352	 0.137001650277892 
2353	 0.138263847082624 
2354	 0.139473329649904 
2355	 0.140698486828186 
2356	 0.141785858789444 
2357	 0.142691835925018 
2358	 0.14356747720197 
2359	 0.144231471608884 
2360	 0.144764153176436 
2361	 0.145153375897472 
2362	 0.145365114215038 
2363	 0.145519364940075 
2364	 0.145540721855498 
2365	 0.145406982412663 
2366	 0.145247632508586 
2367	 0.145117767116897 
2368	 0.144931176023447 
2369	 0.144755157795674 
2370	 0.144710973019392 
2371	 0.144652592486476 
2372	 0.144649582145007 
2373	 0.14475898173826 
2374	 0.144814155457481 
2375	 0.144757754774847 
2376	 0.144581563085574 
2377	 0.144514056376342 
2378	 0.144529589285694 
2379	 0.144439894287835 
2380	 0.144542873952482 
2381	 0.144669380088316 
2382	 0.144603287593205 
2383	 0.14433914066873 
2384	 0.14434180269878 
2385	 0.144300063453714 
2386	 0.144321121967634 
2387	 0.144598537071235 
2388	 0.144650379661643 
2389	 0.144503577652452 
2390	 0.144615542653222 
2391	 0.144803016916019 
2392	 0.144998870287348 
2393	 0.145466597900723 
2394	 0.145556960859385 
2395	 0.145360946944942 
2396	 0.145323165111747 
2397	 0.145211218748683 
2398	 0.145147053074749 
2399	 0.145182913513036 
2400	 0.145170618290192 
2401	 0.145050299770923 
2402	 0.144918161919543 
2403	 0.145019218116455 
2404	 0.145103364238366 
2405	 0.145076809910289 
2406	 0.145011845802485 
2407	 0.144823919219921 
2408	 0.144721901287443 
2409	 0.144850012383153 
2410	 0.145056605467923 
2411	 0.145101574112682 
2412	 0.144682449268384 
2413	 0.144191829159477 
2414	 0.144086328590467 
2415	 0.144070158814805 
2416	 0.144327199944938 
2417	 0.144605565120307 
2418	 0.14437199838308 
2419	 0.14415370069817 
2420	 0.144066179994823 
2421	 0.144075331974113 
2422	 0.144038031236986 
2423	 0.143894796143069 
2424	 0.143920437749182 
2425	 0.143861194202551 
2426	 0.14411150868522 
2427	 0.144387703285971 
2428	 0.144087998509511 
2429	 0.14370321711714 
2430	 0.142969913341595 
2431	 0.142372924651912 
2432	 0.142457474136615 
2433	 0.142499792151148 
2434	 0.142548308429707 
2435	 0.142409847700219 
2436	 0.141812677430306 
2437	 0.141331080795987 
2438	 0.140986160695227 
2439	 0.140750225263436 
2440	 0.140740341050543 
2441	 0.140775837959771 
2442	 0.140689732699903 
2443	 0.140474269218077 
2444	 0.140292026063092 
2445	 0.14000983314386 
2446	 0.139830708238264 
2447	 0.139778454238789 
2448	 0.139314815703775 
2449	 0.138676947198872 
2450	 0.138118147312068 
2451	 0.137792798678557 
2452	 0.137624590866158 
2453	 0.137212487125607 
2454	 0.136863418315095 
2455	 0.136155552906707 
2456	 0.135267865591116 
2457	 0.134970868336186 
2458	 0.134740938215163 
2459	 0.134537917780845 
2460	 0.134304622212862 
2461	 0.133840535711143 
2462	 0.133467268828936 
2463	 0.13307428581002 
2464	 0.132819307409689 
2465	 0.133092014984681 
2466	 0.13295214246395 
2467	 0.132245526364977 
2468	 0.132060121149588 
2469	 0.131917101444822 
2470	 0.131522778352044 
2471	 0.131433186026298 
2472	 0.131267401963946 
2473	 0.130967286078871 
2474	 0.130848077344625 
2475	 0.13076824897866 
2476	 0.130812416939802 
2477	 0.130798830808404 
2478	 0.130819708842623 
2479	 0.131200535044355 
2480	 0.131532154208777 
2481	 0.131308829268157 
2482	 0.130279538656457 
2483	 0.130617319954957 
2484	 0.130796689232395 
2485	 0.131015853016454 
2486	 0.131661889137302 
2487	 0.131525275326188 
2488	 0.131207626328461 
2489	 0.13171885200458 
2490	 0.132155054498209 
2491	 0.132448603155714 
2492	 0.132996293967612 
2493	 0.133172550306192 
2494	 0.132932648259619 
2495	 0.132517793583096 
2496	 0.132415228221794 
2497	 0.132696299127946 
2498	 0.133110652154608 
2499	 0.133360922093018 
2500	 0.133177336306577 
