Wavelength	Tablay400040.asd
350	 0.206549366868942 
351	 0.201249261776054 
352	 0.183996287168654 
353	 0.177822870610501 
354	 0.196227209503992 
355	 0.157913277122966 
356	 0.133399115947924 
357	 0.166658648340216 
358	 0.108515896311832 
359	 0.115771078193367 
360	 0.189406820575292 
361	 0.240750385689436 
362	 0.15896259308205 
363	 0.112898689921162 
364	 0.158584437065733 
365	 0.116959795254735 
366	 0.100136579171617 
367	 0.113246676164968 
368	 0.1342824153307 
369	 0.149570025107997 
370	 0.158555637963671 
371	 0.158498214075687 
372	 0.151237775625747 
373	 0.183613224939656 
374	 0.170151230707864 
375	 9.95968066358325E-02 
376	 8.92629274071992E-02 
377	 0.114739170309127 
378	 0.144757015411155 
379	 0.149811059230246 
380	 0.125234729989389 
381	 0.120441337672441 
382	 0.132920940390713 
383	 0.128369230203669 
384	 0.111071170395398 
385	 8.89671611515478E-02 
386	 7.58644302333899E-02 
387	 0.087347779905953 
388	 0.112663599650659 
389	 0.127290925321524 
390	 0.119630180930067 
391	 0.129880966539584 
392	 0.131559758049708 
393	 0.114895230021603 
394	 8.64644240438404E-02 
395	 0.078765103117115 
396	 8.03822912463321E-02 
397	 8.57687281604216E-02 
398	 0.10989405715936 
399	 0.119832335350323 
400	 0.117381793913883 
401	 0.112027247757634 
402	 0.100940157709843 
403	 9.29500389319717E-02 
404	 9.14961144366236E-02 
405	 9.47264715803038E-02 
406	 9.93516119469061E-02 
407	 9.49652225302831E-02 
408	 0.082118167255185 
409	 8.22989468693248E-02 
410	 8.52834535256044E-02 
411	 0.085310628311745 
412	 0.080338901115611 
413	 7.93344660723581E-02 
414	 7.42659526913522E-02 
415	 7.00039423133063E-02 
416	 8.12826244921408E-02 
417	 7.95881128718978E-02 
418	 7.71153909712906E-02 
419	 8.22845840335589E-02 
420	 0.078591512608826 
421	 0.078313311336196 
422	 8.10708227661447E-02 
423	 8.15272655283852E-02 
424	 7.63233842125386E-02 
425	 7.60023667330238E-02 
426	 8.03854696682054E-02 
427	 7.69019628087407E-02 
428	 7.80905645651398E-02 
429	 0.079255924094101 
430	 7.57694911781291E-02 
431	 7.35080887157748E-02 
432	 7.22703798331147E-02 
433	 7.35446578403623E-02 
434	 7.82645966888873E-02 
435	 0.074593581081909 
436	 0.072594933535615 
437	 7.57269874731769E-02 
438	 7.40871052404192E-02 
439	 7.47024504039359E-02 
440	 7.61780739831582E-02 
441	 7.58627252286851E-02 
442	 7.57800076369831E-02 
443	 7.43484188921968E-02 
444	 7.22770556011867E-02 
445	 7.19197442619884E-02 
446	 7.21925147092188E-02 
447	 7.17466715833977E-02 
448	 0.071092600364104 
449	 7.54081397829586E-02 
450	 7.54710612463224E-02 
451	 7.25890416062737E-02 
452	 7.16435351248084E-02 
453	 7.28019871750842E-02 
454	 7.44075390184834E-02 
455	 7.46202645832142E-02 
456	 7.17530780103735E-02 
457	 7.19193096030868E-02 
458	 7.36536692436827E-02 
459	 0.074204935378803 
460	 7.19121019160961E-02 
461	 7.28166530711606E-02 
462	 7.40707338305553E-02 
463	 6.97048730093363E-02 
464	 7.14331199146487E-02 
465	 7.35508831718739E-02 
466	 7.23990277536387E-02 
467	 6.99460102221417E-02 
468	 6.96732899937203E-02 
469	 7.01497551796242E-02 
470	 6.95980366626459E-02 
471	 7.16592377923661E-02 
472	 7.15454621760892E-02 
473	 6.92569436197019E-02 
474	 6.85406404807774E-02 
475	 6.92101415460139E-02 
476	 7.00632941252826E-02 
477	 0.07010577932515 
478	 6.90797263937521E-02 
479	 6.82119761683337E-02 
480	 6.81254555317094E-02 
481	 6.88339451623614E-02 
482	 6.84418390791403E-02 
483	 6.86558057318338E-02 
484	 0.069498853089695 
485	 0.068940256486685 
486	 6.95914827207381E-02 
487	 6.98862042869179E-02 
488	 6.86605368435727E-02 
489	 6.87052242175332E-02 
490	 6.88654665941164E-02 
491	 6.90822403416769E-02 
492	 6.97121781215399E-02 
493	 0.068812179177359 
494	 6.85565047887958E-02 
495	 6.97262493707772E-02 
496	 7.02246327917461E-02 
497	 6.99165483759669E-02 
498	 6.97117634545029E-02 
499	 7.02807130496167E-02 
500	 6.94192303410908E-02 
501	 6.93960865462549E-02 
502	 7.03645138928696E-02 
503	 7.05984666382735E-02 
504	 7.03716776246664E-02 
505	 7.08148999362772E-02 
506	 7.21623953564396E-02 
507	 7.22230399936706E-02 
508	 7.21326472364776E-02 
509	 7.21890285649503E-02 
510	 7.23170262257793E-02 
511	 7.23474292460293E-02 
512	 7.23886413151725E-02 
513	 7.25252228910805E-02 
514	 7.27758762413663E-02 
515	 7.32954258302314E-02 
516	 7.39099758867421E-02 
517	 7.43166881715817E-02 
518	 7.40115973040992E-02 
519	 7.39409707499992E-02 
520	 0.074321216792516 
521	 7.48157657942569E-02 
522	 7.50438871676153E-02 
523	 7.51879159493065E-02 
524	 7.54496121987176E-02 
525	 7.58783319313056E-02 
526	 7.66756469765954E-02 
527	 7.73782488879815E-02 
528	 7.75611043426048E-02 
529	 0.078394937790268 
530	 7.88952645715213E-02 
531	 7.90266044525948E-02 
532	 7.98280902464342E-02 
533	 0.080500545696314 
534	 8.09667660385636E-02 
535	 8.14484678870595E-02 
536	 0.08262245985365 
537	 8.35261744851539E-02 
538	 0.084035721782432 
539	 8.45238080074569E-02 
540	 8.51722867395778E-02 
541	 8.60356740606766E-02 
542	 8.70712409447697E-02 
543	 8.81561367716128E-02 
544	 8.87484766133599E-02 
545	 8.91851372591498E-02 
546	 8.99738439122594E-02 
547	 9.10723872666727E-02 
548	 0.092072844110754 
549	 9.27927000625806E-02 
550	 9.33079597581658E-02 
551	 9.45238289317019E-02 
552	 9.58191417311824E-02 
553	 9.66899714691733E-02 
554	 9.76226550523701E-02 
555	 9.87244433080009E-02 
556	 9.98971544013555E-02 
557	 0.10098985726071 
558	 0.102372584953754 
559	 0.103800038051322 
560	 0.10519140092391 
561	 0.106778474929396 
562	 0.108170114574291 
563	 0.109458724388045 
564	 0.110813514918838 
565	 0.112154872079383 
566	 0.113421642165409 
567	 0.114571879430772 
568	 0.115603455355394 
569	 0.11674709091104 
570	 0.11797733147573 
571	 0.119299723359285 
572	 0.120890189728152 
573	 0.122443366556604 
574	 0.123906815979017 
575	 0.125373422142669 
576	 0.127170274216195 
577	 0.128686620488111 
578	 0.129838486882585 
579	 0.131189811221016 
580	 0.132337412145081 
581	 0.133365043732776 
582	 0.134456744547986 
583	 0.135760450999577 
584	 0.137119497268039 
585	 0.138316352237205 
586	 0.139187997706131 
587	 0.140299405956251 
588	 0.141654766788664 
589	 0.143110484676497 
590	 0.144418216092664 
591	 0.145485815382587 
592	 0.146317852485366 
593	 0.147045332617146 
594	 0.148137804129002 
595	 0.149059418435413 
596	 0.149691042905469 
597	 0.150318170448489 
598	 0.151292688801736 
599	 0.152119463910257 
600	 0.152523739703602 
601	 0.153106955688095 
602	 0.153724840999233 
603	 0.154315097102325 
604	 0.154831601350204 
605	 0.155204759214059 
606	 0.155638999684091 
607	 0.156205139190112 
608	 0.156781696112187 
609	 0.15712529160783 
610	 0.157313216166395 
611	 0.157503610665626 
612	 0.157789247045663 
613	 0.158181638292334 
614	 0.158581652251834 
615	 0.158843438466622 
616	 0.159139255520647 
617	 0.159335482806642 
618	 0.159396301001148 
619	 0.159513213134854 
620	 0.159774574419133 
621	 0.160045203123159 
622	 0.16017477531134 
623	 0.160364186111263 
624	 0.160529780421613 
625	 0.160667118826927 
626	 0.16085139305152 
627	 0.161050481764326 
628	 0.161166195407911 
629	 0.161186584114829 
630	 0.161353527842619 
631	 0.161388034686707 
632	 0.16138183301508 
633	 0.161549384769769 
634	 0.161694382754132 
635	 0.16203987556226 
636	 0.162452836623802 
637	 0.162337030705252 
638	 0.162266246656974 
639	 0.162372172528243 
640	 0.162616597123554 
641	 0.162811374346584 
642	 0.162936829278079 
643	 0.163045509378618 
644	 0.163215621011746 
645	 0.163266436803959 
646	 0.163444603304736 
647	 0.16377414096648 
648	 0.163835862097093 
649	 0.16391892583164 
650	 0.164099485577744 
651	 0.164362945047613 
652	 0.164589861824158 
653	 0.16489782517849 
654	 0.165186588648285 
655	 0.165208859340354 
656	 0.165236324594274 
657	 0.16549191251094 
658	 0.165969596549546 
659	 0.1662246113168 
660	 0.166408618705541 
661	 0.1666477552248 
662	 0.166998557713265 
663	 0.167104873453575 
664	 0.16741959562753 
665	 0.167992317458126 
666	 0.168424173743733 
667	 0.168527952658639 
668	 0.168750595386945 
669	 0.169345878132219 
670	 0.16976620505086 
671	 0.169981733675512 
672	 0.170193382763415 
673	 0.170646597154779 
674	 0.170990784602418 
675	 0.171383809685828 
676	 0.171849888680697 
677	 0.172209068087844 
678	 0.172625623286611 
679	 0.173019820954177 
680	 0.173340531690897 
681	 0.173789449288887 
682	 0.17427248996817 
683	 0.174784191731294 
684	 0.175343263679895 
685	 0.175746022064817 
686	 0.176207912832789 
687	 0.176801820444201 
688	 0.177343488253224 
689	 0.177941365317182 
690	 0.178479106482173 
691	 0.178873065005352 
692	 0.17933707443228 
693	 0.179806960655007 
694	 0.180336421732808 
695	 0.181024480419677 
696	 0.181695862502232 
697	 0.182320956812206 
698	 0.182867863312976 
699	 0.1832622036457 
700	 0.183833117645147 
701	 0.184495841505825 
702	 0.185108955118797 
703	 0.185832991403443 
704	 0.186494117555203 
705	 0.187067909383942 
706	 0.187644915043964 
707	 0.188306316763182 
708	 0.188991589038597 
709	 0.189670976588841 
710	 0.190403159933498 
711	 0.191071841619723 
712	 0.191688194848734 
713	 0.192309469852741 
714	 0.192991054657224 
715	 0.193736398207506 
716	 0.194470518024737 
717	 0.195086929426813 
718	 0.195748046663633 
719	 0.196429972353823 
720	 0.197092115755691 
721	 0.197705858854003 
722	 0.198379563931411 
723	 0.199050455002462 
724	 0.199648054543924 
725	 0.200281514248491 
726	 0.200992939644173 
727	 0.201665895882554 
728	 0.202120806881054 
729	 0.20273282948238 
730	 0.203337396396607 
731	 0.203842236170332 
732	 0.20438620680291 
733	 0.205011460591312 
734	 0.205623039078464 
735	 0.206120137205265 
736	 0.206542564143556 
737	 0.207008782232641 
738	 0.207525205197892 
739	 0.208019525544718 
740	 0.208476197331407 
741	 0.208926057551195 
742	 0.209389167893543 
743	 0.209861105734443 
744	 0.210265925572777 
745	 0.210594651782789 
746	 0.210888178042016 
747	 0.211289697080897 
748	 0.211546897019057 
749	 0.211752651130782 
750	 0.212143684646994 
751	 0.212392845294649 
752	 0.212553898803829 
753	 0.212681553579624 
754	 0.212779634685949 
755	 0.21299937734387 
756	 0.213140512180424 
757	 0.213082319274962 
758	 0.213170651167584 
759	 0.2131933440614 
760	 0.213223933664859 
761	 0.213408407009199 
762	 0.213493334563395 
763	 0.213389651227425 
764	 0.213179109211136 
765	 0.213097006679483 
766	 0.21308895856664 
767	 0.213066607895465 
768	 0.212978122447433 
769	 0.212880976650403 
770	 0.212710940566531 
771	 0.212523589017807 
772	 0.2123863508288 
773	 0.212201843565019 
774	 0.211960694082228 
775	 0.211711592915823 
776	 0.21152755553036 
777	 0.211240264343372 
778	 0.21092158667978 
779	 0.210628248117902 
780	 0.210331928579371 
781	 0.209990043446226 
782	 0.209631774233584 
783	 0.209302371980466 
784	 0.2090363881079 
785	 0.208672849981155 
786	 0.20821245117681 
787	 0.207757194239087 
788	 0.207364780858964 
789	 0.206981356424932 
790	 0.20657907907592 
791	 0.206173623098564 
792	 0.205673690668512 
793	 0.205226706954078 
794	 0.20490548912233 
795	 0.204501502046311 
796	 0.203964862053736 
797	 0.203425515295902 
798	 0.203025167247058 
799	 0.202579651455253 
800	 0.202079662854615 
801	 0.201576568878612 
802	 0.201143213898672 
803	 0.200621744844172 
804	 0.200101135151981 
805	 0.199607542264913 
806	 0.199026549995221 
807	 0.198495195263126 
808	 0.197991526500873 
809	 0.197478266525835 
810	 0.197002744060224 
811	 0.196489536558596 
812	 0.195948235056256 
813	 0.195419652564404 
814	 0.19486990301236 
815	 0.194375488292534 
816	 0.19390219596031 
817	 0.193333624322763 
818	 0.192835204300839 
819	 0.192355378410822 
820	 0.191859579803143 
821	 0.191395250221721 
822	 0.190929564295025 
823	 0.190416601571583 
824	 0.189868185809131 
825	 0.189487751975115 
826	 0.18902957292078 
827	 0.188495215059556 
828	 0.187987052354897 
829	 0.187430806332769 
830	 0.187011819331276 
831	 0.18667573196833 
832	 0.186168654188828 
833	 0.185566036024532 
834	 0.185066381274183 
835	 0.184696342939009 
836	 0.184196996911386 
837	 0.183742158469186 
838	 0.183379249897819 
839	 0.183045804986367 
840	 0.182437530844325 
841	 0.182099192342777 
842	 0.181822197068698 
843	 0.181237973690573 
844	 0.180820430077574 
845	 0.180488178506106 
846	 0.180133306955031 
847	 0.179673751841921 
848	 0.17929135343728 
849	 0.178884963415451 
850	 0.178474991182271 
851	 0.178252397095383 
852	 0.17779303416605 
853	 0.177294754112101 
854	 0.17696008545798 
855	 0.176733924618415 
856	 0.17633137854901 
857	 0.17592223696632 
858	 0.175705485103146 
859	 0.17541702029902 
860	 0.175087771188053 
861	 0.174791831129017 
862	 0.174581598562189 
863	 0.174241605644326 
864	 0.173935993156952 
865	 0.173672102568301 
866	 0.173321407156114 
867	 0.173038567896267 
868	 0.172863350001986 
869	 0.172692013034516 
870	 0.172273228058131 
871	 0.172009795081803 
872	 0.171942179912101 
873	 0.171894211240892 
874	 0.17140468657904 
875	 0.171060456777127 
876	 0.170909381954023 
877	 0.170796259147623 
878	 0.170515823963139 
879	 0.170356328296735 
880	 0.170272098167305 
881	 0.170083576841573 
882	 0.169881378186792 
883	 0.169578243820884 
884	 0.169352896564202 
885	 0.169485613609773 
886	 0.169339974510207 
887	 0.169095693427352 
888	 0.16891078419594 
889	 0.168797717605213 
890	 0.168722038346737 
891	 0.168592693918658 
892	 0.168436479290647 
893	 0.168486488383517 
894	 0.168286622009774 
895	 0.168098744737927 
896	 0.168165356289487 
897	 0.168215284483102 
898	 0.168109867968758 
899	 0.167877889074927 
900	 0.16764451102747 
901	 0.167559971084866 
902	 0.167763547946064 
903	 0.167942349176824 
904	 0.167719502366651 
905	 0.167635869907619 
906	 0.167601368690679 
907	 0.16758027229795 
908	 0.167589491159343 
909	 0.167590509244651 
910	 0.16751719240321 
911	 0.167428122762238 
912	 0.167488114066908 
913	 0.167626339481705 
914	 0.167682624833033 
915	 0.167651964210557 
916	 0.167740106664235 
917	 0.167635823162865 
918	 0.167641753926734 
919	 0.16786583457885 
920	 0.167843037866554 
921	 0.167976310763839 
922	 0.168051395009077 
923	 0.167930140437464 
924	 0.168045688667416 
925	 0.168370584946708 
926	 0.168611077077644 
927	 0.168576894788048 
928	 0.168735613659968 
929	 0.168914042110382 
930	 0.169055935449107 
931	 0.169142255656054 
932	 0.169093392396966 
933	 0.169117865253913 
934	 0.169180123484282 
935	 0.169165940847106 
936	 0.169333589760289 
937	 0.169582875296923 
938	 0.169840894736901 
939	 0.170079187688873 
940	 0.17033704752457 
941	 0.170539282896725 
942	 0.170646147410449 
943	 0.17069177577241 
944	 0.170976214170279 
945	 0.171158252478651 
946	 0.171149341138113 
947	 0.171215412878984 
948	 0.171606752045944 
949	 0.17189466472625 
950	 0.171971254026148 
951	 0.172229509989609 
952	 0.172400436434683 
953	 0.172376433959726 
954	 0.172428426904101 
955	 0.173243395709259 
956	 0.173628222459778 
957	 0.173698690617385 
958	 0.173822751544689 
959	 0.17426342569601 
960	 0.17418275332147 
961	 0.174298357814708 
962	 0.174965746309521 
963	 0.175131602352301 
964	 0.175030069895444 
965	 0.175067943998983 
966	 0.175422798725992 
967	 0.175629533110227 
968	 0.176146343430552 
969	 0.176533414939437 
970	 0.176503118626313 
971	 0.176759010103438 
972	 0.177143619958402 
973	 0.177475168717695 
974	 0.177629099791811 
975	 0.177658024811698 
976	 0.178075271738728 
977	 0.178684720238466 
978	 0.179075743299242 
979	 0.178955473369747 
980	 0.179238614399551 
981	 0.179498006232503 
982	 0.179365197251159 
983	 0.180247428238425 
984	 0.18056380810965 
985	 0.18065281181224 
986	 0.181190390539577 
987	 0.181575303599876 
988	 0.181876458189686 
989	 0.182010455376217 
990	 0.182059479277111 
991	 0.182789938470888 
992	 0.183157001260488 
993	 0.183318378250483 
994	 0.183670465604357 
995	 0.183754705069308 
996	 0.184133494781694 
997	 0.184684339341379 
998	 0.185116396429177 
999	 0.185488342089164 
1000	 0.18591690933589 
1001	 0.187815032369876 
1002	 0.188157593981089 
1003	 0.188517321607603 
1004	 0.188798947661767 
1005	 0.18895413543674 
1006	 0.189340837423418 
1007	 0.189811390818381 
1008	 0.190172361810865 
1009	 0.190617683802304 
1010	 0.190977192029162 
1011	 0.191208716415238 
1012	 0.191565190728056 
1013	 0.191950682904235 
1014	 0.19229313751097 
1015	 0.192534621356104 
1016	 0.193054692220198 
1017	 0.193458248915498 
1018	 0.193912136185716 
1019	 0.194419679248927 
1020	 0.194768601237577 
1021	 0.195222630144855 
1022	 0.195750154040613 
1023	 0.196169323045553 
1024	 0.196548439571555 
1025	 0.196953952779954 
1026	 0.197386001891481 
1027	 0.197674518506468 
1028	 0.197838721408328 
1029	 0.198190949682769 
1030	 0.198493392252612 
1031	 0.198629692105961 
1032	 0.199027669657766 
1033	 0.199545856305296 
1034	 0.199929947348223 
1035	 0.200267310248721 
1036	 0.200640758502757 
1037	 0.201008086665155 
1038	 0.2013893279583 
1039	 0.201798660550991 
1040	 0.202263928373585 
1041	 0.202788974490529 
1042	 0.203171161171236 
1043	 0.203573116337784 
1044	 0.203835586230545 
1045	 0.203863146575835 
1046	 0.204238003625472 
1047	 0.204710331976229 
1048	 0.205075058440001 
1049	 0.205601477547493 
1050	 0.206138277126526 
1051	 0.206537461624082 
1052	 0.207064182168713 
1053	 0.207509159663996 
1054	 0.207860311056536 
1055	 0.208266185515936 
1056	 0.208676664156144 
1057	 0.209127427441552 
1058	 0.209586319609986 
1059	 0.21017846239916 
1060	 0.210865846076875 
1061	 0.211346825300128 
1062	 0.2117596796354 
1063	 0.2124683081196 
1064	 0.213002962106899 
1065	 0.213312015978657 
1066	 0.213842879148541 
1067	 0.214315219328736 
1068	 0.214728927087301 
1069	 0.215354919286754 
1070	 0.215986905137016 
1071	 0.216686031397662 
1072	 0.217313708644648 
1073	 0.218006804805229 
1074	 0.218639813283063 
1075	 0.219108341908712 
1076	 0.219589859768241 
1077	 0.220190903207614 
1078	 0.220807707201285 
1079	 0.22149211947544 
1080	 0.222118657269317 
1081	 0.222637815865891 
1082	 0.223350232106322 
1083	 0.224015955084596 
1084	 0.224586951535395 
1085	 0.225226813489982 
1086	 0.225817142842865 
1087	 0.226238775162466 
1088	 0.226797051486872 
1089	 0.227606175822999 
1090	 0.228285166110009 
1091	 0.22887913055897 
1092	 0.229540396118969 
1093	 0.23014450834391 
1094	 0.230618559875277 
1095	 0.231219946993475 
1096	 0.23191139261879 
1097	 0.232400983687071 
1098	 0.232920880132209 
1099	 0.233665120732616 
1100	 0.234341919510577 
1101	 0.234904852449855 
1102	 0.235551769907947 
1103	 0.236136992510541 
1104	 0.236617615356215 
1105	 0.237040820959138 
1106	 0.237614035830869 
1107	 0.238165553668074 
1108	 0.238613230414409 
1109	 0.239036253688489 
1110	 0.239597988385289 
1111	 0.240239699602173 
1112	 0.240834834937203 
1113	 0.241461279811078 
1114	 0.242087181027728 
1115	 0.242621259676052 
1116	 0.243145114343079 
1117	 0.243761968573506 
1118	 0.244323073570366 
1119	 0.244763455258564 
1120	 0.245258658142975 
1121	 0.245789743919419 
1122	 0.246344879458943 
1123	 0.246856370825287 
1124	 0.24738180424595 
1125	 0.247976545181977 
1126	 0.248489626990392 
1127	 0.248985569339714 
1128	 0.249591819861869 
1129	 0.250046608647097 
1130	 0.250439492178787 
1131	 0.250933584560322 
1132	 0.251425606673019 
1133	 0.251971514954334 
1134	 0.252547013944112 
1135	 0.253051282236693 
1136	 0.253481481877797 
1137	 0.253912844541056 
1138	 0.254290638531162 
1139	 0.254751990036614 
1140	 0.255275416544874 
1141	 0.255679905382668 
1142	 0.256173718794838 
1143	 0.25666642668746 
1144	 0.257018883785023 
1145	 0.257433865700168 
1146	 0.257888150539094 
1147	 0.258397402263446 
1148	 0.258956144080229 
1149	 0.259494469498626 
1150	 0.259934094836806 
1151	 0.260267668573463 
1152	 0.26071758402028 
1153	 0.261192593600974 
1154	 0.261653146860854 
1155	 0.262201263222981 
1156	 0.262719448413025 
1157	 0.263167827667426 
1158	 0.263627487936678 
1159	 0.264162215724682 
1160	 0.264583324395073 
1161	 0.264926103582072 
1162	 0.265419172582481 
1163	 0.265843485141344 
1164	 0.266231053848537 
1165	 0.266649099493283 
1166	 0.266996915459939 
1167	 0.267410007643364 
1168	 0.267874555126435 
1169	 0.268321275434263 
1170	 0.268831721956571 
1171	 0.269240229519572 
1172	 0.269588401439763 
1173	 0.269965868614918 
1174	 0.270277200407813 
1175	 0.270643991746331 
1176	 0.271094373063943 
1177	 0.271463260150019 
1178	 0.271782698730054 
1179	 0.272167745872389 
1180	 0.272467645748893 
1181	 0.272713584496189 
1182	 0.273000701867307 
1183	 0.273285100716651 
1184	 0.273676583355088 
1185	 0.274095391423792 
1186	 0.274448005788852 
1187	 0.274829936061819 
1188	 0.275141489477766 
1189	 0.275332124553015 
1190	 0.275632478194386 
1191	 0.275965503382717 
1192	 0.276299181137705 
1193	 0.27670446327962 
1194	 0.277043839261679 
1195	 0.277350653785294 
1196	 0.27764315697098 
1197	 0.277926070703978 
1198	 0.278151372865798 
1199	 0.278379471160084 
1200	 0.278660989630309 
1201	 0.278970796275316 
1202	 0.27933012670466 
1203	 0.279612840334832 
1204	 0.279927966037983 
1205	 0.280277819731261 
1206	 0.280650217601478 
1207	 0.280973051616609 
1208	 0.28131014479088 
1209	 0.281647472979663 
1210	 0.281909761899887 
1211	 0.282220196196675 
1212	 0.282610355007771 
1213	 0.282977567982311 
1214	 0.283285488756104 
1215	 0.283681042614112 
1216	 0.28419305491001 
1217	 0.284586895062059 
1218	 0.284943579777417 
1219	 0.285339410676155 
1220	 0.285640511693229 
1221	 0.285953687981529 
1222	 0.286302367228745 
1223	 0.286649157685764 
1224	 0.287008993698156 
1225	 0.287351756932748 
1226	 0.287712078037083 
1227	 0.288133916975999 
1228	 0.288481885228379 
1229	 0.288767570874608 
1230	 0.289119689229663 
1231	 0.289507907714354 
1232	 0.289818587469419 
1233	 0.290137215926175 
1234	 0.290428801746071 
1235	 0.290617033322577 
1236	 0.290863138501585 
1237	 0.291148887473695 
1238	 0.291417196928 
1239	 0.291722735862813 
1240	 0.29194355438459 
1241	 0.292177434142243 
1242	 0.292455012626543 
1243	 0.292678824803421 
1244	 0.292872175119536 
1245	 0.293095006571902 
1246	 0.293325211058874 
1247	 0.293517533339443 
1248	 0.293686591738374 
1249	 0.293897241210294 
1250	 0.294084755152395 
1251	 0.29429958147581 
1252	 0.294595062515368 
1253	 0.294815148507145 
1254	 0.295013888433606 
1255	 0.29518039596455 
1256	 0.295331644245764 
1257	 0.2954383660915 
1258	 0.295443733200104 
1259	 0.295520058431137 
1260	 0.295579255408519 
1261	 0.295672179186443 
1262	 0.295814128423575 
1263	 0.296019693266363 
1264	 0.296121024425846 
1265	 0.296171785722813 
1266	 0.29628748835999 
1267	 0.296385611926216 
1268	 0.296496150102219 
1269	 0.296676255033942 
1270	 0.296779001904887 
1271	 0.296808773449563 
1272	 0.296893369138265 
1273	 0.296985235158492 
1274	 0.297083612890162 
1275	 0.297205015564526 
1276	 0.297312107989829 
1277	 0.297391790930147 
1278	 0.297511720436774 
1279	 0.29766996664041 
1280	 0.297801879046099 
1281	 0.29795607063546 
1282	 0.298087402778746 
1283	 0.298113806657756 
1284	 0.298254570214298 
1285	 0.298445576611941 
1286	 0.298685718617128 
1287	 0.298907784836007 
1288	 0.299221963682006 
1289	 0.299429777516373 
1290	 0.299562925321895 
1291	 0.299747399037234 
1292	 0.299934327674826 
1293	 0.300109145628973 
1294	 0.300273182453695 
1295	 0.300468325192188 
1296	 0.300685285250146 
1297	 0.300865172271694 
1298	 0.301054127745535 
1299	 0.30123311037831 
1300	 0.301361895085284 
1301	 0.301520538488655 
1302	 0.301675540649955 
1303	 0.301878176425922 
1304	 0.302153162672427 
1305	 0.302355500312253 
1306	 0.302556279355559 
1307	 0.302751237424809 
1308	 0.302922896946363 
1309	 0.303032105289635 
1310	 0.303154645621854 
1311	 0.303299905345956 
1312	 0.303397451490313 
1313	 0.303420648739955 
1314	 0.303528891319509 
1315	 0.303678091772844 
1316	 0.303782939238655 
1317	 0.303908362001999 
1318	 0.304001268512739 
1319	 0.304035366282481 
1320	 0.304116398203473 
1321	 0.304227069180076 
1322	 0.304310543060084 
1323	 0.304405234691428 
1324	 0.304472384814536 
1325	 0.304500250188555 
1326	 0.304548645420854 
1327	 0.304621913308301 
1328	 0.304645543414792 
1329	 0.30465747549868 
1330	 0.3046541520389 
1331	 0.304596526977243 
1332	 0.304552103052335 
1333	 0.304517123443388 
1334	 0.304461587196894 
1335	 0.304430413593761 
1336	 0.304402362661204 
1337	 0.304383107690108 
1338	 0.304399304571736 
1339	 0.304342548460428 
1340	 0.304240561118121 
1341	 0.304183023399121 
1342	 0.304114722173792 
1343	 0.304046020312159 
1344	 0.304013365280587 
1345	 0.303948008867002 
1346	 0.303851833670401 
1347	 0.303750077558968 
1348	 0.303649654146399 
1349	 0.303540105359859 
1350	 0.303413072526916 
1351	 0.303276833259114 
1352	 0.30314330392945 
1353	 0.3029913291275 
1354	 0.30278101718177 
1355	 0.302630575938295 
1356	 0.302486478945489 
1357	 0.302375729565416 
1358	 0.302363995036196 
1359	 0.302274522069174 
1360	 0.302151211495919 
1361	 0.302036544858286 
1362	 0.301883592693684 
1363	 0.301739952931165 
1364	 0.301610899512803 
1365	 0.301517325795513 
1366	 0.301385669735294 
1367	 0.301237317481868 
1368	 0.301093342320472 
1369	 0.30094209148117 
1370	 0.300794937957407 
1371	 0.300690409124773 
1372	 0.300482081846441 
1373	 0.300184400472911 
1374	 0.299982677882489 
1375	 0.299778510684111 
1376	 0.299541216451684 
1377	 0.29936849015244 
1378	 0.299137361514484 
1379	 0.298799143339251 
1380	 0.29852731564664 
1381	 0.298304990418948 
1382	 0.298049291683192 
1383	 0.297772178938684 
1384	 0.29751143723569 
1385	 0.297274438010767 
1386	 0.296997142310859 
1387	 0.296699778026325 
1388	 0.296413875513717 
1389	 0.296079588673166 
1390	 0.295790997882496 
1391	 0.295537547326642 
1392	 0.295301673661595 
1393	 0.295058553093443 
1394	 0.294795269481406 
1395	 0.294567704626791 
1396	 0.294336669497505 
1397	 0.294127745917835 
1398	 0.293963106692451 
1399	 0.293765370710643 
1400	 0.293581055936221 
1401	 0.293335799891837 
1402	 0.293043548516088 
1403	 0.292784269481389 
1404	 0.292502315522926 
1405	 0.292227128323078 
1406	 0.291999319995423 
1407	 0.291707407478281 
1408	 0.291385986640062 
1409	 0.291029560462427 
1410	 0.290604083852828 
1411	 0.290235943668632 
1412	 0.289844999686704 
1413	 0.289493764885971 
1414	 0.289106940886734 
1415	 0.288882437099624 
1416	 0.288752529802627 
1417	 0.288643279913487 
1418	 0.288683543812828 
1419	 0.288697977458527 
1420	 0.28869704682943 
1421	 0.288718596647042 
1422	 0.288819249423325 
1423	 0.288859867271185 
1424	 0.288863153818016 
1425	 0.288873699020632 
1426	 0.288869260312176 
1427	 0.288842961910937 
1428	 0.28883484865087 
1429	 0.288838535495313 
1430	 0.288785646897364 
1431	 0.288681250180035 
1432	 0.288644639265166 
1433	 0.288602835048017 
1434	 0.288569064841281 
1435	 0.288580102738148 
1436	 0.288569678440113 
1437	 0.288531492863682 
1438	 0.288518007909574 
1439	 0.288537474471275 
1440	 0.288530197011601 
1441	 0.28850028862686 
1442	 0.288492271988152 
1443	 0.288483447363431 
1444	 0.28849421120978 
1445	 0.288502095967223 
1446	 0.28855592044215 
1447	 0.288626384120414 
1448	 0.288735526025571 
1449	 0.288931076399087 
1450	 0.289063273605829 
1451	 0.289180364797262 
1452	 0.289312405497922 
1453	 0.289402838871727 
1454	 0.289537664750477 
1455	 0.289719763046485 
1456	 0.289894739115522 
1457	 0.290079744006541 
1458	 0.290266463617069 
1459	 0.29042286959221 
1460	 0.290645288702554 
1461	 0.290968160293912 
1462	 0.291201783201764 
1463	 0.291432362367013 
1464	 0.291647084251014 
1465	 0.291772279191058 
1466	 0.291911736513368 
1467	 0.292148530484224 
1468	 0.292373225984793 
1469	 0.292581065607554 
1470	 0.292787454191642 
1471	 0.292972897966922 
1472	 0.293110828944035 
1473	 0.293299988263171 
1474	 0.293516482131041 
1475	 0.29369487721414 
1476	 0.293888244157773 
1477	 0.29403714832802 
1478	 0.294121079873449 
1479	 0.294277051954702 
1480	 0.294437822891614 
1481	 0.294614433828185 
1482	 0.294851256991988 
1483	 0.295036270157884 
1484	 0.295215795260389 
1485	 0.29535550177898 
1486	 0.295444714923615 
1487	 0.295577399461335 
1488	 0.295683794880902 
1489	 0.295833863990751 
1490	 0.296053232717449 
1491	 0.29621277124675 
1492	 0.296344494613875 
1493	 0.296504927427614 
1494	 0.296665284049754 
1495	 0.296811838923149 
1496	 0.296984375069606 
1497	 0.297122579010945 
1498	 0.297222026760174 
1499	 0.297325694000225 
1500	 0.297403367602282 
1501	 0.297516890651427 
1502	 0.297643982855605 
1503	 0.297766677593741 
1504	 0.297923975707192 
1505	 0.298052892994704 
1506	 0.298163940799767 
1507	 0.298267322077942 
1508	 0.298337561433582 
1509	 0.298441462429141 
1510	 0.298585814202526 
1511	 0.298675938578256 
1512	 0.298755514606155 
1513	 0.298831446630517 
1514	 0.298832919223261 
1515	 0.298888275646294 
1516	 0.299010287237478 
1517	 0.29909106095487 
1518	 0.299190589911969 
1519	 0.299248720689751 
1520	 0.299256228027127 
1521	 0.299249304881776 
1522	 0.299267815982028 
1523	 0.299292171574311 
1524	 0.299326490609163 
1525	 0.299392224317258 
1526	 0.299427744799126 
1527	 0.299446222779427 
1528	 0.299481944894002 
1529	 0.299525743307731 
1530	 0.299549544940778 
1531	 0.299569321939786 
1532	 0.299592924601715 
1533	 0.299608072884512 
1534	 0.299613940584891 
1535	 0.29961794045568 
1536	 0.299634972992384 
1537	 0.299645462762881 
1538	 0.299651204116155 
1539	 0.299663847987731 
1540	 0.299692025520274 
1541	 0.299713018986656 
1542	 0.299739007167026 
1543	 0.299797432977591 
1544	 0.299827779267698 
1545	 0.299842326582396 
1546	 0.299843128271267 
1547	 0.299825503905575 
1548	 0.299833484047034 
1549	 0.29982596955908 
1550	 0.299844385077158 
1551	 0.299906393549352 
1552	 0.299936062718054 
1553	 0.299940833992479 
1554	 0.299980690746581 
1555	 0.300053551453625 
1556	 0.300074056212668 
1557	 0.300085395446925 
1558	 0.30009909215711 
1559	 0.30007414281408 
1560	 0.300065723799362 
1561	 0.300081475974622 
1562	 0.30008354810696 
1563	 0.30002040762654 
1564	 0.300067683981984 
1565	 0.300207554184699 
1566	 0.300280623467891 
1567	 0.300427825731395 
1568	 0.300464384124337 
1569	 0.300369930505308 
1570	 0.300353887953577 
1571	 0.30030662651243 
1572	 0.300320540465504 
1573	 0.300426703484454 
1574	 0.300457865314259 
1575	 0.300480425255294 
1576	 0.300494282878797 
1577	 0.30044277259861 
1578	 0.300450389726641 
1579	 0.300508375344321 
1580	 0.300531094968873 
1581	 0.300552998738755 
1582	 0.30057738984798 
1583	 0.300585748447993 
1584	 0.300600817145073 
1585	 0.30063117914367 
1586	 0.300652696666458 
1587	 0.300646315426112 
1588	 0.30067601175582 
1589	 0.300745196481985 
1590	 0.300779604007824 
1591	 0.300807227126094 
1592	 0.300845556035094 
1593	 0.300888516783291 
1594	 0.30089839410317 
1595	 0.300904590791034 
1596	 0.300904085976266 
1597	 0.300861428997734 
1598	 0.300825120727034 
1599	 0.300790565049758 
1600	 0.300773269456568 
1601	 0.300759623205862 
1602	 0.300739590118527 
1603	 0.300741154375755 
1604	 0.300724697602759 
1605	 0.300672286314728 
1606	 0.300645161850637 
1607	 0.300633262384764 
1608	 0.30062169025456 
1609	 0.300628239947784 
1610	 0.30061957544086 
1611	 0.300621189646462 
1612	 0.300585192139873 
1613	 0.300501335127689 
1614	 0.300448097104666 
1615	 0.300367707087407 
1616	 0.300326548072454 
1617	 0.300361287681388 
1618	 0.300338052902546 
1619	 0.300317443632128 
1620	 0.300261439692755 
1621	 0.300130152532863 
1622	 0.300032633683139 
1623	 0.299929877825441 
1624	 0.299836683037411 
1625	 0.299739848062539 
1626	 0.299690236614649 
1627	 0.299694715831864 
1628	 0.299657572302594 
1629	 0.299620696027661 
1630	 0.299599223119248 
1631	 0.299572384275663 
1632	 0.299521515151164 
1633	 0.299486440026218 
1634	 0.299442291634052 
1635	 0.299361850750266 
1636	 0.299276736668478 
1637	 0.299178835382979 
1638	 0.299111500238257 
1639	 0.299053903903648 
1640	 0.298982178634558 
1641	 0.298943247472979 
1642	 0.298881076681467 
1643	 0.298786846824255 
1644	 0.298683701049472 
1645	 0.298548188796904 
1646	 0.298462860726812 
1647	 0.298395610570143 
1648	 0.298320967103967 
1649	 0.298311102375307 
1650	 0.298236348376838 
1651	 0.298101289599733 
1652	 0.29798709296794 
1653	 0.297848689989046 
1654	 0.297722395470023 
1655	 0.297614309657973 
1656	 0.297488810785795 
1657	 0.297418992426386 
1658	 0.297233915273004 
1659	 0.296934122830401 
1660	 0.296700797097008 
1661	 0.296426701136783 
1662	 0.296156335628355 
1663	 0.295976468963564 
1664	 0.295706421913874 
1665	 0.2953251870664 
1666	 0.295002226374526 
1667	 0.2946955892422 
1668	 0.294366118560695 
1669	 0.294062954606727 
1670	 0.293710367200611 
1671	 0.293329975229887 
1672	 0.292897262992633 
1673	 0.292435479431242 
1674	 0.29190844668121 
1675	 0.291276245451001 
1676	 0.290729114779172 
1677	 0.290202236963133 
1678	 0.289633777040967 
1679	 0.289132341168728 
1680	 0.288489975844469 
1681	 0.287698540903511 
1682	 0.286981448827101 
1683	 0.286231641838874 
1684	 0.285502020177512 
1685	 0.284864098531975 
1686	 0.284083526314445 
1687	 0.283215997800889 
1688	 0.282352407821856 
1689	 0.281383873589642 
1690	 0.280479101514398 
1691	 0.279658796720073 
1692	 0.278738488965794 
1693	 0.277783665067178 
1694	 0.276802979305443 
1695	 0.275722899113371 
1696	 0.274696114030336 
1697	 0.273708002786611 
1698	 0.272659333928967 
1699	 0.271601629106997 
1700	 0.270547706398796 
1701	 0.269422424083792 
1702	 0.268384190759514 
1703	 0.267360135664285 
1704	 0.266406408869059 
1705	 0.265515776286165 
1706	 0.264616610391221 
1707	 0.263842414051515 
1708	 0.263094945638082 
1709	 0.262320017443271 
1710	 0.261633554197728 
1711	 0.260969498676893 
1712	 0.260325746812539 
1713	 0.259695057605876 
1714	 0.25906878662768 
1715	 0.258577987731643 
1716	 0.258166999799766 
1717	 0.257792254317985 
1718	 0.257531176007482 
1719	 0.257253772167981 
1720	 0.256944370543094 
1721	 0.256689454757958 
1722	 0.256413326315418 
1723	 0.256166777994162 
1724	 0.255975043068032 
1725	 0.255828187228221 
1726	 0.255789816964995 
1727	 0.255807097314918 
1728	 0.255869314898929 
1729	 0.256036123319969 
1730	 0.256298748911585 
1731	 0.256614219966376 
1732	 0.257042238585063 
1733	 0.257562518014644 
1734	 0.258062726856401 
1735	 0.25857418774034 
1736	 0.259086248756821 
1737	 0.259486239117272 
1738	 0.259823720363193 
1739	 0.260125075873718 
1740	 0.260357737040858 
1741	 0.260511457588481 
1742	 0.260616079583254 
1743	 0.260677416002579 
1744	 0.260643999138718 
1745	 0.260580889719987 
1746	 0.260462393634209 
1747	 0.260343883602356 
1748	 0.260178483669115 
1749	 0.260006454037331 
1750	 0.259792904813553 
1751	 0.259703063571292 
1752	 0.259629711841207 
1753	 0.2596118698002 
1754	 0.259730085570656 
1755	 0.25977977624311 
1756	 0.259759133581825 
1757	 0.259875042314561 
1758	 0.260043478513343 
1759	 0.260275628275628 
1760	 0.260605032553846 
1761	 0.260992089322583 
1762	 0.261389106254836 
1763	 0.261821034673294 
1764	 0.262313041544572 
1765	 0.262850181991224 
1766	 0.26349276603377 
1767	 0.264247869297893 
1768	 0.264924266198923 
1769	 0.265489182795073 
1770	 0.266070790897024 
1771	 0.266629621560434 
1772	 0.267227396961255 
1773	 0.267897850782676 
1774	 0.268526723880695 
1775	 0.269073836023442 
1776	 0.269513549036219 
1777	 0.26988229905563 
1778	 0.270197249045291 
1779	 0.270436194965561 
1780	 0.270678000545535 
1781	 0.270942960134229 
1782	 0.271241676088551 
1783	 0.271550907543692 
1784	 0.271846466505722 
1785	 0.272141908204754 
1786	 0.272357619674346 
1787	 0.272549415739615 
1788	 0.272699269185191 
1789	 0.27275423425243 
1790	 0.272833507097504 
1791	 0.272845686596468 
1792	 0.272939509746311 
1793	 0.273128657993716 
1794	 0.273271645973236 
1795	 0.273385626288156 
1796	 0.273508801229431 
1797	 0.273550850895805 
1798	 0.273610161417225 
1799	 0.273669734860068 
1800	 0.273677916615672 
1801	 0.276552325612156 
1802	 0.276634126835159 
1803	 0.27673527824553 
1804	 0.276903284383543 
1805	 0.277070565968429 
1806	 0.277194940133169 
1807	 0.277288896662055 
1808	 0.277415961001183 
1809	 0.277514765882124 
1810	 0.277652560945016 
1811	 0.277817839159452 
1812	 0.277984111300033 
1813	 0.278176634787772 
1814	 0.278396212386679 
1815	 0.278499907703741 
1816	 0.278620617825156 
1817	 0.278739254469496 
1818	 0.278777787654508 
1819	 0.278902186769867 
1820	 0.279117018893027 
1821	 0.279255008247543 
1822	 0.27935365118438 
1823	 0.279497747751374 
1824	 0.279636004229067 
1825	 0.279806151728006 
1826	 0.279959249215322 
1827	 0.280125138514942 
1828	 0.280306628234311 
1829	 0.280512642369699 
1830	 0.280665735580116 
1831	 0.280809774776266 
1832	 0.28096827613489 
1833	 0.281121243554889 
1834	 0.281277583676506 
1835	 0.281493430057126 
1836	 0.281703236260597 
1837	 0.281865504249643 
1838	 0.281952073862842 
1839	 0.282090221846841 
1840	 0.282222596367116 
1841	 0.282397460020059 
1842	 0.28262644053754 
1843	 0.282826196311035 
1844	 0.282972539299175 
1845	 0.283055603292262 
1846	 0.283125860913498 
1847	 0.283213905056239 
1848	 0.283354673937637 
1849	 0.283609556210742 
1850	 0.283749027935501 
1851	 0.283866969467464 
1852	 0.283966729636299 
1853	 0.284011977887857 
1854	 0.284097884289207 
1855	 0.284262012962547 
1856	 0.284407045148897 
1857	 0.284535622749397 
1858	 0.284605575479103 
1859	 0.284651141176546 
1860	 0.284641682487387 
1861	 0.2846560769302 
1862	 0.28466191416957 
1863	 0.284647110859791 
1864	 0.284657251275461 
1865	 0.284581726035465 
1866	 0.284435038871071 
1867	 0.284331810095816 
1868	 0.284191400756426 
1869	 0.284014109712921 
1870	 0.283860697360229 
1871	 0.283746508143265 
1872	 0.283569306011141 
1873	 0.283357439404837 
1874	 0.283169617061862 
1875	 0.282982602358212 
1876	 0.282694717287479 
1877	 0.282399975815351 
1878	 0.282108432688594 
1879	 0.281665310152064 
1880	 0.281175665024066 
1881	 0.280658225051603 
1882	 0.280098425127421 
1883	 0.279455512996616 
1884	 0.278796427907164 
1885	 0.278083252313354 
1886	 0.277332325931414 
1887	 0.276474042429519 
1888	 0.275518487231543 
1889	 0.274569185268063 
1890	 0.273510438017792 
1891	 0.272405085365046 
1892	 0.27133544711197 
1893	 0.270206572204938 
1894	 0.269019460542122 
1895	 0.267834454274923 
1896	 0.266641386255344 
1897	 0.265333676997046 
1898	 0.264127410651812 
1899	 0.262980370302144 
1900	 0.261817806221192 
1901	 0.260739036619163 
1902	 0.259683540270928 
1903	 0.258680870972994 
1904	 0.257689121760791 
1905	 0.256724279095765 
1906	 0.255815871530909 
1907	 0.254982652140082 
1908	 0.25415103426155 
1909	 0.253399713063869 
1910	 0.25278318932419 
1911	 0.252154173896371 
1912	 0.251556112476586 
1913	 0.251047766195245 
1914	 0.250549338237966 
1915	 0.250129720075734 
1916	 0.249787669880411 
1917	 0.249494444951246 
1918	 0.249161550161065 
1919	 0.248868929442311 
1920	 0.24860521892542 
1921	 0.248376748378822 
1922	 0.248223069058605 
1923	 0.248107958000078 
1924	 0.247991529199977 
1925	 0.247834113412927 
1926	 0.24771680991209 
1927	 0.247624860168643 
1928	 0.247544276153452 
1929	 0.247475821770574 
1930	 0.247425599257707 
1931	 0.247415216774543 
1932	 0.247393214292374 
1933	 0.247388892916102 
1934	 0.247466627759053 
1935	 0.247494823062325 
1936	 0.247559748369088 
1937	 0.247658095455565 
1938	 0.247744383495284 
1939	 0.24789658155483 
1940	 0.248107079924482 
1941	 0.248361576478232 
1942	 0.248612206129194 
1943	 0.248830966823755 
1944	 0.249024623738343 
1945	 0.249253583330947 
1946	 0.249503212851762 
1947	 0.249815267690093 
1948	 0.250147674166339 
1949	 0.250461274393339 
1950	 0.250781126710135 
1951	 0.251079529807547 
1952	 0.251419005248738 
1953	 0.25180848452654 
1954	 0.252142737932715 
1955	 0.252451439820437 
1956	 0.2528309634424 
1957	 0.253200842927226 
1958	 0.253585193067132 
1959	 0.254005922615673 
1960	 0.25435611893975 
1961	 0.254695979256483 
1962	 0.254977246315533 
1963	 0.25529314263066 
1964	 0.255654171951932 
1965	 0.255956168226546 
1966	 0.256233463388109 
1967	 0.25648678291765 
1968	 0.256728591170705 
1969	 0.256942860689436 
1970	 0.257210669735389 
1971	 0.257536740409261 
1972	 0.257877862077109 
1973	 0.258173951817957 
1974	 0.258488217518574 
1975	 0.258815504099447 
1976	 0.259119978344185 
1977	 0.259425334475632 
1978	 0.259730288441301 
1979	 0.260013758974151 
1980	 0.260295961218262 
1981	 0.260637829633553 
1982	 0.260938108566313 
1983	 0.261232354074465 
1984	 0.261526093408115 
1985	 0.26175841971955 
1986	 0.261959672963674 
1987	 0.262221805300438 
1988	 0.262528586361618 
1989	 0.262793861282815 
1990	 0.263081630181472 
1991	 0.263362951936249 
1992	 0.263626546200136 
1993	 0.263840221304469 
1994	 0.264147691655248 
1995	 0.264421396770892 
1996	 0.26462557696788 
1997	 0.264896199990958 
1998	 0.265143693404953 
1999	 0.265348067989118 
2000	 0.265601516694754 
2001	 0.265908102907061 
2002	 0.266144763912504 
2003	 0.266399574458542 
2004	 0.266609928922923 
2005	 0.266776583499828 
2006	 0.266915500661087 
2007	 0.267013932266496 
2008	 0.267074527561704 
2009	 0.26719465849899 
2010	 0.267305198885671 
2011	 0.267425742424675 
2012	 0.267524970388804 
2013	 0.267620612864392 
2014	 0.267685509938349 
2015	 0.2677558150704 
2016	 0.267863439260498 
2017	 0.267899988972115 
2018	 0.267848412154987 
2019	 0.26783720739327 
2020	 0.267813444771817 
2021	 0.267811240770638 
2022	 0.267833192153774 
2023	 0.267784772385179 
2024	 0.267648678531695 
2025	 0.267549622354076 
2026	 0.267416097468178 
2027	 0.267199847676637 
2028	 0.26709299478009 
2029	 0.26704794277334 
2030	 0.266943410304387 
2031	 0.266863655628895 
2032	 0.266780051824243 
2033	 0.266659035054173 
2034	 0.266540018950706 
2035	 0.266426101030755 
2036	 0.266341842501276 
2037	 0.266229523502675 
2038	 0.266102272451853 
2039	 0.26595544417204 
2040	 0.265803444909079 
2041	 0.265633437392867 
2042	 0.26540872241957 
2043	 0.265246601481247 
2044	 0.265112300558501 
2045	 0.264980713669305 
2046	 0.264873578066504 
2047	 0.264757889525412 
2048	 0.264635801109445 
2049	 0.264534640943891 
2050	 0.264455945773622 
2051	 0.264355355562199 
2052	 0.264282973175876 
2053	 0.264202928550918 
2054	 0.264114194259782 
2055	 0.263984476030379 
2056	 0.263938324245954 
2057	 0.263974806456477 
2058	 0.263905231005481 
2059	 0.263828007772658 
2060	 0.263754056726478 
2061	 0.263586051794109 
2062	 0.263468437124957 
2063	 0.26341707643964 
2064	 0.263346014616111 
2065	 0.263234520058873 
2066	 0.263172613471362 
2067	 0.263175356933351 
2068	 0.263093612114473 
2069	 0.263036615807683 
2070	 0.263011250826789 
2071	 0.262930042033831 
2072	 0.262792983718689 
2073	 0.262695579153066 
2074	 0.262593012808073 
2075	 0.262492555627004 
2076	 0.262427112764728 
2077	 0.262327442006672 
2078	 0.262167691200562 
2079	 0.262062473762886 
2080	 0.261963507480728 
2081	 0.26187667440752 
2082	 0.261841497058726 
2083	 0.261800604148292 
2084	 0.261691853183334 
2085	 0.261696553076703 
2086	 0.261628307115062 
2087	 0.261562279174684 
2088	 0.261441591972909 
2089	 0.261258358076123 
2090	 0.261119002762789 
2091	 0.260949839997973 
2092	 0.260825648462366 
2093	 0.260740905585095 
2094	 0.260658722028871 
2095	 0.260600535006777 
2096	 0.260527649678489 
2097	 0.260489063819881 
2098	 0.260406742843655 
2099	 0.260261927542861 
2100	 0.260137020575045 
2101	 0.260041556604417 
2102	 0.259963201853173 
2103	 0.25984552266389 
2104	 0.259746073128373 
2105	 0.259621358665366 
2106	 0.259414479508549 
2107	 0.259283335614726 
2108	 0.259210848172146 
2109	 0.259106021428699 
2110	 0.259024327262233 
2111	 0.258909489870157 
2112	 0.258784904527298 
2113	 0.258631749654628 
2114	 0.258442151072465 
2115	 0.258247631663041 
2116	 0.258018744868129 
2117	 0.257806611430116 
2118	 0.257582353667675 
2119	 0.257342081701895 
2120	 0.257151623466382 
2121	 0.257002859600097 
2122	 0.256762861381913 
2123	 0.256476088232521 
2124	 0.256269773788618 
2125	 0.256027772813521 
2126	 0.255839380960454 
2127	 0.255758192926558 
2128	 0.255629947791274 
2129	 0.255472549807683 
2130	 0.255337880283196 
2131	 0.255188561767546 
2132	 0.255110773032814 
2133	 0.255147804412982 
2134	 0.255052527193943 
2135	 0.254971460194336 
2136	 0.254876996571237 
2137	 0.254798509809176 
2138	 0.25468020353792 
2139	 0.254533122123086 
2140	 0.254421424441643 
2141	 0.254272367790075 
2142	 0.253955317399827 
2143	 0.253847664058495 
2144	 0.253862481336598 
2145	 0.253858437110842 
2146	 0.2539849246095 
2147	 0.254010676887048 
2148	 0.253991086613934 
2149	 0.253966426113437 
2150	 0.253927420664745 
2151	 0.253854150065572 
2152	 0.253717244909024 
2153	 0.25363574019551 
2154	 0.253582576033598 
2155	 0.25346048583619 
2156	 0.253469175817776 
2157	 0.253616494387502 
2158	 0.253603746327025 
2159	 0.253575744456815 
2160	 0.253542416227654 
2161	 0.253448048634806 
2162	 0.253334543083155 
2163	 0.253212177315597 
2164	 0.253115287174249 
2165	 0.252905947920226 
2166	 0.252853032192659 
2167	 0.2530007188617 
2168	 0.252985353240082 
2169	 0.252990906368156 
2170	 0.252919810153509 
2171	 0.252689178395255 
2172	 0.252517693216081 
2173	 0.252357393735131 
2174	 0.252170784576442 
2175	 0.25197584815525 
2176	 0.25185867000325 
2177	 0.251738957230206 
2178	 0.251645050195604 
2179	 0.251527841872667 
2180	 0.251408085950662 
2181	 0.251332499769004 
2182	 0.251283642454744 
2183	 0.251195668447828 
2184	 0.251179935553932 
2185	 0.251030353906546 
2186	 0.250782915237842 
2187	 0.250531906389192 
2188	 0.25013496162785 
2189	 0.249909074903891 
2190	 0.249756311148569 
2191	 0.249583069051382 
2192	 0.249592052367273 
2193	 0.249416554980542 
2194	 0.249055466153775 
2195	 0.248791220041765 
2196	 0.248516609636249 
2197	 0.248196319712668 
2198	 0.247976723318379 
2199	 0.247804515350997 
2200	 0.24751427140191 
2201	 0.247162104593615 
2202	 0.246834238514746 
2203	 0.246459482099375 
2204	 0.246097075207947 
2205	 0.24576974100434 
2206	 0.245349946884221 
2207	 0.24478820711308 
2208	 0.244437864331679 
2209	 0.244098768421916 
2210	 0.243880793739843 
2211	 0.243852762660671 
2212	 0.243788840379122 
2213	 0.243734165390909 
2214	 0.243754948129682 
2215	 0.243899559251982 
2216	 0.243982407351216 
2217	 0.244167725226852 
2218	 0.244184868056477 
2219	 0.244134275109143 
2220	 0.243980378403226 
2221	 0.243660791423314 
2222	 0.243341877302491 
2223	 0.243000202561143 
2224	 0.24259111795949 
2225	 0.242268935949254 
2226	 0.241897542609292 
2227	 0.241440737183161 
2228	 0.24093106012406 
2229	 0.24041405041424 
2230	 0.239801222670182 
2231	 0.239233588286784 
2232	 0.238759165021428 
2233	 0.238076054297127 
2234	 0.237338375990137 
2235	 0.236463238113315 
2236	 0.235347228727166 
2237	 0.234359518734968 
2238	 0.23336078818662 
2239	 0.23229977531399 
2240	 0.231283141094043 
2241	 0.230161719277516 
2242	 0.22896634313721 
2243	 0.227680511654287 
2244	 0.226292146072961 
2245	 0.224893254269939 
2246	 0.223378915291175 
2247	 0.22186250938206 
2248	 0.220331484244591 
2249	 0.218807742611451 
2250	 0.217274108518062 
2251	 0.215719842501398 
2252	 0.214063271923229 
2253	 0.212449775784818 
2254	 0.210692090851787 
2255	 0.208949827631707 
2256	 0.207394815182064 
2257	 0.205806891157159 
2258	 0.20433445115974 
2259	 0.203015020928337 
2260	 0.201600842635793 
2261	 0.200204880804282 
2262	 0.198790729487587 
2263	 0.197277605005387 
2264	 0.195928398413966 
2265	 0.194648655617641 
2266	 0.193443442697601 
2267	 0.192411296202489 
2268	 0.191268080440737 
2269	 0.190131828656 
2270	 0.188977089015041 
2271	 0.187753218898815 
2272	 0.186582146578601 
2273	 0.185424564151582 
2274	 0.184305835686187 
2275	 0.183268350122314 
2276	 0.182169610366332 
2277	 0.181085585958947 
2278	 0.179945269602987 
2279	 0.178696572647104 
2280	 0.177484773656389 
2281	 0.176285955873243 
2282	 0.175115988114409 
2283	 0.173980291978625 
2284	 0.172825090303775 
2285	 0.171684636648493 
2286	 0.170347686347995 
2287	 0.168911271001759 
2288	 0.167613003147185 
2289	 0.16626638005805 
2290	 0.164852690389384 
2291	 0.163642865895553 
2292	 0.162414562666763 
2293	 0.161306816179721 
2294	 0.160199816462146 
2295	 0.158860969596986 
2296	 0.157653480895315 
2297	 0.156613873941372 
2298	 0.155542422097724 
2299	 0.154831691261495 
2300	 0.154438134322091 
2301	 0.154077834519937 
2302	 0.153895033225765 
2303	 0.153816603285039 
2304	 0.153899179362959 
2305	 0.15410090374871 
2306	 0.154418879356652 
2307	 0.154843174192704 
2308	 0.155343027218568 
2309	 0.156060836241034 
2310	 0.157014974639809 
2311	 0.158044381882209 
2312	 0.159417293674457 
2313	 0.160467959450148 
2314	 0.161390413162714 
2315	 0.16238448992862 
2316	 0.163286380233738 
2317	 0.164247410640158 
2318	 0.16549319672056 
2319	 0.166285895633965 
2320	 0.166774258203368 
2321	 0.167290586265585 
2322	 0.167576552736514 
2323	 0.167864978884916 
2324	 0.168173846867437 
2325	 0.168408957882448 
2326	 0.168710014719986 
2327	 0.168642212554478 
2328	 0.168272665262619 
2329	 0.167986998143513 
2330	 0.167470903128102 
2331	 0.166872408878232 
2332	 0.166682828016653 
2333	 0.1663005601819 
2334	 0.165621508428463 
2335	 0.164990169433868 
2336	 0.164013098957232 
2337	 0.16306576187331 
2338	 0.162303111391015 
2339	 0.161436828334372 
2340	 0.160766828793765 
2341	 0.16000643188554 
2342	 0.159200229641613 
2343	 0.158554481897465 
2344	 0.157754875241157 
2345	 0.157244156538939 
2346	 0.157121368750401 
2347	 0.157077239013322 
2348	 0.157367525159865 
2349	 0.158053689472881 
2350	 0.158694400903258 
2351	 0.159116315075735 
2352	 0.159708332648131 
2353	 0.160480492551451 
2354	 0.161084118096435 
2355	 0.161802811716333 
2356	 0.162490032123108 
2357	 0.162694633581041 
2358	 0.163045182587914 
2359	 0.163633641585219 
2360	 0.163900235716274 
2361	 0.164114976401179 
2362	 0.164215004579889 
2363	 0.164079032752348 
2364	 0.164184532232412 
2365	 0.164202158547272 
2366	 0.164036941735802 
2367	 0.163969496622073 
2368	 0.163706925899006 
2369	 0.163364660583996 
2370	 0.163134168726733 
2371	 0.16305248456832 
2372	 0.163289424962478 
2373	 0.163604456827399 
2374	 0.163772891284045 
2375	 0.163695555932191 
2376	 0.16353503047313 
2377	 0.163471377427628 
2378	 0.16329059747156 
2379	 0.163260127436925 
2380	 0.16304945840233 
2381	 0.162790543258301 
2382	 0.162893478520152 
2383	 0.163320773295228 
2384	 0.16360485903145 
2385	 0.164271201855829 
2386	 0.164336877722801 
2387	 0.164095933839606 
2388	 0.163930349236338 
2389	 0.163329036414178 
2390	 0.163366403898169 
2391	 0.163692828727326 
2392	 0.163859606227696 
2393	 0.164283417934552 
2394	 0.16434992375588 
2395	 0.164232380863916 
2396	 0.164294824428082 
2397	 0.164332593554519 
2398	 0.164511956849094 
2399	 0.164854209612355 
2400	 0.164975515888406 
2401	 0.165005566754737 
2402	 0.165096807402238 
2403	 0.164874089265917 
2404	 0.164554028696013 
2405	 0.164510792470564 
2406	 0.164416178390662 
2407	 0.164641609632534 
2408	 0.165078110035357 
2409	 0.165183624298575 
2410	 0.165065535547788 
2411	 0.164932262776228 
2412	 0.164622842690958 
2413	 0.164457228587146 
2414	 0.164405679640476 
2415	 0.164038036287065 
2416	 0.163929484683909 
2417	 0.163848964895849 
2418	 0.163735356469642 
2419	 0.16402475454071 
2420	 0.163941435556412 
2421	 0.163804552175874 
2422	 0.163912476541211 
2423	 0.163841641762984 
2424	 0.16376864223585 
2425	 0.164057062955683 
2426	 0.164162212420245 
2427	 0.163952786956238 
2428	 0.164163848950602 
2429	 0.163998408632188 
2430	 0.163836143758724 
2431	 0.163955793639185 
2432	 0.163242863199722 
2433	 0.162540405432284 
2434	 0.162462616774858 
2435	 0.162317463139904 
2436	 0.162377539489076 
2437	 0.162502505671373 
2438	 0.162115523822285 
2439	 0.161628765565109 
2440	 0.161424742337326 
2441	 0.161770775779103 
2442	 0.161971872458479 
2443	 0.162080374438388 
2444	 0.162450698486828 
2445	 0.16232155564418 
2446	 0.161727560119838 
2447	 0.160883061035966 
2448	 0.160453247892524 
2449	 0.160181009022723 
2450	 0.160278906768308 
2451	 0.160860229391426 
2452	 0.160713279660974 
2453	 0.1604467317424 
2454	 0.160356552124181 
2455	 0.16041328032234 
2456	 0.160518370706074 
2457	 0.1601803077146 
2458	 0.159499234242936 
2459	 0.158801272044325 
2460	 0.15833043590613 
2461	 0.157893579495874 
2462	 0.157986386363928 
2463	 0.15827794254892 
2464	 0.157754047603216 
2465	 0.157325248639437 
2466	 0.157329633343325 
2467	 0.157142662686189 
2468	 0.156976396514533 
2469	 0.157021051839817 
2470	 0.157022760391906 
2471	 0.15683869807202 
2472	 0.157033748864877 
2473	 0.157039205589343 
2474	 0.15635286952917 
2475	 0.155898245657309 
2476	 0.155364921629721 
2477	 0.155101776846214 
2478	 0.155850829678076 
2479	 0.156265746159968 
2480	 0.156984900033268 
2481	 0.157242994313832 
2482	 0.156466862369893 
2483	 0.156812754547051 
2484	 0.157160465118466 
2485	 0.157271778695681 
2486	 0.157415881589077 
2487	 0.157390498338467 
2488	 0.1566475993704 
2489	 0.156622968800035 
2490	 0.157142330295283 
2491	 0.156597643145243 
2492	 0.156211628542717 
2493	 0.156307610777098 
2494	 0.156773390103583 
2495	 0.157478333392439 
2496	 0.157734129593442 
2497	 0.15773013131675 
2498	 0.157403094800832 
2499	 0.157724302071441 
2500	 0.159102224141283 
