Wavelength	Tablay400052.asd
350	 0.275969077144985 
351	 0.215477349976329 
352	 0.256010574703914 
353	 0.38184664390298 
354	 0.277990861510515 
355	 0.214836671377909 
356	 0.213857740190791 
357	 0.239229738960822 
358	 0.273284482471738 
359	 0.240536856164301 
360	 0.200914605119843 
361	 0.25426138420701 
362	 0.20326818022662 
363	 0.142821443099345 
364	 0.140162864108506 
365	 0.186535356102676 
366	 0.14117854022337 
367	 0.105783653736182 
368	 0.16270263980921 
369	 0.17369952488354 
370	 0.183675644254485 
371	 0.188716547712708 
372	 0.164608255019074 
373	 0.174593927618383 
374	 0.147447136069255 
375	 0.090222620108795 
376	 0.152671710151838 
377	 0.134001909265586 
378	 0.126220306328547 
379	 0.204951095296146 
380	 0.166587840332297 
381	 0.118113907907873 
382	 0.106148360562923 
383	 0.11625826185909 
384	 0.1241932291449 
385	 0.135341660407192 
386	 0.14629724028591 
387	 0.140489020477308 
388	 0.135196786985757 
389	 0.123622778350092 
390	 0.10518457849863 
391	 0.12680664213822 
392	 0.130463615970597 
393	 0.11204495027013 
394	 0.100046751774462 
395	 8.18885769722502E-02 
396	 8.03994350324059E-02 
397	 9.73019337226407E-02 
398	 9.83985525841841E-02 
399	 9.47721416527117E-02 
400	 9.36725106528181E-02 
401	 9.63247220213296E-02 
402	 8.08761435397272E-02 
403	 0.086822447574465 
404	 0.105316897337762 
405	 9.52579516007098E-02 
406	 0.104490160653787 
407	 9.17073657255189E-02 
408	 4.96550578431414E-02 
409	 5.44207602184675E-02 
410	 7.28635018351323E-02 
411	 8.58988619902515E-02 
412	 8.30520667808392E-02 
413	 7.43684498624472E-02 
414	 6.55044715968099E-02 
415	 6.26840418029835E-02 
416	 0.071912785834186 
417	 7.72635562965063E-02 
418	 7.52015332319976E-02 
419	 6.75512870875075E-02 
420	 6.23592858238621E-02 
421	 5.81942952283496E-02 
422	 5.97860241528442E-02 
423	 6.98760622888213E-02 
424	 6.38241086473787E-02 
425	 6.13134732253347E-02 
426	 6.48050039540821E-02 
427	 5.49235712508795E-02 
428	 5.92552814327876E-02 
429	 6.59811664472135E-02 
430	 6.24622774133663E-02 
431	 5.83173984223777E-02 
432	 5.41873933502717E-02 
433	 5.24986392099032E-02 
434	 5.54064368031242E-02 
435	 5.58399388806795E-02 
436	 5.75347853083563E-02 
437	 6.16471244507136E-02 
438	 6.41731995580354E-02 
439	 6.00240501994765E-02 
440	 5.50223449071912E-02 
441	 0.055489647122328 
442	 5.67282978353991E-02 
443	 5.72735078038398E-02 
444	 0.057074515686895 
445	 5.70042835935597E-02 
446	 5.44405103853789E-02 
447	 5.50450477351217E-02 
448	 0.060223655248653 
449	 6.02620945853178E-02 
450	 5.72307354467527E-02 
451	 5.53102742689157E-02 
452	 5.78828599324529E-02 
453	 5.72038461898217E-02 
454	 5.65632838372365E-02 
455	 5.63169111417983E-02 
456	 5.31051392837606E-02 
457	 5.40544614112015E-02 
458	 5.57802596275861E-02 
459	 5.48235550707414E-02 
460	 5.43125597388715E-02 
461	 5.34759373361661E-02 
462	 5.22837440710724E-02 
463	 5.14023530572693E-02 
464	 5.46489094248636E-02 
465	 5.41953345903626E-02 
466	 4.90761248113917E-02 
467	 5.01421900616969E-02 
468	 5.18519948263606E-02 
469	 5.27061766602523E-02 
470	 5.24771851990341E-02 
471	 0.051523194454079 
472	 5.12525656819111E-02 
473	 5.16650611720817E-02 
474	 5.17288137934349E-02 
475	 5.24769978884809E-02 
476	 0.052676555751343 
477	 5.18072304632503E-02 
478	 5.15738088480504E-02 
479	 5.07234097811268E-02 
480	 5.00011340119811E-02 
481	 5.04861446276609E-02 
482	 5.06304683631582E-02 
483	 5.08840498861589E-02 
484	 5.10193529056372E-02 
485	 4.99634790337505E-02 
486	 5.00133975298475E-02 
487	 5.02090101913312E-02 
488	 0.049783974454108 
489	 5.10869164888301E-02 
490	 0.050670055077519 
491	 4.94291402557118E-02 
492	 5.02839333770556E-02 
493	 0.049875564546564 
494	 4.98354651296056E-02 
495	 5.07954726971086E-02 
496	 5.09258061246866E-02 
497	 5.07522783058224E-02 
498	 5.05306249868642E-02 
499	 5.04257026932118E-02 
500	 5.03360316732526E-02 
501	 5.07846909283167E-02 
502	 5.11790260456598E-02 
503	 5.01320182055054E-02 
504	 4.98355202063895E-02 
505	 4.99248598270863E-02 
506	 4.99434939503104E-02 
507	 5.04484407689019E-02 
508	 5.03290657319029E-02 
509	 4.97913582099466E-02 
510	 4.96245318035418E-02 
511	 5.02690013613019E-02 
512	 5.05408060880962E-02 
513	 5.02089051810937E-02 
514	 5.03868721988289E-02 
515	 5.04869766386663E-02 
516	 5.04450080365299E-02 
517	 5.03379094989205E-02 
518	 5.03058641393065E-02 
519	 0.05011268185966 
520	 4.99022286214484E-02 
521	 5.00574724165802E-02 
522	 5.06367907710142E-02 
523	 5.10041576838866E-02 
524	 5.09371302006612E-02 
525	 5.11782656591528E-02 
526	 0.051354973356927 
527	 5.12879573966015E-02 
528	 0.051022393823293 
529	 5.15137070665112E-02 
530	 5.16583671869447E-02 
531	 0.051326887016726 
532	 5.15014834126906E-02 
533	 5.21154630315423E-02 
534	 5.22647965850621E-02 
535	 5.16510843965726E-02 
536	 5.22479182233873E-02 
537	 5.26059371956017E-02 
538	 5.24832261622392E-02 
539	 5.23563185946552E-02 
540	 5.26513578446494E-02 
541	 5.31472553746103E-02 
542	 5.35291650832631E-02 
543	 5.34496130728823E-02 
544	 5.34074481795389E-02 
545	 5.36715055306477E-02 
546	 0.05425799842904 
547	 0.054484476101785 
548	 5.46612556871586E-02 
549	 5.48953526294341E-02 
550	 5.50987612779134E-02 
551	 5.56804948048547E-02 
552	 5.61890807055797E-02 
553	 5.63861471019787E-02 
554	 5.70011869056128E-02 
555	 5.72516870412128E-02 
556	 5.74146118471455E-02 
557	 0.058142509989849 
558	 5.88578162938071E-02 
559	 5.95386976557336E-02 
560	 6.02508994646379E-02 
561	 6.11097530291126E-02 
562	 6.18567365836889E-02 
563	 6.27176920248605E-02 
564	 6.38753772616731E-02 
565	 6.48507351483262E-02 
566	 6.58552570518021E-02 
567	 6.69881052507706E-02 
568	 6.82410875357274E-02 
569	 6.94496443275786E-02 
570	 0.070722885134221 
571	 7.21642815964454E-02 
572	 7.37383782002854E-02 
573	 7.58201769916882E-02 
574	 7.82082847163255E-02 
575	 8.04631666450754E-02 
576	 8.21947724342199E-02 
577	 8.42452857789474E-02 
578	 0.086904178171883 
579	 8.97393816715867E-02 
580	 9.23121943706396E-02 
581	 9.49567925135892E-02 
582	 9.80460178587035E-02 
583	 0.10144096247682 
584	 0.104905508291821 
585	 0.108686365335036 
586	 0.113207989523034 
587	 0.117699646995311 
588	 0.122411487433975 
589	 0.127478067874777 
590	 0.132607909348412 
591	 0.138438438427599 
592	 0.144729272708365 
593	 0.151009035871579 
594	 0.157094635781815 
595	 0.163351787119171 
596	 0.169843700453334 
597	 0.176371529305844 
598	 0.183125642380834 
599	 0.189855128685045 
600	 0.196505393374479 
601	 0.203670984482307 
602	 0.210474627750268 
603	 0.216992649601486 
604	 0.223634972436939 
605	 0.23010056767711 
606	 0.236469642536907 
607	 0.242629879522649 
608	 0.248177066174282 
609	 0.253257662573365 
610	 0.258135619129528 
611	 0.26300400045445 
612	 0.267682537731994 
613	 0.27201206280736 
614	 0.27597423423172 
615	 0.279642692605781 
616	 0.282839505651859 
617	 0.285939300201498 
618	 0.28909072167852 
619	 0.291939934665586 
620	 0.294620178876107 
621	 0.297061127371043 
622	 0.29919813095085 
623	 0.301229059962102 
624	 0.303230910929082 
625	 0.305241070047084 
626	 0.307247721027851 
627	 0.308896544605948 
628	 0.310313860533669 
629	 0.311689394482402 
630	 0.313124192836036 
631	 0.314462558930942 
632	 0.315711219813123 
633	 0.316933616590331 
634	 0.318061905748825 
635	 0.319217245476803 
636	 0.320398758303658 
637	 0.321437348846489 
638	 0.322336609079809 
639	 0.323291346626865 
640	 0.324382934938267 
641	 0.32515643875479 
642	 0.32597324128805 
643	 0.326908730491608 
644	 0.327840954162403 
645	 0.328586141218003 
646	 0.329341547050745 
647	 0.330199770251616 
648	 0.331011795872541 
649	 0.331685576569769 
650	 0.332313269367545 
651	 0.33301376727384 
652	 0.333744267789587 
653	 0.33435900586176 
654	 0.334932132845752 
655	 0.335691060168049 
656	 0.336391411177289 
657	 0.3370981009939 
658	 0.33782566878439 
659	 0.338373887814925 
660	 0.338861832641022 
661	 0.339509516308673 
662	 0.340408645134296 
663	 0.340748441958805 
664	 0.34122249624847 
665	 0.341992776594222 
666	 0.342605683190805 
667	 0.34309459446475 
668	 0.343533312188552 
669	 0.344045383686533 
670	 0.344875124484027 
671	 0.345546897222583 
672	 0.345983462449768 
673	 0.346340469669494 
674	 0.3468991581465 
675	 0.347455392574361 
676	 0.347962168743475 
677	 0.34860918852349 
678	 0.349129502163093 
679	 0.349545438910112 
680	 0.34995706081624 
681	 0.350473727625767 
682	 0.350970063396216 
683	 0.35150018710393 
684	 0.352159157499346 
685	 0.352527846877933 
686	 0.35290208993653 
687	 0.353376310659719 
688	 0.353659072024859 
689	 0.354138716155682 
690	 0.354697389640228 
691	 0.355161848867523 
692	 0.355669540402882 
693	 0.356065227677557 
694	 0.356419449017245 
695	 0.356921453623202 
696	 0.357427602452455 
697	 0.357936550556132 
698	 0.35841117428462 
699	 0.358733508088647 
700	 0.359009191531147 
701	 0.359364591886781 
702	 0.359860823887438 
703	 0.360314696209202 
704	 0.360710139920282 
705	 0.361074880002748 
706	 0.361457245756346 
707	 0.361788229937725 
708	 0.362100874139382 
709	 0.362451489120769 
710	 0.362914001893371 
711	 0.363389696311641 
712	 0.363836656499693 
713	 0.364211355956753 
714	 0.364352466791612 
715	 0.364659236782658 
716	 0.36515901269663 
717	 0.365602243712032 
718	 0.365961610680694 
719	 0.366313182242569 
720	 0.366698685604252 
721	 0.367072559445564 
722	 0.367417563388787 
723	 0.367688961156223 
724	 0.367910667529557 
725	 0.368389187990803 
726	 0.368895756383821 
727	 0.36925710682073 
728	 0.369407753182985 
729	 0.369825063726555 
730	 0.370228085893735 
731	 0.370475172478926 
732	 0.370815491425154 
733	 0.371237336500192 
734	 0.371644682310531 
735	 0.371936531035786 
736	 0.372101174354259 
737	 0.372288857131321 
738	 0.372601829132091 
739	 0.373066589345991 
740	 0.373414179952329 
741	 0.373720026993666 
742	 0.374068964168855 
743	 0.37449122617645 
744	 0.374893823160345 
745	 0.375227990598156 
746	 0.375486747220281 
747	 0.375736995988586 
748	 0.376021706501331 
749	 0.376380573329947 
750	 0.376825710836083 
751	 0.377218635807443 
752	 0.377545144396852 
753	 0.377825955054461 
754	 0.378105082880966 
755	 0.378418518390488 
756	 0.378722905383595 
757	 0.378986597959421 
758	 0.379265284564478 
759	 0.379571958650274 
760	 0.379863031094679 
761	 0.380106626064764 
762	 0.380531256264682 
763	 0.380957128309319 
764	 0.381248589822382 
765	 0.381376566771739 
766	 0.381788054881931 
767	 0.382267499623894 
768	 0.382594187461319 
769	 0.382840901326194 
770	 0.383110987715192 
771	 0.383434092505248 
772	 0.383785376190063 
773	 0.384062352846637 
774	 0.384318088125782 
775	 0.384612558136359 
776	 0.38498566631092 
777	 0.385258638607432 
778	 0.385523812296466 
779	 0.385846122833657 
780	 0.386173876340276 
781	 0.386525788851784 
782	 0.386850574760684 
783	 0.387116512056964 
784	 0.387430751260127 
785	 0.387665532679993 
786	 0.387881533019326 
787	 0.388220809274576 
788	 0.388569538126954 
789	 0.388870788363561 
790	 0.389124179077579 
791	 0.389386074601517 
792	 0.389534377487701 
793	 0.38983420173728 
794	 0.390365279928295 
795	 0.390581657829845 
796	 0.390728973390527 
797	 0.390929680704739 
798	 0.391239631572257 
799	 0.391580311564976 
800	 0.391920699832547 
801	 0.392240060624438 
802	 0.392522516717245 
803	 0.392689581290695 
804	 0.392926217716193 
805	 0.393286514894847 
806	 0.393582655807589 
807	 0.39383806396318 
808	 0.394019094235293 
809	 0.394167548090163 
810	 0.39458929459003 
811	 0.39483616201257 
812	 0.39498376835003 
813	 0.39528766363104 
814	 0.395536851956224 
815	 0.395822502113377 
816	 0.396126463101597 
817	 0.396331028155601 
818	 0.396487261629633 
819	 0.396728846317729 
820	 0.397059015448873 
821	 0.397253948695061 
822	 0.397547025100393 
823	 0.397796632880367 
824	 0.397897158688557 
825	 0.398165545770428 
826	 0.398384841090205 
827	 0.398621575389649 
828	 0.398988591246827 
829	 0.399073986820373 
830	 0.399276248953485 
831	 0.399606445328057 
832	 0.399733168795889 
833	 0.399948440619838 
834	 0.400126465592735 
835	 0.400221128666506 
836	 0.400393511526351 
837	 0.400734831208796 
838	 0.401081838111607 
839	 0.401283753464061 
840	 0.401411313801737 
841	 0.401569733629804 
842	 0.401811453689706 
843	 0.402100057254403 
844	 0.402119021406884 
845	 0.402274364266197 
846	 0.402618946644075 
847	 0.402904971955486 
848	 0.402906895357888 
849	 0.402997518209186 
850	 0.403286985773283 
851	 0.403474652411405 
852	 0.403637116499043 
853	 0.403835094734156 
854	 0.404069816209316 
855	 0.404218857052655 
856	 0.404311482515992 
857	 0.404501616847328 
858	 0.404860330819877 
859	 0.40504097242894 
860	 0.405125824626464 
861	 0.405217924606102 
862	 0.405385421422463 
863	 0.405404378663113 
864	 0.405609757622374 
865	 0.40601240241173 
866	 0.406309818846375 
867	 0.406332755000597 
868	 0.406292868381741 
869	 0.406379539486061 
870	 0.406651691267213 
871	 0.406855718994837 
872	 0.406971540664067 
873	 0.407031399299549 
874	 0.407040695026984 
875	 0.407193639698456 
876	 0.407418355711027 
877	 0.407605086020241 
878	 0.407846764582931 
879	 0.40816468369728 
880	 0.408274910594958 
881	 0.407972060665939 
882	 0.408220549203538 
883	 0.408591503903696 
884	 0.408770447844824 
885	 0.40867629660349 
886	 0.408786149477272 
887	 0.408935737389564 
888	 0.409087795699595 
889	 0.409409672328434 
890	 0.409550394802071 
891	 0.409499006490426 
892	 0.409416616407445 
893	 0.409620746979851 
894	 0.409729624981158 
895	 0.40987149242175 
896	 0.410191263554568 
897	 0.410571564367116 
898	 0.410644369604786 
899	 0.410541485578276 
900	 0.410559907989006 
901	 0.410835508797811 
902	 0.411219607804508 
903	 0.411410608555734 
904	 0.411203726898209 
905	 0.411202287249806 
906	 0.41134384752209 
907	 0.411580917248191 
908	 0.411851846359935 
909	 0.41173357123278 
910	 0.411824413370854 
911	 0.412169994594263 
912	 0.412211296811287 
913	 0.412252179506975 
914	 0.412430200340398 
915	 0.412635998522708 
916	 0.412504802610494 
917	 0.412864770976545 
918	 0.413041457440588 
919	 0.412786921368489 
920	 0.41317270480067 
921	 0.413568158947649 
922	 0.413616712939196 
923	 0.413393108202003 
924	 0.413862520243365 
925	 0.414042484888805 
926	 0.414128362210049 
927	 0.41445968445619 
928	 0.414511681685441 
929	 0.414539381145962 
930	 0.414731995030734 
931	 0.415100429141058 
932	 0.415068673300047 
933	 0.415078505597882 
934	 0.415251973057249 
935	 0.41548565557307 
936	 0.415627770668946 
937	 0.415691841248034 
938	 0.415826363813758 
939	 0.416187023528993 
940	 0.416416154188527 
941	 0.416655436117118 
942	 0.416899754125199 
943	 0.417008524189798 
944	 0.41709476395736 
945	 0.417286426605953 
946	 0.417515642786501 
947	 0.417536911117794 
948	 0.417405072358395 
949	 0.417590729892661 
950	 0.418082287412423 
951	 0.418236332821152 
952	 0.418157796784089 
953	 0.418301162276212 
954	 0.418737263383268 
955	 0.418899368599333 
956	 0.418728580467812 
957	 0.418628677335939 
958	 0.418915057041181 
959	 0.419543095826269 
960	 0.41973309895468 
961	 0.419854989087185 
962	 0.420140485363693 
963	 0.419990268318759 
964	 0.419856470645965 
965	 0.419890021774738 
966	 0.420111760448393 
967	 0.420452348168176 
968	 0.420581286267805 
969	 0.420742688405863 
970	 0.421143863252616 
971	 0.421466625621245 
972	 0.421640463118485 
973	 0.4217916886353 
974	 0.421989329498193 
975	 0.421950197120875 
976	 0.421830406063577 
977	 0.421676293100664 
978	 0.421597608568319 
979	 0.422009789235774 
980	 0.422216581407415 
981	 0.422252406561074 
982	 0.422433059508166 
983	 0.423118434796788 
984	 0.423324000373634 
985	 0.423279435897112 
986	 0.423445355600243 
987	 0.423457931379671 
988	 0.423492204326227 
989	 0.423566954918255 
990	 0.423663375849087 
991	 0.423797445853692 
992	 0.424360588809301 
993	 0.42481114184884 
994	 0.42463191157228 
995	 0.424556305779858 
996	 0.424644803485065 
997	 0.424780088084325 
998	 0.424876809707319 
999	 0.425270967054907 
1000	 0.425453432346931 
1001	 0.433389249042363 
1002	 0.433549654634892 
1003	 0.4338681640465 
1004	 0.434081870836332 
1005	 0.434275847297296 
1006	 0.434452626007757 
1007	 0.434601290989389 
1008	 0.434747678518933 
1009	 0.434808185330927 
1010	 0.435016292009696 
1011	 0.435445570995243 
1012	 0.435591415652237 
1013	 0.43566422088674 
1014	 0.435722947720944 
1015	 0.435570414311459 
1016	 0.435376727589103 
1017	 0.435587640238484 
1018	 0.435930069684417 
1019	 0.436259615029059 
1020	 0.436702307894495 
1021	 0.436983164584012 
1022	 0.437190938412522 
1023	 0.437409079589346 
1024	 0.437537683447831 
1025	 0.43763446126339 
1026	 0.437707966041724 
1027	 0.437760396353035 
1028	 0.437696960108599 
1029	 0.437862716997929 
1030	 0.43796505304811 
1031	 0.437916447365003 
1032	 0.437785126409065 
1033	 0.437928047146087 
1034	 0.438234654399693 
1035	 0.438509577685809 
1036	 0.438764593226799 
1037	 0.439156232236602 
1038	 0.43928565793712 
1039	 0.439158985421222 
1040	 0.439319446526742 
1041	 0.43963905047148 
1042	 0.439773758788388 
1043	 0.439986900062547 
1044	 0.44001106733492 
1045	 0.439924900089705 
1046	 0.439858919608901 
1047	 0.439813167535468 
1048	 0.43991878200967 
1049	 0.440030127386021 
1050	 0.439975631093026 
1051	 0.439979616766248 
1052	 0.440145911764431 
1053	 0.440325869220474 
1054	 0.440525718764781 
1055	 0.440732551257838 
1056	 0.441062809590561 
1057	 0.441289059583373 
1058	 0.44142532573338 
1059	 0.441635730928196 
1060	 0.441849514747935 
1061	 0.441951193282896 
1062	 0.442150992526995 
1063	 0.442461168410268 
1064	 0.442745591251598 
1065	 0.443019458014686 
1066	 0.443308323010547 
1067	 0.44365200581013 
1068	 0.444026736190598 
1069	 0.444412977796284 
1070	 0.444679643419661 
1071	 0.444905460392466 
1072	 0.444911690245221 
1073	 0.445040433819064 
1074	 0.445327612794458 
1075	 0.445596311383845 
1076	 0.445939357185589 
1077	 0.446256946973948 
1078	 0.446471834706641 
1079	 0.446695773351838 
1080	 0.446997797759862 
1081	 0.447243096319842 
1082	 0.447504013656633 
1083	 0.447823090970734 
1084	 0.448113141995899 
1085	 0.448398352482481 
1086	 0.448716860086382 
1087	 0.449023889023973 
1088	 0.449391363097935 
1089	 0.449708107955883 
1090	 0.449985053057549 
1091	 0.450186386416784 
1092	 0.450229668136753 
1093	 0.450427620737459 
1094	 0.45071001961222 
1095	 0.450900260243502 
1096	 0.451258521330985 
1097	 0.451527099774679 
1098	 0.451485318726967 
1099	 0.451556206577363 
1100	 0.451677786403951 
1101	 0.451803378192474 
1102	 0.452034697363695 
1103	 0.452204000808611 
1104	 0.452384929919767 
1105	 0.452573940089277 
1106	 0.452716078245137 
1107	 0.452835085785927 
1108	 0.453056943870194 
1109	 0.453024428689607 
1110	 0.452876145298632 
1111	 0.452982083005702 
1112	 0.453116420041059 
1113	 0.453260976425253 
1114	 0.453522049176495 
1115	 0.453610028638606 
1116	 0.453689139007882 
1117	 0.453969906303801 
1118	 0.454070364865668 
1119	 0.454110268269081 
1120	 0.45411393537321 
1121	 0.454048285246604 
1122	 0.453876066267966 
1123	 0.453847206661142 
1124	 0.453904517253212 
1125	 0.4539313342361 
1126	 0.453954974980247 
1127	 0.4539054394901 
1128	 0.453890381561355 
1129	 0.453957493239968 
1130	 0.454050961369542 
1131	 0.454202877240861 
1132	 0.454299086491188 
1133	 0.454268723914998 
1134	 0.454300179039532 
1135	 0.4543238821123 
1136	 0.454325991344281 
1137	 0.454279339169031 
1138	 0.454191326198985 
1139	 0.454150307932218 
1140	 0.454047559508647 
1141	 0.454081674805622 
1142	 0.454079914926383 
1143	 0.454081160283165 
1144	 0.454100798399643 
1145	 0.454080040837953 
1146	 0.454146139637082 
1147	 0.454278979389704 
1148	 0.454339282414783 
1149	 0.454340779712659 
1150	 0.454330226265335 
1151	 0.454337974431423 
1152	 0.454369872036766 
1153	 0.454450062818786 
1154	 0.454439940198875 
1155	 0.454436337856701 
1156	 0.454404972334034 
1157	 0.454222489162865 
1158	 0.454166064695314 
1159	 0.454164896655841 
1160	 0.454177896693898 
1161	 0.454275398759755 
1162	 0.454381876334132 
1163	 0.454420227807503 
1164	 0.454408085483626 
1165	 0.454360569930904 
1166	 0.454419409952416 
1167	 0.454501432645697 
1168	 0.454479836071272 
1169	 0.454470579331557 
1170	 0.45437536919817 
1171	 0.454389663221024 
1172	 0.454496249768693 
1173	 0.454536144196075 
1174	 0.454606579839613 
1175	 0.454600809854123 
1176	 0.454465576422682 
1177	 0.454422751539523 
1178	 0.454369322582328 
1179	 0.454403332390242 
1180	 0.454527922667689 
1181	 0.454620693978487 
1182	 0.454648368446634 
1183	 0.454634522595988 
1184	 0.454571252480435 
1185	 0.454521316031271 
1186	 0.454521046530115 
1187	 0.454584404082694 
1188	 0.454616624487763 
1189	 0.454670009184143 
1190	 0.454692236008479 
1191	 0.454688919896259 
1192	 0.454712229027107 
1193	 0.45471211004169 
1194	 0.454744708286814 
1195	 0.454781804379438 
1196	 0.454877529549248 
1197	 0.455053250019221 
1198	 0.455174566964734 
1199	 0.45526172693841 
1200	 0.455404934113907 
1201	 0.455525423765509 
1202	 0.455639965480773 
1203	 0.455822443439919 
1204	 0.455970800914899 
1205	 0.456124438356114 
1206	 0.456225187371466 
1207	 0.456429861209125 
1208	 0.456699162420952 
1209	 0.456934209950285 
1210	 0.457172722723942 
1211	 0.457446547065963 
1212	 0.457709410508983 
1213	 0.458030166426123 
1214	 0.458403331090915 
1215	 0.458810665879941 
1216	 0.459271813343264 
1217	 0.459717772479268 
1218	 0.460182495205118 
1219	 0.460682873968325 
1220	 0.461189789164835 
1221	 0.46164683543439 
1222	 0.462064275588861 
1223	 0.462499260673382 
1224	 0.462953447502437 
1225	 0.463383771783907 
1226	 0.463839800998969 
1227	 0.464370757243694 
1228	 0.464806340586986 
1229	 0.465176927350073 
1230	 0.465579641684468 
1231	 0.465965375356821 
1232	 0.466356875472976 
1233	 0.466742479195211 
1234	 0.467139786616276 
1235	 0.467582570580282 
1236	 0.467960281884542 
1237	 0.468329280337286 
1238	 0.468674678499822 
1239	 0.468983784600652 
1240	 0.469212749183264 
1241	 0.469533001503907 
1242	 0.469814020255429 
1243	 0.470109822529235 
1244	 0.470407496453377 
1245	 0.470730887937996 
1246	 0.471059298795582 
1247	 0.471387891658179 
1248	 0.471766569943128 
1249	 0.472068997991939 
1250	 0.472345160105383 
1251	 0.472593932719153 
1252	 0.472762773004557 
1253	 0.473001540571076 
1254	 0.473231452701584 
1255	 0.473499055493432 
1256	 0.473885709807023 
1257	 0.474150964425839 
1258	 0.474375852367708 
1259	 0.474579972932117 
1260	 0.474619176581081 
1261	 0.47479428737278 
1262	 0.475037055018321 
1263	 0.47531567205703 
1264	 0.475564827443908 
1265	 0.47590835567942 
1266	 0.476108626165357 
1267	 0.476185783235885 
1268	 0.476378253152196 
1269	 0.476594786177476 
1270	 0.476767388044669 
1271	 0.47697379616035 
1272	 0.477137994644928 
1273	 0.477177962436837 
1274	 0.477361313469433 
1275	 0.477629622515713 
1276	 0.47787453457959 
1277	 0.478181617190431 
1278	 0.478459150997909 
1279	 0.478721930237127 
1280	 0.47897851767404 
1281	 0.479239127346975 
1282	 0.479489020606417 
1283	 0.479689866187657 
1284	 0.479937275411641 
1285	 0.480204404514676 
1286	 0.480494078795877 
1287	 0.480767367668206 
1288	 0.48103608331129 
1289	 0.481374592435508 
1290	 0.481722660301597 
1291	 0.482102316335625 
1292	 0.482595951214871 
1293	 0.482970163936926 
1294	 0.483284012736534 
1295	 0.483629029752035 
1296	 0.483921875500851 
1297	 0.484278146011304 
1298	 0.484695531860801 
1299	 0.485071191186403 
1300	 0.485473325261962 
1301	 0.485827541982119 
1302	 0.48612087333077 
1303	 0.486446275228877 
1304	 0.486775950631913 
1305	 0.487087716519783 
1306	 0.487426383166352 
1307	 0.487721692589424 
1308	 0.488030501403293 
1309	 0.488220489357553 
1310	 0.488440566990232 
1311	 0.488622473662787 
1312	 0.488838169542741 
1313	 0.489036364881015 
1314	 0.489273173146621 
1315	 0.489552868188455 
1316	 0.489789351161541 
1317	 0.490013039526196 
1318	 0.490256927926923 
1319	 0.49053880947243 
1320	 0.490716377547573 
1321	 0.490865719402413 
1322	 0.490998295080068 
1323	 0.491007718375058 
1324	 0.491106435213815 
1325	 0.491301819244793 
1326	 0.491400444042083 
1327	 0.491456492206978 
1328	 0.491528432752782 
1329	 0.491579309645632 
1330	 0.491599509951615 
1331	 0.491593139912754 
1332	 0.491619436915611 
1333	 0.49165902332708 
1334	 0.491643290133302 
1335	 0.491637730321158 
1336	 0.491678765906449 
1337	 0.491646221155689 
1338	 0.491542919443498 
1339	 0.49148033107023 
1340	 0.491432284471545 
1341	 0.491344178906782 
1342	 0.491243226532126 
1343	 0.491132598618992 
1344	 0.490969751063154 
1345	 0.490867452576395 
1346	 0.490824449320508 
1347	 0.490697120556039 
1348	 0.49054562481844 
1349	 0.490408212393728 
1350	 0.490224756613018 
1351	 0.490055492380478 
1352	 0.489922016338226 
1353	 0.489765397990662 
1354	 0.489567287725617 
1355	 0.489392790987036 
1356	 0.489237398774631 
1357	 0.489078485261374 
1358	 0.488925227349359 
1359	 0.488761896270288 
1360	 0.488612797536646 
1361	 0.48841294415128 
1362	 0.488270711075813 
1363	 0.488153294919461 
1364	 0.487965100998076 
1365	 0.487755396594839 
1366	 0.487595072129432 
1367	 0.487419254726469 
1368	 0.487209551221368 
1369	 0.487058491963844 
1370	 0.486824764597171 
1371	 0.486475856491928 
1372	 0.486210451086455 
1373	 0.4859896763672 
1374	 0.485715335950878 
1375	 0.485424281092888 
1376	 0.485130597251477 
1377	 0.4847933158654 
1378	 0.484496276548171 
1379	 0.484230660227118 
1380	 0.483942695082956 
1381	 0.483666535149231 
1382	 0.48336460329391 
1383	 0.483012354763417 
1384	 0.482703183519139 
1385	 0.482399017705652 
1386	 0.482116311612352 
1387	 0.481872064535963 
1388	 0.481627385152214 
1389	 0.481379016968101 
1390	 0.481151959448258 
1391	 0.480906064436322 
1392	 0.480726435137045 
1393	 0.480599349825535 
1394	 0.48047678675792 
1395	 0.480389349884782 
1396	 0.480371742545918 
1397	 0.480285140922507 
1398	 0.480227661991521 
1399	 0.480051788391182 
1400	 0.479803889165396 
1401	 0.479555969348819 
1402	 0.479279383216266 
1403	 0.478911498840739 
1404	 0.478486015853066 
1405	 0.478069778887084 
1406	 0.477554254203489 
1407	 0.477088804271877 
1408	 0.476702556261117 
1409	 0.476213899678959 
1410	 0.475633656883333 
1411	 0.475110084398088 
1412	 0.47452909873092 
1413	 0.474046536168865 
1414	 0.473625596075992 
1415	 0.473229423406886 
1416	 0.47288842036253 
1417	 0.472554354902969 
1418	 0.472261992596491 
1419	 0.471958345226766 
1420	 0.471660636497569 
1421	 0.471379764621038 
1422	 0.471105003449035 
1423	 0.47083389403981 
1424	 0.47059288350469 
1425	 0.470317790034889 
1426	 0.470082122741374 
1427	 0.469852832632583 
1428	 0.469634126210147 
1429	 0.469447680026116 
1430	 0.469246606119963 
1431	 0.469045357442226 
1432	 0.46884710349367 
1433	 0.468675774736981 
1434	 0.468429003981305 
1435	 0.468164065619776 
1436	 0.467858087896778 
1437	 0.467461194577584 
1438	 0.467153003659352 
1439	 0.46686311866296 
1440	 0.46656285895642 
1441	 0.466254097676341 
1442	 0.466030289100134 
1443	 0.465816427990064 
1444	 0.465652047127526 
1445	 0.465543941325063 
1446	 0.465512073730111 
1447	 0.465461683310693 
1448	 0.465582975940386 
1449	 0.465878812040366 
1450	 0.466176014264882 
1451	 0.466582858794394 
1452	 0.466980592203877 
1453	 0.467401161428705 
1454	 0.467842984866102 
1455	 0.468325354211645 
1456	 0.468807883618691 
1457	 0.46929618335099 
1458	 0.469816780827371 
1459	 0.470405596395765 
1460	 0.470921785659204 
1461	 0.471457288060855 
1462	 0.471924859691235 
1463	 0.472310361056005 
1464	 0.472676519201435 
1465	 0.472974775928354 
1466	 0.473302641743394 
1467	 0.473586742981942 
1468	 0.473925564450706 
1469	 0.474371696344751 
1470	 0.474748574250388 
1471	 0.47511210265231 
1472	 0.47547796101436 
1473	 0.475844345733294 
1474	 0.476179253747532 
1475	 0.476514245010018 
1476	 0.476887569276913 
1477	 0.477188602284204 
1478	 0.477420113323227 
1479	 0.477687279271526 
1480	 0.477948058244154 
1481	 0.478208754857714 
1482	 0.478480630004391 
1483	 0.478724511958996 
1484	 0.478968911161116 
1485	 0.479169716049316 
1486	 0.479303627913071 
1487	 0.479506344634785 
1488	 0.479720588448448 
1489	 0.479924490310261 
1490	 0.480159372345454 
1491	 0.480389299669807 
1492	 0.480550886485199 
1493	 0.48081971843204 
1494	 0.481170967951823 
1495	 0.481504083712879 
1496	 0.481851919031046 
1497	 0.482256131068642 
1498	 0.482698348546994 
1499	 0.483135608296469 
1500	 0.483647912201241 
1501	 0.484109051158883 
1502	 0.484558788766104 
1503	 0.484963632215956 
1504	 0.485326163352756 
1505	 0.48569804710287 
1506	 0.486028166321716 
1507	 0.4863695657248 
1508	 0.486742192766143 
1509	 0.487085120286291 
1510	 0.487410873974288 
1511	 0.48771668184956 
1512	 0.488006246536908 
1513	 0.488277957411778 
1514	 0.48853826945238 
1515	 0.488768268333564 
1516	 0.488945004999769 
1517	 0.489149194743798 
1518	 0.489369570905719 
1519	 0.489550393026721 
1520	 0.489730952856899 
1521	 0.489888288218427 
1522	 0.490058073604861 
1523	 0.490178416680386 
1524	 0.490297254551575 
1525	 0.490431718646074 
1526	 0.490530437314228 
1527	 0.490570856032257 
1528	 0.490666160601845 
1529	 0.490792544756763 
1530	 0.490869624043472 
1531	 0.490934296419505 
1532	 0.49100758148157 
1533	 0.491052368995449 
1534	 0.491123271870367 
1535	 0.49122962922153 
1536	 0.491288087595128 
1537	 0.49129923196509 
1538	 0.491393361954761 
1539	 0.491497207086438 
1540	 0.491630804896995 
1541	 0.49183318776316 
1542	 0.492004468200743 
1543	 0.492153314698011 
1544	 0.492350512593695 
1545	 0.492573633123207 
1546	 0.492808927922478 
1547	 0.493084236716437 
1548	 0.493331751979934 
1549	 0.493563025148442 
1550	 0.493835323825688 
1551	 0.494122110357596 
1552	 0.494404553033006 
1553	 0.494754250326791 
1554	 0.495001329082296 
1555	 0.495159298042079 
1556	 0.495391730306262 
1557	 0.495594095020377 
1558	 0.495847044386289 
1559	 0.496184760049 
1560	 0.496464901484747 
1561	 0.496752896674264 
1562	 0.496986774552482 
1563	 0.497177435861684 
1564	 0.497375206328422 
1565	 0.497529554961341 
1566	 0.49770811743275 
1567	 0.497900096949002 
1568	 0.49808866320166 
1569	 0.498268715094924 
1570	 0.498464520561117 
1571	 0.498671356793393 
1572	 0.498880187843556 
1573	 0.499099802397046 
1574	 0.499315803560838 
1575	 0.499563738798296 
1576	 0.499749173892342 
1577	 0.499873089381992 
1578	 0.500050780571084 
1579	 0.500210104463943 
1580	 0.500389327643972 
1581	 0.500628578454916 
1582	 0.500837793234999 
1583	 0.501022075681719 
1584	 0.501217383162011 
1585	 0.501433859030504 
1586	 0.501620788875654 
1587	 0.501787033604286 
1588	 0.501956776612919 
1589	 0.502123817952068 
1590	 0.502270873870995 
1591	 0.50240986219163 
1592	 0.502541223035889 
1593	 0.502637414352093 
1594	 0.502755126794947 
1595	 0.502884422735008 
1596	 0.503010902033554 
1597	 0.503130165603069 
1598	 0.503271465773407 
1599	 0.503411470739034 
1600	 0.503576025552669 
1601	 0.503786896714186 
1602	 0.503974595464687 
1603	 0.504211662946951 
1604	 0.504360744964511 
1605	 0.504407910565109 
1606	 0.504522390861849 
1607	 0.504634358895916 
1608	 0.504724491325037 
1609	 0.504831016916249 
1610	 0.504957348150836 
1611	 0.50507479139077 
1612	 0.50517419663386 
1613	 0.5053175093889 
1614	 0.505424160191485 
1615	 0.505439904800356 
1616	 0.505518623835002 
1617	 0.505694813944047 
1618	 0.505750123670399 
1619	 0.505730511846173 
1620	 0.505758499420009 
1621	 0.505719653297798 
1622	 0.505718515881706 
1623	 0.505834185421029 
1624	 0.505840960795377 
1625	 0.505741546483472 
1626	 0.505711223815379 
1627	 0.505654653442431 
1628	 0.505638665368804 
1629	 0.505702692210126 
1630	 0.505723880243612 
1631	 0.50574727409663 
1632	 0.505745441732736 
1633	 0.505690352672068 
1634	 0.50567610876688 
1635	 0.505681955553935 
1636	 0.505672330617826 
1637	 0.505686571998527 
1638	 0.505694541951864 
1639	 0.505667234999684 
1640	 0.505655389398761 
1641	 0.505668621360482 
1642	 0.505665827701474 
1643	 0.505664652425634 
1644	 0.505639638311906 
1645	 0.505613321065106 
1646	 0.505552403488131 
1647	 0.50543718548279 
1648	 0.505365333833732 
1649	 0.505321549683915 
1650	 0.505210897912463 
1651	 0.505115681759947 
1652	 0.504958551896696 
1653	 0.504665400988177 
1654	 0.504476580593469 
1655	 0.504330733716123 
1656	 0.504153367644026 
1657	 0.504014141188056 
1658	 0.503844313722426 
1659	 0.503654737992178 
1660	 0.503423201949412 
1661	 0.503199673188299 
1662	 0.502918010303899 
1663	 0.502558330795526 
1664	 0.502195238756906 
1665	 0.501804669315784 
1666	 0.501383691365818 
1667	 0.500928592148096 
1668	 0.500474863564181 
1669	 0.500033547115869 
1670	 0.49950984882877 
1671	 0.498959911293703 
1672	 0.498343643408361 
1673	 0.49763201548228 
1674	 0.496920877519139 
1675	 0.496212988128074 
1676	 0.495420155642674 
1677	 0.49455416488483 
1678	 0.493686125039976 
1679	 0.492788072769503 
1680	 0.491787710374669 
1681	 0.490751434579099 
1682	 0.489652364584951 
1683	 0.488434998412794 
1684	 0.487254643457825 
1685	 0.48606862501287 
1686	 0.484840836285867 
1687	 0.483584082329786 
1688	 0.482261936405495 
1689	 0.480898301926063 
1690	 0.479484166861181 
1691	 0.478026143400807 
1692	 0.476543496188438 
1693	 0.475010403436605 
1694	 0.473478050177818 
1695	 0.471851022396983 
1696	 0.470325386163538 
1697	 0.468908341633878 
1698	 0.467313462809867 
1699	 0.465685006753811 
1700	 0.464116067176509 
1701	 0.462411180246329 
1702	 0.460824126023619 
1703	 0.459333421378511 
1704	 0.457880453657268 
1705	 0.456419626338081 
1706	 0.455035155345925 
1707	 0.453796554924154 
1708	 0.452615623176302 
1709	 0.45159024918249 
1710	 0.450717060510625 
1711	 0.449864622372951 
1712	 0.449097700017206 
1713	 0.448305434676221 
1714	 0.447507703164953 
1715	 0.446856306809965 
1716	 0.446160255956703 
1717	 0.445423887201828 
1718	 0.444816895703904 
1719	 0.444242347180498 
1720	 0.443730834412 
1721	 0.443293003718728 
1722	 0.442811931874116 
1723	 0.442324146631724 
1724	 0.441944833359052 
1725	 0.441744325539673 
1726	 0.441620950704036 
1727	 0.44165883046944 
1728	 0.441824684094161 
1729	 0.442003341041162 
1730	 0.44236011232363 
1731	 0.442812843914417 
1732	 0.443397508826052 
1733	 0.444079764252178 
1734	 0.444761680445541 
1735	 0.445550904934292 
1736	 0.446273334678499 
1737	 0.446845644451049 
1738	 0.447441199063302 
1739	 0.447922290622317 
1740	 0.448325631585605 
1741	 0.448582743517817 
1742	 0.448753377690841 
1743	 0.448786906176111 
1744	 0.448541880085866 
1745	 0.448432078769685 
1746	 0.448291698111787 
1747	 0.448154325001077 
1748	 0.448070779106392 
1749	 0.447949156383001 
1750	 0.447737575355322 
1751	 0.447703662903524 
1752	 0.447737015476544 
1753	 0.447820875882685 
1754	 0.447984130952535 
1755	 0.448161005290707 
1756	 0.448350452888834 
1757	 0.448560751475394 
1758	 0.449042657689672 
1759	 0.449613583130505 
1760	 0.450194870504641 
1761	 0.450898576944007 
1762	 0.451619807906174 
1763	 0.452368925634776 
1764	 0.453259186059579 
1765	 0.454305541578149 
1766	 0.455334564333167 
1767	 0.456345315154242 
1768	 0.457402623013937 
1769	 0.45843801281488 
1770	 0.459448916766411 
1771	 0.460480324890578 
1772	 0.461388809324495 
1773	 0.462166655807809 
1774	 0.463006828363491 
1775	 0.46378357624879 
1776	 0.464527397463398 
1777	 0.46527485735898 
1778	 0.465925031258626 
1779	 0.466542880500088 
1780	 0.467165947806766 
1781	 0.467762847765061 
1782	 0.468246039401544 
1783	 0.468678287165566 
1784	 0.46910083139987 
1785	 0.469481165421667 
1786	 0.469808061032377 
1787	 0.470056481150374 
1788	 0.470284657752323 
1789	 0.470390563642433 
1790	 0.470684191662044 
1791	 0.471106032613894 
1792	 0.471477343902372 
1793	 0.471940231602924 
1794	 0.472181284287614 
1795	 0.472414342608504 
1796	 0.472667860097381 
1797	 0.472919898776757 
1798	 0.473090654204212 
1799	 0.473292392401636 
1800	 0.473498847403609 
1801	 0.477892095978977 
1802	 0.478213294133331 
1803	 0.478489450851553 
1804	 0.478765454556867 
1805	 0.478997956786303 
1806	 0.479202110642008 
1807	 0.479339587538019 
1808	 0.479538331989226 
1809	 0.479731721912098 
1810	 0.479939762878233 
1811	 0.480164372046788 
1812	 0.480420141514867 
1813	 0.4807115983269 
1814	 0.480967648283317 
1815	 0.481250682844722 
1816	 0.481521280904489 
1817	 0.481774239761631 
1818	 0.481965221965907 
1819	 0.482219974262847 
1820	 0.482491009864224 
1821	 0.482775629781886 
1822	 0.483094759975748 
1823	 0.483409716707565 
1824	 0.483680266880515 
1825	 0.484020414689044 
1826	 0.484323331104165 
1827	 0.484623941074816 
1828	 0.484912157298807 
1829	 0.485157319849581 
1830	 0.485424825549317 
1831	 0.48569546897652 
1832	 0.485984660552119 
1833	 0.486201599166982 
1834	 0.486550176069445 
1835	 0.486861050902973 
1836	 0.487061405455017 
1837	 0.48732305102733 
1838	 0.487596887316013 
1839	 0.487872336624239 
1840	 0.488180275669716 
1841	 0.488453122805866 
1842	 0.488728313409785 
1843	 0.48898951334625 
1844	 0.489165816554451 
1845	 0.489285211919499 
1846	 0.489383606141456 
1847	 0.489486465450391 
1848	 0.489636083903117 
1849	 0.489826429036401 
1850	 0.489993415624063 
1851	 0.490205371602441 
1852	 0.490361121451544 
1853	 0.490428513944754 
1854	 0.490540062988439 
1855	 0.490591597993103 
1856	 0.490615236951834 
1857	 0.490660672549435 
1858	 0.49059383390585 
1859	 0.490499967709809 
1860	 0.4903703921586 
1861	 0.490204694769181 
1862	 0.489978596195816 
1863	 0.489728784721063 
1864	 0.489505693100641 
1865	 0.489234771323585 
1866	 0.488868467830516 
1867	 0.488554738491011 
1868	 0.488333062894023 
1869	 0.488001079134636 
1870	 0.487599779787006 
1871	 0.487230511464899 
1872	 0.4867565800334 
1873	 0.486147650620958 
1874	 0.485525977538055 
1875	 0.484914623223557 
1876	 0.48418487269191 
1877	 0.483410416758507 
1878	 0.482472706849953 
1879	 0.481454378617545 
1880	 0.480480950697121 
1881	 0.479380874907494 
1882	 0.4781649720227 
1883	 0.476959478623228 
1884	 0.475666804767916 
1885	 0.474209539195027 
1886	 0.472830781376868 
1887	 0.471336792906429 
1888	 0.469732900161187 
1889	 0.468226086387486 
1890	 0.466572804626406 
1891	 0.464856751819063 
1892	 0.46316726234296 
1893	 0.461438477250507 
1894	 0.459623989388259 
1895	 0.457863232624022 
1896	 0.456098354076257 
1897	 0.454337704820842 
1898	 0.452697922400758 
1899	 0.451077978898213 
1900	 0.449563056327665 
1901	 0.448156588744629 
1902	 0.446724856826321 
1903	 0.445388116128451 
1904	 0.444118489372786 
1905	 0.442899800564344 
1906	 0.441756623902197 
1907	 0.440741237115537 
1908	 0.439709089559004 
1909	 0.438685200676122 
1910	 0.437751536901554 
1911	 0.436833824868299 
1912	 0.436032777049183 
1913	 0.435359975039385 
1914	 0.434644225045958 
1915	 0.433946962607912 
1916	 0.433288132581139 
1917	 0.432609873022634 
1918	 0.431949651203469 
1919	 0.431425779501076 
1920	 0.430911525272812 
1921	 0.430397984816658 
1922	 0.429865948565607 
1923	 0.429294074048543 
1924	 0.428720208673933 
1925	 0.42814144469429 
1926	 0.427643020913681 
1927	 0.427188238405418 
1928	 0.426756191727506 
1929	 0.426357173842661 
1930	 0.426057379406153 
1931	 0.425741281660375 
1932	 0.425382547966115 
1933	 0.425115002836404 
1934	 0.42488632014344 
1935	 0.424670753232031 
1936	 0.424557782159973 
1937	 0.42449910417663 
1938	 0.424491035760302 
1939	 0.424530823185665 
1940	 0.424630315023352 
1941	 0.424821213423606 
1942	 0.424998137398502 
1943	 0.425200929791928 
1944	 0.42546254998213 
1945	 0.425707324947917 
1946	 0.426025088193916 
1947	 0.426388622228299 
1948	 0.426779030490565 
1949	 0.42720710029469 
1950	 0.427666655730103 
1951	 0.428151441818928 
1952	 0.428688846058872 
1953	 0.429266567031025 
1954	 0.429867670347821 
1955	 0.430572115875513 
1956	 0.431321089194928 
1957	 0.43209945527989 
1958	 0.432977283449622 
1959	 0.433786274965496 
1960	 0.434445780526632 
1961	 0.435082278848273 
1962	 0.435631310037388 
1963	 0.436185230004229 
1964	 0.436725654524021 
1965	 0.437214295020267 
1966	 0.437666718577061 
1967	 0.438070230732111 
1968	 0.438508824851202 
1969	 0.438960711074763 
1970	 0.439408756612564 
1971	 0.439926645887342 
1972	 0.440403769194073 
1973	 0.440768919601025 
1974	 0.441212089469059 
1975	 0.441704132866766 
1976	 0.442174792448675 
1977	 0.442673913829869 
1978	 0.443153542017651 
1979	 0.443622410555122 
1980	 0.444051498818879 
1981	 0.444540779610383 
1982	 0.445003545255681 
1983	 0.445612942603494 
1984	 0.446286328979545 
1985	 0.446880938881232 
1986	 0.447489055188667 
1987	 0.448071798879868 
1988	 0.448508481024515 
1989	 0.449130718714113 
1990	 0.44983142296481 
1991	 0.450567984861395 
1992	 0.451379793890239 
1993	 0.45228554116141 
1994	 0.453111135195365 
1995	 0.454023522445809 
1996	 0.454955642457492 
1997	 0.455802741179836 
1998	 0.45669698280333 
1999	 0.457626618804024 
2000	 0.458493723717451 
2001	 0.459346182123818 
2002	 0.46019487332846 
2003	 0.461043716736838 
2004	 0.461841451806539 
2005	 0.462644382752481 
2006	 0.463372215363885 
2007	 0.464085834780529 
2008	 0.464635488076325 
2009	 0.465131811127244 
2010	 0.465650311946806 
2011	 0.466076718559456 
2012	 0.466485783183751 
2013	 0.466866982648584 
2014	 0.467191929564975 
2015	 0.467535321467797 
2016	 0.467897321353329 
2017	 0.468194227612956 
2018	 0.468510309632453 
2019	 0.468755750490864 
2020	 0.468989228248341 
2021	 0.469023174716651 
2022	 0.469074297297242 
2023	 0.469078856871205 
2024	 0.468963791891663 
2025	 0.468952393749767 
2026	 0.468973060260043 
2027	 0.469044437687748 
2028	 0.46905002417993 
2029	 0.469112357850412 
2030	 0.469077082963896 
2031	 0.468946934829122 
2032	 0.468854244685167 
2033	 0.468704218735478 
2034	 0.46862199930503 
2035	 0.468627976104241 
2036	 0.468528683579922 
2037	 0.468395312364328 
2038	 0.468321018427557 
2039	 0.468174395535985 
2040	 0.467904160222871 
2041	 0.467780729312001 
2042	 0.467682105614245 
2043	 0.467615839851473 
2044	 0.467691971624288 
2045	 0.467630208746841 
2046	 0.46751126410116 
2047	 0.46743106224691 
2048	 0.467257434704765 
2049	 0.467155445518291 
2050	 0.467114325329923 
2051	 0.467092787536933 
2052	 0.467065026615147 
2053	 0.467100897526223 
2054	 0.467094520136165 
2055	 0.467093688689601 
2056	 0.467081738141382 
2057	 0.467039532959212 
2058	 0.467030106141275 
2059	 0.467073995248456 
2060	 0.467031208882524 
2061	 0.466968277727594 
2062	 0.466884023817979 
2063	 0.466664669495617 
2064	 0.466574382567738 
2065	 0.466545495255149 
2066	 0.466518951853624 
2067	 0.466591764896256 
2068	 0.46666706673808 
2069	 0.466661727270683 
2070	 0.466625113937949 
2071	 0.466593990078473 
2072	 0.466484206250457 
2073	 0.466446338988958 
2074	 0.466445154397381 
2075	 0.46644263882357 
2076	 0.46650836336257 
2077	 0.466490593977283 
2078	 0.466411815811285 
2079	 0.466381546782763 
2080	 0.466288576886736 
2081	 0.466244689132076 
2082	 0.466269709201615 
2083	 0.466320537679874 
2084	 0.466286493340437 
2085	 0.466278073316307 
2086	 0.466247919710974 
2087	 0.466183094712039 
2088	 0.466127492306959 
2089	 0.466061361580279 
2090	 0.466029296786648 
2091	 0.466061462332185 
2092	 0.465985213664842 
2093	 0.465842488463959 
2094	 0.465750223171315 
2095	 0.46561308799291 
2096	 0.465473067147714 
2097	 0.465319709856615 
2098	 0.465294134007919 
2099	 0.465188485568211 
2100	 0.465054972505753 
2101	 0.464954124419745 
2102	 0.464901859301014 
2103	 0.464812169821849 
2104	 0.464739748693418 
2105	 0.464577708694614 
2106	 0.464339793171406 
2107	 0.464168601767196 
2108	 0.46392448994564 
2109	 0.46376647112864 
2110	 0.463751999725113 
2111	 0.463646824083702 
2112	 0.463510981563756 
2113	 0.463371371372941 
2114	 0.463228910961474 
2115	 0.463036632154769 
2116	 0.462804546075855 
2117	 0.462572862740614 
2118	 0.462354337122353 
2119	 0.462102970598917 
2120	 0.461884746021003 
2121	 0.46173212436972 
2122	 0.461499362257494 
2123	 0.461243160710438 
2124	 0.460934137342576 
2125	 0.460527176753393 
2126	 0.460213068807646 
2127	 0.45986141607024 
2128	 0.459601759302677 
2129	 0.459462392687506 
2130	 0.459272179531082 
2131	 0.459119633848765 
2132	 0.458946312553798 
2133	 0.458796352565052 
2134	 0.458561513569247 
2135	 0.458289151624425 
2136	 0.458006350487991 
2137	 0.457750027281379 
2138	 0.457440978495485 
2139	 0.45720453244691 
2140	 0.45702005338044 
2141	 0.456841523695494 
2142	 0.456693071761191 
2143	 0.456531508989126 
2144	 0.456410491891237 
2145	 0.456256672504926 
2146	 0.456030556070706 
2147	 0.455894396435259 
2148	 0.455804447497564 
2149	 0.45570637038574 
2150	 0.45570822422887 
2151	 0.455612565195434 
2152	 0.455446043565444 
2153	 0.455277995870927 
2154	 0.455148568692116 
2155	 0.455055094257898 
2156	 0.454924678943052 
2157	 0.45488042484658 
2158	 0.454682814348658 
2159	 0.454357737305062 
2160	 0.454098391400934 
2161	 0.453800268322758 
2162	 0.45353606586974 
2163	 0.453246818551466 
2164	 0.453064454399729 
2165	 0.452979960668636 
2166	 0.452816271609785 
2167	 0.452701285068153 
2168	 0.452548075717066 
2169	 0.452363196089771 
2170	 0.452115812551741 
2171	 0.451810149425927 
2172	 0.451555496678214 
2173	 0.451280416937225 
2174	 0.450938106425487 
2175	 0.45074263096881 
2176	 0.450538724420913 
2177	 0.450340927392561 
2178	 0.450138774110331 
2179	 0.44996496553897 
2180	 0.449825820510068 
2181	 0.449665308488552 
2182	 0.449473665464356 
2183	 0.449366048593859 
2184	 0.449267871776109 
2185	 0.449228038773697 
2186	 0.449359163582385 
2187	 0.449293022402031 
2188	 0.449147375897078 
2189	 0.449030099802247 
2190	 0.448788235029008 
2191	 0.448629425251138 
2192	 0.448635485956026 
2193	 0.448472736499069 
2194	 0.448171743995423 
2195	 0.447948840020768 
2196	 0.447678238215598 
2197	 0.447395777248762 
2198	 0.447276654229807 
2199	 0.447093845792258 
2200	 0.446913482685807 
2201	 0.446722156634202 
2202	 0.446544662818627 
2203	 0.44639917018918 
2204	 0.446178498920506 
2205	 0.445898130599421 
2206	 0.445677800234354 
2207	 0.445437203944299 
2208	 0.445207773097903 
2209	 0.445013774549339 
2210	 0.444841166283963 
2211	 0.44464036401678 
2212	 0.444482455190944 
2213	 0.444431112043208 
2214	 0.444296862623026 
2215	 0.444142828658197 
2216	 0.443965544295932 
2217	 0.443688066508573 
2218	 0.443514183434871 
2219	 0.443440296856951 
2220	 0.443259917986335 
2221	 0.443116940213997 
2222	 0.442872123392314 
2223	 0.442593987908043 
2224	 0.442386927736275 
2225	 0.442045544977771 
2226	 0.441781847242361 
2227	 0.441520581826087 
2228	 0.441209808112548 
2229	 0.440875975512704 
2230	 0.440656832288025 
2231	 0.440259648123924 
2232	 0.439753622959525 
2233	 0.439141104920498 
2234	 0.438469239867796 
2235	 0.437673102437156 
2236	 0.436693824104058 
2237	 0.435714369212699 
2238	 0.434661292064012 
2239	 0.433575177957325 
2240	 0.432460379882703 
2241	 0.431255168886672 
2242	 0.430053164210825 
2243	 0.42864483146086 
2244	 0.426958335426719 
2245	 0.42541563653392 
2246	 0.423847226068878 
2247	 0.422216569561096 
2248	 0.420687311859728 
2249	 0.419004963793893 
2250	 0.417175192152319 
2251	 0.41527244101194 
2252	 0.4132452910425 
2253	 0.411343168358565 
2254	 0.409348242063199 
2255	 0.407314656738441 
2256	 0.405420607241686 
2257	 0.403488112024601 
2258	 0.401636818137758 
2259	 0.399837421317109 
2260	 0.398060583330512 
2261	 0.396317353409106 
2262	 0.394653326499637 
2263	 0.392994078955969 
2264	 0.391510273206605 
2265	 0.390291056592868 
2266	 0.388793409584487 
2267	 0.387344039024293 
2268	 0.385753064739142 
2269	 0.383767192232385 
2270	 0.382163984375449 
2271	 0.380732991027216 
2272	 0.379267811976369 
2273	 0.378020792425119 
2274	 0.376649776845321 
2275	 0.375155011403893 
2276	 0.373739355236498 
2277	 0.372429163587313 
2278	 0.370965417918733 
2279	 0.369402244551086 
2280	 0.367905478684907 
2281	 0.366362682581646 
2282	 0.364779928653134 
2283	 0.363268299488547 
2284	 0.361701991759369 
2285	 0.359844561899225 
2286	 0.35804606833931 
2287	 0.356245433606921 
2288	 0.354358951554013 
2289	 0.352709655786733 
2290	 0.351075758770536 
2291	 0.349360243325071 
2292	 0.34775702755561 
2293	 0.345968506217435 
2294	 0.344240338937673 
2295	 0.342681183026286 
2296	 0.341096713971683 
2297	 0.339897469667511 
2298	 0.33901034206171 
2299	 0.33814211210136 
2300	 0.337425360285239 
2301	 0.337018299379732 
2302	 0.336728647749158 
2303	 0.336805085245293 
2304	 0.337341822300775 
2305	 0.337884884508852 
2306	 0.338607541275589 
2307	 0.33946786710271 
2308	 0.340516584579973 
2309	 0.341710306046464 
2310	 0.343052434283542 
2311	 0.344530619671634 
2312	 0.34628044209267 
2313	 0.347903332409482 
2314	 0.349658770753791 
2315	 0.351355582200556 
2316	 0.352935366109769 
2317	 0.354559739991337 
2318	 0.356385718111784 
2319	 0.357862752194558 
2320	 0.35933567443993 
2321	 0.360460779195304 
2322	 0.361228493650293 
2323	 0.361836082146907 
2324	 0.362066599231816 
2325	 0.362333823368333 
2326	 0.362439567416454 
2327	 0.362547344309142 
2328	 0.362685102493028 
2329	 0.36269915614806 
2330	 0.362783614293483 
2331	 0.362444139682132 
2332	 0.361780387684075 
2333	 0.360909660514807 
2334	 0.359761143683174 
2335	 0.358725059541172 
2336	 0.357764316603917 
2337	 0.356756279358776 
2338	 0.355747735563137 
2339	 0.354565184063549 
2340	 0.353409326416714 
2341	 0.352382105271357 
2342	 0.351389881456534 
2343	 0.350535596335609 
2344	 0.349937627206909 
2345	 0.349524728376797 
2346	 0.349333915040616 
2347	 0.349548129526789 
2348	 0.349802275883703 
2349	 0.350180406033964 
2350	 0.35082282315545 
2351	 0.351701470047153 
2352	 0.35296138460194 
2353	 0.354443016738661 
2354	 0.356009098969293 
2355	 0.357252911942777 
2356	 0.358071235778026 
2357	 0.359004983180521 
2358	 0.359685422113847 
2359	 0.360033330385648 
2360	 0.360784550102637 
2361	 0.361359990386431 
2362	 0.361504304072919 
2363	 0.36164340650237 
2364	 0.36152741705577 
2365	 0.36138559209285 
2366	 0.361478755324297 
2367	 0.36161445043934 
2368	 0.36175558305478 
2369	 0.361594547039795 
2370	 0.361366836001792 
2371	 0.361492380061105 
2372	 0.361432215708049 
2373	 0.361314994167007 
2374	 0.361629421098554 
2375	 0.361743374590736 
2376	 0.361833760880757 
2377	 0.362179625256905 
2378	 0.362021342254212 
2379	 0.36179808491679 
2380	 0.36168459714245 
2381	 0.361627324945651 
2382	 0.361823108085217 
2383	 0.362361684561465 
2384	 0.36266400173717 
2385	 0.363072721911732 
2386	 0.36329676849634 
2387	 0.36334828061898 
2388	 0.363348737023054 
2389	 0.363254734098507 
2390	 0.363341210651887 
2391	 0.363392071623782 
2392	 0.363623940523832 
2393	 0.364089107630201 
2394	 0.364331366078571 
2395	 0.364504131520913 
2396	 0.36453885214835 
2397	 0.364483220918681 
2398	 0.364675395197013 
2399	 0.364816650008754 
2400	 0.365079121292444 
2401	 0.365645228962359 
2402	 0.365448561466791 
2403	 0.365504153514945 
2404	 0.365524488222251 
2405	 0.365699265399913 
2406	 0.366186423859572 
2407	 0.366536056328904 
2408	 0.3669020430723 
2409	 0.366910161696307 
2410	 0.366686369600482 
2411	 0.366441733336302 
2412	 0.365944209071645 
2413	 0.365979007457079 
2414	 0.366220172531593 
2415	 0.366517034167821 
2416	 0.366930252978334 
2417	 0.366629161124193 
2418	 0.366371688913415 
2419	 0.366096266234377 
2420	 0.365668270819209 
2421	 0.365940576828377 
2422	 0.36608696928684 
2423	 0.366226718871021 
2424	 0.36701609060094 
2425	 0.367391424435613 
2426	 0.367287315573917 
2427	 0.367640918413511 
2428	 0.367321938927079 
2429	 0.366706930211924 
2430	 0.366581195767887 
2431	 0.365956365854335 
2432	 0.365792317830683 
2433	 0.366002324565541 
2434	 0.366534334412417 
2435	 0.367303387944148 
2436	 0.367696633182267 
2437	 0.36797766128737 
2438	 0.367964038321285 
2439	 0.367819943033017 
2440	 0.367365246038757 
2441	 0.367046645442762 
2442	 0.366475307310955 
2443	 0.365916386909059 
2444	 0.365698790659977 
2445	 0.364901341117753 
2446	 0.364732710364555 
2447	 0.364442823952149 
2448	 0.363652238695295 
2449	 0.36379027009153 
2450	 0.363165182714547 
2451	 0.361800867653367 
2452	 0.361515257588541 
2453	 0.361281424118093 
2454	 0.36106534230991 
2455	 0.361203355892509 
2456	 0.361273083592554 
2457	 0.360923665486304 
2458	 0.360311811472236 
2459	 0.360470884968847 
2460	 0.359728736415274 
2461	 0.358820856625935 
2462	 0.358831226125618 
2463	 0.35883140664767 
2464	 0.359497368686599 
2465	 0.360052558948836 
2466	 0.35994754767527 
2467	 0.359537961827976 
2468	 0.359311319845231 
2469	 0.359125702042252 
2470	 0.358635640357605 
2471	 0.358334627531707 
2472	 0.357994535617199 
2473	 0.357547163772113 
2474	 0.357763199844633 
2475	 0.357828130585479 
2476	 0.357470438162012 
2477	 0.357349564589467 
2478	 0.356874561908448 
2479	 0.357134673607046 
2480	 0.357322617434313 
2481	 0.357268755969435 
2482	 0.357556894989518 
2483	 0.35664100531339 
2484	 0.357419629110514 
2485	 0.358568366268211 
2486	 0.35876717008365 
2487	 0.360040536341965 
2488	 0.361059821364108 
2489	 0.360895160938382 
2490	 0.36147647099997 
2491	 0.362222291918599 
2492	 0.362031239558298 
2493	 0.361767328874211 
2494	 0.362610370102365 
2495	 0.362603065860875 
2496	 0.36199490015811 
2497	 0.362034734699078 
2498	 0.361190454645464 
2499	 0.361793342596964 
2500	 0.362779364037726 
