Wavelength	Tablay400002.asd
350	 0.184710289939315 
351	 0.161064651522761 
352	 0.160249848716127 
353	 0.18941835515761 
354	 0.144521032069324 
355	 0.155562289488624 
356	 0.171773714436527 
357	 0.135700637581193 
358	 0.104602264573599 
359	 0.122753497804427 
360	 0.164673772288735 
361	 0.168933770654357 
362	 0.137542473754027 
363	 0.127532029746429 
364	 0.148488453504127 
365	 0.138618932641828 
366	 0.129721580028104 
367	 0.12442382201169 
368	 0.120590376522383 
369	 0.124921947378911 
370	 0.121542351158883 
371	 0.117550273970846 
372	 0.128778717672691 
373	 0.126483947620002 
374	 0.117469023278358 
375	 0.110162785079506 
376	 0.110687044092814 
377	 0.106876486564262 
378	 0.108208530025274 
379	 0.118066404638376 
380	 0.100660485693348 
381	 9.37708066101916E-02 
382	 9.86052333659697E-02 
383	 9.49197880434739E-02 
384	 0.099599636528856 
385	 0.101684948686994 
386	 0.100219241760831 
387	 0.114436990005613 
388	 0.100697517852319 
389	 8.15571058535406E-02 
390	 8.45326200804919E-02 
391	 8.56900098126474E-02 
392	 8.84680737409212E-02 
393	 9.07170751244985E-02 
394	 8.72869383912291E-02 
395	 8.18999537556665E-02 
396	 8.07223538035461E-02 
397	 8.35988985321662E-02 
398	 7.98639396023013E-02 
399	 8.10997892501486E-02 
400	 8.33903346256725E-02 
401	 0.082372322787735 
402	 9.22699251860999E-02 
403	 8.50721178872164E-02 
404	 0.068493359963494 
405	 7.38596552906638E-02 
406	 7.83029640286464E-02 
407	 7.67006997734207E-02 
408	 7.10426085733369E-02 
409	 7.10273484568304E-02 
410	 7.41168219536426E-02 
411	 7.47701710632643E-02 
412	 6.96043344369115E-02 
413	 7.07581210541111E-02 
414	 0.068407558073031 
415	 0.063663300034116 
416	 6.71720374657805E-02 
417	 0.069281435778099 
418	 6.78066800362084E-02 
419	 6.42594372977198E-02 
420	 6.56384552172626E-02 
421	 6.31649354811151E-02 
422	 0.060278511700008 
423	 6.30274211833186E-02 
424	 6.10136082437446E-02 
425	 6.00898822632357E-02 
426	 0.061795078891014 
427	 6.17275811992135E-02 
428	 0.06294441133281 
429	 6.27732540731364E-02 
430	 5.99706064094633E-02 
431	 0.060798044336591 
432	 6.10266550209703E-02 
433	 6.02919717092398E-02 
434	 6.02512562543842E-02 
435	 6.02212506681882E-02 
436	 6.09063116790573E-02 
437	 6.21096153836616E-02 
438	 6.22433862658468E-02 
439	 5.95919205225201E-02 
440	 5.82658188397637E-02 
441	 6.13452978369525E-02 
442	 6.12928609132869E-02 
443	 6.00585460009474E-02 
444	 5.89135616272211E-02 
445	 5.83436197803476E-02 
446	 5.81561692740921E-02 
447	 5.87803063741093E-02 
448	 5.99280707416783E-02 
449	 5.95646374101793E-02 
450	 5.95298939115646E-02 
451	 5.98664131216743E-02 
452	 5.99154039544516E-02 
453	 5.90637320990882E-02 
454	 5.81603762253983E-02 
455	 5.79127421950362E-02 
456	 5.87107385769199E-02 
457	 5.88105619657165E-02 
458	 5.85380695371482E-02 
459	 5.84459988480013E-02 
460	 5.83405768100954E-02 
461	 5.78502986047113E-02 
462	 5.75578816082545E-02 
463	 5.82767147195951E-02 
464	 5.82250574815398E-02 
465	 5.77009535005646E-02 
466	 0.057153966047997 
467	 5.68843554960036E-02 
468	 5.68562730252199E-02 
469	 5.69427201360853E-02 
470	 5.70347860052506E-02 
471	 5.73318454892384E-02 
472	 5.70482042196375E-02 
473	 0.05650222604899 
474	 5.67583712104644E-02 
475	 5.65704251728952E-02 
476	 5.65137649358675E-02 
477	 0.056908229930771 
478	 5.70249715794122E-02 
479	 5.62971960607578E-02 
480	 5.55777702142543E-02 
481	 5.59255092790159E-02 
482	 5.59749151260366E-02 
483	 5.58415941316331E-02 
484	 5.58718706225776E-02 
485	 5.65217379830335E-02 
486	 5.65921319456476E-02 
487	 5.64988206797709E-02 
488	 5.67424973743323E-02 
489	 5.69250800138615E-02 
490	 5.72150130846732E-02 
491	 5.73681276610792E-02 
492	 5.70382727262408E-02 
493	 5.71563746201855E-02 
494	 5.74978553405652E-02 
495	 5.77302353113846E-02 
496	 5.75322399916428E-02 
497	 5.79895314570602E-02 
498	 5.85702019542061E-02 
499	 5.85535124803601E-02 
500	 5.86758064487261E-02 
501	 5.90882875202596E-02 
502	 5.96082173280698E-02 
503	 5.98270572837987E-02 
504	 6.02145796105283E-02 
505	 6.06338323386508E-02 
506	 6.10109411061281E-02 
507	 6.17276131227231E-02 
508	 0.062083996975868 
509	 6.23598774738697E-02 
510	 6.31164000601687E-02 
511	 6.36936064221128E-02 
512	 6.41048465504175E-02 
513	 6.45885597135242E-02 
514	 6.55899179609217E-02 
515	 6.62240850936148E-02 
516	 6.66592051014077E-02 
517	 6.72448100769037E-02 
518	 0.067945047072077 
519	 6.87549737407309E-02 
520	 6.96300591448914E-02 
521	 7.05086221303316E-02 
522	 7.14399440265336E-02 
523	 7.24939442583968E-02 
524	 7.36594013111418E-02 
525	 7.48032676985039E-02 
526	 7.56486059937556E-02 
527	 7.65732523470677E-02 
528	 0.078022295263489 
529	 7.94582480986405E-02 
530	 8.06307423872873E-02 
531	 0.081722558527551 
532	 8.33125710251124E-02 
533	 8.49995015139218E-02 
534	 8.66941309983755E-02 
535	 8.83744534585367E-02 
536	 8.99996870771827E-02 
537	 9.17756392943024E-02 
538	 9.36606510796903E-02 
539	 9.55011468379501E-02 
540	 9.74645404682738E-02 
541	 9.94909402611103E-02 
542	 0.101554689222376 
543	 0.103723311252004 
544	 0.105918877409739 
545	 0.108123522594794 
546	 0.110342309875241 
547	 0.112584109668712 
548	 0.114935984381364 
549	 0.117338049513915 
550	 0.119618367065691 
551	 0.12211901514119 
552	 0.124644317749955 
553	 0.127070561140946 
554	 0.129720054471643 
555	 0.132265635205915 
556	 0.134691208070248 
557	 0.137135815855064 
558	 0.139713519674734 
559	 0.142205550367762 
560	 0.144571613084787 
561	 0.147063624472656 
562	 0.149262365023204 
563	 0.151399841259304 
564	 0.153707630054205 
565	 0.1557131087271 
566	 0.157667024713596 
567	 0.159631817593383 
568	 0.161534045378047 
569	 0.163538766877656 
570	 0.165495510541316 
571	 0.167299834045418 
572	 0.169033076432646 
573	 0.170771051017403 
574	 0.172446953806679 
575	 0.173952821147137 
576	 0.175302640628797 
577	 0.176557089928104 
578	 0.177740025287655 
579	 0.178830572302707 
580	 0.179973980546867 
581	 0.181030662979373 
582	 0.181915412679219 
583	 0.182918962567764 
584	 0.183801681210822 
585	 0.184566596053179 
586	 0.185347330883966 
587	 0.186064409524666 
588	 0.186660150233732 
589	 0.18715799647872 
590	 0.18770580010951 
591	 0.18819326609858 
592	 0.188637118940932 
593	 0.18908428662496 
594	 0.189546128323243 
595	 0.189971861720256 
596	 0.190292928157332 
597	 0.190443103308577 
598	 0.19061209205412 
599	 0.190729168927347 
600	 0.190733957942235 
601	 0.190707334597265 
602	 0.190607839311115 
603	 0.190493336377856 
604	 0.190440749586428 
605	 0.190367079782582 
606	 0.190199271697418 
607	 0.189956960280735 
608	 0.189769122104012 
609	 0.189520778008178 
610	 0.189233882062224 
611	 0.188955817717947 
612	 0.188701555899366 
613	 0.188469695127533 
614	 0.188240433595033 
615	 0.187986150619646 
616	 0.187735075646056 
617	 0.187475047468874 
618	 0.187196162256007 
619	 0.186899409424795 
620	 0.186597180875372 
621	 0.186332816226108 
622	 0.186124224981525 
623	 0.185832749537139 
624	 0.185507456900085 
625	 0.185230271524235 
626	 0.185090100569981 
627	 0.184890616243528 
628	 0.18460421410298 
629	 0.184288417841042 
630	 0.184132509275104 
631	 0.183915407065066 
632	 0.183656138222445 
633	 0.183465189725936 
634	 0.183272230218034 
635	 0.183140437602494 
636	 0.183032019906884 
637	 0.182777226830879 
638	 0.182611250396097 
639	 0.182536013577417 
640	 0.182483699761907 
641	 0.182371570660501 
642	 0.182215863407843 
643	 0.182115636381479 
644	 0.182175280279555 
645	 0.182036102486165 
646	 0.181987662716211 
647	 0.182102601567982 
648	 0.181967769347876 
649	 0.18192132593634 
650	 0.181974311091809 
651	 0.182042047695758 
652	 0.182084260258706 
653	 0.182110128007116 
654	 0.182146611208746 
655	 0.182231011315176 
656	 0.182371334755542 
657	 0.182474441754929 
658	 0.182522452662404 
659	 0.182689709598747 
660	 0.182856773413981 
661	 0.183044576604433 
662	 0.183292032269572 
663	 0.183449459450441 
664	 0.183677147250328 
665	 0.183981682755292 
666	 0.184206215764318 
667	 0.184496598252577 
668	 0.184803279398964 
669	 0.18507689604896 
670	 0.185359645485336 
671	 0.185718260632551 
672	 0.186099149840128 
673	 0.186418349526141 
674	 0.186804873695224 
675	 0.187207658035466 
676	 0.187611083323206 
677	 0.188059484872673 
678	 0.188497739586393 
679	 0.188937405592814 
680	 0.189408841525986 
681	 0.189949178334713 
682	 0.190521957865656 
683	 0.191075374262674 
684	 0.191569792674411 
685	 0.192115188877746 
686	 0.192698348615914 
687	 0.193310914185286 
688	 0.19397206680322 
689	 0.19460758129324 
690	 0.195246678585401 
691	 0.195929255097432 
692	 0.196628526738721 
693	 0.197324933630491 
694	 0.198040783600025 
695	 0.198810309230233 
696	 0.199506016324848 
697	 0.200248239260857 
698	 0.201084315061906 
699	 0.201903713910535 
700	 0.202776525710155 
701	 0.203620595391372 
702	 0.204373718795606 
703	 0.205192243365158 
704	 0.206067812700271 
705	 0.206985664272512 
706	 0.207921075778189 
707	 0.208811919501301 
708	 0.209677857114373 
709	 0.210549630124995 
710	 0.211449663913543 
711	 0.21241640819006 
712	 0.213384186205628 
713	 0.214288501148172 
714	 0.215200756833088 
715	 0.216131399009485 
716	 0.217098181010033 
717	 0.218109753760481 
718	 0.219037611195371 
719	 0.219963786132583 
720	 0.22092717937586 
721	 0.221838852660844 
722	 0.222853048905683 
723	 0.223858628289674 
724	 0.224737913839733 
725	 0.225683244089592 
726	 0.22663880393539 
727	 0.227558628284013 
728	 0.228420235866122 
729	 0.229330876552483 
730	 0.230227773423642 
731	 0.231080033816277 
732	 0.231947773553683 
733	 0.232834040678579 
734	 0.233703734398889 
735	 0.234520702231912 
736	 0.235291910757075 
737	 0.236040059192543 
738	 0.23675215315581 
739	 0.237400898478483 
740	 0.238074796596404 
741	 0.238745366748299 
742	 0.239380246192517 
743	 0.239965734780592 
744	 0.240527794947604 
745	 0.241098072192702 
746	 0.241666049903169 
747	 0.242077064647578 
748	 0.242481937358746 
749	 0.242904205355502 
750	 0.243294964903291 
751	 0.243684858980683 
752	 0.244031665894617 
753	 0.244321984881363 
754	 0.244588209510314 
755	 0.244873619212586 
756	 0.245121983439273 
757	 0.245282067035868 
758	 0.245381500566345 
759	 0.245468999642004 
760	 0.245553628528842 
761	 0.245622598290758 
762	 0.245675397156714 
763	 0.245692375433048 
764	 0.245655630306195 
765	 0.245554209687092 
766	 0.24544384823292 
767	 0.245315506891288 
768	 0.2451447739955 
769	 0.244897733367911 
770	 0.244664135652874 
771	 0.244436921889236 
772	 0.244176057097491 
773	 0.243884598730436 
774	 0.243540709632513 
775	 0.243154819699418 
776	 0.242763770565963 
777	 0.242387981660911 
778	 0.241984672955402 
779	 0.241530883123107 
780	 0.241055109329919 
781	 0.240527572816782 
782	 0.239992207944849 
783	 0.239482085943013 
784	 0.238921018712849 
785	 0.238350250980995 
786	 0.23776427085113 
787	 0.2371387124572 
788	 0.236514547855726 
789	 0.235871828129215 
790	 0.235197915110223 
791	 0.234495782738591 
792	 0.233786647358298 
793	 0.233107132590778 
794	 0.232459295623422 
795	 0.231763299302435 
796	 0.23104308805509 
797	 0.230318165527137 
798	 0.22960113527102 
799	 0.228867157935113 
800	 0.228123512267641 
801	 0.227383979502296 
802	 0.22666218360081 
803	 0.225930439440983 
804	 0.225182734358417 
805	 0.224431532130911 
806	 0.223709903284003 
807	 0.222983742341617 
808	 0.222230765026759 
809	 0.221451799384951 
810	 0.220701071308809 
811	 0.219971411392047 
812	 0.219233179245543 
813	 0.218459127001043 
814	 0.217702675213948 
815	 0.21692605631254 
816	 0.216165335490945 
817	 0.215504637270187 
818	 0.214742794248187 
819	 0.213956282778631 
820	 0.213209207603143 
821	 0.212472410627967 
822	 0.211730903457666 
823	 0.210988607814429 
824	 0.210259736825271 
825	 0.209575206821847 
826	 0.208859100636063 
827	 0.208107430682292 
828	 0.207359838815592 
829	 0.206674246568637 
830	 0.206000106629934 
831	 0.205308396873821 
832	 0.204600507752395 
833	 0.20391374439059 
834	 0.203245764951122 
835	 0.202584911478211 
836	 0.201914369645108 
837	 0.201287569614645 
838	 0.200679459127051 
839	 0.200057531109468 
840	 0.199427329578035 
841	 0.198793915804717 
842	 0.198175471229416 
843	 0.197590605153028 
844	 0.197039945385944 
845	 0.196472946313578 
846	 0.195894872594481 
847	 0.195350087206452 
848	 0.194830105721717 
849	 0.194291558381731 
850	 0.193753112088261 
851	 0.193309047446913 
852	 0.192866819957555 
853	 0.192392360572409 
854	 0.191896683445849 
855	 0.191455992463494 
856	 0.191037250920031 
857	 0.190599066924254 
858	 0.190124517344175 
859	 0.189689623993011 
860	 0.189271230169507 
861	 0.188870652878609 
862	 0.188497854714246 
863	 0.188141887656276 
864	 0.187734310013426 
865	 0.187322210933871 
866	 0.187030146501902 
867	 0.186701442465089 
868	 0.186321834776146 
869	 0.185931464829366 
870	 0.185611394518524 
871	 0.185347387146927 
872	 0.185087880844717 
873	 0.184782733749854 
874	 0.184394599578819 
875	 0.184165523564332 
876	 0.183987715348773 
877	 0.183697517992174 
878	 0.183357195019492 
879	 0.183128416356181 
880	 0.182928685463148 
881	 0.182616732912696 
882	 0.182447516752018 
883	 0.182287321347161 
884	 0.182079483139012 
885	 0.181851858804325 
886	 0.181658082172478 
887	 0.181522063778831 
888	 0.181394269185295 
889	 0.181162041868177 
890	 0.180942143022155 
891	 0.180765080320391 
892	 0.180638662050014 
893	 0.180560550448322 
894	 0.180437715014596 
895	 0.18032115234516 
896	 0.180261102501091 
897	 0.180211605091497 
898	 0.180078848361639 
899	 0.180006836941264 
900	 0.180109108008442 
901	 0.180063427278836 
902	 0.1800401769246 
903	 0.180031749293847 
904	 0.179963778736693 
905	 0.179917068461257 
906	 0.179926685144782 
907	 0.179956656235734 
908	 0.17994554959951 
909	 0.180036257393728 
910	 0.180144522459704 
911	 0.180217916370301 
912	 0.180265286386239 
913	 0.180321458157263 
914	 0.180364563465045 
915	 0.180420418859589 
916	 0.1805791928054 
917	 0.180647847452736 
918	 0.180674395653657 
919	 0.180739430741705 
920	 0.180881622928908 
921	 0.181019055605485 
922	 0.181109603958194 
923	 0.181173111736421 
924	 0.18135088864632 
925	 0.181486907028672 
926	 0.18163604868871 
927	 0.181845899593193 
928	 0.181898691825416 
929	 0.18198136997994 
930	 0.182176440255431 
931	 0.182454991546075 
932	 0.182556236915597 
933	 0.182665370464768 
934	 0.182807468809106 
935	 0.182928986541618 
936	 0.183097193301392 
937	 0.183335192345899 
938	 0.183553588267619 
939	 0.183648687619338 
940	 0.183941440291153 
941	 0.184207407329792 
942	 0.18438166880078 
943	 0.184573900104092 
944	 0.184764482660829 
945	 0.184921694253528 
946	 0.185087526588715 
947	 0.185363506265024 
948	 0.185629543449801 
949	 0.185925288467063 
950	 0.186217542793393 
951	 0.186376776604976 
952	 0.186620973175848 
953	 0.186883742434459 
954	 0.187127994620771 
955	 0.187430193058422 
956	 0.187694556433456 
957	 0.187899591815458 
958	 0.188119552776376 
959	 0.188544611543623 
960	 0.188888157567424 
961	 0.189146413526121 
962	 0.189409842201756 
963	 0.189802995062089 
964	 0.190163953428841 
965	 0.190485593217555 
966	 0.19079762171404 
967	 0.191106629905662 
968	 0.191597904768128 
969	 0.192040600963311 
970	 0.192266058244773 
971	 0.192562634194104 
972	 0.19295142075681 
973	 0.193359399517239 
974	 0.193742156716813 
975	 0.194251722979526 
976	 0.194635621252479 
977	 0.19498679871104 
978	 0.195446034173915 
979	 0.195939309225408 
980	 0.196360870284993 
981	 0.196751283029311 
982	 0.197183333597689 
983	 0.197664365443714 
984	 0.197941479636161 
985	 0.198283949637034 
986	 0.198924964442633 
987	 0.199355576026682 
988	 0.199686790905342 
989	 0.20009818956505 
990	 0.200656719668277 
991	 0.200945264703867 
992	 0.201416827769132 
993	 0.201986968679903 
994	 0.202441110622076 
995	 0.202846039203678 
996	 0.203341926349245 
997	 0.203845715293932 
998	 0.20425305267435 
999	 0.204682982584231 
1000	 0.205143900028831 
1001	 0.197632416888044 
1002	 0.198101581267306 
1003	 0.198567157760744 
1004	 0.19897816250977 
1005	 0.199341107916483 
1006	 0.199772777661788 
1007	 0.200189005164836 
1008	 0.200621781079053 
1009	 0.201122264150713 
1010	 0.201572889323962 
1011	 0.201989274332459 
1012	 0.202436211265283 
1013	 0.202893922375015 
1014	 0.203337758591094 
1015	 0.203779862217405 
1016	 0.204175408120759 
1017	 0.204731620117184 
1018	 0.205269044621627 
1019	 0.205825774706341 
1020	 0.206480979228698 
1021	 0.207021554086766 
1022	 0.207439557462312 
1023	 0.207979519578439 
1024	 0.20855757986948 
1025	 0.209121138186986 
1026	 0.20970158287282 
1027	 0.210279169516298 
1028	 0.210855575813953 
1029	 0.211425788803441 
1030	 0.21202580118879 
1031	 0.212723591698276 
1032	 0.213327026040975 
1033	 0.213923569992031 
1034	 0.214623210551606 
1035	 0.215257223431348 
1036	 0.215889264633746 
1037	 0.216579174551945 
1038	 0.217248201144654 
1039	 0.217842143074357 
1040	 0.218499470302955 
1041	 0.219228072921189 
1042	 0.21989832309234 
1043	 0.220510127186241 
1044	 0.221188118624117 
1045	 0.221963199521138 
1046	 0.222736848689731 
1047	 0.223440711755129 
1048	 0.224174582755249 
1049	 0.224809348537107 
1050	 0.225426129555865 
1051	 0.226141664086101 
1052	 0.226765939690223 
1053	 0.227435887717363 
1054	 0.228114391640285 
1055	 0.228802366931146 
1056	 0.229551588113904 
1057	 0.230255827726312 
1058	 0.230934813128545 
1059	 0.231581151695382 
1060	 0.232300700837063 
1061	 0.23293541617765 
1062	 0.233603853624765 
1063	 0.234307730183592 
1064	 0.234927278271118 
1065	 0.235651180993798 
1066	 0.236440121084305 
1067	 0.237159594226686 
1068	 0.23785285286703 
1069	 0.238476079757746 
1070	 0.239132628782764 
1071	 0.239739371611271 
1072	 0.240410260435681 
1073	 0.241134176498174 
1074	 0.241896135831763 
1075	 0.242602267703547 
1076	 0.243353453624676 
1077	 0.244118596859357 
1078	 0.244771235608257 
1079	 0.245532286810744 
1080	 0.246292144100025 
1081	 0.246938230476354 
1082	 0.247722712049963 
1083	 0.248468571307807 
1084	 0.249141080354266 
1085	 0.24996006583727 
1086	 0.250714684917872 
1087	 0.251435451328141 
1088	 0.252155102608112 
1089	 0.252963175703879 
1090	 0.253673487598078 
1091	 0.254464829656062 
1092	 0.25530221762765 
1093	 0.256072974286258 
1094	 0.256903291921516 
1095	 0.257685858679597 
1096	 0.25846734592535 
1097	 0.259281601881964 
1098	 0.260027863659686 
1099	 0.260814367426901 
1100	 0.261619141597743 
1101	 0.262430192671171 
1102	 0.263291461160986 
1103	 0.264149687378629 
1104	 0.265029975196327 
1105	 0.265922342954704 
1106	 0.266770006405096 
1107	 0.267603219139102 
1108	 0.268462555894943 
1109	 0.269287025099257 
1110	 0.27017848116116 
1111	 0.271134251791622 
1112	 0.272030559206966 
1113	 0.272964204004622 
1114	 0.273914240490519 
1115	 0.274777156758352 
1116	 0.275693425278429 
1117	 0.27660158164207 
1118	 0.277522562207742 
1119	 0.278472631608257 
1120	 0.279406421595096 
1121	 0.280326096070484 
1122	 0.281278988760272 
1123	 0.282239011536228 
1124	 0.283096570543082 
1125	 0.28402275563001 
1126	 0.28496289460281 
1127	 0.285862848276315 
1128	 0.286852488449572 
1129	 0.287800052446802 
1130	 0.288739099360486 
1131	 0.289723644972146 
1132	 0.290623045102623 
1133	 0.291555221848741 
1134	 0.292481122484449 
1135	 0.29338674722535 
1136	 0.294277473127138 
1137	 0.295171031012509 
1138	 0.296057528922995 
1139	 0.296946423755335 
1140	 0.297855965537608 
1141	 0.298672065151944 
1142	 0.299522142651647 
1143	 0.300339919554994 
1144	 0.301164621312865 
1145	 0.302081801725758 
1146	 0.302929264603395 
1147	 0.303778818900773 
1148	 0.3046528187755 
1149	 0.305388258829122 
1150	 0.306128993169789 
1151	 0.306927891013418 
1152	 0.307697934767689 
1153	 0.308437555687896 
1154	 0.30919520090204 
1155	 0.309966758425352 
1156	 0.310723464151801 
1157	 0.311478915111975 
1158	 0.31219526855952 
1159	 0.312911509048951 
1160	 0.313602505368856 
1161	 0.314224431701912 
1162	 0.314893224189101 
1163	 0.315545960294501 
1164	 0.316182293709142 
1165	 0.316834005981616 
1166	 0.31744433751706 
1167	 0.318070439860823 
1168	 0.318690273822965 
1169	 0.319302162206387 
1170	 0.31992923601721 
1171	 0.320505705558338 
1172	 0.321045485469857 
1173	 0.321600215603529 
1174	 0.32213799237698 
1175	 0.322655559465403 
1176	 0.323159470000455 
1177	 0.32367146660117 
1178	 0.324158797265256 
1179	 0.324670183620468 
1180	 0.325176182411426 
1181	 0.325683380146518 
1182	 0.326172258612076 
1183	 0.326613140003994 
1184	 0.327022421550392 
1185	 0.327431799805837 
1186	 0.327875278514745 
1187	 0.328333568325041 
1188	 0.328757825852697 
1189	 0.329206725931736 
1190	 0.329629382038442 
1191	 0.329996323353179 
1192	 0.330385497724651 
1193	 0.330791094433665 
1194	 0.331189129318614 
1195	 0.331579100714245 
1196	 0.331968929065093 
1197	 0.332350467488087 
1198	 0.332755937950513 
1199	 0.333166992387336 
1200	 0.333546758438363 
1201	 0.333949217224477 
1202	 0.334343446055221 
1203	 0.334731569632683 
1204	 0.335151407298675 
1205	 0.335551624100913 
1206	 0.335950074961772 
1207	 0.336368444064225 
1208	 0.336773805289042 
1209	 0.337201409619415 
1210	 0.337652918686126 
1211	 0.338112123643005 
1212	 0.338571170538626 
1213	 0.339066041204608 
1214	 0.3395928507856 
1215	 0.340129035520678 
1216	 0.340704123595947 
1217	 0.341254495314598 
1218	 0.341804350365268 
1219	 0.342345324027254 
1220	 0.342907400396048 
1221	 0.343482450200957 
1222	 0.344050601781975 
1223	 0.344622719959855 
1224	 0.345168794422103 
1225	 0.345685284742434 
1226	 0.3461939229544 
1227	 0.346689998413377 
1228	 0.347192324638744 
1229	 0.347687669387672 
1230	 0.348168196711161 
1231	 0.348654226333576 
1232	 0.349124433006742 
1233	 0.349586044940794 
1234	 0.350006982749692 
1235	 0.350407134555009 
1236	 0.350793597151412 
1237	 0.351116524876647 
1238	 0.351475671636341 
1239	 0.351848313597024 
1240	 0.352229214897187 
1241	 0.352604506633299 
1242	 0.352954950994403 
1243	 0.353287973210481 
1244	 0.353591636370168 
1245	 0.353903873403073 
1246	 0.354191903348305 
1247	 0.354519997048042 
1248	 0.354871320113415 
1249	 0.355209343319949 
1250	 0.355577170225092 
1251	 0.355899989121881 
1252	 0.356166700658678 
1253	 0.356489700941076 
1254	 0.356833576203482 
1255	 0.357162764759803 
1256	 0.357507122756982 
1257	 0.357860099230019 
1258	 0.358196939069039 
1259	 0.358544172211891 
1260	 0.358921283957368 
1261	 0.359294517821653 
1262	 0.359672572001232 
1263	 0.360042599119537 
1264	 0.360384873032224 
1265	 0.360732924255016 
1266	 0.36103779184725 
1267	 0.361289797282823 
1268	 0.361566330269455 
1269	 0.361832319788874 
1270	 0.362099558238287 
1271	 0.362382725982803 
1272	 0.362628567282731 
1273	 0.362849971878771 
1274	 0.363075011384631 
1275	 0.363301545869457 
1276	 0.363483226363147 
1277	 0.363635453911511 
1278	 0.36379375983724 
1279	 0.363927903523019 
1280	 0.364044537734105 
1281	 0.364186953275476 
1282	 0.364276712783989 
1283	 0.364290421861546 
1284	 0.36432665167894 
1285	 0.364357407712778 
1286	 0.364368900744088 
1287	 0.36439794176004 
1288	 0.36445458214933 
1289	 0.364454141807464 
1290	 0.364434792798067 
1291	 0.364401066307289 
1292	 0.36431113800241 
1293	 0.364279559259469 
1294	 0.36426996287943 
1295	 0.364248537457267 
1296	 0.364271723193879 
1297	 0.364229272309807 
1298	 0.364123477302865 
1299	 0.364065860116939 
1300	 0.363990874694312 
1301	 0.363941092389131 
1302	 0.363924868527764 
1303	 0.363913492229155 
1304	 0.363909865670404 
1305	 0.363908586317274 
1306	 0.363920740636088 
1307	 0.36393937472162 
1308	 0.36396513540889 
1309	 0.363981723190866 
1310	 0.364014887974327 
1311	 0.364063829161494 
1312	 0.364105939244806 
1313	 0.364147235594172 
1314	 0.364195641896819 
1315	 0.364242604211227 
1316	 0.364306765997825 
1317	 0.364368942672474 
1318	 0.36446481647418 
1319	 0.364590460153531 
1320	 0.364709011348489 
1321	 0.364850642817888 
1322	 0.364979655581292 
1323	 0.365078494744781 
1324	 0.365227187619947 
1325	 0.36540761683677 
1326	 0.365579295705472 
1327	 0.365787527623944 
1328	 0.365970435113703 
1329	 0.366124171510445 
1330	 0.3662958797378 
1331	 0.366473415697791 
1332	 0.366649391860863 
1333	 0.366832489651895 
1334	 0.367021117520763 
1335	 0.367181187499179 
1336	 0.367317967484726 
1337	 0.367490679435412 
1338	 0.367654435849544 
1339	 0.367844878299283 
1340	 0.368082776497351 
1341	 0.368268523920174 
1342	 0.368439289783157 
1343	 0.368611241583926 
1344	 0.368766168456577 
1345	 0.368922674949756 
1346	 0.369088028482556 
1347	 0.369233358369384 
1348	 0.369373900064759 
1349	 0.369489926733708 
1350	 0.369583939226102 
1351	 0.369678768555753 
1352	 0.369754330509427 
1353	 0.369830854681185 
1354	 0.369906823752352 
1355	 0.369980271164577 
1356	 0.370037929471672 
1357	 0.37010919832381 
1358	 0.37020200113431 
1359	 0.370273884633194 
1360	 0.370334657239586 
1361	 0.370400337292093 
1362	 0.370456214683686 
1363	 0.370522284191368 
1364	 0.370586019796315 
1365	 0.370666611586778 
1366	 0.370720918065484 
1367	 0.370767123728742 
1368	 0.37079160085859 
1369	 0.370795047689213 
1370	 0.370811490678074 
1371	 0.370820111572755 
1372	 0.370823629844585 
1373	 0.370858036262729 
1374	 0.370822151528361 
1375	 0.370748806189619 
1376	 0.370660706924751 
1377	 0.370532182717896 
1378	 0.37039512720189 
1379	 0.370242699072086 
1380	 0.370077858083858 
1381	 0.369883495078399 
1382	 0.369694546576763 
1383	 0.36948973528655 
1384	 0.36930017574315 
1385	 0.369114341380458 
1386	 0.368931551107027 
1387	 0.368780110373505 
1388	 0.368595714026594 
1389	 0.368387122510906 
1390	 0.368186181827832 
1391	 0.367987279630457 
1392	 0.367753478289817 
1393	 0.367532657476261 
1394	 0.367325559835575 
1395	 0.367096505471778 
1396	 0.366842594728598 
1397	 0.366621213712098 
1398	 0.366414093169341 
1399	 0.366189486195275 
1400	 0.365985547437492 
1401	 0.365737197474872 
1402	 0.365478356100534 
1403	 0.365161671810022 
1404	 0.364829012230594 
1405	 0.364429047805031 
1406	 0.363982393187332 
1407	 0.363475676587603 
1408	 0.362894089025115 
1409	 0.362301536555877 
1410	 0.361650880405385 
1411	 0.360994920147591 
1412	 0.360308337703763 
1413	 0.359639734973139 
1414	 0.358907199712028 
1415	 0.358269543479188 
1416	 0.357649015245488 
1417	 0.35710471863343 
1418	 0.356627193993906 
1419	 0.356208001211778 
1420	 0.355879371065769 
1421	 0.355554284045907 
1422	 0.355301669904311 
1423	 0.355028043044993 
1424	 0.354760482304061 
1425	 0.354488082448221 
1426	 0.354233930105424 
1427	 0.353941032640847 
1428	 0.353600368646613 
1429	 0.353242673733205 
1430	 0.352824933264642 
1431	 0.352330215951958 
1432	 0.351872167587085 
1433	 0.351398924902623 
1434	 0.350903759674112 
1435	 0.350396071881849 
1436	 0.349893436235653 
1437	 0.349353795777663 
1438	 0.348861688806753 
1439	 0.348388120700685 
1440	 0.347937419172337 
1441	 0.347493800133942 
1442	 0.347091109100789 
1443	 0.346701007898624 
1444	 0.3463798661159 
1445	 0.346064909534379 
1446	 0.345874914772858 
1447	 0.345730657930851 
1448	 0.345736769699602 
1449	 0.345843451456244 
1450	 0.346090546429018 
1451	 0.34651452148891 
1452	 0.34697267769492 
1453	 0.347606716903239 
1454	 0.34817547407402 
1455	 0.348780779040014 
1456	 0.34936595290315 
1457	 0.349941548749803 
1458	 0.350508366468696 
1459	 0.351084311718408 
1460	 0.3516311812166 
1461	 0.352117495325949 
1462	 0.352651185631964 
1463	 0.353179852286639 
1464	 0.35373654974152 
1465	 0.354324089777218 
1466	 0.354961147180766 
1467	 0.355563264672942 
1468	 0.356159478846332 
1469	 0.356735019224243 
1470	 0.357242600792141 
1471	 0.357725058815148 
1472	 0.358161763238652 
1473	 0.358594135603981 
1474	 0.358998047759711 
1475	 0.359383198071189 
1476	 0.359754756433384 
1477	 0.360095181787359 
1478	 0.360414042301382 
1479	 0.360686569552882 
1480	 0.360926229702056 
1481	 0.361140900646696 
1482	 0.361296091462945 
1483	 0.361474918625058 
1484	 0.361654831595589 
1485	 0.361810142219518 
1486	 0.361943248138531 
1487	 0.362091277949375 
1488	 0.362201447374948 
1489	 0.362372235661743 
1490	 0.362580707622795 
1491	 0.362793954275762 
1492	 0.363017677207646 
1493	 0.363285249324694 
1494	 0.363567386768387 
1495	 0.36389229116397 
1496	 0.364285806916799 
1497	 0.364663471697024 
1498	 0.365061784480963 
1499	 0.365459745833288 
1500	 0.36586425676126 
1501	 0.366269771585875 
1502	 0.366695062706367 
1503	 0.36709452742779 
1504	 0.367491338405606 
1505	 0.367866633123922 
1506	 0.36823015064724 
1507	 0.368566131617925 
1508	 0.368870837597418 
1509	 0.369172487447693 
1510	 0.369475210077188 
1511	 0.369730296739268 
1512	 0.369960943691901 
1513	 0.370170502901375 
1514	 0.370315755933703 
1515	 0.370477177974147 
1516	 0.370620691159283 
1517	 0.3707878543776 
1518	 0.370970532467617 
1519	 0.37114967016748 
1520	 0.371348530082331 
1521	 0.371549737625945 
1522	 0.371698406812807 
1523	 0.371838751643327 
1524	 0.371963647940624 
1525	 0.372053313292701 
1526	 0.37216847536859 
1527	 0.372289397824289 
1528	 0.372398718956635 
1529	 0.372514759002717 
1530	 0.372597531057005 
1531	 0.372660442727369 
1532	 0.372723409402044 
1533	 0.372759470120842 
1534	 0.37282614471986 
1535	 0.372897742392004 
1536	 0.372983107763053 
1537	 0.37308114005638 
1538	 0.373186902999435 
1539	 0.373298179419753 
1540	 0.373432450954434 
1541	 0.373572621029205 
1542	 0.373750516858136 
1543	 0.373957039788367 
1544	 0.374177000151624 
1545	 0.374418109516738 
1546	 0.374687809903248 
1547	 0.374996870182355 
1548	 0.375280292687027 
1549	 0.375578437042633 
1550	 0.375875458034029 
1551	 0.37614142969083 
1552	 0.376455964429259 
1553	 0.376798662393064 
1554	 0.37715771412037 
1555	 0.377551321416962 
1556	 0.377928251089313 
1557	 0.378324596993764 
1558	 0.378701485369605 
1559	 0.379072045977813 
1560	 0.379424972495143 
1561	 0.379772956133378 
1562	 0.380100241479816 
1563	 0.380396067708765 
1564	 0.380703277293364 
1565	 0.380997508975501 
1566	 0.381303819415599 
1567	 0.381627457981898 
1568	 0.381927018765009 
1569	 0.382217864386288 
1570	 0.382508739843141 
1571	 0.382789786261924 
1572	 0.383062186519148 
1573	 0.38335146919801 
1574	 0.383597470041184 
1575	 0.383790140972147 
1576	 0.384019510639607 
1577	 0.384231808648984 
1578	 0.38447021237533 
1579	 0.38475811889345 
1580	 0.385008822141136 
1581	 0.38525086066653 
1582	 0.385485646109714 
1583	 0.385700521907894 
1584	 0.385918865679726 
1585	 0.386135661918105 
1586	 0.386350889740808 
1587	 0.386563358433356 
1588	 0.386772192195531 
1589	 0.386969901379936 
1590	 0.387182205181823 
1591	 0.38741558637514 
1592	 0.387618820122292 
1593	 0.387801043647642 
1594	 0.388007486204319 
1595	 0.388207346717696 
1596	 0.388405326059269 
1597	 0.388628498198686 
1598	 0.388840854157745 
1599	 0.389030320996084 
1600	 0.389231004418655 
1601	 0.389443229065681 
1602	 0.389652272051035 
1603	 0.389857833458508 
1604	 0.390065961464768 
1605	 0.390291699732251 
1606	 0.390491763125913 
1607	 0.390684970124199 
1608	 0.390861370888985 
1609	 0.391004235059372 
1610	 0.391161196236747 
1611	 0.391313939148449 
1612	 0.39146674782882 
1613	 0.391637627723558 
1614	 0.391782466552314 
1615	 0.391914890436579 
1616	 0.392035987254141 
1617	 0.392122153118473 
1618	 0.392233010693824 
1619	 0.392361135640707 
1620	 0.392466353883988 
1621	 0.392566612901266 
1622	 0.392668367184296 
1623	 0.392774089102796 
1624	 0.392846869468797 
1625	 0.392902595443523 
1626	 0.392961530650858 
1627	 0.392969354502836 
1628	 0.393017278962179 
1629	 0.393117661802023 
1630	 0.393178748155545 
1631	 0.393227623083874 
1632	 0.393281689951398 
1633	 0.393305827748033 
1634	 0.393358589455786 
1635	 0.393446729482114 
1636	 0.393511819088883 
1637	 0.393565332324572 
1638	 0.393633305639314 
1639	 0.393701400918934 
1640	 0.393766965161721 
1641	 0.393857495687647 
1642	 0.393920235259533 
1643	 0.393965802473924 
1644	 0.394001958239149 
1645	 0.394011866635212 
1646	 0.394032101103128 
1647	 0.394069923967756 
1648	 0.394067913877233 
1649	 0.394050351897252 
1650	 0.394022744638592 
1651	 0.393948326355735 
1652	 0.39389815620601 
1653	 0.39387978554521 
1654	 0.393816940354307 
1655	 0.393745878384946 
1656	 0.393643961566348 
1657	 0.393503215288767 
1658	 0.39334887377321 
1659	 0.393177966822454 
1660	 0.392983045071047 
1661	 0.39276013736379 
1662	 0.392526775633632 
1663	 0.392292486797274 
1664	 0.392007045578027 
1665	 0.391692492833742 
1666	 0.391340442440339 
1667	 0.390945103800351 
1668	 0.390521307191704 
1669	 0.390081548966954 
1670	 0.389581567910196 
1671	 0.389028425465014 
1672	 0.388434786540953 
1673	 0.387793919881112 
1674	 0.387106553130642 
1675	 0.386380094528597 
1676	 0.38561577287949 
1677	 0.384807128152187 
1678	 0.383949664263437 
1679	 0.383041018649201 
1680	 0.38209155075193 
1681	 0.38108844717265 
1682	 0.380058881763082 
1683	 0.379001583158744 
1684	 0.377905437548932 
1685	 0.376767149363072 
1686	 0.375595684189293 
1687	 0.374380433892612 
1688	 0.373123953535608 
1689	 0.371831982728296 
1690	 0.37049389762841 
1691	 0.36910672358804 
1692	 0.367718962853065 
1693	 0.36631946921831 
1694	 0.364861444367308 
1695	 0.363350433779884 
1696	 0.361825290242711 
1697	 0.360249836727477 
1698	 0.358654082392817 
1699	 0.357057798319603 
1700	 0.355457188031378 
1701	 0.35381468346377 
1702	 0.352202319645258 
1703	 0.350536282560662 
1704	 0.349009530894646 
1705	 0.347514429586607 
1706	 0.346078342456535 
1707	 0.344871013412296 
1708	 0.343699866987718 
1709	 0.342585216541223 
1710	 0.341591433464343 
1711	 0.340601075460223 
1712	 0.339679964749342 
1713	 0.338774252306554 
1714	 0.337958225394605 
1715	 0.337250819465402 
1716	 0.336494714240243 
1717	 0.335811070250721 
1718	 0.335127356894719 
1719	 0.33438916917203 
1720	 0.33376339035863 
1721	 0.333191624328573 
1722	 0.332643496423432 
1723	 0.332181519282814 
1724	 0.331777181203838 
1725	 0.331474733782013 
1726	 0.331314810465505 
1727	 0.331270009385633 
1728	 0.331335808623271 
1729	 0.33151808597233 
1730	 0.331811236706282 
1731	 0.332223243479739 
1732	 0.332769078535102 
1733	 0.333367341696673 
1734	 0.334052872612715 
1735	 0.334775155269261 
1736	 0.335428290222309 
1737	 0.336063980548201 
1738	 0.336584453143319 
1739	 0.337014661929554 
1740	 0.337410266322701 
1741	 0.337665353178541 
1742	 0.337806467800135 
1743	 0.337858948222595 
1744	 0.337731625532229 
1745	 0.337635640998028 
1746	 0.337457875709318 
1747	 0.337314932668161 
1748	 0.337186859117934 
1749	 0.337081050791702 
1750	 0.336933436217182 
1751	 0.336878643884535 
1752	 0.336860610925914 
1753	 0.336909951227172 
1754	 0.337017379078652 
1755	 0.337224898768936 
1756	 0.337503410779756 
1757	 0.337877736358345 
1758	 0.338335744890014 
1759	 0.338823896614681 
1760	 0.339407082687618 
1761	 0.340061162003509 
1762	 0.340780051374042 
1763	 0.341588972109747 
1764	 0.342422666180056 
1765	 0.343363951383687 
1766	 0.344411765469697 
1767	 0.345509928714147 
1768	 0.346676341008956 
1769	 0.347802741927586 
1770	 0.348843188463028 
1771	 0.349893005108847 
1772	 0.350902287565798 
1773	 0.351860060766491 
1774	 0.352829360285182 
1775	 0.353684959442998 
1776	 0.354471503391787 
1777	 0.355223175846178 
1778	 0.355906619125388 
1779	 0.356615525521112 
1780	 0.357286529579627 
1781	 0.357933864185068 
1782	 0.358559931605573 
1783	 0.3590778697522 
1784	 0.359620484755692 
1785	 0.360056278885351 
1786	 0.360467528352656 
1787	 0.360845158687635 
1788	 0.361212354644904 
1789	 0.361560493947546 
1790	 0.361941328467342 
1791	 0.362305936176929 
1792	 0.362670229991981 
1793	 0.363032372082306 
1794	 0.363385606944274 
1795	 0.363779373112755 
1796	 0.364075575615668 
1797	 0.364349651305282 
1798	 0.364659096040624 
1799	 0.364968751854928 
1800	 0.365311739962166 
1801	 0.375441092264155 
1802	 0.375786651497672 
1803	 0.376131104357609 
1804	 0.376458520061453 
1805	 0.376793195799317 
1806	 0.377111772944848 
1807	 0.377450645035753 
1808	 0.377745911810841 
1809	 0.378008136076538 
1810	 0.378266569491906 
1811	 0.378481020967779 
1812	 0.378734009814708 
1813	 0.378997701472829 
1814	 0.379281100114722 
1815	 0.379515489845909 
1816	 0.379760544128879 
1817	 0.380018815708801 
1818	 0.380225848024554 
1819	 0.380507734818361 
1820	 0.380879308288223 
1821	 0.3811897548805 
1822	 0.381500639038521 
1823	 0.381814844258699 
1824	 0.38206513084603 
1825	 0.38233854879333 
1826	 0.3826251602789 
1827	 0.382945417172424 
1828	 0.383195426163382 
1829	 0.383407184297351 
1830	 0.383648873106579 
1831	 0.3838637174781 
1832	 0.384089909407064 
1833	 0.384341509805064 
1834	 0.384599104735297 
1835	 0.384807722911922 
1836	 0.384980782647222 
1837	 0.385185356092359 
1838	 0.38538385232544 
1839	 0.385606432364991 
1840	 0.38584128342524 
1841	 0.386097117274237 
1842	 0.386382172802133 
1843	 0.386663145725354 
1844	 0.386939494987566 
1845	 0.38719265478549 
1846	 0.387390596584576 
1847	 0.387535773855591 
1848	 0.387698221416592 
1849	 0.387875824213144 
1850	 0.387987363207293 
1851	 0.388063916933644 
1852	 0.388144214842842 
1853	 0.388174679453753 
1854	 0.388143859953074 
1855	 0.388117621671366 
1856	 0.388062522803242 
1857	 0.387986602797633 
1858	 0.387866133377386 
1859	 0.387724486997123 
1860	 0.387590372629612 
1861	 0.387374700980445 
1862	 0.387112937549024 
1863	 0.386815716267236 
1864	 0.386415499792337 
1865	 0.385980084893531 
1866	 0.385495636589313 
1867	 0.38492163565869 
1868	 0.384342094396484 
1869	 0.383687765157092 
1870	 0.383030732900956 
1871	 0.382336885557736 
1872	 0.38166020634118 
1873	 0.380973453901924 
1874	 0.38031065888098 
1875	 0.379606646108976 
1876	 0.378809996993291 
1877	 0.378018108211213 
1878	 0.377114026808891 
1879	 0.376111176977816 
1880	 0.375101999487484 
1881	 0.373970304233775 
1882	 0.372703910714338 
1883	 0.371418311282733 
1884	 0.370069927170429 
1885	 0.368580206298587 
1886	 0.367063108391279 
1887	 0.36538801095747 
1888	 0.363648559366558 
1889	 0.361990172507503 
1890	 0.36022071484405 
1891	 0.358433441752876 
1892	 0.356635598961546 
1893	 0.354754010920762 
1894	 0.352742101124735 
1895	 0.350797809624044 
1896	 0.348833171551865 
1897	 0.346837563966452 
1898	 0.345004862119154 
1899	 0.343121351011168 
1900	 0.341288864165822 
1901	 0.339556945186512 
1902	 0.337717213872134 
1903	 0.335977668860347 
1904	 0.334311284880735 
1905	 0.332693750337279 
1906	 0.33112357960469 
1907	 0.329702713627633 
1908	 0.328298659333806 
1909	 0.326941432379199 
1910	 0.325647498213048 
1911	 0.324359408670779 
1912	 0.32314780583633 
1913	 0.321963684146443 
1914	 0.320757716993542 
1915	 0.319625293813708 
1916	 0.31855209595142 
1917	 0.317484524776048 
1918	 0.316456015389158 
1919	 0.315515265623104 
1920	 0.314518077892567 
1921	 0.313566874946631 
1922	 0.312632039559183 
1923	 0.311645231463061 
1924	 0.310761601444837 
1925	 0.309873738524687 
1926	 0.308982876836394 
1927	 0.308101760568441 
1928	 0.307253069527845 
1929	 0.306396027374244 
1930	 0.305573006185339 
1931	 0.304821150064391 
1932	 0.304091932565018 
1933	 0.303458046326935 
1934	 0.30287957379084 
1935	 0.302328356129847 
1936	 0.301856897615401 
1937	 0.30144439445843 
1938	 0.301047672550664 
1939	 0.300793642655465 
1940	 0.3006354819753 
1941	 0.300566331408922 
1942	 0.300597122653814 
1943	 0.300657115723209 
1944	 0.300734440055749 
1945	 0.300892381458534 
1946	 0.301117173399439 
1947	 0.301404314898123 
1948	 0.301792853210819 
1949	 0.302212406728459 
1950	 0.302697383851463 
1951	 0.303229635714759 
1952	 0.303863667354693 
1953	 0.304565472273191 
1954	 0.305354727981443 
1955	 0.306255520029351 
1956	 0.307127061102557 
1957	 0.308016230003848 
1958	 0.308955364886189 
1959	 0.309801265659617 
1960	 0.310660154327967 
1961	 0.311452474084682 
1962	 0.312195436932287 
1963	 0.312879151486511 
1964	 0.313526261712748 
1965	 0.314086995093443 
1966	 0.314569383957477 
1967	 0.315039878891444 
1968	 0.315405443358029 
1969	 0.315761005551079 
1970	 0.316124768698551 
1971	 0.316455393457915 
1972	 0.316824821067883 
1973	 0.317235563883469 
1974	 0.317660081014364 
1975	 0.31812812541864 
1976	 0.318579590848561 
1977	 0.319037129683903 
1978	 0.319499486624204 
1979	 0.319963441330067 
1980	 0.320409252911196 
1981	 0.320905614846766 
1982	 0.321449700925043 
1983	 0.322014252779194 
1984	 0.322580685767725 
1985	 0.323125039271445 
1986	 0.323695751396051 
1987	 0.32433688038224 
1988	 0.324990308942093 
1989	 0.325746886855769 
1990	 0.326579831184934 
1991	 0.327467991500989 
1992	 0.32843772286851 
1993	 0.329465196320658 
1994	 0.330450477468565 
1995	 0.331561523431804 
1996	 0.332667627570178 
1997	 0.333777674415735 
1998	 0.334944341194239 
1999	 0.336199656694879 
2000	 0.337374116805173 
2001	 0.338605335396567 
2002	 0.339716434509764 
2003	 0.340770338426205 
2004	 0.341789936211592 
2005	 0.342735219461143 
2006	 0.343645645132348 
2007	 0.344543693756994 
2008	 0.345340954311432 
2009	 0.346126068776916 
2010	 0.346832732551729 
2011	 0.347463990445109 
2012	 0.348106576581323 
2013	 0.348666096797855 
2014	 0.349144438902518 
2015	 0.349623872865672 
2016	 0.350053022498979 
2017	 0.350462873059188 
2018	 0.35088408050455 
2019	 0.351219611147489 
2020	 0.351480408699794 
2021	 0.351739571119138 
2022	 0.351948877840965 
2023	 0.35210284686698 
2024	 0.352265843193344 
2025	 0.352391415872291 
2026	 0.352474613081243 
2027	 0.352515460533194 
2028	 0.352535339596565 
2029	 0.352516796944171 
2030	 0.352476452926784 
2031	 0.352377609708046 
2032	 0.352316966676774 
2033	 0.352231764164694 
2034	 0.352165486541649 
2035	 0.352133791191355 
2036	 0.352100852633984 
2037	 0.352009704914699 
2038	 0.351965603497078 
2039	 0.351902993768063 
2040	 0.351822451263087 
2041	 0.35174450771899 
2042	 0.351666249351004 
2043	 0.35160492097936 
2044	 0.351541552995525 
2045	 0.351490696044554 
2046	 0.351465251956091 
2047	 0.351430597025297 
2048	 0.351385675736615 
2049	 0.351356576800055 
2050	 0.35134630496488 
2051	 0.351333393823487 
2052	 0.351304320878774 
2053	 0.351250237790323 
2054	 0.351207694312341 
2055	 0.351133726366623 
2056	 0.351105235374138 
2057	 0.351125829686163 
2058	 0.351097753338022 
2059	 0.351066379274642 
2060	 0.351028049252865 
2061	 0.350939901078144 
2062	 0.350895602852406 
2063	 0.350883342571481 
2064	 0.350856098609332 
2065	 0.350847149658626 
2066	 0.350824209611603 
2067	 0.350760155767218 
2068	 0.350720201625213 
2069	 0.350667677867934 
2070	 0.350594319025095 
2071	 0.350543988630178 
2072	 0.350513296062229 
2073	 0.350460582057529 
2074	 0.350410335040128 
2075	 0.350348202179198 
2076	 0.350262891885661 
2077	 0.350192784976491 
2078	 0.350127292981966 
2079	 0.350055984765801 
2080	 0.349982547084121 
2081	 0.349910329639621 
2082	 0.349827920220921 
2083	 0.349771762989677 
2084	 0.349689358080639 
2085	 0.349598049570575 
2086	 0.349503229889893 
2087	 0.349390663132597 
2088	 0.349275473596973 
2089	 0.349169356122058 
2090	 0.349042104484585 
2091	 0.348886662195817 
2092	 0.348744603136293 
2093	 0.348613628785151 
2094	 0.348455050549804 
2095	 0.348298338258399 
2096	 0.348115319773311 
2097	 0.347908410971208 
2098	 0.347675124208999 
2099	 0.347443671657487 
2100	 0.347189924767016 
2101	 0.34693513621409 
2102	 0.346670587165849 
2103	 0.346403648771973 
2104	 0.346114969558558 
2105	 0.34585708650006 
2106	 0.345626439916399 
2107	 0.345354095119489 
2108	 0.345101585017413 
2109	 0.344795488972437 
2110	 0.344443485985305 
2111	 0.344074852972175 
2112	 0.343650090136274 
2113	 0.343260496792647 
2114	 0.34285873571395 
2115	 0.342463721709464 
2116	 0.342100624647378 
2117	 0.341726469945804 
2118	 0.341326162502984 
2119	 0.3409032825153 
2120	 0.340493577480417 
2121	 0.340053426215449 
2122	 0.339666505474311 
2123	 0.339308375358102 
2124	 0.338947063628619 
2125	 0.338624471223312 
2126	 0.338267381788347 
2127	 0.337883113059264 
2128	 0.337524332690244 
2129	 0.337149639550827 
2130	 0.336811502451665 
2131	 0.336515629577747 
2132	 0.336203896972454 
2133	 0.335884262618376 
2134	 0.335610568132014 
2135	 0.335317302510339 
2136	 0.335010590282044 
2137	 0.334724736032307 
2138	 0.334443034200247 
2139	 0.334182966213723 
2140	 0.333928598002143 
2141	 0.333708991669852 
2142	 0.33354727373736 
2143	 0.33333632631287 
2144	 0.333121320869645 
2145	 0.332907423906159 
2146	 0.332668707021801 
2147	 0.332434010061533 
2148	 0.332196623188664 
2149	 0.331988223907001 
2150	 0.331798088374527 
2151	 0.331595564807828 
2152	 0.331414292833511 
2153	 0.331213880913311 
2154	 0.331037041095692 
2155	 0.3308589484906 
2156	 0.330704811750252 
2157	 0.330614611845916 
2158	 0.330438975111642 
2159	 0.330239666877571 
2160	 0.330018353689527 
2161	 0.329748353129648 
2162	 0.329502312090848 
2163	 0.329256930496808 
2164	 0.328990783078968 
2165	 0.328708380860518 
2166	 0.328434148604357 
2167	 0.328149041269065 
2168	 0.327857255263334 
2169	 0.327565170122622 
2170	 0.327284614243871 
2171	 0.326970565519528 
2172	 0.326706366065396 
2173	 0.326496485068761 
2174	 0.32626482338383 
2175	 0.326060216363118 
2176	 0.325830248169478 
2177	 0.325589821669334 
2178	 0.325321497116382 
2179	 0.325078605591334 
2180	 0.324805068518713 
2181	 0.324629155931776 
2182	 0.324510763898743 
2183	 0.324375961893067 
2184	 0.324312144800225 
2185	 0.324195769177912 
2186	 0.324040771851756 
2187	 0.323907339627284 
2188	 0.32377698731207 
2189	 0.323643032624039 
2190	 0.3235429404783 
2191	 0.323383198760941 
2192	 0.323192191986007 
2193	 0.322996781516778 
2194	 0.322773743705487 
2195	 0.322516458194567 
2196	 0.322240839958477 
2197	 0.321954295718017 
2198	 0.321626325942991 
2199	 0.321251999044974 
2200	 0.320897953047412 
2201	 0.320561777780897 
2202	 0.320148727445662 
2203	 0.319708007406949 
2204	 0.319243599375083 
2205	 0.318674295418517 
2206	 0.318217459607124 
2207	 0.317794676652035 
2208	 0.317379189038157 
2209	 0.316998899515634 
2210	 0.316654694217234 
2211	 0.3163154008376 
2212	 0.316020907712167 
2213	 0.315821490066504 
2214	 0.31556812638209 
2215	 0.315311121302833 
2216	 0.315049031015841 
2217	 0.314775900957287 
2218	 0.314493920142502 
2219	 0.314198580154599 
2220	 0.313927682292696 
2221	 0.31366441482617 
2222	 0.313385612662084 
2223	 0.31316235688913 
2224	 0.312904590042963 
2225	 0.312549868602914 
2226	 0.312202349736883 
2227	 0.311800241702108 
2228	 0.311330159766864 
2229	 0.310832543534007 
2230	 0.310335895469233 
2231	 0.309742287218805 
2232	 0.309099084278243 
2233	 0.308359509853796 
2234	 0.307576626337368 
2235	 0.306614473786243 
2236	 0.305524917725854 
2237	 0.304345038530793 
2238	 0.303016072295414 
2239	 0.301614091259953 
2240	 0.300120306333577 
2241	 0.298518817874059 
2242	 0.296845885100323 
2243	 0.295008914487697 
2244	 0.292988954187802 
2245	 0.290954558327779 
2246	 0.28869860906614 
2247	 0.286529588444723 
2248	 0.284398764884313 
2249	 0.282226382666137 
2250	 0.280013781021439 
2251	 0.277885463294747 
2252	 0.275579053568997 
2253	 0.27337070620605 
2254	 0.271215009585218 
2255	 0.269006193596119 
2256	 0.266998551501622 
2257	 0.264966118586208 
2258	 0.262961730320968 
2259	 0.261024982310665 
2260	 0.259023064209172 
2261	 0.257014126922421 
2262	 0.255003778470885 
2263	 0.252886449205664 
2264	 0.250952882497458 
2265	 0.249109039663769 
2266	 0.247262660036495 
2267	 0.245530813701742 
2268	 0.243784942936115 
2269	 0.241941967334805 
2270	 0.240343291279167 
2271	 0.238836778039638 
2272	 0.237472312246049 
2273	 0.236356352217249 
2274	 0.235178422645583 
2275	 0.234132532826417 
2276	 0.233010427159562 
2277	 0.231905266935869 
2278	 0.230729231666299 
2279	 0.229493536896891 
2280	 0.228227362183943 
2281	 0.226949956145999 
2282	 0.225558048039175 
2283	 0.224084353472857 
2284	 0.222590207459719 
2285	 0.220933440630672 
2286	 0.219288607682321 
2287	 0.217685107207295 
2288	 0.215973159127331 
2289	 0.214307293068191 
2290	 0.212605351265664 
2291	 0.210797149114392 
2292	 0.209023441786238 
2293	 0.207209990875822 
2294	 0.205447462904542 
2295	 0.203841342491293 
2296	 0.20229486875782 
2297	 0.200918203161745 
2298	 0.199664822763824 
2299	 0.198602756839259 
2300	 0.197692771566977 
2301	 0.19699697867735 
2302	 0.196478444496646 
2303	 0.196231173043931 
2304	 0.196226388412453 
2305	 0.196386300131617 
2306	 0.196814709635586 
2307	 0.197384286625101 
2308	 0.198130114297947 
2309	 0.199071140625681 
2310	 0.200275397316442 
2311	 0.201527223133154 
2312	 0.203010576439642 
2313	 0.204433322235616 
2314	 0.205949071443079 
2315	 0.207433971661018 
2316	 0.20890922232016 
2317	 0.210389282018843 
2318	 0.21199568626896 
2319	 0.213332538302317 
2320	 0.214653383176751 
2321	 0.215720089629521 
2322	 0.216541320260568 
2323	 0.217231496935159 
2324	 0.217730516026004 
2325	 0.218079200447514 
2326	 0.218182498403543 
2327	 0.218254194835157 
2328	 0.218254798118913 
2329	 0.218094064276339 
2330	 0.217846862530116 
2331	 0.21739353472608 
2332	 0.216776450446375 
2333	 0.216012094943145 
2334	 0.215132474762721 
2335	 0.214213051679599 
2336	 0.213170983032706 
2337	 0.212047962649633 
2338	 0.210903626466159 
2339	 0.209690028848608 
2340	 0.208557174249722 
2341	 0.207451489026835 
2342	 0.206354842382142 
2343	 0.20546772237728 
2344	 0.204664118637806 
2345	 0.203981567125777 
2346	 0.20353940878077 
2347	 0.203348999827191 
2348	 0.203405220863745 
2349	 0.203683813746387 
2350	 0.204267454765373 
2351	 0.204985049842291 
2352	 0.20579643434332 
2353	 0.206878039294759 
2354	 0.207974924601865 
2355	 0.209067101772726 
2356	 0.210048298485942 
2357	 0.210822619791982 
2358	 0.211562827950506 
2359	 0.212149837193997 
2360	 0.212602721313511 
2361	 0.21300032616987 
2362	 0.213208757672419 
2363	 0.213292573354488 
2364	 0.213413261264964 
2365	 0.213382253490378 
2366	 0.213300276144972 
2367	 0.213162408990401 
2368	 0.212986467494877 
2369	 0.212894519813849 
2370	 0.212722101092524 
2371	 0.212668171503782 
2372	 0.212616330231031 
2373	 0.212467942493191 
2374	 0.212374438851556 
2375	 0.212237288505606 
2376	 0.212119309893346 
2377	 0.212008344966702 
2378	 0.211787341298085 
2379	 0.211574698879494 
2380	 0.211493378770355 
2381	 0.211469161614651 
2382	 0.211421823057411 
2383	 0.211514558060074 
2384	 0.211509521876694 
2385	 0.211395459591598 
2386	 0.21136778863913 
2387	 0.211421443971078 
2388	 0.211466099062319 
2389	 0.211471607140466 
2390	 0.211448815083189 
2391	 0.211488746415858 
2392	 0.211413206259109 
2393	 0.211243093075507 
2394	 0.211101928691508 
2395	 0.210906007012377 
2396	 0.210792312880757 
2397	 0.210672630651344 
2398	 0.210737970567622 
2399	 0.210951237760773 
2400	 0.210961489594868 
2401	 0.211030925971921 
2402	 0.210892071479247 
2403	 0.210783978628348 
2404	 0.2107939878339 
2405	 0.210741163468364 
2406	 0.210579609917195 
2407	 0.21041537516674 
2408	 0.210418199227633 
2409	 0.210487656005137 
2410	 0.210451142346797 
2411	 0.210543656079121 
2412	 0.210567768222959 
2413	 0.21042216157345 
2414	 0.210421599113061 
2415	 0.210446028723656 
2416	 0.210502965725077 
2417	 0.210464485690199 
2418	 0.210321460607623 
2419	 0.210326217158054 
2420	 0.210220784475988 
2421	 0.21015292010534 
2422	 0.21026465247679 
2423	 0.210269913646184 
2424	 0.210231261983327 
2425	 0.210222008933273 
2426	 0.210250899774642 
2427	 0.210413626656181 
2428	 0.21061679865029 
2429	 0.210679644907341 
2430	 0.210816686701121 
2431	 0.210943565570472 
2432	 0.210966307736778 
2433	 0.2110337886842 
2434	 0.210850074225724 
2435	 0.210819920103025 
2436	 0.210939945269721 
2437	 0.210969207845389 
2438	 0.211143854035076 
2439	 0.210796306007385 
2440	 0.210143861255491 
2441	 0.209818756480366 
2442	 0.209591263852417 
2443	 0.209533786063763 
2444	 0.209714884946727 
2445	 0.209729244848037 
2446	 0.209751480960889 
2447	 0.210026080861984 
2448	 0.20991179591874 
2449	 0.209629447684804 
2450	 0.209359658156102 
2451	 0.208900945052154 
2452	 0.20871246969453 
2453	 0.208438775267066 
2454	 0.207967934490587 
2455	 0.207625979171123 
2456	 0.207213911043357 
2457	 0.207067069072535 
2458	 0.207185748221611 
2459	 0.206949258585291 
2460	 0.206535017480609 
2461	 0.206311678049761 
2462	 0.206327490411568 
2463	 0.206337995522663 
2464	 0.206187260352779 
2465	 0.205963939900695 
2466	 0.205229832855868 
2467	 0.20451394687873 
2468	 0.204236187065329 
2469	 0.204089255156813 
2470	 0.204183144244312 
2471	 0.204011651526801 
2472	 0.203881540242038 
2473	 0.203895447137037 
2474	 0.203486068724034 
2475	 0.203326530464676 
2476	 0.203340659504423 
2477	 0.202755345189548 
2478	 0.202513013311579 
2479	 0.202734940201099 
2480	 0.202803042447097 
2481	 0.2028273821156 
2482	 0.20264987499901 
2483	 0.202716346788407 
2484	 0.203330270641045 
2485	 0.203719348086725 
2486	 0.203711901134845 
2487	 0.203920885525047 
2488	 0.203644183101772 
2489	 0.203447351435246 
2490	 0.203926547870841 
2491	 0.204214778083211 
2492	 0.204039562636609 
2493	 0.204332838659949 
2494	 0.204838084156511 
2495	 0.204814790558231 
2496	 0.205302056884366 
2497	 0.206095893173565 
2498	 0.206497290199079 
2499	 0.206572240678779 
2500	 0.206889264220278 
