Wavelength	Tablay400011.asd
350	 0.353934568897805 
351	 0.344893890722136 
352	 0.302318076529995 
353	 0.259103189733257 
354	 0.281596469317917 
355	 0.286748289627555 
356	 0.275139109860362 
357	 0.263830837698031 
358	 0.247071978822225 
359	 0.275525575595557 
360	 0.313265708593231 
361	 0.286985527862421 
362	 0.239325638934175 
363	 0.222853161712795 
364	 0.240880753617098 
365	 0.228564825056547 
366	 0.223792570209407 
367	 0.217312865863399 
368	 0.202041581362362 
369	 0.214585675575166 
370	 0.210060536648585 
371	 0.195593688115504 
372	 0.20495462593921 
373	 0.21501997530951 
374	 0.206645676923182 
375	 0.185053260902615 
376	 0.18925410397121 
377	 0.190916250873248 
378	 0.188861714459395 
379	 0.185626530680091 
380	 0.170734024126356 
381	 0.161824402867242 
382	 0.160835267247303 
383	 0.160585030381174 
384	 0.174739442611983 
385	 0.178404120689095 
386	 0.166529774448561 
387	 0.168231781318533 
388	 0.168056690509838 
389	 0.160601000018206 
390	 0.149020276122003 
391	 0.157720733469202 
392	 0.158608187604156 
393	 0.151414962185937 
394	 0.151887462629142 
395	 0.136971251113919 
396	 0.133336047699514 
397	 0.144942012319368 
398	 0.128939737838091 
399	 0.133454730922774 
400	 0.145331578322507 
401	 0.141637290084343 
402	 0.129163853358714 
403	 0.123480761469105 
404	 0.127098359123406 
405	 0.132197543280647 
406	 0.130515778868283 
407	 0.126103816807555 
408	 0.12194102576651 
409	 0.114497347468091 
410	 0.113609897748264 
411	 0.117910048672247 
412	 0.121135987269178 
413	 0.113402109091468 
414	 0.107867154422028 
415	 0.108164463102453 
416	 0.108567760354158 
417	 0.113904447094988 
418	 0.114495619487389 
419	 0.107513855660037 
420	 0.111219510495568 
421	 0.107812435137941 
422	 0.102876953593462 
423	 0.107746891189365 
424	 0.107453780021521 
425	 0.107443929144686 
426	 0.10902910729093 
427	 0.107441930962866 
428	 0.105682951832161 
429	 0.10441600496637 
430	 0.104223116345622 
431	 0.107550027152357 
432	 0.109088338653414 
433	 0.108534524516786 
434	 0.108379493614419 
435	 0.109018153002548 
436	 0.11090897763093 
437	 0.113067757119446 
438	 0.112473742363448 
439	 0.111717473309517 
440	 0.112085072943633 
441	 0.11392612652169 
442	 0.115970985328244 
443	 0.115656085268296 
444	 0.114595391391987 
445	 0.117081636006415 
446	 0.117219475066282 
447	 0.117433037600519 
448	 0.119662911364329 
449	 0.122460092041055 
450	 0.122911770074961 
451	 0.123621424391691 
452	 0.127746810593325 
453	 0.128431677855648 
454	 0.12867592850304 
455	 0.129997397372318 
456	 0.131605945939082 
457	 0.132809239979681 
458	 0.134230900768906 
459	 0.136459454575259 
460	 0.139430685787328 
461	 0.140247559943965 
462	 0.14048804884161 
463	 0.143573556306146 
464	 0.1462096189951 
465	 0.148231014503744 
466	 0.1499383821136 
467	 0.151735340317411 
468	 0.154311868833348 
469	 0.156817449997927 
470	 0.158500283973586 
471	 0.160968852806278 
472	 0.163080352974781 
473	 0.164720181987341 
474	 0.166657677029565 
475	 0.169763657558288 
476	 0.172391940741652 
477	 0.173940729328111 
478	 0.176881969704506 
479	 0.179291722077207 
480	 0.181635493318348 
481	 0.184830191028761 
482	 0.186827378730056 
483	 0.188912507280854 
484	 0.191646610082977 
485	 0.194538402131377 
486	 0.197719234953683 
487	 0.200532031498574 
488	 0.20270613282336 
489	 0.205636861062442 
490	 0.207959058283476 
491	 0.209978399263934 
492	 0.212807342017134 
493	 0.215482511693407 
494	 0.218438561971212 
495	 0.221629812690795 
496	 0.223985775413201 
497	 0.226381766750741 
498	 0.228900959143822 
499	 0.231441103141363 
500	 0.23413793766856 
501	 0.236868253418203 
502	 0.239571952089426 
503	 0.242250893458376 
504	 0.244734519193593 
505	 0.247387229935372 
506	 0.250284028655988 
507	 0.252617399651767 
508	 0.254914889669863 
509	 0.257421321875307 
510	 0.260183950922991 
511	 0.262869807517243 
512	 0.2651398427152 
513	 0.267218079732322 
514	 0.270010463736699 
515	 0.272443120161835 
516	 0.274750012681114 
517	 0.277243120503651 
518	 0.279290476813086 
519	 0.281521773987457 
520	 0.283909948496988 
521	 0.286028866996513 
522	 0.288436458260116 
523	 0.290945059945105 
524	 0.293318612018818 
525	 0.295399900351701 
526	 0.297522619391159 
527	 0.299706396999413 
528	 0.301870946571677 
529	 0.304105388758732 
530	 0.306240126522549 
531	 0.308221865220928 
532	 0.31012836065665 
533	 0.312356860318807 
534	 0.314598705088133 
535	 0.316640658819456 
536	 0.319059478243096 
537	 0.321133130012605 
538	 0.322917578318842 
539	 0.324883457511361 
540	 0.327027039710854 
541	 0.329024524933443 
542	 0.330859540609237 
543	 0.33307115167272 
544	 0.33506571457245 
545	 0.336895031555242 
546	 0.33877847312875 
547	 0.340759432839516 
548	 0.342636123664868 
549	 0.344365081853708 
550	 0.346057941475854 
551	 0.347919379167399 
552	 0.349752860423914 
553	 0.351446957186565 
554	 0.353300716651056 
555	 0.355110332135879 
556	 0.356784717130212 
557	 0.358332383644373 
558	 0.360074101768671 
559	 0.361769375635438 
560	 0.363331158892705 
561	 0.36495711396181 
562	 0.366375022502317 
563	 0.367771916575412 
564	 0.369315131521338 
565	 0.370610589755497 
566	 0.371914123169853 
567	 0.373317325707042 
568	 0.374771945946968 
569	 0.376136878246185 
570	 0.377549120817061 
571	 0.379106137202719 
572	 0.380727572791459 
573	 0.382477508576915 
574	 0.384177438349553 
575	 0.385632301907695 
576	 0.387105626916413 
577	 0.388518517664426 
578	 0.38989539172178 
579	 0.391394969235494 
580	 0.392836165779126 
581	 0.39427088872116 
582	 0.395756638967232 
583	 0.397189644394535 
584	 0.398612790968183 
585	 0.400002543307681 
586	 0.401304976765699 
587	 0.402565760322198 
588	 0.403647794268942 
589	 0.404632396840484 
590	 0.405993693496553 
591	 0.407099644790438 
592	 0.408134388024566 
593	 0.409389899788273 
594	 0.41048000444322 
595	 0.411430282297269 
596	 0.412316890344991 
597	 0.413235154703749 
598	 0.414030390468853 
599	 0.414731028475261 
600	 0.415413791953209 
601	 0.416193581033968 
602	 0.41690062796741 
603	 0.417538733688828 
604	 0.418190140917471 
605	 0.418926749333718 
606	 0.419539930051148 
607	 0.42001467786063 
608	 0.420596368223892 
609	 0.421109806729486 
610	 0.42157268089552 
611	 0.422031108984691 
612	 0.422450151056865 
613	 0.422957146719208 
614	 0.423501277774397 
615	 0.423929269239568 
616	 0.424308222861194 
617	 0.424683817171763 
618	 0.425070339905172 
619	 0.425431723757929 
620	 0.425797413462006 
621	 0.426147763917379 
622	 0.426461236599368 
623	 0.426781844076772 
624	 0.427118929709657 
625	 0.427486317615112 
626	 0.427894605769424 
627	 0.428196722617466 
628	 0.428383114115968 
629	 0.428540742407953 
630	 0.428932151715204 
631	 0.429272340557913 
632	 0.42949990870706 
633	 0.42967833478795 
634	 0.429973687301894 
635	 0.430270803790283 
636	 0.430495265626981 
637	 0.430655811922449 
638	 0.430877730136691 
639	 0.431173558475218 
640	 0.431488621785165 
641	 0.431657438600014 
642	 0.431877546685895 
643	 0.432142876544992 
644	 0.432330494158545 
645	 0.432498792999622 
646	 0.432716934805351 
647	 0.432966698120084 
648	 0.433084326533581 
649	 0.433225582556728 
650	 0.433401258451321 
651	 0.43358149752639 
652	 0.433765586313372 
653	 0.433942462454188 
654	 0.434108990073955 
655	 0.434268410716175 
656	 0.434423777045992 
657	 0.434553478481643 
658	 0.43465634469321 
659	 0.434785741489327 
660	 0.434861522924536 
661	 0.434942995536003 
662	 0.435115542381723 
663	 0.435316450655399 
664	 0.435444951350681 
665	 0.435514508457736 
666	 0.435649455717114 
667	 0.435781937609863 
668	 0.435907108991348 
669	 0.436008191104445 
670	 0.43598964547452 
671	 0.436080648027162 
672	 0.436224112269677 
673	 0.436260684437508 
674	 0.436312324312811 
675	 0.436457235593077 
676	 0.436652145328243 
677	 0.43671887125849 
678	 0.436686813099271 
679	 0.436637056884748 
680	 0.436658327865104 
681	 0.436834943404336 
682	 0.43690354841899 
683	 0.436904706830139 
684	 0.437011101947314 
685	 0.436948932091766 
686	 0.436993478198963 
687	 0.437184292907447 
688	 0.437160296353765 
689	 0.437188009088433 
690	 0.437242309133233 
691	 0.437262424698993 
692	 0.437332356863071 
693	 0.437406578409298 
694	 0.437424244467619 
695	 0.437346346446686 
696	 0.437405204280093 
697	 0.437498276210986 
698	 0.437532874094337 
699	 0.437495544563043 
700	 0.437539014556134 
701	 0.437570621909445 
702	 0.437512600398728 
703	 0.43764378638818 
704	 0.43765855561514 
705	 0.437590300495752 
706	 0.437680531667877 
707	 0.437664479030961 
708	 0.437661144244697 
709	 0.437731802152822 
710	 0.437764273165412 
711	 0.437719172622807 
712	 0.437698645092695 
713	 0.437785970714839 
714	 0.437811218017003 
715	 0.437790200938145 
716	 0.437779352559294 
717	 0.437841550990526 
718	 0.43780167277807 
719	 0.437794969467773 
720	 0.437871114883254 
721	 0.437864419754091 
722	 0.43788724559392 
723	 0.437923066004159 
724	 0.437925381171932 
725	 0.437877258996618 
726	 0.437862216824807 
727	 0.437927063991441 
728	 0.43806393106555 
729	 0.438038888385246 
730	 0.437957914243927 
731	 0.437925603012091 
732	 0.4379630986138 
733	 0.43804305691267 
734	 0.438106623675908 
735	 0.43811291755714 
736	 0.438116054390778 
737	 0.438135666590269 
738	 0.438163004499687 
739	 0.438172024407637 
740	 0.43816543174282 
741	 0.438177587920532 
742	 0.438215226769431 
743	 0.438239956892589 
744	 0.438235461684235 
745	 0.438232228519189 
746	 0.438260688091765 
747	 0.438308954801823 
748	 0.438317510838733 
749	 0.438312060186968 
750	 0.438358179320749 
751	 0.438404417888248 
752	 0.438470828230413 
753	 0.438546435092122 
754	 0.43857427876258 
755	 0.438607094775398 
756	 0.438709937850528 
757	 0.438878738529725 
758	 0.438911354502147 
759	 0.438938091445774 
760	 0.43900376679098 
761	 0.439096793609967 
762	 0.439116442094882 
763	 0.439196303972767 
764	 0.439354430943763 
765	 0.439471526103568 
766	 0.439568912552095 
767	 0.439659736731572 
768	 0.439743870278077 
769	 0.439780881808681 
770	 0.439877584223363 
771	 0.440007323797463 
772	 0.440106785717959 
773	 0.440210143978299 
774	 0.440277190196246 
775	 0.440327451018964 
776	 0.44042503798375 
777	 0.44053451369684 
778	 0.440658414888954 
779	 0.440790953335732 
780	 0.440903236389131 
781	 0.441059028850079 
782	 0.441205426879517 
783	 0.44127935132261 
784	 0.441288201322296 
785	 0.441407463010067 
786	 0.441582297266215 
787	 0.441648703903307 
788	 0.441724206430415 
789	 0.441827782585348 
790	 0.441952619159352 
791	 0.442070899260485 
792	 0.442112719776862 
793	 0.442158838719064 
794	 0.442269947052854 
795	 0.442379005195298 
796	 0.442512363479934 
797	 0.442643367889386 
798	 0.442736797868572 
799	 0.442807260418592 
800	 0.442888798729429 
801	 0.443001394252869 
802	 0.443144171714472 
803	 0.443249465919765 
804	 0.443309125991363 
805	 0.443364260396236 
806	 0.443510964358809 
807	 0.443589690394461 
808	 0.443662931571393 
809	 0.443809974144127 
810	 0.443998193543837 
811	 0.444111616990104 
812	 0.444143916591368 
813	 0.444158140199437 
814	 0.444260867734951 
815	 0.444337783559629 
816	 0.444373498897281 
817	 0.444448891398718 
818	 0.44454437884764 
819	 0.444644438069614 
820	 0.444708314863004 
821	 0.44465582955476 
822	 0.444684654831779 
823	 0.444808880005617 
824	 0.444960293539856 
825	 0.445001063454043 
826	 0.4450018018683 
827	 0.445024098147368 
828	 0.445095317676363 
829	 0.445076235535387 
830	 0.445075430776841 
831	 0.445128417356142 
832	 0.445186525583878 
833	 0.445170172471534 
834	 0.445124427754987 
835	 0.445112785199044 
836	 0.445191192935531 
837	 0.44524117866611 
838	 0.445272564263894 
839	 0.44529707366926 
840	 0.445219896359563 
841	 0.445244604380564 
842	 0.445312249860869 
843	 0.445292818364198 
844	 0.445296663953716 
845	 0.445263460896905 
846	 0.445217756573236 
847	 0.445240596045427 
848	 0.445307692943155 
849	 0.445300038529907 
850	 0.445225808589566 
851	 0.445252389156238 
852	 0.445189486536998 
853	 0.445137923567284 
854	 0.445183545401398 
855	 0.445258753646822 
856	 0.445297161302576 
857	 0.445314028408782 
858	 0.445336689143144 
859	 0.445323298583449 
860	 0.445277163376275 
861	 0.445226494291039 
862	 0.445194539171629 
863	 0.44508959417095 
864	 0.445031622789849 
865	 0.445050020933347 
866	 0.445077779316747 
867	 0.445052851323719 
868	 0.444968094889047 
869	 0.444881326764752 
870	 0.44491373478731 
871	 0.444949652839639 
872	 0.444868714124596 
873	 0.444689484295739 
874	 0.444728996511659 
875	 0.444698731115484 
876	 0.444619391556034 
877	 0.444568275553903 
878	 0.444451572928441 
879	 0.444423347970746 
880	 0.44438847695847 
881	 0.444203648112754 
882	 0.444168449328649 
883	 0.444120890304862 
884	 0.444035002150654 
885	 0.444004180411704 
886	 0.444046802598838 
887	 0.443997094550782 
888	 0.443861612650435 
889	 0.443848210993654 
890	 0.443772675064912 
891	 0.443647229529884 
892	 0.443524544057123 
893	 0.443460807985707 
894	 0.443453742028283 
895	 0.443424585042812 
896	 0.443329338301806 
897	 0.443265764584203 
898	 0.443152837658066 
899	 0.443064208047386 
900	 0.443078435533489 
901	 0.443090148458913 
902	 0.443137300946842 
903	 0.443189907933288 
904	 0.443185031514755 
905	 0.443070799171702 
906	 0.443009346091183 
907	 0.442990299470103 
908	 0.442899240864128 
909	 0.44291803680615 
910	 0.442896509144997 
911	 0.442802580348163 
912	 0.442753710828193 
913	 0.442785175563304 
914	 0.442796094677631 
915	 0.442770265097431 
916	 0.44282620675375 
917	 0.442765922862813 
918	 0.442717320460525 
919	 0.442740791431392 
920	 0.442650773519023 
921	 0.442677553908622 
922	 0.442763947954794 
923	 0.442780081724972 
924	 0.442603294440625 
925	 0.44258207196904 
926	 0.442670896249425 
927	 0.442707133385171 
928	 0.442621591163395 
929	 0.442611035540133 
930	 0.442636138569281 
931	 0.442592937707288 
932	 0.442571895892102 
933	 0.442609182880269 
934	 0.442689643727495 
935	 0.442747775104421 
936	 0.442601186149475 
937	 0.442713268817777 
938	 0.442909190781121 
939	 0.44270678564411 
940	 0.442881827270259 
941	 0.443000013021513 
942	 0.442922130126669 
943	 0.44285543511992 
944	 0.442855423595043 
945	 0.442843939220733 
946	 0.442822711535017 
947	 0.442885403445701 
948	 0.442975919766373 
949	 0.443058837726882 
950	 0.443091820557503 
951	 0.443036731818364 
952	 0.443063875882044 
953	 0.443130496458733 
954	 0.443150322462229 
955	 0.443054573022871 
956	 0.443260143365229 
957	 0.443317826720237 
958	 0.443073292406574 
959	 0.443161317461652 
960	 0.443338717204518 
961	 0.443413019281882 
962	 0.443344737603769 
963	 0.443375193037465 
964	 0.443322695650272 
965	 0.44325866250626 
966	 0.443280163041415 
967	 0.443394972041865 
968	 0.443418242355152 
969	 0.443402851985955 
970	 0.443440775046391 
971	 0.443527761396617 
972	 0.443643749069881 
973	 0.443684598523406 
974	 0.443604757797711 
975	 0.443561783095757 
976	 0.443720322508929 
977	 0.443889553762974 
978	 0.443873795502277 
979	 0.443855323365057 
980	 0.443729778205007 
981	 0.443644561872431 
982	 0.443737507504738 
983	 0.443866972159669 
984	 0.443886645664041 
985	 0.443807996690076 
986	 0.443742959400227 
987	 0.443891573093129 
988	 0.444008086165875 
989	 0.443986511745632 
990	 0.443875439782636 
991	 0.444037846744872 
992	 0.443910476717195 
993	 0.443733523523764 
994	 0.443879336794337 
995	 0.444118641123451 
996	 0.444160472462038 
997	 0.444173837821139 
998	 0.444317401489015 
999	 0.44408695137876 
1000	 0.443955771624687 
1001	 0.439279402833891 
1002	 0.43918653160759 
1003	 0.439159684824413 
1004	 0.439176507034829 
1005	 0.439379702998698 
1006	 0.439360791568967 
1007	 0.439224183354822 
1008	 0.439137246868506 
1009	 0.438927000793821 
1010	 0.438869655902448 
1011	 0.43893661829101 
1012	 0.438952099477652 
1013	 0.439054704281773 
1014	 0.439054687368632 
1015	 0.439012390131352 
1016	 0.438868328156295 
1017	 0.438774965584568 
1018	 0.438743416156356 
1019	 0.438641195241395 
1020	 0.438644742381283 
1021	 0.438619749665954 
1022	 0.438546207856241 
1023	 0.438535464313319 
1024	 0.438600647353094 
1025	 0.438588950827311 
1026	 0.438554633891456 
1027	 0.438532447741504 
1028	 0.438458365997011 
1029	 0.43847553944133 
1030	 0.438509705555326 
1031	 0.438538483898504 
1032	 0.438597376323126 
1033	 0.438581407818065 
1034	 0.438595063777164 
1035	 0.438622959146263 
1036	 0.438607871113427 
1037	 0.438569456728765 
1038	 0.438612002781486 
1039	 0.438641267489207 
1040	 0.43867237220632 
1041	 0.438763258132788 
1042	 0.438824881952412 
1043	 0.438834869992152 
1044	 0.4389395335861 
1045	 0.439016055816402 
1046	 0.438984678000278 
1047	 0.43891128841733 
1048	 0.438832069825756 
1049	 0.438803021569425 
1050	 0.438830014136119 
1051	 0.438798270929662 
1052	 0.438791124136823 
1053	 0.4387524615332 
1054	 0.438610607971618 
1055	 0.438595928147972 
1056	 0.438692652590472 
1057	 0.438649493052216 
1058	 0.43857434203511 
1059	 0.438555593200994 
1060	 0.438447033970364 
1061	 0.438384004930675 
1062	 0.438396232970291 
1063	 0.438326505534596 
1064	 0.438262166114225 
1065	 0.438193466090259 
1066	 0.438142410937981 
1067	 0.438185553866235 
1068	 0.438109131781418 
1069	 0.437977674156871 
1070	 0.437918086783698 
1071	 0.437882688709173 
1072	 0.437750086707524 
1073	 0.437656627549845 
1074	 0.437671956917628 
1075	 0.437556234947765 
1076	 0.43748041147593 
1077	 0.437526613868172 
1078	 0.437436395283523 
1079	 0.43732672114374 
1080	 0.437334150819584 
1081	 0.437274515149662 
1082	 0.437164906438673 
1083	 0.43713191735964 
1084	 0.437093468829071 
1085	 0.436990798951734 
1086	 0.436902359030403 
1087	 0.436852620317432 
1088	 0.436815880273886 
1089	 0.436704103792321 
1090	 0.436686023567265 
1091	 0.436768864419237 
1092	 0.436752764270113 
1093	 0.436710657225233 
1094	 0.436628357806542 
1095	 0.436483019237595 
1096	 0.436430568687825 
1097	 0.436416590560112 
1098	 0.436441002512086 
1099	 0.436538911298382 
1100	 0.436558527459849 
1101	 0.436532603423397 
1102	 0.436493847948649 
1103	 0.436479923393084 
1104	 0.436444061042135 
1105	 0.436423788852857 
1106	 0.436433849177859 
1107	 0.436504182130858 
1108	 0.436516084889664 
1109	 0.436551419270306 
1110	 0.436582349048548 
1111	 0.436573883471022 
1112	 0.436595640167847 
1113	 0.436624284739644 
1114	 0.4367394378164 
1115	 0.436847894198595 
1116	 0.43689356340616 
1117	 0.436971589979284 
1118	 0.437024042154669 
1119	 0.437021883763304 
1120	 0.437060679672911 
1121	 0.437117792725504 
1122	 0.437162095293914 
1123	 0.437253590527711 
1124	 0.437374013922795 
1125	 0.437504797838969 
1126	 0.437626631541733 
1127	 0.437707118083941 
1128	 0.437702124725311 
1129	 0.437691433244636 
1130	 0.437764556499614 
1131	 0.43784238875603 
1132	 0.437938707167821 
1133	 0.438019225353619 
1134	 0.438040496162949 
1135	 0.438102752782696 
1136	 0.438163613007522 
1137	 0.438224709700739 
1138	 0.438335661560432 
1139	 0.438392033557413 
1140	 0.438410070551365 
1141	 0.438401007552615 
1142	 0.438436144814934 
1143	 0.438492493601442 
1144	 0.438501860072384 
1145	 0.438485261069039 
1146	 0.438468052299587 
1147	 0.43840054250188 
1148	 0.438308918080841 
1149	 0.438291553485743 
1150	 0.438325343666298 
1151	 0.438337300036979 
1152	 0.438340800364656 
1153	 0.438399359104186 
1154	 0.438403712002842 
1155	 0.438346899590476 
1156	 0.43830428706607 
1157	 0.438272290441546 
1158	 0.438221095030917 
1159	 0.43814692731154 
1160	 0.438072481106739 
1161	 0.437985324846704 
1162	 0.437895397075677 
1163	 0.437819545930465 
1164	 0.437759193599849 
1165	 0.437705977687482 
1166	 0.437635906715811 
1167	 0.437537116684668 
1168	 0.437433645301838 
1169	 0.437350075097109 
1170	 0.437276677740789 
1171	 0.437206539334903 
1172	 0.437158599834942 
1173	 0.437079003399318 
1174	 0.437000747520699 
1175	 0.436900848379429 
1176	 0.436760237421889 
1177	 0.43664648124468 
1178	 0.436552578152868 
1179	 0.436410489087951 
1180	 0.436277344709849 
1181	 0.436188358984115 
1182	 0.436041117307983 
1183	 0.435890752934426 
1184	 0.43575129234688 
1185	 0.435545873704456 
1186	 0.435376771617812 
1187	 0.435201068265421 
1188	 0.43505711937141 
1189	 0.43492374355871 
1190	 0.434814798083343 
1191	 0.4347302362856 
1192	 0.43465159215277 
1193	 0.434607376698549 
1194	 0.43454236862201 
1195	 0.434479767706863 
1196	 0.434409227126063 
1197	 0.434325783791401 
1198	 0.434234959757131 
1199	 0.434155606779042 
1200	 0.434095267955595 
1201	 0.434071052310682 
1202	 0.434061444626163 
1203	 0.434088672450078 
1204	 0.434144950526459 
1205	 0.434201733196979 
1206	 0.434273819172286 
1207	 0.434356073677155 
1208	 0.434437654667592 
1209	 0.434554309056207 
1210	 0.434669719468344 
1211	 0.434849267593589 
1212	 0.435058053293494 
1213	 0.435326353622878 
1214	 0.435666219319864 
1215	 0.436017969682953 
1216	 0.436395959384312 
1217	 0.436823369472245 
1218	 0.437291583359563 
1219	 0.4377896403513 
1220	 0.438332150827224 
1221	 0.438883719891291 
1222	 0.439389593727053 
1223	 0.439925493288651 
1224	 0.440433389629288 
1225	 0.440925094422088 
1226	 0.441404241786981 
1227	 0.441873088478748 
1228	 0.44233531533846 
1229	 0.442801158788667 
1230	 0.443233348521794 
1231	 0.443641915551545 
1232	 0.44405013361605 
1233	 0.444461670191877 
1234	 0.444808684838317 
1235	 0.445113910529536 
1236	 0.445424298638132 
1237	 0.445674017875793 
1238	 0.445948239395552 
1239	 0.446236854813978 
1240	 0.446545181114075 
1241	 0.446842706808222 
1242	 0.447087500256206 
1243	 0.447331726733894 
1244	 0.44755874320302 
1245	 0.447796895193998 
1246	 0.448024168775846 
1247	 0.448243338300303 
1248	 0.448471804240682 
1249	 0.448684416660332 
1250	 0.448858656018174 
1251	 0.449068593870966 
1252	 0.449292732217281 
1253	 0.449521180927723 
1254	 0.449781537538262 
1255	 0.450006159594757 
1256	 0.450206902210419 
1257	 0.450426514974058 
1258	 0.450647354030274 
1259	 0.450852046753383 
1260	 0.451055365447332 
1261	 0.451267907108383 
1262	 0.451452767696608 
1263	 0.451661772440965 
1264	 0.451884509616144 
1265	 0.452143584409897 
1266	 0.452366651037113 
1267	 0.452594699366486 
1268	 0.45279022684048 
1269	 0.452949918216524 
1270	 0.453140211695531 
1271	 0.453324918072759 
1272	 0.453511703783784 
1273	 0.453728696431899 
1274	 0.453907919386863 
1275	 0.454064036576379 
1276	 0.454216220606375 
1277	 0.454356499062431 
1278	 0.454485834184258 
1279	 0.454590875367459 
1280	 0.454712295426826 
1281	 0.454818629872584 
1282	 0.454946523639052 
1283	 0.455123121979576 
1284	 0.455255430360935 
1285	 0.455373214906961 
1286	 0.45549031131365 
1287	 0.455581572372801 
1288	 0.455629026348851 
1289	 0.455709227076963 
1290	 0.45579783379322 
1291	 0.455871094049743 
1292	 0.455947890964678 
1293	 0.456008868715049 
1294	 0.456037696321557 
1295	 0.456104089345075 
1296	 0.456189828616933 
1297	 0.456258049634722 
1298	 0.456347687828331 
1299	 0.45640839803247 
1300	 0.456409901168387 
1301	 0.456473492932218 
1302	 0.456560730014299 
1303	 0.456649649783213 
1304	 0.456788813510004 
1305	 0.456897074776321 
1306	 0.456982236058088 
1307	 0.457073887994833 
1308	 0.457150415617802 
1309	 0.457253808711499 
1310	 0.457323997239669 
1311	 0.457383048641758 
1312	 0.457454866557569 
1313	 0.4575036124012 
1314	 0.457594411604594 
1315	 0.457705870992954 
1316	 0.457831212607145 
1317	 0.457995604906615 
1318	 0.458118802350541 
1319	 0.458225087118102 
1320	 0.458361277544523 
1321	 0.458493735231874 
1322	 0.458625606668709 
1323	 0.458784972681053 
1324	 0.45893118468695 
1325	 0.45905432681285 
1326	 0.459190991515264 
1327	 0.459340237494362 
1328	 0.459489544254375 
1329	 0.459635281339833 
1330	 0.459783092569791 
1331	 0.459931908080761 
1332	 0.460091862591049 
1333	 0.460265449599265 
1334	 0.460436350555054 
1335	 0.460574597231606 
1336	 0.460694645109916 
1337	 0.460855786378179 
1338	 0.461015514132128 
1339	 0.461153972028385 
1340	 0.461323772764606 
1341	 0.461458189472546 
1342	 0.461553154018423 
1343	 0.46164337722566 
1344	 0.461733613125951 
1345	 0.461818829852214 
1346	 0.461871777549229 
1347	 0.461937427129508 
1348	 0.462027258118594 
1349	 0.462092360004054 
1350	 0.46211258775134 
1351	 0.46218143339848 
1352	 0.462290725187518 
1353	 0.4623600464621 
1354	 0.462451204004761 
1355	 0.462505477854368 
1356	 0.46250122945919 
1357	 0.462516918707473 
1358	 0.462538495271422 
1359	 0.462545074456048 
1360	 0.462533934644078 
1361	 0.462544822839376 
1362	 0.46254947896739 
1363	 0.462515377174637 
1364	 0.462458900751202 
1365	 0.462374589845785 
1366	 0.462313152602275 
1367	 0.462243455071898 
1368	 0.462145204283565 
1369	 0.462065427104036 
1370	 0.461936396386625 
1371	 0.461751425897487 
1372	 0.461578555064125 
1373	 0.461400767719817 
1374	 0.461210322010503 
1375	 0.460984423775807 
1376	 0.460788303671634 
1377	 0.460630468199939 
1378	 0.460403772121342 
1379	 0.460158850308061 
1380	 0.459903370108424 
1381	 0.459595038649952 
1382	 0.459291580194854 
1383	 0.458981044155519 
1384	 0.458680462869543 
1385	 0.458379618897031 
1386	 0.458065746634907 
1387	 0.457732643585876 
1388	 0.457443013291477 
1389	 0.45712608060062 
1390	 0.456869476637543 
1391	 0.456687912778805 
1392	 0.456512353754706 
1393	 0.45634046049784 
1394	 0.456201891380053 
1395	 0.456066981693659 
1396	 0.455955442529346 
1397	 0.455810829620617 
1398	 0.455689888471728 
1399	 0.455500336504713 
1400	 0.455285814802967 
1401	 0.455008776324116 
1402	 0.454711215669035 
1403	 0.454309748417523 
1404	 0.45382558082573 
1405	 0.453311034515766 
1406	 0.45270306688528 
1407	 0.452112770099412 
1408	 0.451497272334506 
1409	 0.450868303507127 
1410	 0.450209758080624 
1411	 0.449560000356291 
1412	 0.448873031478181 
1413	 0.448241413411123 
1414	 0.44760982249596 
1415	 0.447037791593185 
1416	 0.446525213850899 
1417	 0.446016509042687 
1418	 0.445532303953582 
1419	 0.445077962111878 
1420	 0.444654925564619 
1421	 0.444236088967184 
1422	 0.443864050921309 
1423	 0.443471311954382 
1424	 0.443070242768513 
1425	 0.442660499278793 
1426	 0.442258297477688 
1427	 0.441868663034827 
1428	 0.441505152916287 
1429	 0.441184375525028 
1430	 0.440851412044079 
1431	 0.44053981381212 
1432	 0.440222332453906 
1433	 0.439913858135451 
1434	 0.439571149126768 
1435	 0.439220992347659 
1436	 0.438865075217969 
1437	 0.438474908445172 
1438	 0.438115540413441 
1439	 0.43777336910772 
1440	 0.437425028313223 
1441	 0.437043720351327 
1442	 0.436742144927645 
1443	 0.436440779177981 
1444	 0.436233288190068 
1445	 0.436082941823144 
1446	 0.43601795720006 
1447	 0.436017265649513 
1448	 0.436099403497147 
1449	 0.436260697670224 
1450	 0.436507417965696 
1451	 0.436818977917829 
1452	 0.437238210159502 
1453	 0.437827846094051 
1454	 0.438364194164167 
1455	 0.438976955158 
1456	 0.439562034621256 
1457	 0.440109203018708 
1458	 0.440688688385129 
1459	 0.441315050643113 
1460	 0.441907836297642 
1461	 0.442488902190132 
1462	 0.443068330488442 
1463	 0.443624084553238 
1464	 0.444191135688254 
1465	 0.444768852502113 
1466	 0.445357795474305 
1467	 0.445887195387995 
1468	 0.44640704907561 
1469	 0.446919287760207 
1470	 0.447377004833178 
1471	 0.447871328546587 
1472	 0.448385820006444 
1473	 0.448870507498841 
1474	 0.449345119388607 
1475	 0.449817144745744 
1476	 0.450285264750674 
1477	 0.45072704769997 
1478	 0.451161084560828 
1479	 0.451572465229854 
1480	 0.451966890629294 
1481	 0.452321365746229 
1482	 0.452663641894033 
1483	 0.452957927927513 
1484	 0.453188299290824 
1485	 0.453437160550296 
1486	 0.453645410766838 
1487	 0.4538955660823 
1488	 0.454156177929639 
1489	 0.454427387433849 
1490	 0.45471516412463 
1491	 0.455015759029997 
1492	 0.455303473934129 
1493	 0.455649667740525 
1494	 0.456042454042088 
1495	 0.456435693314595 
1496	 0.456865651912732 
1497	 0.457297245698647 
1498	 0.457739942104077 
1499	 0.458180092407789 
1500	 0.458637567458959 
1501	 0.459085919691619 
1502	 0.459514038626513 
1503	 0.459963667727841 
1504	 0.460466725615268 
1505	 0.460899076290116 
1506	 0.461306261095634 
1507	 0.461700749862735 
1508	 0.462041678871934 
1509	 0.462379611795756 
1510	 0.462717778710682 
1511	 0.463040712497641 
1512	 0.463339074573171 
1513	 0.463630748350057 
1514	 0.463946414588768 
1515	 0.464204992756225 
1516	 0.464414192789214 
1517	 0.464617252061194 
1518	 0.464775223825718 
1519	 0.464932806057629 
1520	 0.465082439677913 
1521	 0.465232228859868 
1522	 0.465382788925851 
1523	 0.465521772935172 
1524	 0.465660420168095 
1525	 0.465810479790649 
1526	 0.465930700938642 
1527	 0.466037498549709 
1528	 0.466117870366897 
1529	 0.46615917124229 
1530	 0.466256713706031 
1531	 0.466347683364671 
1532	 0.466471891353499 
1533	 0.466656404861504 
1534	 0.466783891246891 
1535	 0.466897607148879 
1536	 0.467003727380044 
1537	 0.467082279171915 
1538	 0.467192460970849 
1539	 0.467288974066971 
1540	 0.467446022259531 
1541	 0.467645672386034 
1542	 0.467837860675079 
1543	 0.468043153697923 
1544	 0.468293807754284 
1545	 0.468564827630834 
1546	 0.468847191795885 
1547	 0.469203295925757 
1548	 0.46948870687655 
1549	 0.469728195652717 
1550	 0.470005478426187 
1551	 0.470274009792068 
1552	 0.470561011892305 
1553	 0.470875664130401 
1554	 0.471180933402519 
1555	 0.471495352725846 
1556	 0.471788464944183 
1557	 0.472064354142378 
1558	 0.472364811807691 
1559	 0.472667040265846 
1560	 0.472961816933802 
1561	 0.473278920187125 
1562	 0.473575067241161 
1563	 0.473838745992457 
1564	 0.474124664645066 
1565	 0.474427725287966 
1566	 0.474713797107678 
1567	 0.474981396922428 
1568	 0.475278463236678 
1569	 0.475588486577904 
1570	 0.475888755149713 
1571	 0.476214444310271 
1572	 0.476514216897353 
1573	 0.476782234142658 
1574	 0.477068187247698 
1575	 0.477372629622679 
1576	 0.477645380327477 
1577	 0.477916607176652 
1578	 0.478161762001669 
1579	 0.478363993513669 
1580	 0.478582074451882 
1581	 0.478769163526422 
1582	 0.479005147805964 
1583	 0.479277403374293 
1584	 0.479535726910422 
1585	 0.479807984620921 
1586	 0.480093000975468 
1587	 0.480381634607972 
1588	 0.480663390756365 
1589	 0.480975748933734 
1590	 0.481257692097278 
1591	 0.48150149934613 
1592	 0.481764008883071 
1593	 0.482026504064213 
1594	 0.482292357839293 
1595	 0.482591175017449 
1596	 0.482838068005729 
1597	 0.483037488956616 
1598	 0.483267901991716 
1599	 0.48348581600502 
1600	 0.483703485962032 
1601	 0.483935346353552 
1602	 0.484178882933532 
1603	 0.484412955117186 
1604	 0.484652500112585 
1605	 0.484930877990789 
1606	 0.485179255627713 
1607	 0.485405838827496 
1608	 0.485632228035199 
1609	 0.485837345091682 
1610	 0.486062937010035 
1611	 0.48631068937228 
1612	 0.486527537444788 
1613	 0.486755456864374 
1614	 0.486952444708743 
1615	 0.487094062226741 
1616	 0.487261332607846 
1617	 0.487450206024384 
1618	 0.487595475798873 
1619	 0.487713990754453 
1620	 0.487847972699116 
1621	 0.487944897189243 
1622	 0.488071107686761 
1623	 0.488252211274594 
1624	 0.488386977767362 
1625	 0.4884972568475 
1626	 0.488609364048731 
1627	 0.488696667397948 
1628	 0.488797912841467 
1629	 0.488919885139622 
1630	 0.489019216334038 
1631	 0.48908543759682 
1632	 0.48918340639233 
1633	 0.489292174923619 
1634	 0.489401028842882 
1635	 0.489544851296432 
1636	 0.48966475851794 
1637	 0.489774601860381 
1638	 0.489860231964839 
1639	 0.489920128088806 
1640	 0.489992149604826 
1641	 0.490038141333793 
1642	 0.490103974917978 
1643	 0.490192651712927 
1644	 0.490276477281171 
1645	 0.490387330197831 
1646	 0.490456071026039 
1647	 0.49051600507603 
1648	 0.49054354787937 
1649	 0.490541192914397 
1650	 0.490503015346719 
1651	 0.490436752730015 
1652	 0.490339192810111 
1653	 0.49017763196039 
1654	 0.490040437637154 
1655	 0.489902065755198 
1656	 0.489746639374863 
1657	 0.489620442509534 
1658	 0.489417135632169 
1659	 0.489158937114267 
1660	 0.48888829502565 
1661	 0.488587175620317 
1662	 0.488233165513853 
1663	 0.487865519722145 
1664	 0.487423317595277 
1665	 0.4869083973451 
1666	 0.486353559989564 
1667	 0.485757436163846 
1668	 0.485104527196579 
1669	 0.484403820189162 
1670	 0.483627152563302 
1671	 0.482779292542174 
1672	 0.481872400460208 
1673	 0.48090970922453 
1674	 0.479860184329482 
1675	 0.478728989845177 
1676	 0.477575146726479 
1677	 0.476359962433828 
1678	 0.475090479099823 
1679	 0.473764043887292 
1680	 0.47240107712624 
1681	 0.470989734464719 
1682	 0.469487057133883 
1683	 0.4679613288274 
1684	 0.466357805303012 
1685	 0.464663941623852 
1686	 0.462888700710986 
1687	 0.461004597852782 
1688	 0.45911371223662 
1689	 0.457150162446854 
1690	 0.455132260187146 
1691	 0.453121245618793 
1692	 0.451042812775573 
1693	 0.448877360881041 
1694	 0.446681736733876 
1695	 0.444428259917553 
1696	 0.442147678693544 
1697	 0.439814007172351 
1698	 0.437422831576191 
1699	 0.434999698305165 
1700	 0.432598158073288 
1701	 0.430126520656585 
1702	 0.427718874625416 
1703	 0.42529361048156 
1704	 0.423004768390779 
1705	 0.420731456157532 
1706	 0.418581372070654 
1707	 0.416684610470066 
1708	 0.414870890378072 
1709	 0.413178389017206 
1710	 0.411650717191496 
1711	 0.410152055744274 
1712	 0.408824755920108 
1713	 0.407551111460881 
1714	 0.406315946839838 
1715	 0.405213599744455 
1716	 0.40404223645613 
1717	 0.402902286542583 
1718	 0.401846816454229 
1719	 0.400819599751664 
1720	 0.39991173901958 
1721	 0.399086902804886 
1722	 0.398296883290456 
1723	 0.397663546091622 
1724	 0.397150931142344 
1725	 0.396736937208978 
1726	 0.396581605769743 
1727	 0.396581519990848 
1728	 0.396709582522571 
1729	 0.39712080081886 
1730	 0.397769583880407 
1731	 0.398583246518775 
1732	 0.399645853388826 
1733	 0.400845245217736 
1734	 0.402125405488391 
1735	 0.403498867696178 
1736	 0.404893408410739 
1737	 0.406244873738921 
1738	 0.407464968846674 
1739	 0.408451076329668 
1740	 0.409252871106604 
1741	 0.409877895340495 
1742	 0.410295630740949 
1743	 0.410588280236224 
1744	 0.410698388014913 
1745	 0.410722452035495 
1746	 0.41057549283803 
1747	 0.410415148256558 
1748	 0.410093929676232 
1749	 0.409877504781899 
1750	 0.40962370474517 
1751	 0.409461115817339 
1752	 0.40937879873923 
1753	 0.409354530843606 
1754	 0.409353910756505 
1755	 0.409492561983566 
1756	 0.409716129360679 
1757	 0.410013255255165 
1758	 0.410451800216465 
1759	 0.410992461690719 
1760	 0.411674621762238 
1761	 0.41250868357497 
1762	 0.413418044233193 
1763	 0.414518669127391 
1764	 0.415704314405297 
1765	 0.416989623007443 
1766	 0.418550348311816 
1767	 0.420137620269235 
1768	 0.421764538919196 
1769	 0.423496041020431 
1770	 0.425111236853601 
1771	 0.426684484542572 
1772	 0.428217812110473 
1773	 0.42963610837561 
1774	 0.431019495924907 
1775	 0.432277580053917 
1776	 0.433496606314103 
1777	 0.434683134118484 
1778	 0.435700891085134 
1779	 0.436694688773764 
1780	 0.43760834911737 
1781	 0.438398720325745 
1782	 0.439229069643745 
1783	 0.440008281794669 
1784	 0.440721746272979 
1785	 0.441364466330334 
1786	 0.441973495417247 
1787	 0.442565147108581 
1788	 0.443079964335946 
1789	 0.443527595182542 
1790	 0.443956234575662 
1791	 0.444286225129522 
1792	 0.444634236340355 
1793	 0.44499065153771 
1794	 0.445328913887465 
1795	 0.445620084534181 
1796	 0.445913912288554 
1797	 0.446264538948621 
1798	 0.44656165844674 
1799	 0.446968040392027 
1800	 0.447410968605487 
1801	 0.448238450036645 
1802	 0.448611133741672 
1803	 0.448940754108782 
1804	 0.449242805730753 
1805	 0.449511832774634 
1806	 0.449814725357667 
1807	 0.450117737947106 
1808	 0.450433649069464 
1809	 0.450787846261023 
1810	 0.451091389240525 
1811	 0.451357372093273 
1812	 0.45164927939379 
1813	 0.45189073436043 
1814	 0.452229380190144 
1815	 0.452562193104533 
1816	 0.452882220284204 
1817	 0.453247216277443 
1818	 0.453644158396039 
1819	 0.45401541162737 
1820	 0.454417722441786 
1821	 0.454801978013644 
1822	 0.455158256268519 
1823	 0.455519740001899 
1824	 0.455904432482657 
1825	 0.456326729274258 
1826	 0.456726898218282 
1827	 0.457127770830015 
1828	 0.45752349919037 
1829	 0.457920240854158 
1830	 0.458310331903835 
1831	 0.458696996627916 
1832	 0.459095921571028 
1833	 0.45946508900856 
1834	 0.459801992615003 
1835	 0.460110390253634 
1836	 0.460435940182247 
1837	 0.460782418290313 
1838	 0.461149657352171 
1839	 0.461488992650597 
1840	 0.461825620070789 
1841	 0.462170076743487 
1842	 0.462501141913218 
1843	 0.462848306622252 
1844	 0.463185931408029 
1845	 0.463535588602028 
1846	 0.463845822810307 
1847	 0.464079164551888 
1848	 0.464349994362912 
1849	 0.464633348762853 
1850	 0.464885647081751 
1851	 0.465127764588636 
1852	 0.465386789067058 
1853	 0.465579480031288 
1854	 0.465677879133159 
1855	 0.465747383649471 
1856	 0.465786689393602 
1857	 0.465800339545306 
1858	 0.465844464001317 
1859	 0.465817997583598 
1860	 0.465768359767595 
1861	 0.465648953377658 
1862	 0.465475705300129 
1863	 0.465240713203075 
1864	 0.464992508546039 
1865	 0.464760918334585 
1866	 0.46449718755226 
1867	 0.464178211114795 
1868	 0.463838118544675 
1869	 0.463463053291507 
1870	 0.463012338679292 
1871	 0.462545427681944 
1872	 0.461978690373633 
1873	 0.461334952062477 
1874	 0.460593140083583 
1875	 0.45983385945104 
1876	 0.458978989622884 
1877	 0.458098756669847 
1878	 0.457137125644926 
1879	 0.456058873614178 
1880	 0.454967830600504 
1881	 0.453772534355344 
1882	 0.452465967198004 
1883	 0.451163073094743 
1884	 0.449742607039783 
1885	 0.448100485544077 
1886	 0.446480466973238 
1887	 0.444643966993656 
1888	 0.442690328607744 
1889	 0.440857236514031 
1890	 0.43884561871566 
1891	 0.436849164109392 
1892	 0.434877438173071 
1893	 0.432796509979712 
1894	 0.430590205294371 
1895	 0.428467823917963 
1896	 0.426302598646736 
1897	 0.424109494846307 
1898	 0.422145460992464 
1899	 0.420148153241114 
1900	 0.418181184212692 
1901	 0.416372892690612 
1902	 0.414480653980894 
1903	 0.412691785970307 
1904	 0.411010855515236 
1905	 0.409424441134644 
1906	 0.407868037704951 
1907	 0.406497099478476 
1908	 0.405206712437687 
1909	 0.403989588632722 
1910	 0.402867058170755 
1911	 0.401708573346213 
1912	 0.40067526567439 
1913	 0.399718699055199 
1914	 0.398748753449366 
1915	 0.39786236127915 
1916	 0.397091376137708 
1917	 0.396288737565688 
1918	 0.395505414638197 
1919	 0.394827519391794 
1920	 0.394128269296277 
1921	 0.393475753412368 
1922	 0.392848989964235 
1923	 0.392189751658748 
1924	 0.391620051787544 
1925	 0.391073069022951 
1926	 0.39052050753155 
1927	 0.389977893028063 
1928	 0.38947319511077 
1929	 0.388972315363876 
1930	 0.388497689091981 
1931	 0.388091310392806 
1932	 0.387669896154071 
1933	 0.387324584843623 
1934	 0.387056644226867 
1935	 0.386814766027294 
1936	 0.386661096257842 
1937	 0.38655294464954 
1938	 0.386481912525035 
1939	 0.386481626755556 
1940	 0.386534059079399 
1941	 0.386687629197854 
1942	 0.386879050557644 
1943	 0.387112792375253 
1944	 0.387389708922627 
1945	 0.387669475458821 
1946	 0.388025196919699 
1947	 0.388409083978066 
1948	 0.388839933028336 
1949	 0.389345462613221 
1950	 0.389877264479046 
1951	 0.390441167203697 
1952	 0.39106420142728 
1953	 0.391738573771988 
1954	 0.392444045098953 
1955	 0.393244232871197 
1956	 0.394035746908284 
1957	 0.394815471614824 
1958	 0.395607168975531 
1959	 0.396320124990164 
1960	 0.397042167591222 
1961	 0.397735584998984 
1962	 0.398423535442281 
1963	 0.399071110259797 
1964	 0.39967007160096 
1965	 0.40024427476507 
1966	 0.400798036454377 
1967	 0.401334836193996 
1968	 0.401792792479656 
1969	 0.402315491796803 
1970	 0.402774742762438 
1971	 0.403163719057489 
1972	 0.403632177962064 
1973	 0.404045531924951 
1974	 0.404508668297949 
1975	 0.405035598025899 
1976	 0.405533841669086 
1977	 0.406027344126836 
1978	 0.406545837502272 
1979	 0.40707915961801 
1980	 0.40756490289828 
1981	 0.408154136734748 
1982	 0.408686206587178 
1983	 0.409235782205024 
1984	 0.409839276644605 
1985	 0.410367938016723 
1986	 0.410936597008719 
1987	 0.411541710916386 
1988	 0.412146264307666 
1989	 0.412811593191008 
1990	 0.413529533795649 
1991	 0.41426968916984 
1992	 0.41503919039909 
1993	 0.415882793556536 
1994	 0.41667858458344 
1995	 0.417575368226908 
1996	 0.418493471006433 
1997	 0.419379847603019 
1998	 0.420310275880165 
1999	 0.421313989718952 
2000	 0.422223069419293 
2001	 0.423153838615648 
2002	 0.423989258517054 
2003	 0.424737618461032 
2004	 0.425479238969966 
2005	 0.426175616337636 
2006	 0.426842408476759 
2007	 0.427479738952291 
2008	 0.428101909887022 
2009	 0.428676747784395 
2010	 0.429171556307928 
2011	 0.429630079294202 
2012	 0.430092395233407 
2013	 0.430484913775949 
2014	 0.430824304612722 
2015	 0.431139507487737 
2016	 0.431407264944581 
2017	 0.431631527519717 
2018	 0.431817898082098 
2019	 0.43198345509463 
2020	 0.432111921247546 
2021	 0.432214287856766 
2022	 0.432246876059541 
2023	 0.432250007715366 
2024	 0.432211581703059 
2025	 0.432129096548318 
2026	 0.432034163984671 
2027	 0.431916425301676 
2028	 0.431790534300099 
2029	 0.431634098684495 
2030	 0.431469944036304 
2031	 0.431317476054151 
2032	 0.431131508885102 
2033	 0.43089198271094 
2034	 0.430675819368097 
2035	 0.430465053806579 
2036	 0.430222111046014 
2037	 0.430010162719101 
2038	 0.429776673813549 
2039	 0.429563880770916 
2040	 0.429351216941492 
2041	 0.429160781738846 
2042	 0.429008955890732 
2043	 0.428827346849363 
2044	 0.428630291295656 
2045	 0.428437071359091 
2046	 0.428233081350508 
2047	 0.428034424370714 
2048	 0.42783609828939 
2049	 0.427662898347076 
2050	 0.42751095944785 
2051	 0.427325731570516 
2052	 0.427195488255997 
2053	 0.427086032214513 
2054	 0.426970381436949 
2055	 0.426880711756281 
2056	 0.426765139950883 
2057	 0.426638177503427 
2058	 0.426512202816869 
2059	 0.426376011634091 
2060	 0.426242803928825 
2061	 0.426122748024028 
2062	 0.425982042021752 
2063	 0.425819625548364 
2064	 0.425667510153888 
2065	 0.425523985653894 
2066	 0.425344579619145 
2067	 0.425168293272252 
2068	 0.425045567560978 
2069	 0.424912264809104 
2070	 0.424782201095196 
2071	 0.424653693175051 
2072	 0.42453707150692 
2073	 0.424426259710942 
2074	 0.424316686669971 
2075	 0.424210554960538 
2076	 0.424143762712895 
2077	 0.424017430435186 
2078	 0.423829306343233 
2079	 0.423689627877878 
2080	 0.423557988515069 
2081	 0.423416241078966 
2082	 0.423302220683063 
2083	 0.423182489114115 
2084	 0.423029479637988 
2085	 0.422831667922931 
2086	 0.422680382606024 
2087	 0.422541691395905 
2088	 0.422413072331766 
2089	 0.42232444791364 
2090	 0.422191654038486 
2091	 0.422048011065228 
2092	 0.421882260531278 
2093	 0.421673886597155 
2094	 0.421492842155366 
2095	 0.421329599411752 
2096	 0.421145483667359 
2097	 0.421006381949948 
2098	 0.420763317943305 
2099	 0.42053001726252 
2100	 0.420242137696152 
2101	 0.419954978701034 
2102	 0.419628146882873 
2103	 0.419357308143919 
2104	 0.419105151330143 
2105	 0.418819394408424 
2106	 0.418546165518198 
2107	 0.418257991710276 
2108	 0.417951659282372 
2109	 0.417617215332767 
2110	 0.417301020905836 
2111	 0.416925339691912 
2112	 0.416468395234225 
2113	 0.416034158363474 
2114	 0.415561375170977 
2115	 0.415123493285143 
2116	 0.414724173653889 
2117	 0.414301620025506 
2118	 0.413838414578092 
2119	 0.413358380963971 
2120	 0.412902044017194 
2121	 0.412374528771841 
2122	 0.411954290292528 
2123	 0.411612544569097 
2124	 0.411259586372177 
2125	 0.410932306486141 
2126	 0.41062780226325 
2127	 0.410331199042032 
2128	 0.410073358565102 
2129	 0.40984679507041 
2130	 0.409650712622566 
2131	 0.409504789607679 
2132	 0.409357230990382 
2133	 0.409237924365113 
2134	 0.409123533010656 
2135	 0.408972435622587 
2136	 0.408881512623485 
2137	 0.408790226483296 
2138	 0.408701482586889 
2139	 0.408634823537704 
2140	 0.408586943039885 
2141	 0.408564113112022 
2142	 0.40857498485982 
2143	 0.408576372488283 
2144	 0.408612508713353 
2145	 0.408617311283808 
2146	 0.408560726924684 
2147	 0.408586151759897 
2148	 0.408653545783519 
2149	 0.408713568557417 
2150	 0.408802788743949 
2151	 0.408916477270965 
2152	 0.409045125589963 
2153	 0.40917417867185 
2154	 0.409309389782828 
2155	 0.409447528022058 
2156	 0.409536982739236 
2157	 0.409564647389801 
2158	 0.409632383028276 
2159	 0.409728149047018 
2160	 0.409748355736812 
2161	 0.409741865237337 
2162	 0.40971432630661 
2163	 0.409624852658863 
2164	 0.409549271828912 
2165	 0.409478098273098 
2166	 0.409380491547754 
2167	 0.409271585423034 
2168	 0.409135211868176 
2169	 0.408948246946239 
2170	 0.408798465834722 
2171	 0.408680470616717 
2172	 0.408492980307581 
2173	 0.408260031382547 
2174	 0.408059130351616 
2175	 0.407843834396035 
2176	 0.407653420695969 
2177	 0.407506502396429 
2178	 0.407444090355365 
2179	 0.407357171034564 
2180	 0.407272210574111 
2181	 0.407187772101403 
2182	 0.407132856217856 
2183	 0.407048707562132 
2184	 0.406967635267895 
2185	 0.40684173349203 
2186	 0.406707227820254 
2187	 0.40653683127212 
2188	 0.406268961645323 
2189	 0.406073856357429 
2190	 0.405932494043907 
2191	 0.405729724967235 
2192	 0.405539884958607 
2193	 0.405312344036281 
2194	 0.405001572715119 
2195	 0.404714222525487 
2196	 0.40438948167429 
2197	 0.40416298340568 
2198	 0.403902978409918 
2199	 0.403518161660337 
2200	 0.403171521745288 
2201	 0.40282037679015 
2202	 0.402404505067947 
2203	 0.401943773733467 
2204	 0.40152142929049 
2205	 0.401043351935291 
2206	 0.400610945725897 
2207	 0.400277001060336 
2208	 0.399807614244986 
2209	 0.399263874093071 
2210	 0.398754031662238 
2211	 0.398154696808924 
2212	 0.397641828099361 
2213	 0.397219058900795 
2214	 0.396744313281507 
2215	 0.396285703869081 
2216	 0.395799579526143 
2217	 0.395273660125295 
2218	 0.394743673692681 
2219	 0.394214683127353 
2220	 0.393669938488653 
2221	 0.393095349087458 
2222	 0.392542948181724 
2223	 0.391999360022583 
2224	 0.39137277038552 
2225	 0.390791068903753 
2226	 0.390194391279452 
2227	 0.389500615155609 
2228	 0.388801426132785 
2229	 0.387945621766376 
2230	 0.386944205991245 
2231	 0.385952692387283 
2232	 0.384893325046931 
2233	 0.383747161744825 
2234	 0.38263199816713 
2235	 0.381259135815058 
2236	 0.379692268678671 
2237	 0.378087290037306 
2238	 0.376277892803404 
2239	 0.374497016585413 
2240	 0.372747006220233 
2241	 0.370800755333429 
2242	 0.368811034705504 
2243	 0.366599923147907 
2244	 0.364150398394961 
2245	 0.361659230712727 
2246	 0.358865691135454 
2247	 0.356248936864042 
2248	 0.353751835453998 
2249	 0.351079090039721 
2250	 0.348392900953868 
2251	 0.345699028193362 
2252	 0.342654832884421 
2253	 0.339656070020723 
2254	 0.336672573034082 
2255	 0.333722376142907 
2256	 0.330989607615922 
2257	 0.328186374257705 
2258	 0.325539549227219 
2259	 0.323070285453187 
2260	 0.320468690624998 
2261	 0.317855786466138 
2262	 0.315362106351376 
2263	 0.312822683560934 
2264	 0.310394537872117 
2265	 0.308129631839862 
2266	 0.305856663314025 
2267	 0.303635221181694 
2268	 0.301408057762239 
2269	 0.299244155242934 
2270	 0.297082659269513 
2271	 0.29482136062227 
2272	 0.292735309130356 
2273	 0.290807395244014 
2274	 0.288808871693687 
2275	 0.286952102406435 
2276	 0.284961377890523 
2277	 0.282868334520354 
2278	 0.280804067914339 
2279	 0.278660399602919 
2280	 0.276524392707381 
2281	 0.274438896873247 
2282	 0.272270149788479 
2283	 0.270011525841921 
2284	 0.267868528531323 
2285	 0.265502023601761 
2286	 0.263131377286035 
2287	 0.260657079542897 
2288	 0.258056068093473 
2289	 0.255654429432199 
2290	 0.253091320624087 
2291	 0.250560145914028 
2292	 0.248060462941142 
2293	 0.245291899865987 
2294	 0.242573016888812 
2295	 0.239868722980499 
2296	 0.237254528569264 
2297	 0.234966785650634 
2298	 0.232903364452283 
2299	 0.231024732044232 
2300	 0.229367989230294 
2301	 0.228002913146531 
2302	 0.22685177271477 
2303	 0.226053266657707 
2304	 0.225618045740007 
2305	 0.225396692391881 
2306	 0.225411406254733 
2307	 0.22577513633828 
2308	 0.226486004397816 
2309	 0.22745579141626 
2310	 0.228783040580529 
2311	 0.230338156101291 
2312	 0.232239592140103 
2313	 0.234226524328575 
2314	 0.236484952845725 
2315	 0.238853383045641 
2316	 0.241525707024216 
2317	 0.243991050850572 
2318	 0.246664572207948 
2319	 0.248993437871435 
2320	 0.251189756534125 
2321	 0.253032009120271 
2322	 0.254636726478499 
2323	 0.255956936935702 
2324	 0.256891438677252 
2325	 0.257658688209241 
2326	 0.258189108653578 
2327	 0.258511037016899 
2328	 0.258555918857962 
2329	 0.258432051822516 
2330	 0.258047159469265 
2331	 0.257563925147298 
2332	 0.256971249893419 
2333	 0.256226419082146 
2334	 0.255274588205919 
2335	 0.254090893497055 
2336	 0.252645342032456 
2337	 0.25102560302391 
2338	 0.249469466893268 
2339	 0.247810536686798 
2340	 0.24613960435727 
2341	 0.244524186928418 
2342	 0.242808938784484 
2343	 0.241345362125408 
2344	 0.24008973327191 
2345	 0.239056815755558 
2346	 0.238425231639322 
2347	 0.237985939431727 
2348	 0.237826017815155 
2349	 0.23812845773179 
2350	 0.238754582177596 
2351	 0.239829421744648 
2352	 0.241256982487714 
2353	 0.242776121410037 
2354	 0.244381155406591 
2355	 0.246111911741903 
2356	 0.247754658345242 
2357	 0.249254272589815 
2358	 0.250522135308153 
2359	 0.251488048001751 
2360	 0.252347964084388 
2361	 0.252960199725545 
2362	 0.253488964589538 
2363	 0.253864967056734 
2364	 0.253936221760679 
2365	 0.253911858441225 
2366	 0.253826119357216 
2367	 0.253686149504957 
2368	 0.253559128843373 
2369	 0.253511769292539 
2370	 0.253379625356432 
2371	 0.25324703269626 
2372	 0.253305969159422 
2373	 0.253295072094014 
2374	 0.253316948273513 
2375	 0.253431926496544 
2376	 0.253344227945541 
2377	 0.253217258771654 
2378	 0.253208718524575 
2379	 0.253178585945635 
2380	 0.253040043693348 
2381	 0.253030027222421 
2382	 0.253134520300363 
2383	 0.253343581960581 
2384	 0.253428415138064 
2385	 0.253583159261033 
2386	 0.253667228812392 
2387	 0.25354621793545 
2388	 0.253699106688928 
2389	 0.254062532413408 
2390	 0.254370510138672 
2391	 0.254800116226474 
2392	 0.255006142501449 
2393	 0.255069362083228 
2394	 0.255289007992213 
2395	 0.255373353451796 
2396	 0.255681789563595 
2397	 0.256349620212393 
2398	 0.25662702347367 
2399	 0.256864440908081 
2400	 0.256949601926981 
2401	 0.256674115156064 
2402	 0.256707182898429 
2403	 0.256773894576128 
2404	 0.256978287162508 
2405	 0.257128866477035 
2406	 0.257087146341744 
2407	 0.256934977378156 
2408	 0.256949286249611 
2409	 0.256942292757825 
2410	 0.256902004201581 
2411	 0.256989211383697 
2412	 0.257344592332161 
2413	 0.257800932652282 
2414	 0.25810224200442 
2415	 0.258501537564764 
2416	 0.258484434257015 
2417	 0.258220858547539 
2418	 0.258081878697499 
2419	 0.257997359283949 
2420	 0.258125129725407 
2421	 0.258162624422885 
2422	 0.258358512957902 
2423	 0.258576510044335 
2424	 0.258751066534025 
2425	 0.259129873154879 
2426	 0.259191493439715 
2427	 0.259398247591149 
2428	 0.259645823033334 
2429	 0.259186037603025 
2430	 0.258881507335462 
2431	 0.258934981672835 
2432	 0.258703134120112 
2433	 0.258805287792883 
2434	 0.259067252499058 
2435	 0.258860453821568 
2436	 0.258958864802993 
2437	 0.259087265299658 
2438	 0.259177335190185 
2439	 0.259698069593938 
2440	 0.259858878327189 
2441	 0.259682508477406 
2442	 0.259544381461629 
2443	 0.259306622444966 
2444	 0.258931379711285 
2445	 0.258750178312887 
2446	 0.259314141182926 
2447	 0.259704659602251 
2448	 0.259516056267051 
2449	 0.259720885247643 
2450	 0.259461026506355 
2451	 0.258537069339143 
2452	 0.258237777412077 
2453	 0.258150493561921 
2454	 0.25795372441786 
2455	 0.258039536150694 
2456	 0.2580417787915 
2457	 0.257826156480199 
2458	 0.257630816284061 
2459	 0.257349163416651 
2460	 0.25722012736522 
2461	 0.257267860743664 
2462	 0.256898595748885 
2463	 0.256407976229531 
2464	 0.256011896723847 
2465	 0.255742337242552 
2466	 0.25578819752028 
2467	 0.255787857908777 
2468	 0.255715955896161 
2469	 0.255758202463619 
2470	 0.255937572435535 
2471	 0.256113246344285 
2472	 0.256336286057369 
2473	 0.256330343072654 
2474	 0.255950316276075 
2475	 0.256039104044884 
2476	 0.25655016968457 
2477	 0.256690613718684 
2478	 0.256691765095221 
2479	 0.256878622995576 
2480	 0.256973568023079 
2481	 0.256989574496936 
2482	 0.257107360941761 
2483	 0.25678040495469 
2484	 0.256391421799521 
2485	 0.256546200240326 
2486	 0.25690310524555 
2487	 0.257176934812032 
2488	 0.258043261296163 
2489	 0.259165008605644 
2490	 0.259367424589247 
2491	 0.259778709801895 
2492	 0.260705279100731 
2493	 0.261145890043719 
2494	 0.261931760418805 
2495	 0.262990363006061 
2496	 0.263494205155915 
2497	 0.263683775540041 
2498	 0.263878533888454 
2499	 0.26467016387847 
2500	 0.265683754704967 
