Wavelength	Tablay400079.asd
350	 0.185463581559514 
351	 0.193989405778474 
352	 0.211484849493167 
353	 0.244249588574077 
354	 0.24036676871303 
355	 0.225847541053435 
356	 0.184690208418523 
357	 0.132433437730697 
358	 0.211022725599099 
359	 0.235532817820484 
360	 0.189822401776931 
361	 0.155644262403911 
362	 0.150486488315574 
363	 0.147809564538452 
364	 0.134679088925464 
365	 0.123266275680676 
366	 9.38462256864824E-02 
367	 0.115447908402572 
368	 0.203892601844619 
369	 0.155447786747191 
370	 0.127572074693223 
371	 0.157538409181293 
372	 0.200858986102392 
373	 0.180568115292644 
374	 0.138994634262081 
375	 0.107525216855647 
376	 8.81584872515386E-02 
377	 7.32288426675929E-02 
378	 9.48591728895939E-02 
379	 0.150500914480221 
380	 0.101012296530975 
381	 6.20380709637255E-02 
382	 7.09626475007936E-02 
383	 0.106012692883126 
384	 8.43975129614662E-02 
385	 8.81269681733178E-02 
386	 0.135996819698518 
387	 0.136783177346876 
388	 0.123051050140994 
389	 0.103803291210733 
390	 8.65816499716766E-02 
391	 9.32570461598651E-02 
392	 8.58122475453119E-02 
393	 7.42857153259771E-02 
394	 0.093633541525048 
395	 9.86119353429234E-02 
396	 8.62894656783719E-02 
397	 6.72098756890509E-02 
398	 0.059539393225763 
399	 8.41755732421775E-02 
400	 0.104034845396615 
401	 8.75296588961668E-02 
402	 8.56418903454617E-02 
403	 7.49255849492666E-02 
404	 6.42897189083019E-02 
405	 8.25295886746632E-02 
406	 0.085177133826949 
407	 7.56904432828486E-02 
408	 6.60314793571403E-02 
409	 7.35898000741567E-02 
410	 0.070782213478537 
411	 6.70549144696095E-02 
412	 7.53474199751483E-02 
413	 6.47640063254464E-02 
414	 0.055482884491419 
415	 5.99964316326336E-02 
416	 7.87156860283645E-02 
417	 6.26192119490798E-02 
418	 4.97921742204633E-02 
419	 0.063500286202519 
420	 6.02175689320811E-02 
421	 5.61667777980796E-02 
422	 5.76442584531092E-02 
423	 6.37323382153741E-02 
424	 5.13623268594037E-02 
425	 4.87257275902444E-02 
426	 5.98833005231446E-02 
427	 0.059663666151492 
428	 5.78073464119549E-02 
429	 5.51186528288414E-02 
430	 5.18151917405777E-02 
431	 5.11229561044901E-02 
432	 5.37099359808574E-02 
433	 5.69901778037328E-02 
434	 5.71135641478133E-02 
435	 5.49990152406239E-02 
436	 5.36164888302692E-02 
437	 5.35388927148822E-02 
438	 5.15044006916411E-02 
439	 4.94557978445258E-02 
440	 4.98886706554536E-02 
441	 5.33870911062933E-02 
442	 5.30530180373835E-02 
443	 5.14522345007418E-02 
444	 5.03369042244471E-02 
445	 0.05034912267318 
446	 4.82802076902639E-02 
447	 4.72750475195605E-02 
448	 4.92392920539477E-02 
449	 5.21532085611337E-02 
450	 5.04188359908953E-02 
451	 4.72304158205304E-02 
452	 4.81320049988101E-02 
453	 5.05216512934089E-02 
454	 4.91276499465137E-02 
455	 0.044929005921946 
456	 4.54826325665829E-02 
457	 4.53647947337176E-02 
458	 4.47714506517094E-02 
459	 4.47389406363104E-02 
460	 4.51324779558174E-02 
461	 4.68807583672436E-02 
462	 4.89132632473762E-02 
463	 4.92049477305081E-02 
464	 4.75433812910443E-02 
465	 4.54065160612309E-02 
466	 4.43974972318643E-02 
467	 4.61796888462155E-02 
468	 4.59949015142859E-02 
469	 4.46635922821163E-02 
470	 4.42475673117346E-02 
471	 4.46933881877498E-02 
472	 4.54771571408778E-02 
473	 4.56310230124517E-02 
474	 4.41216929728059E-02 
475	 4.33251973616063E-02 
476	 4.37732013518903E-02 
477	 4.50515784828041E-02 
478	 4.56631888810984E-02 
479	 4.51818030398657E-02 
480	 4.41740955592991E-02 
481	 4.35488122830527E-02 
482	 4.30489467878292E-02 
483	 4.36582199112918E-02 
484	 4.46804342321754E-02 
485	 4.35911720066775E-02 
486	 4.22731014607513E-02 
487	 4.16249319767147E-02 
488	 4.20180110847607E-02 
489	 0.043296329165427 
490	 4.29409819830353E-02 
491	 4.15042666000128E-02 
492	 4.11493716847818E-02 
493	 4.07837030917956E-02 
494	 4.13294553167881E-02 
495	 0.042655461612701 
496	 4.26757674277004E-02 
497	 0.042193059517943 
498	 4.15210586197432E-02 
499	 4.09536046901519E-02 
500	 4.10862059954347E-02 
501	 4.20919164346733E-02 
502	 4.27139013527258E-02 
503	 4.08059185928737E-02 
504	 0.040145931461292 
505	 4.03030758067769E-02 
506	 4.04909586167072E-02 
507	 0.041052467318396 
508	 0.041330297826764 
509	 4.13256935765954E-02 
510	 4.12979765419132E-02 
511	 4.10195084479563E-02 
512	 4.08197463875024E-02 
513	 4.07449360144019E-02 
514	 4.04439204942048E-02 
515	 3.98307357481084E-02 
516	 0.039735683298844 
517	 4.04034846790661E-02 
518	 3.91436224230453E-02 
519	 3.90272850647288E-02 
520	 4.00892794378012E-02 
521	 0.040328066624651 
522	 4.02465723730444E-02 
523	 4.00187619419403E-02 
524	 3.98668180088509E-02 
525	 4.02457673785479E-02 
526	 4.00045317665302E-02 
527	 3.95720267497773E-02 
528	 3.97456485492384E-02 
529	 4.00825664684265E-02 
530	 3.98964281396047E-02 
531	 3.92292121638202E-02 
532	 3.88757315427629E-02 
533	 3.92909517337906E-02 
534	 3.95760374734434E-02 
535	 3.91743907614461E-02 
536	 3.93668736451319E-02 
537	 3.95849319954801E-02 
538	 3.96401214369378E-02 
539	 3.95625436483687E-02 
540	 3.93694541124059E-02 
541	 3.90857376468667E-02 
542	 3.88555595425467E-02 
543	 3.90287662513704E-02 
544	 3.91249474404243E-02 
545	 3.91279703838633E-02 
546	 3.91235225922505E-02 
547	 3.89481728920256E-02 
548	 3.88705595918866E-02 
549	 3.88870103423765E-02 
550	 0.038770040714658 
551	 3.90874947692355E-02 
552	 3.92018083734884E-02 
553	 3.87876000562888E-02 
554	 3.88277218351256E-02 
555	 3.88664045679522E-02 
556	 3.89019675804544E-02 
557	 3.90956559461154E-02 
558	 3.92890191880376E-02 
559	 3.92885721024779E-02 
560	 3.91615979225409E-02 
561	 3.93268496026503E-02 
562	 3.96269417260404E-02 
563	 3.98238944541817E-02 
564	 3.97854077458916E-02 
565	 3.98261496427796E-02 
566	 4.01723235540159E-02 
567	 4.05046738964284E-02 
568	 4.02127598468279E-02 
569	 4.04205344884888E-02 
570	 4.06806433160785E-02 
571	 4.06925184523333E-02 
572	 4.09697642164222E-02 
573	 4.12702277846923E-02 
574	 4.16310036627484E-02 
575	 4.21263590864436E-02 
576	 4.24662047428007E-02 
577	 4.28290830127037E-02 
578	 4.33218491786004E-02 
579	 4.39322705454433E-02 
580	 4.45788422519741E-02 
581	 4.52005787754114E-02 
582	 4.58172554541392E-02 
583	 4.66378426753024E-02 
584	 0.047712945432092 
585	 4.88608976834462E-02 
586	 4.98333343823016E-02 
587	 5.11367862670532E-02 
588	 0.052481730531801 
589	 5.36906984413171E-02 
590	 0.054896185396881 
591	 5.64373271341746E-02 
592	 5.79866888658779E-02 
593	 5.91898751565842E-02 
594	 6.05392836160261E-02 
595	 6.18606586135912E-02 
596	 6.31955863744625E-02 
597	 6.47517056405242E-02 
598	 6.60097655037909E-02 
599	 6.70233209391542E-02 
600	 0.068060311438161 
601	 6.97017562271727E-02 
602	 7.08293488258378E-02 
603	 7.17379549986042E-02 
604	 7.31674417991419E-02 
605	 7.42906773610073E-02 
606	 7.53813978687669E-02 
607	 0.076595226513375 
608	 7.78282516300642E-02 
609	 7.87969700206819E-02 
610	 0.079680998443289 
611	 8.06922676712937E-02 
612	 8.17124651385381E-02 
613	 8.27093220990577E-02 
614	 8.37930959909401E-02 
615	 0.085084738922107 
616	 8.57974063810908E-02 
617	 8.64843216534666E-02 
618	 8.74980307333662E-02 
619	 8.85336991671253E-02 
620	 8.95539160081547E-02 
621	 9.04771994092047E-02 
622	 9.12665517239762E-02 
623	 9.20617382817868E-02 
624	 9.30350785648453E-02 
625	 0.094103750890412 
626	 9.49674998972375E-02 
627	 9.58477729519951E-02 
628	 9.66875359454215E-02 
629	 9.74775495028687E-02 
630	 9.84784598219709E-02 
631	 9.92876761766327E-02 
632	 0.100005408821937 
633	 0.100894013633539 
634	 0.101614626353894 
635	 0.102544355883834 
636	 0.103734549016463 
637	 0.104769487951517 
638	 0.105370281385567 
639	 0.106015788735234 
640	 0.107100180721655 
641	 0.108105991376921 
642	 0.109003535395678 
643	 0.109882338566854 
644	 0.110878447582155 
645	 0.111734503051422 
646	 0.112555388542821 
647	 0.113426646585173 
648	 0.114320044662383 
649	 0.115441588856078 
650	 0.116596729810816 
651	 0.117529196784552 
652	 0.118235207894548 
653	 0.119273453259465 
654	 0.120541222708496 
655	 0.121442464948955 
656	 0.12254695828256 
657	 0.123625801435121 
658	 0.124538754478871 
659	 0.125599344361276 
660	 0.126600267483375 
661	 0.127631816234989 
662	 0.128827200207558 
663	 0.129956252935972 
664	 0.131076366308261 
665	 0.132228373575785 
666	 0.133411881898303 
667	 0.134398310237249 
668	 0.135456111188586 
669	 0.136732830946702 
670	 0.137807007830309 
671	 0.138909983545336 
672	 0.140123879787236 
673	 0.141435801717875 
674	 0.142643944750433 
675	 0.143929454851972 
676	 0.145313096076089 
677	 0.146589102774785 
678	 0.147727080175681 
679	 0.148868471296559 
680	 0.150128621161215 
681	 0.151408411245041 
682	 0.152709919885188 
683	 0.15404856311586 
684	 0.155436087490228 
685	 0.15674852449294 
686	 0.158121246655994 
687	 0.159560917298742 
688	 0.160865276753259 
689	 0.162221765332222 
690	 0.163664640319823 
691	 0.165155070728722 
692	 0.166547971961273 
693	 0.167905085222321 
694	 0.169303272995678 
695	 0.170801206832279 
696	 0.172210523071099 
697	 0.173611610719242 
698	 0.175046638689209 
699	 0.176441165071089 
700	 0.177937005450075 
701	 0.179561196986602 
702	 0.18123395278923 
703	 0.182615802037083 
704	 0.184067277091597 
705	 0.185642770499441 
706	 0.187182739423915 
707	 0.18878246852577 
708	 0.190343404512234 
709	 0.191833617013333 
710	 0.193363366935453 
711	 0.194929082398925 
712	 0.196507548065683 
713	 0.198088032424799 
714	 0.199757770297738 
715	 0.201307563831288 
716	 0.20280526458522 
717	 0.204487056572322 
718	 0.20609318712709 
719	 0.207721831068036 
720	 0.209385712297812 
721	 0.210867358162207 
722	 0.212465273379923 
723	 0.214130304910656 
724	 0.215756689648752 
725	 0.217474840777032 
726	 0.219161000116442 
727	 0.220757298448665 
728	 0.222280458787472 
729	 0.223948100664911 
730	 0.225574116583757 
731	 0.227106717197413 
732	 0.228798279785213 
733	 0.230465973157252 
734	 0.232050187001843 
735	 0.233570136806597 
736	 0.235182993070467 
737	 0.236854687357812 
738	 0.238475080283866 
739	 0.239926282351701 
740	 0.241520159902369 
741	 0.243104841811168 
742	 0.24459951906664 
743	 0.246112879486263 
744	 0.247757595586405 
745	 0.249399546824469 
746	 0.250909082363106 
747	 0.252429711604152 
748	 0.253924616012702 
749	 0.255391262404785 
750	 0.25684957933561 
751	 0.258339721740735 
752	 0.259831983270128 
753	 0.261304287866106 
754	 0.26275726378458 
755	 0.264220467982648 
756	 0.265674460034638 
757	 0.267113725370372 
758	 0.26860843556103 
759	 0.270015760926749 
760	 0.271357721273517 
761	 0.272734144540972 
762	 0.274193277957066 
763	 0.275572136475722 
764	 0.276871034278221 
765	 0.278274881463302 
766	 0.279725302879004 
767	 0.28112063179252 
768	 0.282416765945096 
769	 0.283722071681632 
770	 0.284931556853444 
771	 0.286114746604787 
772	 0.287398482715328 
773	 0.288867972692674 
774	 0.290260975073769 
775	 0.291469691604267 
776	 0.292557304091088 
777	 0.293789402813079 
778	 0.295017967042503 
779	 0.296193987183063 
780	 0.297547787246021 
781	 0.298710451053205 
782	 0.299836953152314 
783	 0.301116042981977 
784	 0.302313226195939 
785	 0.30336732298296 
786	 0.304406425985747 
787	 0.305611671220132 
788	 0.306683549547391 
789	 0.307739105679167 
790	 0.308835307570287 
791	 0.309912670544015 
792	 0.310928641817487 
793	 0.311951058273459 
794	 0.313029099570881 
795	 0.314123521279657 
796	 0.315042270633437 
797	 0.315954330923037 
798	 0.317063868070785 
799	 0.318043173017162 
800	 0.318953177753794 
801	 0.319848314043658 
802	 0.320765480664762 
803	 0.321733873138437 
804	 0.322623652125099 
805	 0.323435673921987 
806	 0.324393051525209 
807	 0.325208405002818 
808	 0.325994505643606 
809	 0.326888406347096 
810	 0.327809316562712 
811	 0.328578132169704 
812	 0.329271560148048 
813	 0.330065557002316 
814	 0.330951456143615 
815	 0.331689176711256 
816	 0.332292384176733 
817	 0.333000856090681 
818	 0.333777848955307 
819	 0.334521922879864 
820	 0.335190916335541 
821	 0.33585785685392 
822	 0.33656884763368 
823	 0.337227852320716 
824	 0.337795154819821 
825	 0.338541580839149 
826	 0.339156708643278 
827	 0.339697893918365 
828	 0.340344766015581 
829	 0.340897003519249 
830	 0.34152380765041 
831	 0.342146950777116 
832	 0.342513963913351 
833	 0.343128385198081 
834	 0.34369485717397 
835	 0.344081103809356 
836	 0.344582737230282 
837	 0.345029784523798 
838	 0.345520631844326 
839	 0.346111522357378 
840	 0.346569789961419 
841	 0.346997172881439 
842	 0.347404246722438 
843	 0.347792714390051 
844	 0.348294050227066 
845	 0.348709095575897 
846	 0.349034999069571 
847	 0.349415111192453 
848	 0.349827777393557 
849	 0.3501927567243 
850	 0.350529578334725 
851	 0.350975463649651 
852	 0.351260422251359 
853	 0.351472602208929 
854	 0.351770851703432 
855	 0.352317336483443 
856	 0.352546933130109 
857	 0.352662001302067 
858	 0.352989971582843 
859	 0.353361966982321 
860	 0.353546310714047 
861	 0.353718719629484 
862	 0.354155804295623 
863	 0.354353660566976 
864	 0.354687474039474 
865	 0.35512120125245 
866	 0.355261436037819 
867	 0.355310853521851 
868	 0.35548073803955 
869	 0.355773382854948 
870	 0.355918662977089 
871	 0.356225459763142 
872	 0.356489419315673 
873	 0.35658576135229 
874	 0.356807302586193 
875	 0.356987030250803 
876	 0.357144049115046 
877	 0.35731118175884 
878	 0.357338838623144 
879	 0.357631564017929 
880	 0.357933775939122 
881	 0.357848546809128 
882	 0.358099377151232 
883	 0.358240775974549 
884	 0.358313445427994 
885	 0.358684354574231 
886	 0.358783324996497 
887	 0.35885522333739 
888	 0.358975735780533 
889	 0.358940460442863 
890	 0.358966369318901 
891	 0.3591546149694 
892	 0.359419541283683 
893	 0.359415176380476 
894	 0.359704044704999 
895	 0.359833200066482 
896	 0.359574274302362 
897	 0.359955857641755 
898	 0.360128209426102 
899	 0.360067012014156 
900	 0.360018171398565 
901	 0.360072528279279 
902	 0.360348132524919 
903	 0.360653955182831 
904	 0.360700980893596 
905	 0.360545654217635 
906	 0.360609828933632 
907	 0.360875752012718 
908	 0.361014250667902 
909	 0.361060028304534 
910	 0.361187467596006 
911	 0.361366303819473 
912	 0.361374567526179 
913	 0.36140208339766 
914	 0.361553186356262 
915	 0.361763138465477 
916	 0.361781145869576 
917	 0.361879547492085 
918	 0.361941774053218 
919	 0.361930544619005 
920	 0.362090351487235 
921	 0.362230604765966 
922	 0.362378108509294 
923	 0.362531919483335 
924	 0.362459328001236 
925	 0.36267258114625 
926	 0.362952769975929 
927	 0.363012088876687 
928	 0.363213477529292 
929	 0.36322328126223 
930	 0.363252497501863 
931	 0.363577558454412 
932	 0.363735988644595 
933	 0.363842437603801 
934	 0.363879423603422 
935	 0.363831633437594 
936	 0.364095745797062 
937	 0.364354973152796 
938	 0.364520676088196 
939	 0.364679502150298 
940	 0.364704158467469 
941	 0.364989242792191 
942	 0.365336197868605 
943	 0.365147563898332 
944	 0.365217932460264 
945	 0.365353293636727 
946	 0.365476796483631 
947	 0.365738955555643 
948	 0.366089182604504 
949	 0.366238186939044 
950	 0.366202233962561 
951	 0.36637504300203 
952	 0.366372621672523 
953	 0.366211949671592 
954	 0.36613790564427 
955	 0.366564972934195 
956	 0.366942156228906 
957	 0.367089442827907 
958	 0.367105794714088 
959	 0.367389596299851 
960	 0.367558884109016 
961	 0.367781327387127 
962	 0.368051421371485 
963	 0.367800143113026 
964	 0.367639491938979 
965	 0.367839769314559 
966	 0.368231863004306 
967	 0.367923795779018 
968	 0.368161418954569 
969	 0.368543650977005 
970	 0.368536924872076 
971	 0.368498604412976 
972	 0.368749238007643 
973	 0.368885892532919 
974	 0.368610295974678 
975	 0.368528233588815 
976	 0.36900845962042 
977	 0.369152206273882 
978	 0.368488041544696 
979	 0.369125526676254 
980	 0.369318010082516 
981	 0.369207217837014 
982	 0.369398885956092 
983	 0.369879074667418 
984	 0.369734681287528 
985	 0.369636026743378 
986	 0.370264720207278 
987	 0.37038866743784 
988	 0.370327795559709 
989	 0.370344716005057 
990	 0.370576447268275 
991	 0.370758895534481 
992	 0.371154664026168 
993	 0.371182800636046 
994	 0.370597696351004 
995	 0.371288058453908 
996	 0.371266622007526 
997	 0.37090624664994 
998	 0.371070840647693 
999	 0.371170634192298 
1000	 0.371347301825534 
1001	 0.376992708469697 
1002	 0.377052548559218 
1003	 0.376954461198555 
1004	 0.377012618809162 
1005	 0.377285079726193 
1006	 0.377385328570334 
1007	 0.377341983842627 
1008	 0.377441693476616 
1009	 0.377664236306454 
1010	 0.377708734180583 
1011	 0.377657633518746 
1012	 0.377732100184929 
1013	 0.377711385852246 
1014	 0.377800446512449 
1015	 0.377979166674573 
1016	 0.378341372935435 
1017	 0.378639511141718 
1018	 0.378752491132555 
1019	 0.378746364137044 
1020	 0.378711519774255 
1021	 0.378676622867761 
1022	 0.378443928463631 
1023	 0.378484217424481 
1024	 0.378673750427205 
1025	 0.378818381910024 
1026	 0.379133287398293 
1027	 0.379303673936425 
1028	 0.379347301628648 
1029	 0.379516834456507 
1030	 0.379745017256907 
1031	 0.379755961528443 
1032	 0.379687424732132 
1033	 0.379431354593888 
1034	 0.379055032876003 
1035	 0.37895473874614 
1036	 0.378972259513992 
1037	 0.379205830875518 
1038	 0.37935510453457 
1039	 0.379658073490681 
1040	 0.379780083652426 
1041	 0.379782846901225 
1042	 0.379843053147511 
1043	 0.379877023184275 
1044	 0.379967437624981 
1045	 0.379804112138874 
1046	 0.379873668755614 
1047	 0.380063585773656 
1048	 0.379947334480833 
1049	 0.380024858448446 
1050	 0.380179247065796 
1051	 0.380196805103469 
1052	 0.380195629855378 
1053	 0.38022096292068 
1054	 0.380221488535065 
1055	 0.380347887476897 
1056	 0.380549658307041 
1057	 0.380699900177951 
1058	 0.380934855337421 
1059	 0.381123178241008 
1060	 0.381111920331204 
1061	 0.381152010896961 
1062	 0.381259393639193 
1063	 0.381215366883403 
1064	 0.381302327843102 
1065	 0.381518810101156 
1066	 0.381547667754742 
1067	 0.38167238511234 
1068	 0.3818079332313 
1069	 0.381846502606295 
1070	 0.381889437976704 
1071	 0.381982240681909 
1072	 0.381903711679102 
1073	 0.381868118375963 
1074	 0.381954088692849 
1075	 0.381921999740684 
1076	 0.382116873756507 
1077	 0.382358942298623 
1078	 0.382338230009061 
1079	 0.382360361213723 
1080	 0.382387263185335 
1081	 0.382328230723934 
1082	 0.3823784407966 
1083	 0.382488237138897 
1084	 0.382578758046846 
1085	 0.382688142930799 
1086	 0.382744907537776 
1087	 0.382776805350836 
1088	 0.382717900317319 
1089	 0.382563680059619 
1090	 0.382547672611076 
1091	 0.382680479797879 
1092	 0.382787439386418 
1093	 0.38300816675872 
1094	 0.383199987099535 
1095	 0.383198999315916 
1096	 0.383251745753571 
1097	 0.383356618237689 
1098	 0.383417202646307 
1099	 0.383455337274253 
1100	 0.383399695875705 
1101	 0.383480076051765 
1102	 0.383657843121794 
1103	 0.383765359960284 
1104	 0.383890829929533 
1105	 0.384056140871021 
1106	 0.384019148758707 
1107	 0.383941394831018 
1108	 0.383950430667032 
1109	 0.384006685961997 
1110	 0.384276759313325 
1111	 0.384511088379869 
1112	 0.384609591073938 
1113	 0.384719308507694 
1114	 0.384793442617695 
1115	 0.38489284480817 
1116	 0.38499159066747 
1117	 0.385129256328019 
1118	 0.385242416270718 
1119	 0.385269281105153 
1120	 0.385357858191474 
1121	 0.385479931394381 
1122	 0.385621934712848 
1123	 0.385821586291993 
1124	 0.386032732501515 
1125	 0.38615473892178 
1126	 0.386253586830948 
1127	 0.386358170603305 
1128	 0.386447385313025 
1129	 0.38654765730291 
1130	 0.386664493499619 
1131	 0.386747001826112 
1132	 0.386753764887246 
1133	 0.386756923987153 
1134	 0.386845319413782 
1135	 0.386960597875035 
1136	 0.387086971207918 
1137	 0.387225395981854 
1138	 0.387433225703856 
1139	 0.387630122741216 
1140	 0.387826472081743 
1141	 0.387987988776093 
1142	 0.388214990065097 
1143	 0.388319757098847 
1144	 0.38829526510647 
1145	 0.388363260364107 
1146	 0.388474697402699 
1147	 0.388565214012167 
1148	 0.388741564446757 
1149	 0.388872547229293 
1150	 0.388905738400986 
1151	 0.38894353626077 
1152	 0.38896911361672 
1153	 0.388929433458309 
1154	 0.389006439292184 
1155	 0.389129509745079 
1156	 0.389220512448127 
1157	 0.389410584207779 
1158	 0.389495374446745 
1159	 0.389496395730346 
1160	 0.389533125018007 
1161	 0.389541591094875 
1162	 0.389478605082305 
1163	 0.389446828476341 
1164	 0.389468729333537 
1165	 0.389465837884879 
1166	 0.389471576762877 
1167	 0.389477577283882 
1168	 0.389418422419947 
1169	 0.389426010101615 
1170	 0.389477091586889 
1171	 0.389522065722504 
1172	 0.389597635537713 
1173	 0.389641883436548 
1174	 0.389665761099752 
1175	 0.389715077840577 
1176	 0.389787156650855 
1177	 0.389813781433488 
1178	 0.389857219402738 
1179	 0.389846593230289 
1180	 0.389752881367655 
1181	 0.38972703804927 
1182	 0.389712516633466 
1183	 0.389702112029471 
1184	 0.38978151327128 
1185	 0.38985147223507 
1186	 0.389932864227609 
1187	 0.390078426044104 
1188	 0.390147012135515 
1189	 0.390149365436034 
1190	 0.390225750066895 
1191	 0.390299955173588 
1192	 0.390405097477937 
1193	 0.39058623535357 
1194	 0.39071962266868 
1195	 0.390828621509455 
1196	 0.390936569463534 
1197	 0.390994454894269 
1198	 0.391134753223802 
1199	 0.39126243584004 
1200	 0.391495449150243 
1201	 0.391858791077531 
1202	 0.392062158703919 
1203	 0.392277337534427 
1204	 0.392578625642851 
1205	 0.392817039123793 
1206	 0.392977263774978 
1207	 0.393279218195953 
1208	 0.393600610461643 
1209	 0.393970512035998 
1210	 0.394445706556773 
1211	 0.3948963059187 
1212	 0.395309596342246 
1213	 0.395862212065706 
1214	 0.39650285076311 
1215	 0.397144454404642 
1216	 0.397911569229687 
1217	 0.398621841518927 
1218	 0.399302949068946 
1219	 0.399959890858174 
1220	 0.400740294155505 
1221	 0.401547670208635 
1222	 0.40233386074932 
1223	 0.403247724741576 
1224	 0.404072004479528 
1225	 0.404859720958744 
1226	 0.405624027941633 
1227	 0.406378437982539 
1228	 0.407108064908144 
1229	 0.407815510617922 
1230	 0.408494426521757 
1231	 0.409168142403844 
1232	 0.409799807303344 
1233	 0.410327886090802 
1234	 0.410934312451256 
1235	 0.411576523398549 
1236	 0.412184543096734 
1237	 0.412812576973376 
1238	 0.413440606630859 
1239	 0.414057600970907 
1240	 0.41463979781177 
1241	 0.415282449636915 
1242	 0.415854510800925 
1243	 0.416377469935869 
1244	 0.416831926253907 
1245	 0.417323239887407 
1246	 0.417773823841528 
1247	 0.41826174487457 
1248	 0.418768928810949 
1249	 0.419276105043594 
1250	 0.419783518193693 
1251	 0.420300984979233 
1252	 0.420883392935088 
1253	 0.421365727915633 
1254	 0.421782263868259 
1255	 0.422235393550491 
1256	 0.4226535414639 
1257	 0.423068667887853 
1258	 0.423516049665202 
1259	 0.423935474589057 
1260	 0.424293872869013 
1261	 0.424686373812196 
1262	 0.425065156653264 
1263	 0.425519121039901 
1264	 0.425942148307752 
1265	 0.426375602059845 
1266	 0.426792731574097 
1267	 0.42720673415826 
1268	 0.427620810165459 
1269	 0.428025168618603 
1270	 0.428442315312804 
1271	 0.428858921971376 
1272	 0.429290753633219 
1273	 0.429741653471505 
1274	 0.430171155390115 
1275	 0.430599479650617 
1276	 0.431032811284037 
1277	 0.431458013897295 
1278	 0.431882272308784 
1279	 0.432337559149406 
1280	 0.432748076039231 
1281	 0.433082453080846 
1282	 0.433485555786141 
1283	 0.433913328945244 
1284	 0.434329552029368 
1285	 0.434759309690152 
1286	 0.435238246654904 
1287	 0.435680274688751 
1288	 0.436089133781301 
1289	 0.436530371480764 
1290	 0.437015851415145 
1291	 0.437427258451058 
1292	 0.437831014849827 
1293	 0.438179036924231 
1294	 0.438440388918731 
1295	 0.438759064990736 
1296	 0.439083542615282 
1297	 0.439381646452477 
1298	 0.439680902277293 
1299	 0.439981491184755 
1300	 0.440269016632518 
1301	 0.440534393360662 
1302	 0.440752675762874 
1303	 0.441051116324913 
1304	 0.441369530583491 
1305	 0.441685654296264 
1306	 0.44209465132152 
1307	 0.442450281017908 
1308	 0.442722254509213 
1309	 0.443051196203516 
1310	 0.443368957392429 
1311	 0.443690287677343 
1312	 0.444009621971042 
1313	 0.444345254468609 
1314	 0.444645777256713 
1315	 0.444927369680134 
1316	 0.445214331691996 
1317	 0.445473252301901 
1318	 0.445766111094102 
1319	 0.44608191100723 
1320	 0.446380281768949 
1321	 0.446699607573543 
1322	 0.446980558014655 
1323	 0.447219387902297 
1324	 0.447490114867752 
1325	 0.447755637039131 
1326	 0.448027206378799 
1327	 0.448295723045537 
1328	 0.448597975260365 
1329	 0.448962261293409 
1330	 0.449250958264394 
1331	 0.449530646009077 
1332	 0.449797740743459 
1333	 0.450025684951702 
1334	 0.450196291646951 
1335	 0.450421525757829 
1336	 0.450676249932218 
1337	 0.450908238468874 
1338	 0.451140923883185 
1339	 0.451350967295823 
1340	 0.451556637575421 
1341	 0.45174075088874 
1342	 0.451905133704438 
1343	 0.452061065803462 
1344	 0.452199386075649 
1345	 0.452337128817698 
1346	 0.452475154433941 
1347	 0.452587256175779 
1348	 0.452695024545738 
1349	 0.452777337060978 
1350	 0.452818887997657 
1351	 0.452876583960079 
1352	 0.452936869789085 
1353	 0.452980841573382 
1354	 0.453005199320973 
1355	 0.45304702961484 
1356	 0.45310686563257 
1357	 0.453131379848421 
1358	 0.453134488816447 
1359	 0.453160243085937 
1360	 0.453165329784517 
1361	 0.453177180113563 
1362	 0.453238448391137 
1363	 0.453288831006312 
1364	 0.453275142742193 
1365	 0.453223860954403 
1366	 0.453168854564681 
1367	 0.45307756598243 
1368	 0.45297873179315 
1369	 0.45287956844063 
1370	 0.452751644367212 
1371	 0.452597324908149 
1372	 0.452429069189812 
1373	 0.452253752880667 
1374	 0.452041950547394 
1375	 0.451781425694521 
1376	 0.451542655116394 
1377	 0.451287263602428 
1378	 0.451042634597229 
1379	 0.45082998716177 
1380	 0.450565280776751 
1381	 0.450271780136528 
1382	 0.449973973086503 
1383	 0.449643318096752 
1384	 0.449319150050179 
1385	 0.449021188568496 
1386	 0.448676629726529 
1387	 0.448277696808553 
1388	 0.447913383251291 
1389	 0.44750757568959 
1390	 0.447160371580975 
1391	 0.446826313988374 
1392	 0.446572282682694 
1393	 0.446401338538426 
1394	 0.446181720265868 
1395	 0.445998431777569 
1396	 0.445877662023482 
1397	 0.445687184958197 
1398	 0.445505316733143 
1399	 0.445223337257049 
1400	 0.44490521360172 
1401	 0.444503936133063 
1402	 0.44405050295276 
1403	 0.443471583398462 
1404	 0.442815505388674 
1405	 0.442079367759776 
1406	 0.44118913874628 
1407	 0.440327838623591 
1408	 0.439426826279973 
1409	 0.438492790334218 
1410	 0.437500597090112 
1411	 0.436535136787242 
1412	 0.435532324193632 
1413	 0.434573515263151 
1414	 0.433634183445104 
1415	 0.43272275313897 
1416	 0.431838714919547 
1417	 0.430950278838293 
1418	 0.430081471782335 
1419	 0.429216461129297 
1420	 0.428303479538487 
1421	 0.427487799590368 
1422	 0.426747780573036 
1423	 0.426003526153699 
1424	 0.425321700296362 
1425	 0.424619949161415 
1426	 0.423979170909471 
1427	 0.423283010688069 
1428	 0.422630936327922 
1429	 0.422070526563561 
1430	 0.421401551554907 
1431	 0.420704628348771 
1432	 0.419981379001483 
1433	 0.419220662197145 
1434	 0.418418684835168 
1435	 0.417629235215619 
1436	 0.416698449363932 
1437	 0.415649273104086 
1438	 0.414641807449623 
1439	 0.413507699389738 
1440	 0.412530177599547 
1441	 0.411599477403392 
1442	 0.410734645470156 
1443	 0.409861756886129 
1444	 0.409208134339425 
1445	 0.408565248010353 
1446	 0.408274626368282 
1447	 0.408184282176729 
1448	 0.408383761687743 
1449	 0.408932964287332 
1450	 0.409571830954217 
1451	 0.410490379856598 
1452	 0.411456905452087 
1453	 0.41259335190196 
1454	 0.413728566342035 
1455	 0.41499110849475 
1456	 0.416216330993838 
1457	 0.417497531001331 
1458	 0.418710342263732 
1459	 0.419948413150376 
1460	 0.421084577840279 
1461	 0.42213273202149 
1462	 0.423133296654285 
1463	 0.42402809056278 
1464	 0.424934392349295 
1465	 0.42580273684569 
1466	 0.426688460031515 
1467	 0.427489926957319 
1468	 0.42828713010816 
1469	 0.429012491471111 
1470	 0.42967532686182 
1471	 0.430381281124819 
1472	 0.431099938465129 
1473	 0.43175431426791 
1474	 0.432394848899058 
1475	 0.433015687789905 
1476	 0.433585999636315 
1477	 0.434163600705348 
1478	 0.434768186895222 
1479	 0.435276324903131 
1480	 0.435767585485261 
1481	 0.436134752615676 
1482	 0.436389395077282 
1483	 0.436655195226416 
1484	 0.43683890525776 
1485	 0.437030944016943 
1486	 0.437220481562183 
1487	 0.437384384533026 
1488	 0.437451405313945 
1489	 0.437643766753686 
1490	 0.437823416821709 
1491	 0.438154708947856 
1492	 0.438567752189407 
1493	 0.439107896651838 
1494	 0.439806043004867 
1495	 0.440514660204909 
1496	 0.44133179508497 
1497	 0.44215767270163 
1498	 0.443018117233475 
1499	 0.443908875264774 
1500	 0.444882421141164 
1501	 0.445811167471245 
1502	 0.446759208478746 
1503	 0.447661515749635 
1504	 0.448540444536331 
1505	 0.44938956706 
1506	 0.450243837047831 
1507	 0.451014464877462 
1508	 0.451716223492817 
1509	 0.45239827925141 
1510	 0.45302672951452 
1511	 0.453608660030725 
1512	 0.454145335482263 
1513	 0.454675156021248 
1514	 0.455173028223782 
1515	 0.455628916076265 
1516	 0.45606576761409 
1517	 0.456473914178965 
1518	 0.456874514070133 
1519	 0.45718049864042 
1520	 0.457397240165424 
1521	 0.457620441776778 
1522	 0.457843827983162 
1523	 0.457981230436172 
1524	 0.458141877943272 
1525	 0.458339470094625 
1526	 0.458491949588902 
1527	 0.45859429886572 
1528	 0.458684137553907 
1529	 0.458779756771178 
1530	 0.458850087931413 
1531	 0.458855988988656 
1532	 0.458915596260022 
1533	 0.458996745814776 
1534	 0.459075339834714 
1535	 0.459149171988201 
1536	 0.459256362007358 
1537	 0.459355294152755 
1538	 0.459546852425552 
1539	 0.459784069549636 
1540	 0.460060034640079 
1541	 0.460388849122375 
1542	 0.460784439318929 
1543	 0.461217447228225 
1544	 0.461714574238301 
1545	 0.462299600195991 
1546	 0.462904915234867 
1547	 0.463579633885962 
1548	 0.464213452612798 
1549	 0.464869368727206 
1550	 0.465529776152884 
1551	 0.466172249429167 
1552	 0.466827618690689 
1553	 0.467530487169331 
1554	 0.468182630062622 
1555	 0.468774264365961 
1556	 0.469436516852365 
1557	 0.47014479536609 
1558	 0.470794293759961 
1559	 0.471480053364464 
1560	 0.472088294249435 
1561	 0.472599147579321 
1562	 0.473154513579798 
1563	 0.473689290652143 
1564	 0.474251466952086 
1565	 0.474849556798709 
1566	 0.475405962251411 
1567	 0.475958313128059 
1568	 0.476497290003801 
1569	 0.477007459452891 
1570	 0.477516662013634 
1571	 0.478060181037141 
1572	 0.478519476362747 
1573	 0.478924460829372 
1574	 0.479321016354603 
1575	 0.479600822933989 
1576	 0.480006797200217 
1577	 0.480471567254696 
1578	 0.480934766145481 
1579	 0.481495914308613 
1580	 0.481979395392858 
1581	 0.482446942607669 
1582	 0.482861578127818 
1583	 0.483204997275185 
1584	 0.48358003151828 
1585	 0.483880539107307 
1586	 0.484280928139417 
1587	 0.484770909759687 
1588	 0.485221586214825 
1589	 0.48572179194792 
1590	 0.486181666754691 
1591	 0.486593561905804 
1592	 0.487021953311761 
1593	 0.487436615579173 
1594	 0.487875093319756 
1595	 0.488361105237797 
1596	 0.48878603987335 
1597	 0.489190651873117 
1598	 0.489593930323241 
1599	 0.489932818438961 
1600	 0.490313437511159 
1601	 0.490746439677382 
1602	 0.491137067771537 
1603	 0.491506372713455 
1604	 0.491885099602946 
1605	 0.492250884574728 
1606	 0.492616902762896 
1607	 0.492994984554832 
1608	 0.493362927257114 
1609	 0.493720674625142 
1610	 0.494069314993298 
1611	 0.49444812907126 
1612	 0.494759554747857 
1613	 0.494997819978022 
1614	 0.495276038228039 
1615	 0.495513382108084 
1616	 0.49578938361178 
1617	 0.496174795064892 
1618	 0.4964399863458 
1619	 0.49665169456047 
1620	 0.496846534514355 
1621	 0.496932028536005 
1622	 0.497074363143492 
1623	 0.497256619165778 
1624	 0.497404080698478 
1625	 0.497549272483551 
1626	 0.497688525069036 
1627	 0.49778668644467 
1628	 0.497914065629334 
1629	 0.498082764648596 
1630	 0.49820986548526 
1631	 0.498299124281807 
1632	 0.498437939685623 
1633	 0.498614241875155 
1634	 0.498719275258432 
1635	 0.498813364129724 
1636	 0.498915516370165 
1637	 0.498942352003088 
1638	 0.499015218659792 
1639	 0.499162899401574 
1640	 0.499267287725083 
1641	 0.499375347753073 
1642	 0.499426602333171 
1643	 0.499447522270248 
1644	 0.499438532802447 
1645	 0.499373653908247 
1646	 0.49929441115659 
1647	 0.499239671446916 
1648	 0.499081361751382 
1649	 0.498828428920207 
1650	 0.498588975133792 
1651	 0.498321411612098 
1652	 0.497981896946378 
1653	 0.497647480564825 
1654	 0.497220935942843 
1655	 0.496715283343149 
1656	 0.49610777128089 
1657	 0.495395711220001 
1658	 0.494650312126278 
1659	 0.49380424552921 
1660	 0.492943210444726 
1661	 0.492084974399337 
1662	 0.491131837873913 
1663	 0.490041907503144 
1664	 0.489003906888781 
1665	 0.487931150538413 
1666	 0.486863977491227 
1667	 0.48581278489672 
1668	 0.484773012403585 
1669	 0.483716829762113 
1670	 0.482690718255536 
1671	 0.481723973494249 
1672	 0.48069502571041 
1673	 0.479631734723989 
1674	 0.47857628651232 
1675	 0.477517737004694 
1676	 0.47645491550055 
1677	 0.475417896256934 
1678	 0.474326777571772 
1679	 0.473230336481413 
1680	 0.472009622546 
1681	 0.47072480970411 
1682	 0.469378981589152 
1683	 0.467951608200472 
1684	 0.466468807239567 
1685	 0.464977072760087 
1686	 0.463313610626239 
1687	 0.461509866896751 
1688	 0.459608288387011 
1689	 0.457593410181998 
1690	 0.45547515646575 
1691	 0.453210964604779 
1692	 0.450991224612892 
1693	 0.448748798454197 
1694	 0.446372026086487 
1695	 0.443939493125875 
1696	 0.441404304384248 
1697	 0.438693776210656 
1698	 0.435990118895873 
1699	 0.433279085128891 
1700	 0.430553678849052 
1701	 0.427726577029738 
1702	 0.424994280229961 
1703	 0.42223626896998 
1704	 0.419604832772379 
1705	 0.417012244792654 
1706	 0.414480152900445 
1707	 0.412225080443991 
1708	 0.410184449108121 
1709	 0.408270205059349 
1710	 0.406514163388565 
1711	 0.404784725485514 
1712	 0.403168043685177 
1713	 0.4016057217842 
1714	 0.400092619467337 
1715	 0.398772430913778 
1716	 0.397449315445388 
1717	 0.396157976887569 
1718	 0.3948635023507 
1719	 0.393523256548533 
1720	 0.392269071630753 
1721	 0.391071312191163 
1722	 0.390086407462248 
1723	 0.389318652547645 
1724	 0.388559047314679 
1725	 0.387978975357215 
1726	 0.387565156459489 
1727	 0.387251733896031 
1728	 0.387234566544268 
1729	 0.387459172965095 
1730	 0.387983577569829 
1731	 0.388763864768917 
1732	 0.389689076379858 
1733	 0.390722791910675 
1734	 0.391826027272659 
1735	 0.392963703140054 
1736	 0.394134144265362 
1737	 0.395307355041211 
1738	 0.396360093805601 
1739	 0.397213778763085 
1740	 0.397988047284455 
1741	 0.398453861250678 
1742	 0.39863103320288 
1743	 0.398730790512668 
1744	 0.398500773692444 
1745	 0.398391403097714 
1746	 0.398295384993584 
1747	 0.398122763927706 
1748	 0.397868174161331 
1749	 0.397729071962642 
1750	 0.397546429214491 
1751	 0.397449554912643 
1752	 0.397435479506822 
1753	 0.397509066926864 
1754	 0.397569998329576 
1755	 0.397849558349324 
1756	 0.398292679294741 
1757	 0.39893729241503 
1758	 0.399701073707147 
1759	 0.400550871263165 
1760	 0.40154897932664 
1761	 0.402596897707328 
1762	 0.403734048291748 
1763	 0.405176181911457 
1764	 0.406654946194885 
1765	 0.408218864854293 
1766	 0.41004213157115 
1767	 0.411825504633526 
1768	 0.413724954083379 
1769	 0.415764436512034 
1770	 0.41758592302267 
1771	 0.419353659899399 
1772	 0.42103156037894 
1773	 0.422587887502928 
1774	 0.424248490991887 
1775	 0.425863076188507 
1776	 0.427403384949807 
1777	 0.428747475201531 
1778	 0.429898558418092 
1779	 0.431082739964442 
1780	 0.432103856826444 
1781	 0.433038397159939 
1782	 0.434066919501075 
1783	 0.434969847370423 
1784	 0.435910376464814 
1785	 0.436899142974696 
1786	 0.43775973882069 
1787	 0.438501993069671 
1788	 0.439210903980409 
1789	 0.439910913661997 
1790	 0.44060571888928 
1791	 0.441234141325406 
1792	 0.441863456510808 
1793	 0.442421361940093 
1794	 0.442977558062774 
1795	 0.443628994559319 
1796	 0.444229032934596 
1797	 0.444975531231379 
1798	 0.445658353204561 
1799	 0.446214629571957 
1800	 0.44679456584141 
1801	 0.441788282941965 
1802	 0.442449563707306 
1803	 0.443004046028215 
1804	 0.443558804675051 
1805	 0.444133547149021 
1806	 0.444635812493898 
1807	 0.445078002665569 
1808	 0.445503483883552 
1809	 0.44587412663378 
1810	 0.446305156971156 
1811	 0.44669224122838 
1812	 0.447141935784326 
1813	 0.447705404168182 
1814	 0.448184331690541 
1815	 0.448652846160479 
1816	 0.449188855072243 
1817	 0.44960597330567 
1818	 0.44989917756943 
1819	 0.450312898674606 
1820	 0.450685634081014 
1821	 0.451134643299473 
1822	 0.451656390349649 
1823	 0.45225496738226 
1824	 0.452812456902765 
1825	 0.453277428395892 
1826	 0.453787761240789 
1827	 0.454292145370494 
1828	 0.454815853025033 
1829	 0.455421211700269 
1830	 0.455897258162397 
1831	 0.456350458576944 
1832	 0.456716841699813 
1833	 0.457000176635768 
1834	 0.457363818725204 
1835	 0.45778730965031 
1836	 0.458176977053889 
1837	 0.458570578951775 
1838	 0.45896177624335 
1839	 0.459343811629696 
1840	 0.459736296829527 
1841	 0.460121029909401 
1842	 0.460516144776558 
1843	 0.460873625829221 
1844	 0.461220919713332 
1845	 0.461577867742551 
1846	 0.461882292295307 
1847	 0.462181833225652 
1848	 0.462431450399411 
1849	 0.46264312107066 
1850	 0.462795199320968 
1851	 0.462907278539529 
1852	 0.462981736445499 
1853	 0.463009588341129 
1854	 0.462969767063848 
1855	 0.462808079104975 
1856	 0.462633103623349 
1857	 0.462426191686942 
1858	 0.462111170765127 
1859	 0.461749723612705 
1860	 0.461359732266802 
1861	 0.460887149773719 
1862	 0.460305849954688 
1863	 0.459734640587346 
1864	 0.459125503317174 
1865	 0.45848665047206 
1866	 0.457803079265017 
1867	 0.457003686076373 
1868	 0.45617986203993 
1869	 0.455152819734034 
1870	 0.454043337759472 
1871	 0.452855974784351 
1872	 0.451594750293143 
1873	 0.4502056388024 
1874	 0.448801964607367 
1875	 0.447330132145441 
1876	 0.445566448825827 
1877	 0.443843072113968 
1878	 0.442066997630392 
1879	 0.440108866156077 
1880	 0.438219086422789 
1881	 0.436198104923726 
1882	 0.434044198868848 
1883	 0.431791707147598 
1884	 0.429547261159805 
1885	 0.427058307006553 
1886	 0.424528661697017 
1887	 0.421865530855733 
1888	 0.418958976267184 
1889	 0.416144537886375 
1890	 0.413196021845495 
1891	 0.410181866576887 
1892	 0.407159161348005 
1893	 0.404029225966333 
1894	 0.400751573508623 
1895	 0.397581119570259 
1896	 0.394319155727834 
1897	 0.391055562628732 
1898	 0.388128640690839 
1899	 0.385050878848809 
1900	 0.382022503331123 
1901	 0.37918034786909 
1902	 0.376199877593623 
1903	 0.373459499775375 
1904	 0.37073863289355 
1905	 0.368074346515153 
1906	 0.365466720981542 
1907	 0.363153506368507 
1908	 0.360713690363711 
1909	 0.358451607640016 
1910	 0.356390216860975 
1911	 0.354203147373825 
1912	 0.352211700434938 
1913	 0.35025198401219 
1914	 0.348286543512265 
1915	 0.346470992414946 
1916	 0.344801233703922 
1917	 0.343079743641674 
1918	 0.341409333152785 
1919	 0.339800376164438 
1920	 0.338062289244509 
1921	 0.336363788114754 
1922	 0.33470582206234 
1923	 0.333020334114334 
1924	 0.331404191469591 
1925	 0.329749811554995 
1926	 0.328157371782617 
1927	 0.326598991846675 
1928	 0.325073670053981 
1929	 0.323553127222893 
1930	 0.322151293793657 
1931	 0.320753521737937 
1932	 0.319438513872815 
1933	 0.318321511194145 
1934	 0.317308454952574 
1935	 0.316436863076536 
1936	 0.315730822657744 
1937	 0.315092459698508 
1938	 0.314529868301973 
1939	 0.314130299040416 
1940	 0.313856082638395 
1941	 0.313669359084539 
1942	 0.313681629838866 
1943	 0.313766003358493 
1944	 0.31387733863266 
1945	 0.314141569891728 
1946	 0.314541639747653 
1947	 0.314998441704608 
1948	 0.315657506736232 
1949	 0.31646978430149 
1950	 0.317308272130178 
1951	 0.31820792289414 
1952	 0.319259073211987 
1953	 0.320390216701456 
1954	 0.321622844307714 
1955	 0.323078863802758 
1956	 0.324544205582483 
1957	 0.326078303767109 
1958	 0.32770962652718 
1959	 0.329222867570063 
1960	 0.330656211922452 
1961	 0.331952287462945 
1962	 0.333097433467935 
1963	 0.334203661270789 
1964	 0.335217472886068 
1965	 0.336125172638712 
1966	 0.336960430890614 
1967	 0.337753213395323 
1968	 0.338323356641611 
1969	 0.338884975224178 
1970	 0.339480898333262 
1971	 0.340040609366422 
1972	 0.340639781922708 
1973	 0.341345070507999 
1974	 0.3420439442389 
1975	 0.342755304049981 
1976	 0.343496874580939 
1977	 0.344246244163856 
1978	 0.345079735007293 
1979	 0.346018448688685 
1980	 0.34688566738558 
1981	 0.347754680133225 
1982	 0.348618262397783 
1983	 0.349468863708007 
1984	 0.350401295916118 
1985	 0.351386865316903 
1986	 0.352467968569131 
1987	 0.353606743648271 
1988	 0.354666267030341 
1989	 0.356037110181031 
1990	 0.357635462163376 
1991	 0.359255391054119 
1992	 0.361008757621103 
1993	 0.362970986353044 
1994	 0.364800946950793 
1995	 0.366759929858566 
1996	 0.368814722439455 
1997	 0.370869276672407 
1998	 0.373005192279775 
1999	 0.375280285189004 
2000	 0.377399616163573 
2001	 0.37964667106516 
2002	 0.381598337640686 
2003	 0.383364277878305 
2004	 0.385091789215008 
2005	 0.386615867021917 
2006	 0.388139122292617 
2007	 0.38967681398834 
2008	 0.391053082487642 
2009	 0.392348354763553 
2010	 0.393635067239279 
2011	 0.39471887499267 
2012	 0.395771355457751 
2013	 0.396751177570283 
2014	 0.397646452934949 
2015	 0.39847004297251 
2016	 0.399242735753771 
2017	 0.39990645757143 
2018	 0.400488043052817 
2019	 0.400963872958457 
2020	 0.401326965954886 
2021	 0.401626763585877 
2022	 0.401826806480464 
2023	 0.401969784003847 
2024	 0.402091045901712 
2025	 0.402185304844532 
2026	 0.402242482938681 
2027	 0.402299526483967 
2028	 0.402259057838772 
2029	 0.402162685796745 
2030	 0.401997064817416 
2031	 0.401703752948136 
2032	 0.401437192711453 
2033	 0.401091037818943 
2034	 0.400817490916241 
2035	 0.400565964615485 
2036	 0.400356612773669 
2037	 0.400130565334587 
2038	 0.399849127776124 
2039	 0.399579645470476 
2040	 0.399262828556271 
2041	 0.398989693614418 
2042	 0.398743237966649 
2043	 0.398506263154156 
2044	 0.398269978803725 
2045	 0.398047843526491 
2046	 0.397842445303461 
2047	 0.397641616343246 
2048	 0.397478518901058 
2049	 0.397280751971419 
2050	 0.397062728253134 
2051	 0.396868633341713 
2052	 0.39662723945226 
2053	 0.396391780027021 
2054	 0.396223462797897 
2055	 0.396111275199643 
2056	 0.395961966650928 
2057	 0.395860035969811 
2058	 0.395700768426574 
2059	 0.395501694767961 
2060	 0.395320314770589 
2061	 0.395071449842963 
2062	 0.394931345459015 
2063	 0.39489087831771 
2064	 0.394773497506389 
2065	 0.394660469346826 
2066	 0.394595004397901 
2067	 0.394432590803967 
2068	 0.394229654404982 
2069	 0.394062543971839 
2070	 0.393905122889486 
2071	 0.393752456502946 
2072	 0.393618847166401 
2073	 0.393454333056284 
2074	 0.393282015358465 
2075	 0.393102877444371 
2076	 0.39289320272868 
2077	 0.392700113680024 
2078	 0.392540406799843 
2079	 0.392345758112797 
2080	 0.392108839724378 
2081	 0.391893799098346 
2082	 0.391650968402731 
2083	 0.391460059680458 
2084	 0.391290433544037 
2085	 0.391121633373558 
2086	 0.390849884338683 
2087	 0.390516206306038 
2088	 0.390171987312872 
2089	 0.389728590259632 
2090	 0.389354854295741 
2091	 0.389007368302508 
2092	 0.388650778777736 
2093	 0.388295928717638 
2094	 0.387941905087869 
2095	 0.387620598050228 
2096	 0.387247092064716 
2097	 0.386907891971977 
2098	 0.386442525285173 
2099	 0.385905825262513 
2100	 0.385439400498471 
2101	 0.384955869876541 
2102	 0.384487210542319 
2103	 0.383950333102094 
2104	 0.383368787282267 
2105	 0.382815788045755 
2106	 0.382188276291537 
2107	 0.381643125009236 
2108	 0.381222617370005 
2109	 0.380695785252672 
2110	 0.380184989406242 
2111	 0.379576368144499 
2112	 0.378864424172502 
2113	 0.378151083668558 
2114	 0.377329254734505 
2115	 0.376572056210973 
2116	 0.375847880862365 
2117	 0.375138933220789 
2118	 0.374346180394921 
2119	 0.373571915591001 
2120	 0.372697515966637 
2121	 0.371696023362126 
2122	 0.370759674433508 
2123	 0.369772464246713 
2124	 0.368863337484391 
2125	 0.36801429291252 
2126	 0.367110588543884 
2127	 0.36618009593865 
2128	 0.365334894886846 
2129	 0.364495910663821 
2130	 0.363682139125985 
2131	 0.362912626790255 
2132	 0.362201285975699 
2133	 0.361479559858694 
2134	 0.360831070069513 
2135	 0.36033632283267 
2136	 0.359927815838048 
2137	 0.359472460240857 
2138	 0.359094293060244 
2139	 0.35861776078552 
2140	 0.358016309286207 
2141	 0.357629157954686 
2142	 0.357264249643228 
2143	 0.35700399067876 
2144	 0.356938137723423 
2145	 0.356804150456709 
2146	 0.356725222331359 
2147	 0.356593163079546 
2148	 0.356424647198234 
2149	 0.356313265006811 
2150	 0.35619286792198 
2151	 0.356088767143949 
2152	 0.356068245389316 
2153	 0.356009394355557 
2154	 0.355916850583755 
2155	 0.355693957746787 
2156	 0.355500769236989 
2157	 0.355239590181345 
2158	 0.355059542380799 
2159	 0.354883355845749 
2160	 0.354755412264394 
2161	 0.354718684039942 
2162	 0.354564455883733 
2163	 0.35433973725597 
2164	 0.35421754287639 
2165	 0.354077565546287 
2166	 0.353970412784161 
2167	 0.354008822093097 
2168	 0.353931620610626 
2169	 0.353783760657176 
2170	 0.353625738942904 
2171	 0.353373854792922 
2172	 0.353218160088433 
2173	 0.353041841577491 
2174	 0.352970731542849 
2175	 0.353007084683421 
2176	 0.353037551637262 
2177	 0.353018396603199 
2178	 0.352997654540085 
2179	 0.352980188938197 
2180	 0.352916578088528 
2181	 0.352891549275469 
2182	 0.35294400811765 
2183	 0.35288534399968 
2184	 0.352735162354415 
2185	 0.352685100586617 
2186	 0.35262077236223 
2187	 0.352563262646464 
2188	 0.352645135051703 
2189	 0.352566382403752 
2190	 0.352411736575936 
2191	 0.352216446030385 
2192	 0.351854438912341 
2193	 0.351612705780783 
2194	 0.351437820053083 
2195	 0.35118674013557 
2196	 0.350921149928632 
2197	 0.35068600240478 
2198	 0.350478947290965 
2199	 0.350218727231065 
2200	 0.350068851773229 
2201	 0.350115381124798 
2202	 0.349916216793849 
2203	 0.349632023657875 
2204	 0.349350021327051 
2205	 0.348893794104479 
2206	 0.348655200038199 
2207	 0.34859598007922 
2208	 0.348334309503736 
2209	 0.348094086335368 
2210	 0.347761511963066 
2211	 0.34721374623873 
2212	 0.346806305960482 
2213	 0.346452730247586 
2214	 0.34609371614602 
2215	 0.345736824089803 
2216	 0.345410752905246 
2217	 0.345064745049264 
2218	 0.344817078069483 
2219	 0.34468858192998 
2220	 0.344499694961809 
2221	 0.3443725101058 
2222	 0.344186208966572 
2223	 0.343912093590308 
2224	 0.343659605248145 
2225	 0.343493867070454 
2226	 0.343281511064119 
2227	 0.342958726215897 
2228	 0.342634560134606 
2229	 0.342195879288079 
2230	 0.341610040452453 
2231	 0.340989149337045 
2232	 0.340406297803502 
2233	 0.3395303258231 
2234	 0.338520583338493 
2235	 0.337330482027953 
2236	 0.335910558332798 
2237	 0.334382851774996 
2238	 0.332606274799824 
2239	 0.330856795218739 
2240	 0.329026427565705 
2241	 0.327101623432152 
2242	 0.325220935241851 
2243	 0.323113049205403 
2244	 0.32079063036552 
2245	 0.318402875069183 
2246	 0.315787178874875 
2247	 0.313191532634433 
2248	 0.310610954223237 
2249	 0.30785440108868 
2250	 0.304943295544056 
2251	 0.302082827415559 
2252	 0.299023051181048 
2253	 0.296001143758934 
2254	 0.292996217430465 
2255	 0.289917794646382 
2256	 0.287023637852879 
2257	 0.284136990412278 
2258	 0.281296770859456 
2259	 0.278590541947836 
2260	 0.275852961087342 
2261	 0.273085275888033 
2262	 0.270414221614918 
2263	 0.267789593045981 
2264	 0.265254310236364 
2265	 0.26275903851274 
2266	 0.260345340181884 
2267	 0.258090168911556 
2268	 0.255810344832435 
2269	 0.253561092377632 
2270	 0.251365837194763 
2271	 0.249140911335015 
2272	 0.247076639462697 
2273	 0.245159695625868 
2274	 0.243212741977093 
2275	 0.241487041198406 
2276	 0.239541197800325 
2277	 0.237489813123428 
2278	 0.23542411913358 
2279	 0.233141602109847 
2280	 0.230984544197451 
2281	 0.228924598701009 
2282	 0.226782190007705 
2283	 0.224656299074596 
2284	 0.222569826931577 
2285	 0.220158975421555 
2286	 0.217701039338667 
2287	 0.215224522604471 
2288	 0.212674961317705 
2289	 0.210236166613265 
2290	 0.207713916781245 
2291	 0.205232069886447 
2292	 0.202709651681414 
2293	 0.20002175872105 
2294	 0.197532004387003 
2295	 0.195108389814143 
2296	 0.192771571922307 
2297	 0.190793114425198 
2298	 0.189187210433855 
2299	 0.187632552366096 
2300	 0.18620816210582 
2301	 0.185152409329534 
2302	 0.184298679700791 
2303	 0.18379065964704 
2304	 0.183667520771986 
2305	 0.183778180637316 
2306	 0.184217109787413 
2307	 0.184866361363878 
2308	 0.185864324639146 
2309	 0.186939848100513 
2310	 0.18806487369728 
2311	 0.189614940548044 
2312	 0.191581560350729 
2313	 0.193574880681076 
2314	 0.196003855705658 
2315	 0.198305803238979 
2316	 0.200637658520394 
2317	 0.202856775363442 
2318	 0.205170479557312 
2319	 0.207214215872901 
2320	 0.209244705713462 
2321	 0.210837968074424 
2322	 0.212185439498721 
2323	 0.213251769344328 
2324	 0.213803512260074 
2325	 0.214353729261308 
2326	 0.214855206288082 
2327	 0.214941558555711 
2328	 0.214636727817396 
2329	 0.214324849796069 
2330	 0.213751692482716 
2331	 0.213023430744857 
2332	 0.212281706214123 
2333	 0.211499670858715 
2334	 0.210305893958166 
2335	 0.209025666163495 
2336	 0.207627271334751 
2337	 0.206062353795176 
2338	 0.204691373496255 
2339	 0.203090251911423 
2340	 0.20153855076147 
2341	 0.20020516096791 
2342	 0.198911295962737 
2343	 0.197752653235947 
2344	 0.196569087584968 
2345	 0.195751335394889 
2346	 0.195383905101021 
2347	 0.195332398375618 
2348	 0.195565247416499 
2349	 0.196030004030833 
2350	 0.196641897820249 
2351	 0.197426224826533 
2352	 0.19895433511474 
2353	 0.200985440268357 
2354	 0.202579495795838 
2355	 0.204136795358633 
2356	 0.205626292296251 
2357	 0.206756893207799 
2358	 0.208218791568369 
2359	 0.20940643250861 
2360	 0.209867315605554 
2361	 0.210152229855485 
2362	 0.210129130674241 
2363	 0.210019396623326 
2364	 0.209954471313902 
2365	 0.209610402821817 
2366	 0.209432979426912 
2367	 0.209425039413729 
2368	 0.209278843733992 
2369	 0.209239421889808 
2370	 0.208961867660653 
2371	 0.20826278179517 
2372	 0.208117236124089 
2373	 0.208328336926646 
2374	 0.208086552549305 
2375	 0.207849564082865 
2376	 0.207593545723765 
2377	 0.207168005502622 
2378	 0.207156341046182 
2379	 0.207350894113746 
2380	 0.207293246605586 
2381	 0.207238293015272 
2382	 0.207321834376901 
2383	 0.207506420723329 
2384	 0.207593437786157 
2385	 0.20776900295494 
2386	 0.207896678582119 
2387	 0.207962932371704 
2388	 0.207908348628434 
2389	 0.207757282068607 
2390	 0.207753558345697 
2391	 0.207694285460928 
2392	 0.207692554757034 
2393	 0.208061451028835 
2394	 0.207859212020331 
2395	 0.207008463401298 
2396	 0.206880496576767 
2397	 0.206844416636121 
2398	 0.206958545241904 
2399	 0.207821698668365 
2400	 0.207857957985884 
2401	 0.207309049183779 
2402	 0.207259549888566 
2403	 0.207084582816907 
2404	 0.207023296016161 
2405	 0.207117862110791 
2406	 0.206706078131574 
2407	 0.206556577605187 
2408	 0.206914213006585 
2409	 0.206919620063903 
2410	 0.207060793651348 
2411	 0.207146587580491 
2412	 0.206761541464064 
2413	 0.206735726182915 
2414	 0.206681259882027 
2415	 0.206621843944472 
2416	 0.207060280607235 
2417	 0.207279921370738 
2418	 0.207350265148086 
2419	 0.207238025614944 
2420	 0.207055962099117 
2421	 0.206984420027433 
2422	 0.207221462116625 
2423	 0.207784634875419 
2424	 0.208109028203435 
2425	 0.208248058654356 
2426	 0.207889036593179 
2427	 0.207665138743119 
2428	 0.207471922254785 
2429	 0.20702700189885 
2430	 0.207266986951563 
2431	 0.207639281065765 
2432	 0.207599178786683 
2433	 0.207543341975907 
2434	 0.207397924840341 
2435	 0.206549709621759 
2436	 0.206107039735145 
2437	 0.205992766353198 
2438	 0.205577437138623 
2439	 0.205800099843893 
2440	 0.205793114430824 
2441	 0.205825486886689 
2442	 0.205908772244889 
2443	 0.205416266216096 
2444	 0.205264880395177 
2445	 0.205203803797386 
2446	 0.205091084583211 
2447	 0.205297835729343 
2448	 0.205344750127817 
2449	 0.205301585490785 
2450	 0.204936705031793 
2451	 0.204592704824082 
2452	 0.204898519706853 
2453	 0.204804940133552 
2454	 0.204913375969081 
2455	 0.20469138671033 
2456	 0.203794074745702 
2457	 0.203317369991333 
2458	 0.202456769192027 
2459	 0.201963135014802 
2460	 0.201824086050805 
2461	 0.201003204070502 
2462	 0.200808601522509 
2463	 0.200803366277355 
2464	 0.200459906140122 
2465	 0.200967897365066 
2466	 0.201054583265341 
2467	 0.200579222505553 
2468	 0.200085317319547 
2469	 0.199058066896765 
2470	 0.198841801782023 
2471	 0.199500890168984 
2472	 0.19984963163335 
2473	 0.199959480650313 
2474	 0.199321233893241 
2475	 0.198204368663996 
2476	 0.198138884704374 
2477	 0.198953280131098 
2478	 0.199906073159648 
2479	 0.200159614385895 
2480	 0.20050291329812 
2481	 0.200635229748443 
2482	 0.200549486072733 
2483	 0.201556177289423 
2484	 0.201227064093411 
2485	 0.200919126135375 
2486	 0.200195381173853 
2487	 0.198562190440416 
2488	 0.197200382544598 
2489	 0.19752173149648 
2490	 0.198264825906464 
2491	 0.198906147158529 
2492	 0.200355184221035 
2493	 0.201211780081712 
2494	 0.20162502089056 
2495	 0.202604299894784 
2496	 0.204308622249945 
2497	 0.205487254868491 
2498	 0.204872556782863 
2499	 0.20441605624958 
2500	 0.204007881702876 
