Wavelength	Tablay400047.asd
350	 0.151300740808718 
351	 0.046045262290056 
352	-1.86026799097586E-02 
353	 6.14755002611583E-02 
354	 0.134889244883717 
355	 0.118699130920977 
356	 7.30570019243692E-02 
357	 6.70059062744433E-02 
358	 6.26974997123947E-02 
359	 5.65893563130216E-02 
360	 6.34052986292436E-02 
361	 9.71066123573529E-02 
362	 7.84009530502123E-02 
363	 7.08808280272537E-02 
364	 0.083691191339663 
365	 3.49105842015249E-02 
366	 2.22846076862737E-02 
367	 3.80095969175158E-02 
368	 5.00815648357546E-02 
369	 4.35537896186114E-02 
370	 1.19436409639524E-02 
371	-1.60299110279079E-03 
372	 6.05119134857205E-02 
373	 8.55884776905515E-02 
374	 7.33375616069857E-02 
375	 4.02479720635401E-02 
376	 1.84986041227597E-02 
377	 3.35289138350846E-02 
378	 5.91975199483049E-02 
379	 6.43562096138223E-02 
380	 3.78699485963464E-02 
381	 2.94706456530007E-02 
382	 3.24094039905764E-02 
383	 1.00231518858283E-02 
384	 2.59939835114656E-02 
385	 0.060010239863789 
386	 7.98435855101464E-02 
387	 5.09617076226669E-02 
388	 3.77416969899513E-02 
389	 4.52635671768581E-02 
390	 5.72014263633583E-02 
391	 5.13943138743208E-02 
392	 6.57989394652416E-02 
393	 8.07016892470259E-02 
394	 4.81731830899625E-02 
395	 3.28538621383464E-02 
396	 4.54293872871585E-02 
397	 0.069196144775456 
398	 6.03687464535246E-02 
399	 4.77342571973906E-02 
400	 0.0502114957657 
401	 7.09112991711211E-02 
402	 6.41546057491751E-02 
403	 6.73622171151916E-02 
404	 7.48636383682321E-02 
405	 0.05356158466797 
406	 0.057971341454145 
407	 6.98907752797855E-02 
408	 7.08407601558933E-02 
409	 5.95332313648148E-02 
410	 4.76722432403329E-02 
411	 4.60487463459069E-02 
412	 5.78425223129654E-02 
413	 6.00313699331822E-02 
414	 5.62222564874601E-02 
415	 5.14849928238043E-02 
416	 0.05067896590239 
417	 5.48265083484938E-02 
418	 5.53740854205805E-02 
419	 0.050749274338033 
420	 5.99227419795202E-02 
421	 5.54528054281154E-02 
422	 4.71380983401674E-02 
423	 5.41518964374626E-02 
424	 0.052832884765647 
425	 0.055218026039364 
426	 6.02899766185576E-02 
427	 5.06150858712394E-02 
428	 5.02533764082831E-02 
429	 5.35728823932803E-02 
430	 5.24819583400146E-02 
431	 5.14397652178112E-02 
432	 4.94192291743646E-02 
433	 4.79540773564407E-02 
434	 4.90721960477417E-02 
435	 4.54997682202459E-02 
436	 4.84825603455524E-02 
437	 5.86168775987916E-02 
438	 5.84681015751635E-02 
439	 0.051869049905964 
440	 4.73955874275614E-02 
441	 5.07851469086136E-02 
442	 5.00381868801874E-02 
443	 4.98814016238113E-02 
444	 5.07129458828106E-02 
445	 4.94076537535867E-02 
446	 4.63979558826371E-02 
447	 4.66812547671606E-02 
448	 5.11111404175401E-02 
449	 5.09326422613613E-02 
450	 4.64872761382084E-02 
451	 4.47475800903434E-02 
452	 0.051557292992061 
453	 4.95532571783773E-02 
454	 4.67045969699701E-02 
455	 4.69168887350803E-02 
456	 4.78727471382574E-02 
457	 4.89298262444628E-02 
458	 4.99209885227244E-02 
459	 0.050463301794328 
460	 0.048800166746393 
461	 0.048711019582506 
462	 4.89146434294336E-02 
463	 4.63483356119662E-02 
464	 4.82215419643464E-02 
465	 0.048333156560002 
466	 4.50946526533398E-02 
467	 4.57443071941477E-02 
468	 4.74994886664442E-02 
469	 4.72469386016612E-02 
470	 4.39830590200832E-02 
471	 4.54442852533066E-02 
472	 4.65998959392275E-02 
473	 4.63595649619781E-02 
474	 4.68606797461879E-02 
475	 4.66310266130744E-02 
476	 4.73106199749876E-02 
477	 4.89333438227889E-02 
478	 4.68853444531003E-02 
479	 4.64477904467938E-02 
480	 4.70404010924756E-02 
481	 0.046431420007236 
482	 4.70576680855414E-02 
483	 0.046652189687099 
484	 4.56210461179658E-02 
485	 0.047499135794736 
486	 4.70196455774484E-02 
487	 4.58761792516744E-02 
488	 4.63109156609589E-02 
489	 4.76870342366273E-02 
490	 4.67034409299944E-02 
491	 4.48482605858087E-02 
492	 4.57420049909203E-02 
493	 4.49039059626371E-02 
494	 0.044635052492993 
495	 4.57084277182923E-02 
496	 0.045199416830399 
497	 4.54652998982336E-02 
498	 4.57416723907929E-02 
499	 4.49341993172902E-02 
500	 0.044602902452155 
501	 0.044948456279666 
502	 4.52959516699079E-02 
503	 0.044434935885698 
504	 4.44243301165507E-02 
505	 4.46914555997604E-02 
506	 4.47920219196233E-02 
507	 4.59263987772869E-02 
508	 0.045633079633912 
509	 4.49785686375464E-02 
510	 4.59364962906973E-02 
511	 4.52423178424086E-02 
512	 4.44519914697119E-02 
513	 4.42474151482021E-02 
514	 4.36998120212466E-02 
515	 4.36795474817798E-02 
516	 4.40610269052585E-02 
517	 4.43533748398865E-02 
518	 4.36294862079919E-02 
519	 4.34780557723088E-02 
520	 4.37553845934762E-02 
521	 4.32745716888819E-02 
522	 4.36099358902259E-02 
523	 4.39761092475457E-02 
524	 4.39458674095288E-02 
525	 0.044517413477521 
526	 4.40891383913999E-02 
527	 4.33491195335738E-02 
528	 4.34864226796124E-02 
529	 0.04369050310995 
530	 4.36364639216823E-02 
531	 4.33649516491329E-02 
532	 4.32604300397344E-02 
533	 4.37916673300255E-02 
534	 4.39074283915146E-02 
535	 4.30801481388289E-02 
536	 4.31608118873249E-02 
537	 4.34321401818751E-02 
538	 4.35226404331765E-02 
539	 4.33459253760538E-02 
540	 0.043693645079573 
541	 4.35553618820005E-02 
542	 4.27857581699459E-02 
543	 4.29070655797525E-02 
544	 4.29529579802058E-02 
545	 4.29146953488457E-02 
546	 4.29842993435792E-02 
547	 4.29951478111732E-02 
548	 4.29061376378039E-02 
549	 4.27731925401141E-02 
550	 4.27308422047781E-02 
551	 0.04287593921955 
552	 4.28494711947497E-02 
553	 4.25921069637764E-02 
554	 4.30684841884165E-02 
555	 4.30882964226581E-02 
556	 0.042838275473374 
557	 4.30071303093979E-02 
558	 4.27369892672872E-02 
559	 4.25391284959909E-02 
560	 4.26843252582035E-02 
561	 4.29487298746253E-02 
562	 4.28974397591382E-02 
563	 4.27151150210254E-02 
564	 4.26565399298533E-02 
565	 4.24888387283094E-02 
566	 4.23437005499824E-02 
567	 4.22209289290762E-02 
568	 4.20483938621209E-02 
569	 4.22287988395916E-02 
570	 4.22812625642037E-02 
571	 4.20364579939724E-02 
572	 4.22498622469809E-02 
573	 4.24998376664927E-02 
574	 4.26470162779749E-02 
575	 4.26615570781407E-02 
576	 0.042578479882974 
577	 4.24581849941318E-02 
578	 4.23764468007706E-02 
579	 4.24173937805501E-02 
580	 4.24358213609839E-02 
581	 4.23618693738892E-02 
582	 4.22306577262775E-02 
583	 4.23539559086123E-02 
584	 4.22838100270843E-02 
585	 4.21837245558048E-02 
586	 4.24774316667418E-02 
587	 4.24354725789056E-02 
588	 4.22195517136993E-02 
589	 4.20667585567131E-02 
590	 0.042156576470449 
591	 4.22654478775846E-02 
592	 4.24470047830755E-02 
593	 4.27304827521501E-02 
594	 4.26722200365945E-02 
595	 4.25582313329659E-02 
596	 4.24974106468176E-02 
597	 4.24199974678543E-02 
598	 4.22873039337358E-02 
599	 4.21044454790934E-02 
600	 4.19541785468264E-02 
601	 0.042125789663736 
602	 0.042054528133288 
603	 4.18838856343842E-02 
604	 4.20056127669485E-02 
605	 4.21983808240948E-02 
606	 4.22685256605446E-02 
607	 4.22317505052004E-02 
608	 4.23542432968704E-02 
609	 0.042160430835601 
610	 4.18879773760281E-02 
611	 4.18697400293112E-02 
612	 4.21631256969181E-02 
613	 4.23969288439427E-02 
614	 4.24123989612327E-02 
615	 4.22352986610223E-02 
616	 4.21493494898311E-02 
617	 0.042042806346603 
618	 4.18878688411254E-02 
619	 0.041906783183713 
620	 4.19469848304346E-02 
621	 4.19784716135843E-02 
622	 4.19959992457065E-02 
623	 4.18956810595961E-02 
624	 0.041992497535286 
625	 0.042220450658928 
626	 4.21692312196002E-02 
627	 4.20915661112604E-02 
628	 4.19534855996759E-02 
629	 0.041790951236531 
630	 4.19660691826919E-02 
631	 4.20144058390331E-02 
632	 4.18773362818057E-02 
633	 4.17271235530088E-02 
634	 4.19309473050141E-02 
635	 4.20423130499035E-02 
636	 4.19148788245932E-02 
637	 4.18565797871847E-02 
638	 4.18295747627731E-02 
639	 0.041896181412202 
640	 4.20482222973573E-02 
641	 4.20058152838848E-02 
642	 4.19401796549478E-02 
643	 4.19675919676152E-02 
644	 4.21079621673918E-02 
645	 4.18274915502676E-02 
646	 4.16554832437828E-02 
647	 0.041820570252031 
648	 4.18559383968795E-02 
649	 4.19190952517358E-02 
650	 0.041899691180614 
651	 4.17271370886374E-02 
652	 0.041791803300175 
653	 4.18551810048352E-02 
654	 4.18793554275604E-02 
655	 4.19908581803456E-02 
656	 4.20490122830891E-02 
657	 4.20810396094844E-02 
658	 4.21038219980942E-02 
659	 4.20503637177463E-02 
660	 4.19766174152958E-02 
661	 0.041963717273064 
662	 4.20519714634271E-02 
663	 4.19987803219005E-02 
664	 4.21098299374307E-02 
665	 4.23100894063989E-02 
666	 4.21451313083895E-02 
667	 4.21472121922352E-02 
668	 4.21744964760565E-02 
669	 4.21099286452525E-02 
670	 4.22719600633294E-02 
671	 4.23085845979849E-02 
672	 4.22544139743132E-02 
673	 4.22814206389974E-02 
674	 4.21745096953962E-02 
675	 4.21329823684008E-02 
676	 4.22250632335586E-02 
677	 4.23227018166422E-02 
678	 4.22783477394953E-02 
679	 4.22140524175756E-02 
680	 4.22506813908609E-02 
681	 4.23063577925806E-02 
682	 4.22493514885312E-02 
683	 0.042187900766908 
684	 0.042315107103281 
685	 4.23385385778451E-02 
686	 4.23728693894425E-02 
687	 4.24625918532716E-02 
688	 4.24967965466192E-02 
689	 0.04250852687782 
690	 4.25041997212453E-02 
691	 0.042489525422959 
692	 4.24759587035382E-02 
693	 4.25147197716138E-02 
694	 4.26053076972596E-02 
695	 4.27091293804647E-02 
696	 4.27851732762371E-02 
697	 4.28395244157045E-02 
698	 4.28554154778812E-02 
699	 4.27636682880519E-02 
700	 4.27886266817391E-02 
701	 4.28564731046743E-02 
702	 4.28561158251259E-02 
703	 4.28904342805767E-02 
704	 4.29496684325702E-02 
705	 4.29810819453214E-02 
706	 4.29310071893202E-02 
707	 4.30455887839521E-02 
708	 4.31450560990499E-02 
709	 4.31291740160796E-02 
710	 4.31188782921938E-02 
711	 4.31473469612311E-02 
712	 4.32307326918103E-02 
713	 0.043342735734968 
714	 4.33351429795163E-02 
715	 4.33729957232419E-02 
716	 4.34347860048499E-02 
717	 4.33860209589764E-02 
718	 4.34450381664077E-02 
719	 4.35799064304107E-02 
720	 0.043698271178975 
721	 4.36632434603144E-02 
722	 4.36876849661548E-02 
723	 4.37711849733461E-02 
724	 4.38647386170998E-02 
725	 4.40213699471161E-02 
726	 4.40990066265349E-02 
727	 4.41051431536835E-02 
728	 0.044149376952426 
729	 4.41816022900008E-02 
730	 4.42536408479476E-02 
731	 4.43602447245253E-02 
732	 4.43831099805823E-02 
733	 4.44834782064547E-02 
734	 4.45811184305503E-02 
735	 4.45852260806258E-02 
736	 0.044633086791065 
737	 4.47118209230705E-02 
738	 4.48016456524399E-02 
739	 4.48871501468576E-02 
740	 4.50452390006743E-02 
741	 4.51818454465104E-02 
742	 4.52350284936511E-02 
743	 4.52172656605335E-02 
744	 4.53623278875474E-02 
745	 4.55185676896863E-02 
746	 4.55237120351646E-02 
747	 4.55512981261275E-02 
748	 4.56131445699749E-02 
749	 4.57017461825282E-02 
750	 0.045799761824889 
751	 4.59441590033424E-02 
752	 4.60119195881173E-02 
753	 0.045996712806849 
754	 4.60569734883245E-02 
755	 4.62268007444647E-02 
756	 4.63701251409089E-02 
757	 4.64147222288096E-02 
758	 4.65983159120215E-02 
759	 4.67391405326966E-02 
760	 4.67946056737599E-02 
761	 4.68106615072507E-02 
762	 4.69261286207924E-02 
763	 4.70688173948641E-02 
764	 4.71685657565882E-02 
765	 4.71860377704894E-02 
766	 4.72578456857953E-02 
767	 4.73792673163398E-02 
768	 4.75116731186266E-02 
769	 4.76082920562508E-02 
770	 4.77143936799577E-02 
771	 4.78421117523138E-02 
772	 4.79822774358195E-02 
773	 4.80879163159982E-02 
774	 4.81940894989317E-02 
775	 4.83142744466935E-02 
776	 4.84373681100268E-02 
777	 4.85160835817591E-02 
778	 4.86070278425802E-02 
779	 4.87256295754978E-02 
780	 4.87904129686322E-02 
781	 0.048937991801593 
782	 4.90819684604763E-02 
783	 4.91402331520999E-02 
784	 4.92764599714463E-02 
785	 4.94257979186797E-02 
786	 4.95394640455982E-02 
787	 4.96037034267221E-02 
788	 0.049776925847722 
789	 4.99632858567576E-02 
790	 5.00760242860207E-02 
791	 5.00799213578629E-02 
792	 5.01623730351353E-02 
793	 5.03611913930489E-02 
794	 5.06100343253189E-02 
795	 5.06770338371816E-02 
796	 5.07854633945561E-02 
797	 5.09346367577507E-02 
798	 5.10528154186873E-02 
799	 5.11471600415472E-02 
800	 5.12940850950798E-02 
801	 5.14667786472044E-02 
802	 5.15699225192423E-02 
803	 5.16905154674249E-02 
804	 5.18428965012201E-02 
805	 0.052019316179703 
806	 5.21949051308841E-02 
807	 5.23248462667845E-02 
808	 5.24270095232433E-02 
809	 5.25448773486915E-02 
810	 5.27512100386084E-02 
811	 5.28844267812161E-02 
812	 5.29719260437739E-02 
813	 5.31229584486265E-02 
814	 5.33723979417831E-02 
815	 5.35464297392214E-02 
816	 0.053641158335911 
817	 5.38055591159126E-02 
818	 5.39869158669295E-02 
819	 5.41451187677141E-02 
820	 5.42938040748185E-02 
821	 5.45318013103073E-02 
822	 5.47075359972024E-02 
823	 5.48303253226222E-02 
824	 5.49534831598489E-02 
825	 5.51163424639324E-02 
826	 5.52920030272381E-02 
827	 0.055489884323292 
828	 5.57093604101364E-02 
829	 5.57777951230212E-02 
830	 5.60497007205111E-02 
831	 5.64381643951265E-02 
832	 5.64974418098067E-02 
833	 5.65520080705619E-02 
834	 5.66763435857152E-02 
835	 5.68785701620374E-02 
836	 5.71199276753282E-02 
837	 0.057364982235489 
838	 5.75783943027359E-02 
839	 5.77485938010628E-02 
840	 5.79074630525798E-02 
841	 5.81571701514274E-02 
842	 5.84060337074491E-02 
843	 5.85261032314385E-02 
844	 0.058630022649116 
845	 5.88209950768068E-02 
846	 5.90757158632921E-02 
847	 5.92848787771732E-02 
848	 0.059473787131482 
849	 5.96599195038588E-02 
850	 5.98715325285912E-02 
851	 6.01405880874341E-02 
852	 6.03158744528742E-02 
853	 6.04343032563016E-02 
854	 6.05827766064292E-02 
855	 0.060870492601363 
856	 6.10299969836537E-02 
857	 6.11733797926645E-02 
858	 0.06145113713542 
859	 6.16915818890346E-02 
860	 0.061902908669169 
861	 6.21232024714807E-02 
862	 0.062364918911173 
863	 0.062367167638067 
864	 6.25863546581313E-02 
865	 6.30297068755441E-02 
866	 6.32944424632533E-02 
867	 6.33758673818899E-02 
868	 6.34763502199002E-02 
869	 6.36968116162391E-02 
870	 6.39508337708546E-02 
871	 0.064227670090161 
872	 6.45152038437874E-02 
873	 6.47736730538526E-02 
874	 6.48980961000737E-02 
875	 6.49832894516241E-02 
876	 6.51881505108125E-02 
877	 6.55628354294734E-02 
878	 6.57175861789262E-02 
879	 6.60291747667801E-02 
880	 6.63163914102154E-02 
881	 6.62882419529171E-02 
882	 6.66157384435808E-02 
883	 6.69692917404423E-02 
884	 6.72045251745471E-02 
885	 6.73795701248695E-02 
886	 6.75863837091625E-02 
887	 6.78836759326491E-02 
888	 0.068164352508856 
889	 6.81852750575815E-02 
890	 0.068477323812733 
891	 6.88429781739898E-02 
892	 6.90941149373057E-02 
893	 0.069295339250875 
894	 6.94389228970146E-02 
895	 6.95807332536699E-02 
896	 6.98017839989008E-02 
897	 7.02295209455441E-02 
898	 7.04783576530942E-02 
899	 0.070601292590697 
900	 7.07939875083967E-02 
901	 7.11388620259777E-02 
902	 7.14547805619515E-02 
903	 7.16452969643851E-02 
904	 0.071732230545209 
905	 7.20263142676914E-02 
906	 7.24595944099191E-02 
907	 7.27885803713717E-02 
908	 7.27764825153465E-02 
909	 7.30325698817819E-02 
910	 7.33416911641215E-02 
911	 0.073601995395405 
912	 7.38995369385824E-02 
913	 0.074109085117941 
914	 7.42966980276225E-02 
915	 0.074537764952605 
916	 7.48663938257676E-02 
917	 0.075026751327204 
918	 7.52514049457772E-02 
919	 7.56588443792656E-02 
920	 7.59780910144158E-02 
921	 7.61531085728636E-02 
922	 7.63177761685411E-02 
923	 7.65811200668292E-02 
924	 7.68325270857716E-02 
925	 0.077265813030129 
926	 7.76638694535475E-02 
927	 7.78424648967129E-02 
928	 7.82004585370368E-02 
929	 7.83846724675469E-02 
930	 7.85044469118335E-02 
931	 7.88059933369542E-02 
932	 7.92303608059854E-02 
933	 7.95506291276698E-02 
934	 7.97999784401974E-02 
935	 8.01115334984461E-02 
936	 8.02605497712408E-02 
937	 8.05824257443849E-02 
938	 8.10049369494855E-02 
939	 8.12349859916413E-02 
940	 8.16861695181248E-02 
941	 8.19550626827645E-02 
942	 8.20317869995648E-02 
943	 8.22758852889517E-02 
944	 8.26251795531698E-02 
945	 8.30524541006798E-02 
946	 8.34153306138809E-02 
947	 8.35188011354192E-02 
948	 8.38421518037491E-02 
949	 8.43334113579528E-02 
950	 8.47564238147202E-02 
951	 8.48219526450561E-02 
952	 8.52380303101093E-02 
953	 0.085475379164033 
954	 8.54307072016967E-02 
955	 8.58956082123981E-02 
956	 8.63863709743102E-02 
957	 8.66292055313189E-02 
958	 8.66683406378543E-02 
959	 8.69886610915501E-02 
960	 8.74067206834081E-02 
961	 8.78757761849696E-02 
962	 8.82894352690737E-02 
963	 8.83966759027536E-02 
964	 8.83727947983735E-02 
965	 8.87120546191237E-02 
966	 8.94195248033695E-02 
967	 8.92786102226769E-02 
968	 8.96359501596322E-02 
969	 9.01954936700333E-02 
970	 9.04902664896185E-02 
971	 9.08641459868188E-02 
972	 9.11228663525622E-02 
973	 9.11602777363276E-02 
974	 9.11189482678911E-02 
975	 9.17294206488289E-02 
976	 9.21311364001594E-02 
977	 0.092474341822717 
978	 9.29867780030828E-02 
979	 9.30762565470156E-02 
980	 9.32681264859398E-02 
981	 9.36880658878738E-02 
982	 9.42169580487954E-02 
983	 0.094493695045807 
984	 9.43963794288154E-02 
985	 0.094453468918132 
986	 9.50825110826233E-02 
987	 9.55816816425588E-02 
988	 0.095908258477922 
989	 9.61389983544132E-02 
990	 9.64072700190889E-02 
991	 9.68149905959175E-02 
992	 9.69208567526503E-02 
993	 9.71225202855398E-02 
994	 9.77986367494834E-02 
995	 0.098265131039709 
996	 9.79997573849766E-02 
997	 9.77401736388369E-02 
998	 9.82996393091026E-02 
999	 9.91300634425245E-02 
1000	 9.95894669837864E-02 
1001	 0.104006974990675 
1002	 0.104305598825951 
1003	 0.104702930187736 
1004	 0.104981061336528 
1005	 0.105237105945347 
1006	 0.105492068244925 
1007	 0.105607393625316 
1008	 0.105890958440874 
1009	 0.106270068331608 
1010	 0.106572349776749 
1011	 0.106853895042352 
1012	 0.107284968299651 
1013	 0.107925450435527 
1014	 0.108275867721442 
1015	 0.108496951896464 
1016	 0.108847312316916 
1017	 0.10926151047645 
1018	 0.109331952855011 
1019	 0.109815731878871 
1020	 0.110336307490639 
1021	 0.110660087390498 
1022	 0.110776971184552 
1023	 0.111090103099742 
1024	 0.111437565408947 
1025	 0.111788013808251 
1026	 0.112233818423612 
1027	 0.112548951802399 
1028	 0.112792173937257 
1029	 0.112989467528165 
1030	 0.113289527871449 
1031	 0.113548341056016 
1032	 0.113908735770263 
1033	 0.114355527166197 
1034	 0.114674482600082 
1035	 0.115054488092093 
1036	 0.115375806798019 
1037	 0.115690150235628 
1038	 0.115952648999471 
1039	 0.116085247301486 
1040	 0.116325776025799 
1041	 0.116620662311427 
1042	 0.116881893879834 
1043	 0.117118118457428 
1044	 0.117457419626943 
1045	 0.117892778806912 
1046	 0.118281322627883 
1047	 0.118769255299775 
1048	 0.11934487351148 
1049	 0.119595046590117 
1050	 0.119762554227183 
1051	 0.119978108783593 
1052	 0.120227365955933 
1053	 0.120588590864703 
1054	 0.121221777531127 
1055	 0.121621921476099 
1056	 0.12193827310966 
1057	 0.12226046409826 
1058	 0.122524002602583 
1059	 0.122781115273279 
1060	 0.123134719493081 
1061	 0.123483513841677 
1062	 0.123639061454154 
1063	 0.123990755281821 
1064	 0.124406909578713 
1065	 0.124816959203647 
1066	 0.125394370579994 
1067	 0.125753594898626 
1068	 0.125938196435613 
1069	 0.126271019745492 
1070	 0.126711809197377 
1071	 0.127259185608961 
1072	 0.127795531287695 
1073	 0.128313864689565 
1074	 0.128735638169789 
1075	 0.128869846916005 
1076	 0.129095795860409 
1077	 0.129596691503951 
1078	 0.130033791054795 
1079	 0.130492298557507 
1080	 0.131010491670241 
1081	 0.131378712892725 
1082	 0.131745223566358 
1083	 0.132080986125466 
1084	 0.132402029220566 
1085	 0.13279237550833 
1086	 0.133191059903397 
1087	 0.133559959971234 
1088	 0.134057302410005 
1089	 0.134600040117449 
1090	 0.135031027594659 
1091	 0.135389221691175 
1092	 0.135681151738029 
1093	 0.135985992088458 
1094	 0.1363785539231 
1095	 0.136801533662671 
1096	 0.137292581738841 
1097	 0.137774248207627 
1098	 0.138022010121972 
1099	 0.138228482165115 
1100	 0.138563529496696 
1101	 0.13884328123863 
1102	 0.13909136350064 
1103	 0.139466324572109 
1104	 0.139954413316349 
1105	 0.140437748660645 
1106	 0.140842513761669 
1107	 0.141296860548757 
1108	 0.141651640077968 
1109	 0.141826226840198 
1110	 0.142173727947556 
1111	 0.142613210136505 
1112	 0.142980117411632 
1113	 0.143376097789786 
1114	 0.143657729047223 
1115	 0.1438696292281 
1116	 0.14420038061336 
1117	 0.144579150888653 
1118	 0.144883052068482 
1119	 0.145126309967344 
1120	 0.145431422166657 
1121	 0.145728227286081 
1122	 0.146021270693139 
1123	 0.146404815880972 
1124	 0.146884075306606 
1125	 0.147243870618671 
1126	 0.147574389755964 
1127	 0.14786215817874 
1128	 0.148112716340387 
1129	 0.148477546724287 
1130	 0.148752125882369 
1131	 0.149074995750587 
1132	 0.149470153037944 
1133	 0.14976134190363 
1134	 0.150123229501473 
1135	 0.150426297845515 
1136	 0.150640298474258 
1137	 0.150925911230502 
1138	 0.15120048181846 
1139	 0.151509662772938 
1140	 0.151847165713446 
1141	 0.152300043640019 
1142	 0.152638843233647 
1143	 0.152990163964357 
1144	 0.153360404702714 
1145	 0.153654162964506 
1146	 0.153960567208427 
1147	 0.154289414071731 
1148	 0.154558809573134 
1149	 0.154743638737689 
1150	 0.155001496894856 
1151	 0.155315201598818 
1152	 0.155636570082988 
1153	 0.156059248705072 
1154	 0.15640180799099 
1155	 0.156674264818864 
1156	 0.157009366175289 
1157	 0.157365815279746 
1158	 0.157687296466915 
1159	 0.1580191303279 
1160	 0.15838059547374 
1161	 0.158654429012201 
1162	 0.158971036741816 
1163	 0.159288788498517 
1164	 0.159544265644604 
1165	 0.159900900885482 
1166	 0.160225676313971 
1167	 0.160476071613054 
1168	 0.160807097166878 
1169	 0.161107125005772 
1170	 0.161320357546132 
1171	 0.161608118221932 
1172	 0.161975535720195 
1173	 0.162316344683355 
1174	 0.162625325434698 
1175	 0.162977254989762 
1176	 0.163411141706467 
1177	 0.163732183282292 
1178	 0.163982463965901 
1179	 0.164326727657579 
1180	 0.164531849859888 
1181	 0.164772346727981 
1182	 0.165157843509111 
1183	 0.165470956340476 
1184	 0.165777390064268 
1185	 0.166048329182941 
1186	 0.166329651828534 
1187	 0.166557166669132 
1188	 0.166831216215689 
1189	 0.167133140532574 
1190	 0.167450611553369 
1191	 0.167763156016216 
1192	 0.168073445069276 
1193	 0.168421515456527 
1194	 0.168757974556734 
1195	 0.169071978662728 
1196	 0.169406958640382 
1197	 0.169731397736 
1198	 0.170121036147232 
1199	 0.170529841030788 
1200	 0.170866863928261 
1201	 0.171274933710577 
1202	 0.171622414752342 
1203	 0.171928954138359 
1204	 0.17233962502225 
1205	 0.172716351881799 
1206	 0.173101806872901 
1207	 0.173470066276622 
1208	 0.173806004950065 
1209	 0.174206619590867 
1210	 0.174611332394445 
1211	 0.175057430569899 
1212	 0.17561389925376 
1213	 0.176086053140064 
1214	 0.176489549557392 
1215	 0.176975206702833 
1216	 0.17746340892431 
1217	 0.17796490193939 
1218	 0.178522187827655 
1219	 0.179103215475257 
1220	 0.179630070491472 
1221	 0.18016176859155 
1222	 0.180689617951629 
1223	 0.181249232850136 
1224	 0.181782966529063 
1225	 0.18231046929711 
1226	 0.182828446660281 
1227	 0.18331475322461 
1228	 0.183852323294453 
1229	 0.184434942890751 
1230	 0.184963581043147 
1231	 0.185506398610756 
1232	 0.18601564892529 
1233	 0.186436402040874 
1234	 0.186925131195865 
1235	 0.187456724034575 
1236	 0.187969137602636 
1237	 0.188518840013403 
1238	 0.18902827701139 
1239	 0.189533517298799 
1240	 0.189984085098692 
1241	 0.190392230047435 
1242	 0.190768987649518 
1243	 0.191225481993468 
1244	 0.191702282677164 
1245	 0.192141752837372 
1246	 0.192631167425252 
1247	 0.193071386153586 
1248	 0.193428232938796 
1249	 0.193854352996447 
1250	 0.194322603919935 
1251	 0.194770769321683 
1252	 0.195241613452498 
1253	 0.195673869995289 
1254	 0.196048709614859 
1255	 0.196489739560479 
1256	 0.196968369527256 
1257	 0.197402584764698 
1258	 0.197888562665428 
1259	 0.198317673158255 
1260	 0.198599382980108 
1261	 0.198998045677316 
1262	 0.199449787509251 
1263	 0.19993832697126 
1264	 0.200355789797836 
1265	 0.200819820762262 
1266	 0.201206244447774 
1267	 0.20145381746527 
1268	 0.201862341634195 
1269	 0.202350794197793 
1270	 0.202789863589664 
1271	 0.203277048399695 
1272	 0.203723376002404 
1273	 0.204109292389169 
1274	 0.204541651316049 
1275	 0.20498412881722 
1276	 0.205445891372915 
1277	 0.205940134585683 
1278	 0.20641601792291 
1279	 0.206935179243879 
1280	 0.207393626733278 
1281	 0.207767239346052 
1282	 0.208203529893766 
1283	 0.208615494307175 
1284	 0.209072927174045 
1285	 0.209568433909205 
1286	 0.210132208835275 
1287	 0.210660297563427 
1288	 0.211217198382604 
1289	 0.21172002153363 
1290	 0.212207954269684 
1291	 0.212680302535813 
1292	 0.213098412414826 
1293	 0.213567355761229 
1294	 0.214052934877524 
1295	 0.214531600047299 
1296	 0.215037687727748 
1297	 0.215510888813389 
1298	 0.215931192917067 
1299	 0.216416554786875 
1300	 0.216942552601215 
1301	 0.21743306396379 
1302	 0.217950160152546 
1303	 0.218445363828481 
1304	 0.218860261690734 
1305	 0.219345352968203 
1306	 0.219899696849482 
1307	 0.220411842220158 
1308	 0.220925012726013 
1309	 0.22145469096185 
1310	 0.221934823046002 
1311	 0.222371618840858 
1312	 0.222815416677359 
1313	 0.22322440813932 
1314	 0.223694843495174 
1315	 0.224196147075292 
1316	 0.22464931572865 
1317	 0.22512192184912 
1318	 0.225570822238329 
1319	 0.225956215070106 
1320	 0.226385105360437 
1321	 0.226884454638159 
1322	 0.22728254164675 
1323	 0.227606821346343 
1324	 0.227979922585158 
1325	 0.228310298674643 
1326	 0.228677790225044 
1327	 0.229119533438152 
1328	 0.229505221995527 
1329	 0.229840343115312 
1330	 0.230213115699071 
1331	 0.230634457476847 
1332	 0.230981375878293 
1333	 0.231302847891385 
1334	 0.231611206852087 
1335	 0.231933339044833 
1336	 0.232199975309569 
1337	 0.232511429729952 
1338	 0.232875741736412 
1339	 0.23319931961008 
1340	 0.233484742940187 
1341	 0.233809795806415 
1342	 0.234184778190219 
1343	 0.234474493956241 
1344	 0.234736351547861 
1345	 0.234996788134064 
1346	 0.235184965862921 
1347	 0.235440084365256 
1348	 0.235735328225977 
1349	 0.236010101987787 
1350	 0.236317487697346 
1351	 0.236586103276721 
1352	 0.236836208307914 
1353	 0.237074648378026 
1354	 0.237280670626765 
1355	 0.237493255812785 
1356	 0.237707256605781 
1357	 0.237910175160266 
1358	 0.238119154725525 
1359	 0.238308495940855 
1360	 0.23846914106821 
1361	 0.238618411003217 
1362	 0.238861094024783 
1363	 0.239076280850813 
1364	 0.239317240028983 
1365	 0.239626034435986 
1366	 0.239857319694706 
1367	 0.240060749951127 
1368	 0.240237069057417 
1369	 0.240385643937136 
1370	 0.240527701581718 
1371	 0.240632504848791 
1372	 0.240756730144527 
1373	 0.240877724665579 
1374	 0.241012771109902 
1375	 0.241170194260371 
1376	 0.241287435031296 
1377	 0.241394232705177 
1378	 0.241498586430905 
1379	 0.241563012672615 
1380	 0.241663134380171 
1381	 0.241810917804317 
1382	 0.241909325217083 
1383	 0.241991705485745 
1384	 0.242069203391301 
1385	 0.242072599783661 
1386	 0.242154795865938 
1387	 0.242291036363204 
1388	 0.242412093121179 
1389	 0.242557209222147 
1390	 0.242718404810091 
1391	 0.242859458695908 
1392	 0.243043208374143 
1393	 0.243252374295675 
1394	 0.243462187537427 
1395	 0.243680691415774 
1396	 0.243903550988572 
1397	 0.24413251987548 
1398	 0.244376164449585 
1399	 0.244610353485336 
1400	 0.244878556045343 
1401	 0.245045132472433 
1402	 0.245173861636796 
1403	 0.245285306773039 
1404	 0.245326596979843 
1405	 0.245376853765739 
1406	 0.245451234703017 
1407	 0.245456138973215 
1408	 0.245393607989016 
1409	 0.245352109304528 
1410	 0.24524943402134 
1411	 0.245217533736231 
1412	 0.245241137144426 
1413	 0.24522727342872 
1414	 0.245209757210697 
1415	 0.245222573418292 
1416	 0.245186211792948 
1417	 0.245238743000883 
1418	 0.245421279988651 
1419	 0.2455231972869 
1420	 0.245611759841562 
1421	 0.245714966829814 
1422	 0.245784527289583 
1423	 0.245864389551447 
1424	 0.245968736775831 
1425	 0.246081938171512 
1426	 0.24619924002645 
1427	 0.246279907604798 
1428	 0.246393369219512 
1429	 0.246535879879103 
1430	 0.246621801561628 
1431	 0.24668364078235 
1432	 0.246749629100015 
1433	 0.246760999213523 
1434	 0.246865769368561 
1435	 0.247022080816789 
1436	 0.247144994656045 
1437	 0.247330034502377 
1438	 0.247422030224946 
1439	 0.24742255542896 
1440	 0.247508123824451 
1441	 0.247595910104043 
1442	 0.247693037630778 
1443	 0.24780116628354 
1444	 0.247974604162535 
1445	 0.248160106476468 
1446	 0.2483775233638 
1447	 0.248649024560025 
1448	 0.248969751222177 
1449	 0.249302554184806 
1450	 0.249694944385149 
1451	 0.250175651456463 
1452	 0.250664788108234 
1453	 0.251178474098177 
1454	 0.251714312033621 
1455	 0.25229106087195 
1456	 0.252883066940141 
1457	 0.253495274459506 
1458	 0.254124518036334 
1459	 0.254816273380332 
1460	 0.255459305238512 
1461	 0.256101184065035 
1462	 0.256711885169743 
1463	 0.257274013230697 
1464	 0.257839473620504 
1465	 0.25835431724198 
1466	 0.25894323920791 
1467	 0.259497216118434 
1468	 0.260045597821349 
1469	 0.260641390060578 
1470	 0.261189418066855 
1471	 0.261773040307898 
1472	 0.262389423630991 
1473	 0.262942038864011 
1474	 0.26348976146072 
1475	 0.263994889027661 
1476	 0.264425386254831 
1477	 0.264936971681466 
1478	 0.265483668406195 
1479	 0.265958668293555 
1480	 0.266447717349418 
1481	 0.26689352165345 
1482	 0.267263156189804 
1483	 0.267661518130249 
1484	 0.268050280594757 
1485	 0.268471682540805 
1486	 0.268893935844857 
1487	 0.269320785611619 
1488	 0.269782178244048 
1489	 0.270232907088928 
1490	 0.270673764408244 
1491	 0.27111063552195 
1492	 0.271580008157371 
1493	 0.271992771374836 
1494	 0.272294279611086 
1495	 0.272744001193915 
1496	 0.27324833514739 
1497	 0.273755315857713 
1498	 0.274389730172492 
1499	 0.274936005683192 
1500	 0.275398222080005 
1501	 0.275916240909116 
1502	 0.276448546789026 
1503	 0.276982765039428 
1504	 0.277564546598329 
1505	 0.278096588856698 
1506	 0.278626994403076 
1507	 0.279106511252706 
1508	 0.279488733228094 
1509	 0.279943132842082 
1510	 0.280427098111044 
1511	 0.280871142136797 
1512	 0.281360077813499 
1513	 0.28179845608608 
1514	 0.282154005356317 
1515	 0.282530850719172 
1516	 0.282915052964011 
1517	 0.283278965569578 
1518	 0.283611446653989 
1519	 0.283966387559978 
1520	 0.284296499266981 
1521	 0.284677343878291 
1522	 0.285075123911528 
1523	 0.285459074352512 
1524	 0.285805079235536 
1525	 0.286140433999814 
1526	 0.286433687653311 
1527	 0.286673780938239 
1528	 0.286952066294759 
1529	 0.287214403626037 
1530	 0.287498590091158 
1531	 0.287808555761777 
1532	 0.288095178524198 
1533	 0.288372742156076 
1534	 0.288660191683662 
1535	 0.288954083157089 
1536	 0.289225839649737 
1537	 0.289484529180654 
1538	 0.28976640195961 
1539	 0.290013480510197 
1540	 0.290345344380185 
1541	 0.290738758775518 
1542	 0.291116626685735 
1543	 0.291560993711571 
1544	 0.291914283902528 
1545	 0.292188613351091 
1546	 0.292567441372505 
1547	 0.292947040441514 
1548	 0.293356482043096 
1549	 0.293851428410831 
1550	 0.294309399511342 
1551	 0.294754185190092 
1552	 0.295191422314516 
1553	 0.295645796503572 
1554	 0.296079183538615 
1555	 0.296486271376794 
1556	 0.296890883188304 
1557	 0.297287205697976 
1558	 0.297695525114197 
1559	 0.298104966973874 
1560	 0.298494047464173 
1561	 0.298878098612649 
1562	 0.29927426806289 
1563	 0.299649635920509 
1564	 0.300041154662736 
1565	 0.300443257339807 
1566	 0.300873663719425 
1567	 0.301352225958404 
1568	 0.301756451179525 
1569	 0.302151500363872 
1570	 0.302541116052568 
1571	 0.302835835734257 
1572	 0.303218508685172 
1573	 0.303686867515291 
1574	 0.304097573846768 
1575	 0.304524266766922 
1576	 0.304909579412542 
1577	 0.305235849582479 
1578	 0.305593983522048 
1579	 0.305937621734869 
1580	 0.306305105337073 
1581	 0.306713490327872 
1582	 0.307083123908692 
1583	 0.307440601022846 
1584	 0.307800483067139 
1585	 0.308139138796542 
1586	 0.308486876010085 
1587	 0.308828929349457 
1588	 0.309195700622464 
1589	 0.30959509437749 
1590	 0.309953740620835 
1591	 0.310287321467919 
1592	 0.310666813680457 
1593	 0.311056577171145 
1594	 0.311422390326088 
1595	 0.311804783963177 
1596	 0.312199323079272 
1597	 0.312603777083348 
1598	 0.312947385354556 
1599	 0.313271560399655 
1600	 0.313616508268021 
1601	 0.313872761267286 
1602	 0.31421206313811 
1603	 0.314666413684869 
1604	 0.315054805694057 
1605	 0.3154711758079 
1606	 0.31580950749225 
1607	 0.316038760936268 
1608	 0.316338305709644 
1609	 0.316643489367312 
1610	 0.316931032270632 
1611	 0.317250001430402 
1612	 0.317560147149773 
1613	 0.317835651100874 
1614	 0.318110631568973 
1615	 0.318432718579792 
1616	 0.318692050089554 
1617	 0.318862474742114 
1618	 0.319097153967992 
1619	 0.31934236365894 
1620	 0.319580160600029 
1621	 0.319825099920173 
1622	 0.320106438855601 
1623	 0.320430730996084 
1624	 0.320701583720198 
1625	 0.321007453899514 
1626	 0.321260551471717 
1627	 0.321399024183832 
1628	 0.321592330068527 
1629	 0.32182758993101 
1630	 0.322022577307532 
1631	 0.322195793144003 
1632	 0.322387527280243 
1633	 0.322527026006861 
1634	 0.322736966269916 
1635	 0.323058579140994 
1636	 0.323290175104586 
1637	 0.323513738492856 
1638	 0.323709991834037 
1639	 0.323806342522068 
1640	 0.323963899291644 
1641	 0.324157245473806 
1642	 0.324338422577638 
1643	 0.32454740174207 
1644	 0.324722578099883 
1645	 0.324897068078664 
1646	 0.32503667658129 
1647	 0.325131362984736 
1648	 0.325234357161379 
1649	 0.325303467520439 
1650	 0.325390758658901 
1651	 0.325517610533458 
1652	 0.325589001536184 
1653	 0.325631708903638 
1654	 0.325675643427778 
1655	 0.325714686995207 
1656	 0.325699431506491 
1657	 0.325678271305692 
1658	 0.325606969733374 
1659	 0.325448496771583 
1660	 0.325300254957418 
1661	 0.325149936089128 
1662	 0.324959520218473 
1663	 0.324752275167097 
1664	 0.324508074611125 
1665	 0.324240769507039 
1666	 0.323906464095694 
1667	 0.323501831425727 
1668	 0.323102498268525 
1669	 0.322682081164258 
1670	 0.322197350336849 
1671	 0.321704565448258 
1672	 0.321132643362203 
1673	 0.320499596742646 
1674	 0.319781157286404 
1675	 0.319015805045032 
1676	 0.318162574325105 
1677	 0.317181793997829 
1678	 0.316200136482285 
1679	 0.315156205145654 
1680	 0.314067463876765 
1681	 0.312937057559962 
1682	 0.311762085927274 
1683	 0.310578183205934 
1684	 0.309308239796476 
1685	 0.308019711326484 
1686	 0.30657624294883 
1687	 0.304932264969025 
1688	 0.303339092108756 
1689	 0.301689596362174 
1690	 0.30000119963154 
1691	 0.29831600891892 
1692	 0.296635381647328 
1693	 0.294848108955587 
1694	 0.293164229030789 
1695	 0.291562848394548 
1696	 0.289886867613635 
1697	 0.288214693196221 
1698	 0.286516565677842 
1699	 0.284792028802877 
1700	 0.283091440698963 
1701	 0.281382935691456 
1702	 0.279694962447464 
1703	 0.277950903613989 
1704	 0.276358347252833 
1705	 0.274831781053981 
1706	 0.273318460660872 
1707	 0.271979185290236 
1708	 0.27077676018802 
1709	 0.269699625918025 
1710	 0.268809561285839 
1711	 0.267967393918572 
1712	 0.2672161188781 
1713	 0.266469643621912 
1714	 0.265659748656717 
1715	 0.264883745401021 
1716	 0.26402440773135 
1717	 0.263201172841269 
1718	 0.262490594123513 
1719	 0.261863550813271 
1720	 0.261345131260513 
1721	 0.26081746134316 
1722	 0.260289006708006 
1723	 0.259910147847357 
1724	 0.259626973440064 
1725	 0.259424243299078 
1726	 0.259476528192226 
1727	 0.259668056901344 
1728	 0.259946366309851 
1729	 0.260436821473849 
1730	 0.261105377537039 
1731	 0.261902479126872 
1732	 0.262882495367965 
1733	 0.263946735906639 
1734	 0.265056723801556 
1735	 0.26625322174724 
1736	 0.267415802794508 
1737	 0.268553768291964 
1738	 0.269702418959814 
1739	 0.270634722056051 
1740	 0.271462389332826 
1741	 0.272172615764374 
1742	 0.272701648312309 
1743	 0.273158592800812 
1744	 0.273542224107293 
1745	 0.273791956457061 
1746	 0.273846846939539 
1747	 0.273918431592733 
1748	 0.273901898703496 
1749	 0.273920346552609 
1750	 0.273935958626479 
1751	 0.273922167856469 
1752	 0.273833543224804 
1753	 0.273864227553787 
1754	 0.273897593212511 
1755	 0.274065581591475 
1756	 0.274367114651938 
1757	 0.274658929689643 
1758	 0.275037382890367 
1759	 0.275479600015528 
1760	 0.275986640730925 
1761	 0.276636527301701 
1762	 0.277407237182624 
1763	 0.278344525580715 
1764	 0.27933938845293 
1765	 0.280389550648431 
1766	 0.281510239061893 
1767	 0.282639691065573 
1768	 0.283887415255812 
1769	 0.285202836988017 
1770	 0.286464040257003 
1771	 0.287725596103983 
1772	 0.289009252112422 
1773	 0.290341033687258 
1774	 0.291744333872038 
1775	 0.292994858171845 
1776	 0.29416890900527 
1777	 0.295291509303398 
1778	 0.296226475172844 
1779	 0.297293607703141 
1780	 0.298344021737933 
1781	 0.29920789238094 
1782	 0.300085638859815 
1783	 0.300848652499823 
1784	 0.301543839920457 
1785	 0.302276246823973 
1786	 0.302928549475266 
1787	 0.303559530448973 
1788	 0.304132559044382 
1789	 0.304579120359276 
1790	 0.305112383177938 
1791	 0.305682974578723 
1792	 0.30621946431018 
1793	 0.306779931799327 
1794	 0.307169797973369 
1795	 0.307558961690864 
1796	 0.307897792039309 
1797	 0.308230560309325 
1798	 0.308586109920647 
1799	 0.308909988160292 
1800	 0.309235096805543 
1801	 0.305773375695313 
1802	 0.306216403406543 
1803	 0.30661276161274 
1804	 0.306984164670289 
1805	 0.307352166570379 
1806	 0.30773086604944 
1807	 0.308117653542647 
1808	 0.308464642845205 
1809	 0.30879534149506 
1810	 0.309133487884413 
1811	 0.309432840322725 
1812	 0.309743108524671 
1813	 0.310028001762092 
1814	 0.310429436035218 
1815	 0.310776941740832 
1816	 0.3111031721268 
1817	 0.311462328876716 
1818	 0.311837123643824 
1819	 0.312218675678952 
1820	 0.312619873980533 
1821	 0.313011561290664 
1822	 0.313394313754173 
1823	 0.313835930275833 
1824	 0.314192384901232 
1825	 0.314590442214028 
1826	 0.31500270453699 
1827	 0.315412417367722 
1828	 0.315812439309176 
1829	 0.316243579182322 
1830	 0.316662277483788 
1831	 0.317052209885408 
1832	 0.317478663555955 
1833	 0.317916356681479 
1834	 0.318332553593476 
1835	 0.31875446223302 
1836	 0.319199142311789 
1837	 0.31962464525261 
1838	 0.320058004823958 
1839	 0.320465381099465 
1840	 0.320807009430243 
1841	 0.321222471540792 
1842	 0.321667178876582 
1843	 0.322140746242012 
1844	 0.322563429416303 
1845	 0.322993083396857 
1846	 0.323353063218899 
1847	 0.323675052061835 
1848	 0.324035401561975 
1849	 0.324453956681479 
1850	 0.324771205394627 
1851	 0.325042037550331 
1852	 0.325331738369549 
1853	 0.325581998274907 
1854	 0.3258542568555 
1855	 0.326204073282376 
1856	 0.326482305149105 
1857	 0.326734253511361 
1858	 0.32694480017102 
1859	 0.327080912377574 
1860	 0.327148951961917 
1861	 0.327211700955504 
1862	 0.327235579985485 
1863	 0.327181215092814 
1864	 0.327127701831509 
1865	 0.327106758590109 
1866	 0.326974193334755 
1867	 0.326795450947811 
1868	 0.326663597100199 
1869	 0.326408764841092 
1870	 0.326106468444522 
1871	 0.325758451253871 
1872	 0.325404139910844 
1873	 0.325001659459785 
1874	 0.324547785944298 
1875	 0.324086921191172 
1876	 0.323575740698256 
1877	 0.323004147021383 
1878	 0.322380048049501 
1879	 0.321731356850668 
1880	 0.321062795774965 
1881	 0.320317897544246 
1882	 0.31951441934888 
1883	 0.318651240029092 
1884	 0.317699031625691 
1885	 0.316668822027662 
1886	 0.315588805441194 
1887	 0.314368214043094 
1888	 0.313084852221055 
1889	 0.311827905975512 
1890	 0.310457857593014 
1891	 0.309074585377991 
1892	 0.307679534261494 
1893	 0.30623163867825 
1894	 0.304679939376107 
1895	 0.303179264507836 
1896	 0.301688159595823 
1897	 0.300183761550166 
1898	 0.298740735437207 
1899	 0.297225327796212 
1900	 0.295784196382135 
1901	 0.294455489357035 
1902	 0.293112878969789 
1903	 0.291893840261216 
1904	 0.290679566123686 
1905	 0.28948276280646 
1906	 0.288312042129564 
1907	 0.287275706210777 
1908	 0.286255697365816 
1909	 0.28536100694864 
1910	 0.284544995379769 
1911	 0.283705390386861 
1912	 0.282979640254195 
1913	 0.282254235277278 
1914	 0.281506408581347 
1915	 0.280883513823968 
1916	 0.280361693266944 
1917	 0.279846031924082 
1918	 0.279341235633716 
1919	 0.278932824428368 
1920	 0.27846844022158 
1921	 0.278013691655602 
1922	 0.277626258359441 
1923	 0.277244796940655 
1924	 0.276929359634069 
1925	 0.276562850126985 
1926	 0.276240313157646 
1927	 0.275977547658781 
1928	 0.275703331043075 
1929	 0.275412877289672 
1930	 0.275158683457966 
1931	 0.274971366544718 
1932	 0.274759958752731 
1933	 0.274643814428615 
1934	 0.274648824992593 
1935	 0.27462904029819 
1936	 0.274649833865324 
1937	 0.274727961283294 
1938	 0.274851478741336 
1939	 0.274973146374523 
1940	 0.275145994419 
1941	 0.275322837621198 
1942	 0.275492049496353 
1943	 0.275752226887473 
1944	 0.27608321233541 
1945	 0.27651012358101 
1946	 0.276952300658459 
1947	 0.277373069275453 
1948	 0.27777501164483 
1949	 0.278166751440238 
1950	 0.278612801510211 
1951	 0.279052610847804 
1952	 0.279575024894435 
1953	 0.280159022641373 
1954	 0.280803921501723 
1955	 0.28146414668957 
1956	 0.282078875722905 
1957	 0.282686417759831 
1958	 0.283297255062208 
1959	 0.283884940138959 
1960	 0.284534255454874 
1961	 0.285143306890259 
1962	 0.285750849145451 
1963	 0.286308085484127 
1964	 0.286845261156734 
1965	 0.287351451210329 
1966	 0.287813709791486 
1967	 0.288306702267819 
1968	 0.288713455433486 
1969	 0.289080314521258 
1970	 0.289482239448543 
1971	 0.289889959403657 
1972	 0.290355434016688 
1973	 0.290854069702372 
1974	 0.291313955395673 
1975	 0.291756926153186 
1976	 0.29220050056806 
1977	 0.292608755776339 
1978	 0.293054529900822 
1979	 0.293515342143584 
1980	 0.29400311329431 
1981	 0.294456223465295 
1982	 0.294905275324456 
1983	 0.295391910710025 
1984	 0.29589195415303 
1985	 0.296381295758353 
1986	 0.296884793507533 
1987	 0.297392631587736 
1988	 0.297823502981937 
1989	 0.29837247065227 
1990	 0.299010069025689 
1991	 0.299655398383892 
1992	 0.300368195209165 
1993	 0.301071090759546 
1994	 0.301736859126325 
1995	 0.302402782325605 
1996	 0.303097877801357 
1997	 0.303834414987969 
1998	 0.304590426368576 
1999	 0.305416879175451 
2000	 0.306181973318378 
2001	 0.306991127299191 
2002	 0.307670852068403 
2003	 0.308299837115142 
2004	 0.308889254326319 
2005	 0.309311064773471 
2006	 0.309835629214689 
2007	 0.310425146863767 
2008	 0.310945447148797 
2009	 0.31142738283164 
2010	 0.3119806044399 
2011	 0.312429350437291 
2012	 0.312772747220877 
2013	 0.313091998423579 
2014	 0.313358390802952 
2015	 0.313617661987399 
2016	 0.313817684107983 
2017	 0.314014863120342 
2018	 0.314198833072195 
2019	 0.314353666516794 
2020	 0.314452471899438 
2021	 0.314603446083016 
2022	 0.314707911360918 
2023	 0.314817086031832 
2024	 0.3148555046281 
2025	 0.314833904295523 
2026	 0.314791442793314 
2027	 0.314697644786912 
2028	 0.314595447008735 
2029	 0.314441908485857 
2030	 0.314309575603472 
2031	 0.31414375902657 
2032	 0.314014087657038 
2033	 0.313967803622879 
2034	 0.313827680774027 
2035	 0.31359843178522 
2036	 0.31344191876131 
2037	 0.313335678991438 
2038	 0.313194789006656 
2039	 0.313083206680196 
2040	 0.313097249789442 
2041	 0.312952891941611 
2042	 0.312711026327976 
2043	 0.312512017875494 
2044	 0.312268761925833 
2045	 0.312064775376817 
2046	 0.311850878141799 
2047	 0.311674120050323 
2048	 0.311549932244599 
2049	 0.311405792946682 
2050	 0.311291798433534 
2051	 0.311132762460658 
2052	 0.310983118011684 
2053	 0.310849901348839 
2054	 0.310756416308697 
2055	 0.31071860161727 
2056	 0.310644816784917 
2057	 0.310587637223351 
2058	 0.310512715243731 
2059	 0.310438313841037 
2060	 0.310323446991396 
2061	 0.310138723639462 
2062	 0.310043939905333 
2063	 0.309978508233853 
2064	 0.30988628330404 
2065	 0.30983429137603 
2066	 0.309807015859771 
2067	 0.309685403043247 
2068	 0.309549253592338 
2069	 0.309445693395446 
2070	 0.309369544615395 
2071	 0.309265010341888 
2072	 0.309147941391974 
2073	 0.309049408763589 
2074	 0.308943808686081 
2075	 0.308847526304875 
2076	 0.308774872777887 
2077	 0.308687822418978 
2078	 0.308623836069876 
2079	 0.308508668683279 
2080	 0.308312183006639 
2081	 0.308194089805875 
2082	 0.308084578016454 
2083	 0.307980709939977 
2084	 0.307970462341301 
2085	 0.307960698650067 
2086	 0.307867943903236 
2087	 0.307713891456664 
2088	 0.30759982615214 
2089	 0.307416256768189 
2090	 0.307328343225084 
2091	 0.307343464933147 
2092	 0.3072573480292 
2093	 0.307155773232238 
2094	 0.307058555488 
2095	 0.30695299175587 
2096	 0.306804104017927 
2097	 0.306672218361756 
2098	 0.306466916569383 
2099	 0.306231175556008 
2100	 0.30592604695608 
2101	 0.305668317909511 
2102	 0.305413447344628 
2103	 0.305182251757559 
2104	 0.3049550053834 
2105	 0.304736600033011 
2106	 0.304555863480102 
2107	 0.304342870918204 
2108	 0.304134645016323 
2109	 0.303884791083536 
2110	 0.303611400556164 
2111	 0.303326185533736 
2112	 0.303040399395754 
2113	 0.302694886635791 
2114	 0.30227676714888 
2115	 0.301884827512801 
2116	 0.301446295079453 
2117	 0.301036940442577 
2118	 0.300622872273682 
2119	 0.300249312912594 
2120	 0.299850870214608 
2121	 0.299384564079266 
2122	 0.299032203735033 
2123	 0.298717433461032 
2124	 0.298452134705345 
2125	 0.298333670191866 
2126	 0.298065361823157 
2127	 0.29775057321287 
2128	 0.2974670020256 
2129	 0.297071244400411 
2130	 0.296781655984518 
2131	 0.296567644573127 
2132	 0.296364585498684 
2133	 0.296161105080863 
2134	 0.296084491132998 
2135	 0.295919255302791 
2136	 0.295751290988547 
2137	 0.295598166591985 
2138	 0.295408396888628 
2139	 0.295252234285973 
2140	 0.295140242294106 
2141	 0.295011860504546 
2142	 0.294863123415964 
2143	 0.294750369058445 
2144	 0.294637992558277 
2145	 0.294586380550368 
2146	 0.294554431295183 
2147	 0.294566337082729 
2148	 0.294710743307621 
2149	 0.294746919824278 
2150	 0.294699622420694 
2151	 0.294746102806042 
2152	 0.294767020663301 
2153	 0.294847816743538 
2154	 0.295020908396955 
2155	 0.295202027561355 
2156	 0.295304772547235 
2157	 0.295381729814451 
2158	 0.295400069233172 
2159	 0.295330487905001 
2160	 0.295339406899568 
2161	 0.295350309938475 
2162	 0.295339990064407 
2163	 0.295386514342081 
2164	 0.295347443380055 
2165	 0.295193014290929 
2166	 0.29512678872771 
2167	 0.295105715407921 
2168	 0.295035033168615 
2169	 0.294944818821736 
2170	 0.2948894875056 
2171	 0.294830975668694 
2172	 0.294745033017074 
2173	 0.294639395702981 
2174	 0.294631892117242 
2175	 0.294546011185432 
2176	 0.294423820857746 
2177	 0.29433840054042 
2178	 0.294260632412058 
2179	 0.294246590761119 
2180	 0.294247189000491 
2181	 0.294270668236748 
2182	 0.294424615327805 
2183	 0.294403467999765 
2184	 0.294266983478766 
2185	 0.294233563416092 
2186	 0.294176110825776 
2187	 0.294122689138501 
2188	 0.294158578801346 
2189	 0.294116712577117 
2190	 0.294019071059585 
2191	 0.293893356878641 
2192	 0.293702300856075 
2193	 0.293570160754108 
2194	 0.29343987822581 
2195	 0.29329300615615 
2196	 0.29318693866391 
2197	 0.293068305456721 
2198	 0.292906795589115 
2199	 0.292731635987752 
2200	 0.29249036392661 
2201	 0.292207565278859 
2202	 0.291951535721627 
2203	 0.291632587455406 
2204	 0.291353324744363 
2205	 0.291146139075687 
2206	 0.290849187636798 
2207	 0.290481239748108 
2208	 0.290162335449347 
2209	 0.289865380313224 
2210	 0.289508486479422 
2211	 0.289079930120701 
2212	 0.288752112700201 
2213	 0.28845793933129 
2214	 0.288138421880056 
2215	 0.287953828071902 
2216	 0.287629821053298 
2217	 0.287152627274478 
2218	 0.286707093936062 
2219	 0.286248439587295 
2220	 0.285762423956769 
2221	 0.285261088889846 
2222	 0.284732470883713 
2223	 0.284258481301267 
2224	 0.28374673284238 
2225	 0.283194524055253 
2226	 0.282733326950353 
2227	 0.282113091075015 
2228	 0.281396947977516 
2229	 0.280628672409644 
2230	 0.279798061446602 
2231	 0.278905508237512 
2232	 0.277948045006358 
2233	 0.276913501418618 
2234	 0.275874237390268 
2235	 0.27461180352669 
2236	 0.273222583474446 
2237	 0.271694940208946 
2238	 0.269875656096513 
2239	 0.268179908197281 
2240	 0.266511624461926 
2241	 0.264679988116801 
2242	 0.262936192019867 
2243	 0.260841947338785 
2244	 0.258431168359447 
2245	 0.25598296333684 
2246	 0.253171313365478 
2247	 0.250572061885067 
2248	 0.248018694000294 
2249	 0.245417156162121 
2250	 0.242953512502516 
2251	 0.24038723124817 
2252	 0.237448927062522 
2253	 0.234627937456909 
2254	 0.23153456335078 
2255	 0.228460433618496 
2256	 0.225742070966102 
2257	 0.222929525978092 
2258	 0.220176205176248 
2259	 0.217593195273992 
2260	 0.214827162348523 
2261	 0.211933771409574 
2262	 0.209168815375546 
2263	 0.206304777422791 
2264	 0.203733488128736 
2265	 0.201316915382345 
2266	 0.198972589333548 
2267	 0.196935910354593 
2268	 0.194695019612399 
2269	 0.192397452895696 
2270	 0.190180715240319 
2271	 0.187791685268263 
2272	 0.185736678837842 
2273	 0.183969886557611 
2274	 0.182095546872033 
2275	 0.180385151294966 
2276	 0.178606067166408 
2277	 0.176649836563386 
2278	 0.174954360827676 
2279	 0.173525130731238 
2280	 0.171913408710582 
2281	 0.17028078765266 
2282	 0.168706551635151 
2283	 0.167132264932524 
2284	 0.165414477619613 
2285	 0.163879600021168 
2286	 0.162337943738921 
2287	 0.160420234973422 
2288	 0.158627790849706 
2289	 0.156934109996994 
2290	 0.154917555544056 
2291	 0.152931328688275 
2292	 0.150984800179777 
2293	 0.148850178119927 
2294	 0.14676880541156 
2295	 0.144600831667134 
2296	 0.142445235617759 
2297	 0.140588925629087 
2298	 0.138818494935459 
2299	 0.137204192317793 
2300	 0.135896132144148 
2301	 0.134615965141122 
2302	 0.133296672342118 
2303	 0.132356376572179 
2304	 0.131655858458334 
2305	 0.131199536944381 
2306	 0.130967179590433 
2307	 0.131016852097411 
2308	 0.131326856497157 
2309	 0.131968532371703 
2310	 0.133008253146027 
2311	 0.134128965142602 
2312	 0.135653980431214 
2313	 0.137122957317182 
2314	 0.138648190086288 
2315	 0.140318398242069 
2316	 0.142155359612555 
2317	 0.143877188254144 
2318	 0.145821891597318 
2319	 0.147410868427376 
2320	 0.148832395127298 
2321	 0.150160103575814 
2322	 0.151258738644877 
2323	 0.152317301152461 
2324	 0.153344208741706 
2325	 0.154161755778854 
2326	 0.154842746599439 
2327	 0.155332731784268 
2328	 0.155616448760767 
2329	 0.155762467135656 
2330	 0.155704193807913 
2331	 0.155594323753608 
2332	 0.155268203592076 
2333	 0.154769808725568 
2334	 0.154069855322878 
2335	 0.153179373668548 
2336	 0.152133806367794 
2337	 0.150996507102841 
2338	 0.149944328161808 
2339	 0.148628417792929 
2340	 0.147278215569657 
2341	 0.146084658431612 
2342	 0.144664962711659 
2343	 0.143449680468459 
2344	 0.142414903031001 
2345	 0.141446394834649 
2346	 0.140852191515684 
2347	 0.140561794346011 
2348	 0.140725790524513 
2349	 0.141237408166044 
2350	 0.141829708591439 
2351	 0.142629959480667 
2352	 0.143586924057718 
2353	 0.144676587008567 
2354	 0.145811522061181 
2355	 0.14715672546516 
2356	 0.148391871772515 
2357	 0.149279038590908 
2358	 0.150349040639673 
2359	 0.151341850914306 
2360	 0.152110343081091 
2361	 0.153049985100213 
2362	 0.153827716161912 
2363	 0.154346544376209 
2364	 0.154787643620312 
2365	 0.154940150443144 
2366	 0.155057234389665 
2367	 0.154998342980077 
2368	 0.154976485783264 
2369	 0.155146534519488 
2370	 0.154998899874151 
2371	 0.15498981577891 
2372	 0.155203041927808 
2373	 0.155237187482345 
2374	 0.155279510233655 
2375	 0.155386967185151 
2376	 0.155340933747182 
2377	 0.155289354527716 
2378	 0.155332172742729 
2379	 0.155346885341033 
2380	 0.155572301871443 
2381	 0.155764342383208 
2382	 0.155960053487039 
2383	 0.156440188067583 
2384	 0.156533563841677 
2385	 0.156255103632673 
2386	 0.156385290570356 
2387	 0.156503135217033 
2388	 0.156558896660381 
2389	 0.156915332569244 
2390	 0.156925541126074 
2391	 0.156579152945832 
2392	 0.156555352904619 
2393	 0.156562007678556 
2394	 0.156686510182241 
2395	 0.156999859021847 
2396	 0.157154569697105 
2397	 0.157290923370215 
2398	 0.157435393207101 
2399	 0.157589957597423 
2400	 0.157801430625213 
2401	 0.158092836279934 
2402	 0.157993854731068 
2403	 0.15789571689559 
2404	 0.157746868841764 
2405	 0.157719794946328 
2406	 0.158147489070153 
2407	 0.158446560439281 
2408	 0.158384971768809 
2409	 0.158496241084456 
2410	 0.158374159221798 
2411	 0.15800523177398 
2412	 0.158039116643244 
2413	 0.158131352543005 
2414	 0.158271872428418 
2415	 0.158527754058122 
2416	 0.158565039892701 
2417	 0.158394586042022 
2418	 0.157917286791892 
2419	 0.157783101805604 
2420	 0.158277576656234 
2421	 0.158760457921115 
2422	 0.159140966622008 
2423	 0.159275324067894 
2424	 0.158995338248748 
2425	 0.158733722130139 
2426	 0.158609883673863 
2427	 0.158781834844656 
2428	 0.159467382463249 
2429	 0.159993826319101 
2430	 0.160128785921452 
2431	 0.160158842737089 
2432	 0.159726344054888 
2433	 0.159093132593971 
2434	 0.159455913381372 
2435	 0.159971564240181 
2436	 0.159589940768992 
2437	 0.159474388672392 
2438	 0.159220354023148 
2439	 0.158591395491332 
2440	 0.158724145541812 
2441	 0.158713075886154 
2442	 0.158394663439068 
2443	 0.158394331294176 
2444	 0.158233841733171 
2445	 0.158020727937054 
2446	 0.157534895882748 
2447	 0.156967502042458 
2448	 0.156694231664952 
2449	 0.156435003038757 
2450	 0.156463862179752 
2451	 0.156459513563368 
2452	 0.156297823553362 
2453	 0.156344265394886 
2454	 0.1561667139823 
2455	 0.156056302388526 
2456	 0.155961765851646 
2457	 0.155033132105285 
2458	 0.154411287851667 
2459	 0.154155347264162 
2460	 0.153762038958293 
2461	 0.154029929901203 
2462	 0.154221231462873 
2463	 0.153741038150637 
2464	 0.153067062296265 
2465	 0.153244016263639 
2466	 0.153717633501822 
2467	 0.154015044843669 
2468	 0.154722268230225 
2469	 0.154832912137927 
2470	 0.154758877051781 
2471	 0.154695100369171 
2472	 0.154812819300905 
2473	 0.155179425064501 
2474	 0.155469853595758 
2475	 0.156505838334573 
2476	 0.156914366503143 
2477	 0.156959466122646 
2478	 0.156825527550096 
2479	 0.156593852289481 
2480	 0.157902110064261 
2481	 0.158269785845455 
2482	 0.158947035707332 
2483	 0.158273566125992 
2484	 0.158359135525357 
2485	 0.159349896680401 
2486	 0.159270086270703 
2487	 0.160667695075003 
2488	 0.162029876928895 
2489	 0.162258925517907 
2490	 0.162790942520412 
2491	 0.162660186142934 
2492	 0.162071146694857 
2493	 0.162028972016616 
2494	 0.16231385706757 
2495	 0.162559563262091 
2496	 0.163273562694438 
2497	 0.163538475010696 
2498	 0.164509188330079 
2499	 0.166005856719435 
2500	 0.16636491519232 
