Wavelength	A00014.asd
350	 0.264033732163468 
351	 0.284057844808212 
352	 0.267304312876404 
353	 0.212487809441245 
354	 0.216374419170086 
355	 0.208097772239476 
356	 0.20424849037832 
357	 0.218929189720913 
358	 0.214598508409933 
359	 0.201695642052681 
360	 0.19432567328155 
361	 0.200824097089173 
362	 0.189377935605518 
363	 0.17536622017777 
364	 0.169721531018048 
365	 0.17220710887091 
366	 0.173179544523763 
367	 0.173783201058209 
368	 0.174888806862123 
369	 0.168360442698149 
370	 0.164097026145706 
371	 0.162475799502423 
372	 0.158801893046031 
373	 0.151100117802655 
374	 0.148436923791198 
375	 0.152216708076905 
376	 0.152677482352292 
377	 0.152354438321309 
378	 0.150108793348586 
379	 0.146010595374879 
380	 0.146195339252763 
381	 0.146177243692382 
382	 0.144161362872816 
383	 0.140475890281722 
384	 0.138211818843531 
385	 0.13714790408344 
386	 0.137331874733808 
387	 0.140099026919556 
388	 0.138543689588649 
389	 0.135107035402792 
390	 0.133925071217792 
391	 0.135750390933987 
392	 0.13413645963478 
393	 0.130787283094745 
394	 0.131775432793529 
395	 0.131805018705052 
396	 0.130812509111529 
397	 0.129745175169983 
398	 0.130203885020029 
399	 0.129137130179984 
400	 0.1268170525451 
401	 0.124982821505429 
402	 0.127382325821444 
403	 0.12697758183348 
404	 0.124717568467534 
405	 0.126860328432915 
406	 0.125789649341519 
407	 0.12427336692936 
408	 0.124503780010932 
409	 0.124869010221645 
410	 0.124971272301894 
411	 0.124811940456246 
412	 0.124472150719648 
413	 0.123243861605568 
414	 0.12296688833721 
415	 0.123768363347525 
416	 0.12417830961392 
417	 0.123481679076672 
418	 0.123070448175456 
419	 0.123595886332905 
420	 0.123086643043269 
421	 0.123018728104089 
422	 0.123198229864601 
423	 0.122941638278275 
424	 0.123127595735839 
425	 0.122975653630224 
426	 0.122618624841283 
427	 0.123341040453137 
428	 0.123557280513477 
429	 0.123367555499837 
430	 0.123241496715472 
431	 0.123544731610933 
432	 0.123874648214319 
433	 0.124078956634985 
434	 0.124170295922673 
435	 0.124167373881997 
436	 0.124390841506432 
437	 0.124839896519279 
438	 0.124991236795755 
439	 0.124900401207519 
440	 0.1248575067329 
441	 0.125126040689966 
442	 0.125582555657777 
443	 0.125716652447819 
444	 0.125691987456427 
445	 0.126161441471214 
446	 0.126407469150243 
447	 0.126728060688917 
448	 0.127258889850708 
449	 0.127389181590011 
450	 0.12763256245359 
451	 0.127809051934079 
452	 0.12764506156641 
453	 0.127944855867606 
454	 0.128320424360548 
455	 0.128588776288888 
456	 0.12888431788353 
457	 0.128952657010712 
458	 0.129019922209906 
459	 0.129270101272492 
460	 0.129435147761263 
461	 0.129599934002976 
462	 0.129937418944384 
463	 0.130570225395156 
464	 0.130744310903806 
465	 0.130989587465545 
466	 0.131432350149242 
467	 0.131335790517942 
468	 0.131638281362902 
469	 0.132021523818758 
470	 0.132017156020513 
471	 0.132135192127726 
472	 0.132328888328881 
473	 0.13265203298123 
474	 0.133193703568909 
475	 0.133155424928627 
476	 0.132962545574894 
477	 0.133156092289215 
478	 0.134207246228021 
479	 0.134552594217738 
480	 0.13435068590953 
481	 0.134405241238439 
482	 0.134661824072578 
483	 0.134985748318191 
484	 0.135331807382448 
485	 0.135770072603052 
486	 0.135966240364851 
487	 0.136184098644835 
488	 0.136637538272159 
489	 0.136935572121739 
490	 0.137341127719498 
491	 0.137824306704164 
492	 0.138187313489254 
493	 0.138382332690253 
494	 0.138662458037585 
495	 0.13913825453979 
496	 0.139649736760945 
497	 0.139855378184155 
498	 0.140157796367486 
499	 0.140920279035853 
500	 0.141189273303149 
501	 0.1413979912241 
502	 0.14172365049126 
503	 0.142061005492776 
504	 0.142322386531305 
505	 0.142660095419119 
506	 0.143146321528621 
507	 0.143544276904142 
508	 0.14408933302061 
509	 0.14460487919499 
510	 0.144815290365751 
511	 0.145098648278276 
512	 0.145612050737095 
513	 0.146268755876073 
514	 0.146707081048323 
515	 0.147110465773158 
516	 0.147558600770617 
517	 0.1480923108388 
518	 0.148715889159345 
519	 0.149246103042728 
520	 0.149721634416123 
521	 0.150320505002082 
522	 0.150887505033937 
523	 0.151555748125503 
524	 0.152348629615533 
525	 0.152999574711398 
526	 0.153722952943559 
527	 0.154530304792853 
528	 0.155380282555193 
529	 0.15636371734627 
530	 0.157313732889187 
531	 0.158221879138582 
532	 0.159257563912664 
533	 0.160265132196655 
534	 0.161394554368365 
535	 0.162743404009188 
536	 0.164077200124772 
537	 0.165443227252526 
538	 0.16684117631504 
539	 0.168260307589423 
540	 0.169860783903931 
541	 0.171559946366098 
542	 0.17332990066903 
543	 0.175295501246682 
544	 0.177175345248809 
545	 0.179132843151182 
546	 0.181396065588063 
547	 0.183807284508093 
548	 0.186220744522725 
549	 0.188669549683714 
550	 0.191350052099424 
551	 0.194356493171714 
552	 0.197954312714738 
553	 0.202100291623562 
554	 0.206035947890495 
555	 0.210206305975369 
556	 0.214551104956075 
557	 0.218842923458493 
558	 0.223105977581405 
559	 0.227409717118715 
560	 0.23174766060299 
561	 0.235972088128403 
562	 0.240116827847931 
563	 0.244322632501431 
564	 0.248638639145307 
565	 0.252604211590732 
566	 0.256410906644798 
567	 0.260318850632278 
568	 0.264589448442655 
569	 0.26854200424167 
570	 0.272682357517018 
571	 0.277433133687624 
572	 0.282142820962854 
573	 0.287532233548907 
574	 0.293842445595842 
575	 0.300744090301598 
576	 0.306995871884422 
577	 0.312073596439794 
578	 0.316191011554385 
579	 0.319920595024635 
580	 0.323537424553934 
581	 0.327204733585701 
582	 0.330974264056907 
583	 0.334647995925723 
584	 0.338558893299493 
585	 0.342774607289504 
586	 0.347163319381414 
587	 0.35146303611173 
588	 0.35570434977343 
589	 0.360065642115285 
590	 0.364912465146948 
591	 0.369181213006975 
592	 0.37324216183089 
593	 0.377708141402944 
594	 0.382110671287838 
595	 0.386246512035465 
596	 0.39014687587794 
597	 0.394030603094096 
598	 0.397641178732206 
599	 0.401049970048361 
600	 0.404346616666494 
601	 0.407538635924666 
602	 0.410507105931216 
603	 0.413448485874961 
604	 0.416585361223879 
605	 0.419207007137311 
606	 0.421961545310734 
607	 0.424994431260947 
608	 0.427654808309918 
609	 0.430253351650288 
610	 0.432687745052669 
611	 0.434895937737144 
612	 0.437253323353519 
613	 0.439644628333763 
614	 0.441807333195194 
615	 0.44349278649698 
616	 0.445574660295686 
617	 0.447729158261968 
618	 0.449709200545469 
619	 0.451733106016574 
620	 0.453633850163223 
621	 0.455400752977834 
622	 0.457179852903913 
623	 0.459633138786888 
624	 0.461431449039441 
625	 0.462524903339292 
626	 0.464113265885817 
627	 0.465835945619269 
628	 0.467614783165303 
629	 0.469430220291197 
630	 0.471424402915477 
631	 0.472839034145477 
632	 0.474095133809697 
633	 0.47598977539521 
634	 0.477742225018377 
635	 0.479461268077491 
636	 0.481210461214939 
637	 0.48291526457751 
638	 0.484227718231925 
639	 0.485637479366117 
640	 0.487493007935108 
641	 0.488949747392663 
642	 0.490423871706702 
643	 0.49211156239579 
644	 0.494019904441251 
645	 0.495652424656984 
646	 0.497140233672558 
647	 0.498717204006379 
648	 0.500665643591594 
649	 0.502575149518868 
650	 0.504289001084315 
651	 0.505778548442738 
652	 0.507140384537303 
653	 0.508666904874219 
654	 0.510356885973914 
655	 0.511983079921391 
656	 0.513800194190827 
657	 0.515627494758394 
658	 0.517327071817347 
659	 0.518965294149066 
660	 0.520799578722086 
661	 0.522592868461334 
662	 0.524084212651104 
663	 0.52590248490969 
664	 0.527844524901966 
665	 0.529669138785305 
666	 0.531179645629689 
667	 0.533181147286597 
668	 0.534967951897591 
669	 0.536162531006609 
670	 0.538012412778685 
671	 0.540549775661135 
672	 0.542997509145964 
673	 0.544460747593111 
674	 0.546233854992447 
675	 0.548069126324181 
676	 0.549873316319833 
677	 0.551864144095627 
678	 0.55337215897523 
679	 0.554935099664391 
680	 0.557025806287408 
681	 0.558971756616847 
682	 0.561205676614536 
683	 0.563401813876042 
684	 0.564931705252539 
685	 0.566152893538476 
686	 0.567569038836122 
687	 0.569400045614297 
688	 0.571454221816527 
689	 0.573560591535136 
690	 0.575749698266889 
691	 0.578005344974952 
692	 0.57996128823363 
693	 0.581731172444358 
694	 0.583530664584806 
695	 0.585557927539332 
696	 0.587074695480657 
697	 0.588530908404686 
698	 0.590398677751917 
699	 0.593014253540671 
700	 0.594858941135301 
701	 0.596224041698554 
702	 0.597884461044861 
703	 0.600198217337625 
704	 0.602155806643393 
705	 0.603639267708077 
706	 0.605213577612395 
707	 0.607425680870181 
708	 0.609395175780017 
709	 0.610893866299887 
710	 0.61314098900092 
711	 0.614500408180018 
712	 0.615386126456654 
713	 0.616717411748017 
714	 0.618755797372498 
715	 0.620725426434626 
716	 0.622381152387367 
717	 0.62392084617753 
718	 0.62565550330539 
719	 0.627383802525884 
720	 0.629011248276752 
721	 0.630797624684028 
722	 0.631766982231839 
723	 0.632698203216875 
724	 0.634458386019473 
725	 0.635919483287944 
726	 0.637540803735129 
727	 0.639259652965256 
728	 0.640639832189376 
729	 0.641528120695386 
730	 0.642816623001367 
731	 0.644761405980283 
732	 0.646383325581854 
733	 0.647679678417104 
734	 0.648747004173437 
735	 0.649880792577749 
736	 0.65192207515768 
737	 0.653461871847698 
738	 0.654400320764709 
739	 0.655535816016793 
740	 0.656979847875442 
741	 0.658069916630734 
742	 0.658664115545063 
743	 0.659543521032103 
744	 0.661018780068043 
745	 0.662709157493091 
746	 0.664065442089173 
747	 0.664749239467167 
748	 0.665277335697587 
749	 0.66602533109441 
750	 0.667229477224058 
751	 0.66903106112014 
752	 0.669885734055161 
753	 0.669682287342638 
754	 0.670305147804208 
755	 0.67094708859409 
756	 0.671689984705031 
757	 0.672598666832488 
758	 0.673157926294946 
759	 0.673533342757489 
760	 0.673961148956235 
761	 0.67470032457172 
762	 0.675882052656331 
763	 0.676951547996629 
764	 0.677803636560238 
765	 0.678844504647738 
766	 0.679761100055876 
767	 0.679961528482299 
768	 0.67956837880134 
769	 0.680462018893454 
770	 0.681301184026358 
771	 0.681615371283392 
772	 0.68136650035889 
773	 0.680864600667718 
774	 0.681305744632648 
775	 0.682617262754291 
776	 0.68371129060895 
777	 0.685010206105479 
778	 0.685735247191295 
779	 0.685712289255188 
780	 0.685982115375877 
781	 0.686870090436386 
782	 0.687468382456569 
783	 0.687060591320384 
784	 0.686938522706401 
785	 0.686916733722653 
786	 0.687095241890456 
787	 0.687598494827872 
788	 0.687609634374758 
789	 0.687670315062063 
790	 0.688036723520757 
791	 0.688464947580068 
792	 0.688905732250605 
793	 0.689276093384404 
794	 0.689585823460427 
795	 0.690065720721653 
796	 0.690646636076748 
797	 0.690639382231662 
798	 0.689724376623902 
799	 0.690386418437043 
800	 0.691077890786713 
801	 0.69123723373106 
802	 0.691201197658057 
803	 0.690735475439075 
804	 0.690366647113402 
805	 0.690381579925843 
806	 0.690561328866731 
807	 0.690704331309524 
808	 0.691407162261287 
809	 0.692763564697473 
810	 0.692755837939963 
811	 0.692905628411423 
812	 0.693248913672859 
813	 0.693233741166068 
814	 0.692990856959168 
815	 0.693408447846297 
816	 0.69398322870751 
817	 0.693167517109872 
818	 0.692740902518108 
819	 0.692306727300803 
820	 0.691831792330314 
821	 0.692390441172563 
822	 0.693387613609646 
823	 0.693726031848009 
824	 0.693014011510519 
825	 0.693331713530779 
826	 0.694283598694064 
827	 0.694593520630186 
828	 0.693380221077058 
829	 0.694500438746072 
830	 0.695378322096107 
831	 0.695222983923895 
832	 0.695111003295666 
833	 0.694371728318993 
834	 0.694271325450091 
835	 0.695193501435319 
836	 0.695799941793655 
837	 0.695774677446114 
838	 0.695465151418969 
839	 0.695237792188538 
840	 0.694842453649078 
841	 0.694685686721412 
842	 0.695312334732676 
843	 0.69679770157094 
844	 0.696947348132179 
845	 0.696728693820819 
846	 0.696232731844851 
847	 0.695168033842789 
848	 0.696683360078317 
849	 0.697908860648823 
850	 0.697575900251927 
851	 0.697349074039299 
852	 0.697787959591224 
853	 0.698023332383624 
854	 0.697570662324062 
855	 0.69742592310095 
856	 0.698080605968705 
857	 0.699133402813018 
858	 0.699847097397332 
859	 0.699604647621482 
860	 0.699271317243118 
861	 0.699233680400893 
862	 0.69961253326366 
863	 0.700901100560158 
864	 0.70095969753442 
865	 0.700190842317179 
866	 0.701040956166778 
867	 0.701712657903859 
868	 0.702331791828186 
869	 0.702773593126765 
870	 0.702313281275407 
871	 0.703215681318606 
872	 0.703891521372442 
873	 0.703347995428789 
874	 0.703813081153831 
875	 0.704521249013487 
876	 0.705158638724873 
877	 0.705693895024732 
878	 0.706837337629793 
879	 0.70698778549422 
880	 0.706219069708949 
881	 0.705705932238308 
882	 0.707315531496824 
883	 0.70861069110752 
884	 0.708847586015121 
885	 0.708903609494701 
886	 0.709449817311169 
887	 0.710345791527087 
888	 0.711136525284704 
889	 0.711235490748609 
890	 0.711262517036782 
891	 0.712098075662536 
892	 0.713672742289278 
893	 0.71431934502557 
894	 0.714821202152649 
895	 0.715089213102062 
896	 0.715125920197586 
897	 0.71566201596431 
898	 0.716417284023962 
899	 0.716848173139337 
900	 0.716720265750664 
901	 0.717246982230703 
902	 0.718145478426588 
903	 0.719068677478 
904	 0.719738594895575 
905	 0.720528458426079 
906	 0.720651023339559 
907	 0.720556860779501 
908	 0.721404288204112 
909	 0.722091799821331 
910	 0.723352989393818 
911	 0.725053751197567 
912	 0.726080711178965 
913	 0.726362987651012 
914	 0.726812231181981 
915	 0.727850900086732 
916	 0.728961618523416 
917	 0.729330264745024 
918	 0.729868802632577 
919	 0.731052268512927 
920	 0.731868515336052 
921	 0.73247244767411 
922	 0.733014694363345 
923	 0.733525145390943 
924	 0.733583046688517 
925	 0.734826577980603 
926	 0.736549917523617 
927	 0.737512261789914 
928	 0.737502879687194 
929	 0.737641403218478 
930	 0.738524767183623 
931	 0.740126890839227 
932	 0.741087047095747 
933	 0.74258415990377 
934	 0.744467172125914 
935	 0.745880851811221 
936	 0.7467425102058 
937	 0.747031281429428 
938	 0.747027737316272 
939	 0.747160100448352 
940	 0.747330826883797 
941	 0.74825986803914 
942	 0.74994154303334 
943	 0.751554332497984 
944	 0.751333568502102 
945	 0.751658652131878 
946	 0.753239793525043 
947	 0.754475429637548 
948	 0.754775106816633 
949	 0.754266161044583 
950	 0.753984819303816 
951	 0.75563243853249 
952	 0.757667123535185 
953	 0.758857767358233 
954	 0.759157543814276 
955	 0.760103573485069 
956	 0.761810170927817 
957	 0.762655311071989 
958	 0.762328317346384 
959	 0.763288344272477 
960	 0.763591189645118 
961	 0.76440352150302 
962	 0.766236541408539 
963	 0.766975856624016 
964	 0.767011009954497 
965	 0.767638181953771 
966	 0.769231240217251 
967	 0.769569536883635 
968	 0.769801657625037 
969	 0.769905435770508 
970	 0.769959465173245 
971	 0.770989014150909 
972	 0.773192130858525 
973	 0.775052922449845 
974	 0.775570560853553 
975	 0.776811127701904 
976	 0.777106338959374 
977	 0.776994010635732 
978	 0.777708562087983 
979	 0.780299417194703 
980	 0.783093480031787 
981	 0.784893078659552 
982	 0.785420423590196 
983	 0.786453518986612 
984	 0.787462547483171 
985	 0.788399842860613 
986	 0.789357074430059 
987	 0.790537043272503 
988	 0.790481636007934 
989	 0.790710789730925 
990	 0.792663312417343 
991	 0.793731239223754 
992	 0.7949412256368 
993	 0.795423364735217 
994	 0.794655696850092 
995	 0.795420588247124 
996	 0.795745534323099 
997	 0.796056994059514 
998	 0.797176374359101 
999	 0.798253177105444 
1000	 0.799080006537653 
1001	 0.794899334480283 
1002	 0.795654163631089 
1003	 0.796477033849682 
1004	 0.797193269250714 
1005	 0.797825570777162 
1006	 0.798493198034041 
1007	 0.799117173340677 
1008	 0.79980133677734 
1009	 0.800505467983478 
1010	 0.801230950914656 
1011	 0.802037298730273 
1012	 0.802755487750557 
1013	 0.80343647470229 
1014	 0.804119679010367 
1015	 0.804802144985074 
1016	 0.805393974327967 
1017	 0.805980017175949 
1018	 0.806631569506357 
1019	 0.807291772431358 
1020	 0.807943506096163 
1021	 0.808516532363834 
1022	 0.809104438282846 
1023	 0.80962488191693 
1024	 0.809905588392956 
1025	 0.810446230115045 
1026	 0.811129565766198 
1027	 0.811769541096606 
1028	 0.812465847879605 
1029	 0.813282467460935 
1030	 0.813917112657007 
1031	 0.814377139501362 
1032	 0.814870256506546 
1033	 0.815400353760538 
1034	 0.815910070619339 
1035	 0.816421350191468 
1036	 0.816960037933496 
1037	 0.817483251589639 
1038	 0.818052016568313 
1039	 0.818693094478369 
1040	 0.81929078159069 
1041	 0.819889903551973 
1042	 0.820437405494251 
1043	 0.820955183357886 
1044	 0.821479095075851 
1045	 0.821967740736303 
1046	 0.822470078107946 
1047	 0.822832752375236 
1048	 0.823190691768334 
1049	 0.823611440892051 
1050	 0.824014217430032 
1051	 0.824564709762984 
1052	 0.825079280841073 
1053	 0.825490223030144 
1054	 0.825800184400588 
1055	 0.826184131965761 
1056	 0.826459818754037 
1057	 0.826883030951749 
1058	 0.827451033794816 
1059	 0.827922170848005 
1060	 0.828356472123718 
1061	 0.828792516624408 
1062	 0.829183871019468 
1063	 0.829631300453101 
1064	 0.830034789908451 
1065	 0.830441012266513 
1066	 0.830825602826484 
1067	 0.831143150711902 
1068	 0.83154282918172 
1069	 0.83194912686026 
1070	 0.83235593335238 
1071	 0.832765883227769 
1072	 0.833204203007917 
1073	 0.833618234627306 
1074	 0.834023701810229 
1075	 0.834400903391358 
1076	 0.834722581043166 
1077	 0.834996430195536 
1078	 0.835290302264503 
1079	 0.835658999781182 
1080	 0.835996721914478 
1081	 0.836284514051272 
1082	 0.836599567095681 
1083	 0.836901167437398 
1084	 0.837190065349401 
1085	 0.837525684172743 
1086	 0.837822475496499 
1087	 0.83810043579432 
1088	 0.838347735511991 
1089	 0.838638891967001 
1090	 0.838909463220818 
1091	 0.839240182954899 
1092	 0.839570414032039 
1093	 0.839859012171484 
1094	 0.840248642395871 
1095	 0.840667307533977 
1096	 0.841074972151696 
1097	 0.841387311195691 
1098	 0.841642316447769 
1099	 0.841940856156738 
1100	 0.842147620310873 
1101	 0.842417036491348 
1102	 0.842750350415154 
1103	 0.8430275331967 
1104	 0.84323776094654 
1105	 0.843515463209962 
1106	 0.843776378891065 
1107	 0.8439838325141 
1108	 0.8442702000506 
1109	 0.84457322329038 
1110	 0.844867374363439 
1111	 0.845167268369808 
1112	 0.845356794675083 
1113	 0.845463241899841 
1114	 0.845611962686771 
1115	 0.845763875350477 
1116	 0.845954363813483 
1117	 0.846199899668213 
1118	 0.846406293169285 
1119	 0.846564679609962 
1120	 0.846789467046988 
1121	 0.847028591592299 
1122	 0.847297299361956 
1123	 0.847582688457085 
1124	 0.84790923257756 
1125	 0.848296234101429 
1126	 0.848604798758195 
1127	 0.848847772111998 
1128	 0.849109404545146 
1129	 0.849248053883089 
1130	 0.849320736434579 
1131	 0.849471265232237 
1132	 0.849622478198442 
1133	 0.849716043669895 
1134	 0.849749905085961 
1135	 0.849833397460245 
1136	 0.849926378132394 
1137	 0.849987696988848 
1138	 0.850110527281331 
1139	 0.850150501450893 
1140	 0.850144196297019 
1141	 0.85004127141794 
1142	 0.849968130899658 
1143	 0.849863563667628 
1144	 0.849704481822654 
1145	 0.84948271704322 
1146	 0.849167420195483 
1147	 0.848778151334581 
1148	 0.848436643187481 
1149	 0.848193082486983 
1150	 0.847999696700605 
1151	 0.847885137851482 
1152	 0.847823384879924 
1153	 0.847822055342692 
1154	 0.847846381953416 
1155	 0.847972551783101 
1156	 0.848051077088918 
1157	 0.848131201949593 
1158	 0.848220950063008 
1159	 0.848319539519837 
1160	 0.848375365712737 
1161	 0.848475999363129 
1162	 0.848584328842348 
1163	 0.848653738250998 
1164	 0.848792751087271 
1165	 0.848976070428228 
1166	 0.849175835274035 
1167	 0.849416185827219 
1168	 0.849647647052154 
1169	 0.849940625928599 
1170	 0.850274507597757 
1171	 0.85061892598427 
1172	 0.851067091906803 
1173	 0.851407357052704 
1174	 0.851730512858163 
1175	 0.851969245595801 
1176	 0.852099188047953 
1177	 0.85227396259114 
1178	 0.852393318052934 
1179	 0.85256820887989 
1180	 0.852802526463158 
1181	 0.85296676684668 
1182	 0.853118937201553 
1183	 0.853290509939525 
1184	 0.853471701389203 
1185	 0.853623192976973 
1186	 0.853776715400149 
1187	 0.853926867113633 
1188	 0.854111525251954 
1189	 0.854281325318417 
1190	 0.854502287468709 
1191	 0.854781969964038 
1192	 0.855042519049276 
1193	 0.85532668176026 
1194	 0.855580492069741 
1195	 0.855873068194203 
1196	 0.856083989724716 
1197	 0.856228120994935 
1198	 0.856367715229385 
1199	 0.856481871403956 
1200	 0.856631184648233 
1201	 0.856841865546712 
1202	 0.857027226332689 
1203	 0.857239959938883 
1204	 0.857439679815653 
1205	 0.857645903020129 
1206	 0.85785329549914 
1207	 0.858083528754251 
1208	 0.858339375468436 
1209	 0.858563292595165 
1210	 0.858807107510855 
1211	 0.858990710366497 
1212	 0.859129879241296 
1213	 0.859261158318945 
1214	 0.859368560074518 
1215	 0.859456990117715 
1216	 0.859511306527599 
1217	 0.859582761174535 
1218	 0.859624524086523 
1219	 0.859692467719323 
1220	 0.859805259713137 
1221	 0.859891800506624 
1222	 0.859983487406731 
1223	 0.860136603982124 
1224	 0.860279506123631 
1225	 0.860442549297103 
1226	 0.860583739581858 
1227	 0.860725617403373 
1228	 0.860862698619498 
1229	 0.860980234723199 
1230	 0.861124603430323 
1231	 0.861281507846408 
1232	 0.86145073116849 
1233	 0.861678599654652 
1234	 0.861815746152245 
1235	 0.861894796023315 
1236	 0.862008964551736 
1237	 0.862038253953499 
1238	 0.862154017782726 
1239	 0.862313424809516 
1240	 0.862543820568535 
1241	 0.862826459644912 
1242	 0.863089146599498 
1243	 0.863328997114595 
1244	 0.86359639945259 
1245	 0.863805067831793 
1246	 0.863985598254404 
1247	 0.864114092965929 
1248	 0.864201281790253 
1249	 0.86428259096778 
1250	 0.864301510754313 
1251	 0.864340275851479 
1252	 0.864376095770854 
1253	 0.864422762196997 
1254	 0.86445067513242 
1255	 0.864498817929036 
1256	 0.864574853402023 
1257	 0.864650831301615 
1258	 0.864714525698704 
1259	 0.864807932671063 
1260	 0.864938904827945 
1261	 0.865047657563186 
1262	 0.865141037997855 
1263	 0.865278612173205 
1264	 0.865399931300435 
1265	 0.865525673161547 
1266	 0.86561069006729 
1267	 0.865678401067419 
1268	 0.865770713780924 
1269	 0.865839498395843 
1270	 0.86591826587772 
1271	 0.866050972714778 
1272	 0.866115286408825 
1273	 0.866141163517393 
1274	 0.866151409408421 
1275	 0.866116263725559 
1276	 0.866106899437365 
1277	 0.866064209588905 
1278	 0.866064018705858 
1279	 0.866125783942443 
1280	 0.866140369639668 
1281	 0.866135952496909 
1282	 0.866148071481472 
1283	 0.866154075647623 
1284	 0.866147599782684 
1285	 0.866140610874338 
1286	 0.866159761296329 
1287	 0.866132106971264 
1288	 0.866068109039288 
1289	 0.866015191543882 
1290	 0.865936391619091 
1291	 0.865905567078325 
1292	 0.8658815316427 
1293	 0.865878075845935 
1294	 0.865953219958393 
1295	 0.865927745969309 
1296	 0.865873267732189 
1297	 0.865796104628693 
1298	 0.865641433793444 
1299	 0.865528172113864 
1300	 0.865426397494373 
1301	 0.86531518426161 
1302	 0.865206122931847 
1303	 0.865092621148066 
1304	 0.864939436395407 
1305	 0.864841060208232 
1306	 0.864777420633533 
1307	 0.864710617298452 
1308	 0.864689821585422 
1309	 0.86466216388211 
1310	 0.864575058066076 
1311	 0.864457336429404 
1312	 0.864328265191241 
1313	 0.864155609370963 
1314	 0.864002626871692 
1315	 0.863855401883431 
1316	 0.863683172297258 
1317	 0.863512029736395 
1318	 0.863298613685359 
1319	 0.863067027012714 
1320	 0.86279910202616 
1321	 0.8624851397804 
1322	 0.862176059338726 
1323	 0.861822190154299 
1324	 0.86150710636316 
1325	 0.861200581258996 
1326	 0.860900746960361 
1327	 0.860661142715388 
1328	 0.860348199331815 
1329	 0.859989068299591 
1330	 0.859645110000467 
1331	 0.859286598927638 
1332	 0.858896816650304 
1333	 0.858517508907021 
1334	 0.858100598161512 
1335	 0.857671330174482 
1336	 0.857184096135338 
1337	 0.856750416731286 
1338	 0.856347591402053 
1339	 0.855894351320358 
1340	 0.855423311330916 
1341	 0.854972962584276 
1342	 0.854503821488365 
1343	 0.854040814355915 
1344	 0.853588277731099 
1345	 0.853150478063217 
1346	 0.852704345769018 
1347	 0.852273251499871 
1348	 0.851904969342577 
1349	 0.851460848654537 
1350	 0.850995275708635 
1351	 0.850493021681092 
1352	 0.849908040898185 
1353	 0.849379975227428 
1354	 0.848864506728652 
1355	 0.848328941360701 
1356	 0.847829181656224 
1357	 0.847287458019624 
1358	 0.84672958112523 
1359	 0.846118786230157 
1360	 0.845521263946025 
1361	 0.844830497547905 
1362	 0.843980728727024 
1363	 0.843127223160363 
1364	 0.842199814598928 
1365	 0.841201350133905 
1366	 0.840099505440572 
1367	 0.838968070653108 
1368	 0.83768265223673 
1369	 0.836266353945268 
1370	 0.834748199081256 
1371	 0.833152725282799 
1372	 0.831409696932234 
1373	 0.829566096363403 
1374	 0.827516705459369 
1375	 0.825317269470356 
1376	 0.822922308097683 
1377	 0.820357518198388 
1378	 0.817525892693533 
1379	 0.814493487075069 
1380	 0.81122152384255 
1381	 0.807768064066923 
1382	 0.803942838761247 
1383	 0.799825139428607 
1384	 0.795479705045061 
1385	 0.790837613969762 
1386	 0.785982916271473 
1387	 0.780898447134734 
1388	 0.775743396458585 
1389	 0.770338647509863 
1390	 0.764901357665152 
1391	 0.759532918685659 
1392	 0.753751342746011 
1393	 0.748215197943714 
1394	 0.74260984478709 
1395	 0.737155948586098 
1396	 0.73178969555761 
1397	 0.726588719206754 
1398	 0.721455011971219 
1399	 0.716482785854476 
1400	 0.711639201288112 
1401	 0.706972251446931 
1402	 0.702387566906797 
1403	 0.698064731738414 
1404	 0.693893315217702 
1405	 0.690096367972149 
1406	 0.686472444353128 
1407	 0.683269156375604 
1408	 0.680391514526752 
1409	 0.677870083673997 
1410	 0.675684275353189 
1411	 0.673835432119101 
1412	 0.672346647152203 
1413	 0.671169308592776 
1414	 0.67026697449252 
1415	 0.669742502020975 
1416	 0.669683560009396 
1417	 0.669721246482123 
1418	 0.670109010021502 
1419	 0.670568123749377 
1420	 0.671169049149271 
1421	 0.67186347339285 
1422	 0.672726093366578 
1423	 0.673646592703994 
1424	 0.674644027384574 
1425	 0.67575095016959 
1426	 0.676862305512555 
1427	 0.678012001900738 
1428	 0.679163803766288 
1429	 0.680240624828541 
1430	 0.681377597367313 
1431	 0.682520979298083 
1432	 0.683700193558444 
1433	 0.684917875721413 
1434	 0.686123149458918 
1435	 0.687349409044579 
1436	 0.688576570590939 
1437	 0.689808559746641 
1438	 0.691014619340055 
1439	 0.692250968599678 
1440	 0.693409194762677 
1441	 0.694526737962321 
1442	 0.695620970428508 
1443	 0.696674317089521 
1444	 0.697711376536393 
1445	 0.698747468783477 
1446	 0.699700769761062 
1447	 0.700637607758824 
1448	 0.701469676879891 
1449	 0.702199838045058 
1450	 0.70291307995649 
1451	 0.703558292551443 
1452	 0.704173241410707 
1453	 0.704788903829535 
1454	 0.705301020427279 
1455	 0.705696648249664 
1456	 0.706116862054683 
1457	 0.706442297750884 
1458	 0.706832421509376 
1459	 0.707254976110153 
1460	 0.707691726732492 
1461	 0.70812289009786 
1462	 0.708613972592496 
1463	 0.709121760361186 
1464	 0.709694304462858 
1465	 0.710304285424068 
1466	 0.711004317671551 
1467	 0.71173467420168 
1468	 0.71259210126154 
1469	 0.713603121834743 
1470	 0.714621955068776 
1471	 0.715709596914359 
1472	 0.716886630763517 
1473	 0.718095712155898 
1474	 0.719358138350228 
1475	 0.720626422995254 
1476	 0.721952949018372 
1477	 0.723288762085364 
1478	 0.724615532710257 
1479	 0.725985844419573 
1480	 0.727408787949848 
1481	 0.728837639049359 
1482	 0.730311729772081 
1483	 0.731742895553351 
1484	 0.73319573308432 
1485	 0.734605033996275 
1486	 0.735992303260156 
1487	 0.737313873166249 
1488	 0.738602159303565 
1489	 0.739855634962043 
1490	 0.741039794168153 
1491	 0.74222399124511 
1492	 0.743391098365842 
1493	 0.744543292232232 
1494	 0.745646102942068 
1495	 0.74677102844009 
1496	 0.747903169241468 
1497	 0.749025500532147 
1498	 0.750170394368912 
1499	 0.751269414748713 
1500	 0.752335708058559 
1501	 0.753401181908351 
1502	 0.754468608350134 
1503	 0.755473517643419 
1504	 0.75640969095115 
1505	 0.757396419295866 
1506	 0.758363092394526 
1507	 0.759333233897982 
1508	 0.760369981471722 
1509	 0.761354574225775 
1510	 0.76225839557241 
1511	 0.763209197334395 
1512	 0.764174592670322 
1513	 0.765138616565073 
1514	 0.766146804775202 
1515	 0.767118764912782 
1516	 0.768042270258143 
1517	 0.76900057706985 
1518	 0.769999018095669 
1519	 0.770933300964786 
1520	 0.771872900475539 
1521	 0.772770603323155 
1522	 0.773556584479258 
1523	 0.774393749931488 
1524	 0.775230292665137 
1525	 0.776072219992444 
1526	 0.776905344957302 
1527	 0.777760475568858 
1528	 0.778552149266839 
1529	 0.779295705278968 
1530	 0.780090932866397 
1531	 0.78088096449987 
1532	 0.781665077540077 
1533	 0.782477909895744 
1534	 0.783267953955365 
1535	 0.78403844620652 
1536	 0.784782711981987 
1537	 0.785530421897703 
1538	 0.786249953863278 
1539	 0.786928630542834 
1540	 0.787600773200693 
1541	 0.788285395999548 
1542	 0.788907701467663 
1543	 0.78948016587996 
1544	 0.790041106388308 
1545	 0.79055329958308 
1546	 0.791096831368672 
1547	 0.791626049578513 
1548	 0.792177505600815 
1549	 0.79275298192829 
1550	 0.793314504053423 
1551	 0.793885338849735 
1552	 0.79443346756517 
1553	 0.794982030716716 
1554	 0.795498554464643 
1555	 0.796003930833923 
1556	 0.796467534742709 
1557	 0.796855498560997 
1558	 0.797323024713554 
1559	 0.797785174554358 
1560	 0.798282652211968 
1561	 0.798858978114457 
1562	 0.799388581163399 
1563	 0.799937877627232 
1564	 0.800414393976163 
1565	 0.800835433913693 
1566	 0.801281415719339 
1567	 0.801663875711536 
1568	 0.802108198026558 
1569	 0.8026399755684 
1570	 0.803084209369647 
1571	 0.80350443674265 
1572	 0.803910926532162 
1573	 0.804258276318025 
1574	 0.80462988855224 
1575	 0.805006379245987 
1576	 0.805385367902496 
1577	 0.805761264580681 
1578	 0.806140020476468 
1579	 0.806531232322259 
1580	 0.806909348925931 
1581	 0.807280011215523 
1582	 0.80765017908386 
1583	 0.808041022148584 
1584	 0.808381337617663 
1585	 0.808694801847823 
1586	 0.808997463848592 
1587	 0.809248921670382 
1588	 0.809521139014684 
1589	 0.80982298904597 
1590	 0.810076358536952 
1591	 0.810302497997103 
1592	 0.81052453915171 
1593	 0.810675639734855 
1594	 0.810902317951664 
1595	 0.811193134482803 
1596	 0.811439183914936 
1597	 0.811730261252574 
1598	 0.811954240773829 
1599	 0.812101398481466 
1600	 0.812271442654849 
1601	 0.812445127193946 
1602	 0.812580748033466 
1603	 0.812701907199529 
1604	 0.812803604716021 
1605	 0.812860932389264 
1606	 0.812918610951156 
1607	 0.812958855427851 
1608	 0.813011831193005 
1609	 0.813056155336746 
1610	 0.813108174100968 
1611	 0.813136040557048 
1612	 0.813232177784864 
1613	 0.813391033512751 
1614	 0.813516551790761 
1615	 0.813677425564269 
1616	 0.813826860011048 
1617	 0.813914839007233 
1618	 0.814056800610444 
1619	 0.814280461690477 
1620	 0.814441500004288 
1621	 0.81456405655305 
1622	 0.814719591996036 
1623	 0.814857535475983 
1624	 0.81500881860786 
1625	 0.815233638148126 
1626	 0.815392175638453 
1627	 0.815493379949185 
1628	 0.81560943731068 
1629	 0.815691857182865 
1630	 0.81579565871855 
1631	 0.815939916270436 
1632	 0.816043648157907 
1633	 0.816111471646724 
1634	 0.81621113858428 
1635	 0.816308961809211 
1636	 0.816399504215988 
1637	 0.816505570614269 
1638	 0.816612012945652 
1639	 0.816672637641442 
1640	 0.816804932873677 
1641	 0.817003997917307 
1642	 0.817179515178211 
1643	 0.817400314075526 
1644	 0.817574433759054 
1645	 0.817709386232757 
1646	 0.817854761032968 
1647	 0.817992409999162 
1648	 0.818119042391204 
1649	 0.818218021335522 
1650	 0.818356917029955 
1651	 0.818532900393879 
1652	 0.818664632686864 
1653	 0.818803660671897 
1654	 0.818924668687038 
1655	 0.81900777381106 
1656	 0.819075824009555 
1657	 0.819146720717925 
1658	 0.819195153532553 
1659	 0.819197330807731 
1660	 0.819220399774786 
1661	 0.819245484838889 
1662	 0.819262060635404 
1663	 0.819311638497087 
1664	 0.819284253516878 
1665	 0.819195327993018 
1666	 0.819136890738239 
1667	 0.819003328544868 
1668	 0.818952973134798 
1669	 0.819012582222622 
1670	 0.818988426050258 
1671	 0.818962303822451 
1672	 0.818903735027989 
1673	 0.818802803786044 
1674	 0.81866769145822 
1675	 0.818519918287197 
1676	 0.818334318209367 
1677	 0.818071627798233 
1678	 0.817846945930372 
1679	 0.817613328057459 
1680	 0.817393707019695 
1681	 0.817167740871739 
1682	 0.816982033568123 
1683	 0.816803002568926 
1684	 0.816669090057793 
1685	 0.816584511028768 
1686	 0.81650940711412 
1687	 0.816494728990152 
1688	 0.816420412702256 
1689	 0.816354884823247 
1690	 0.8162349042069 
1691	 0.816055228144437 
1692	 0.815880403278644 
1693	 0.81568027242548 
1694	 0.815497253404373 
1695	 0.815271358889755 
1696	 0.815129459939386 
1697	 0.815029680863493 
1698	 0.814929030491213 
1699	 0.814885163900314 
1700	 0.81483985431071 
1701	 0.814810362163724 
1702	 0.814735874953253 
1703	 0.814656749637635 
1704	 0.81456579277912 
1705	 0.814423947618808 
1706	 0.814349354583573 
1707	 0.814285062322031 
1708	 0.814163494966383 
1709	 0.814051544527247 
1710	 0.813922156420099 
1711	 0.813726140009388 
1712	 0.813510547228711 
1713	 0.813258221585678 
1714	 0.81294902611226 
1715	 0.812685880307923 
1716	 0.8124501738978 
1717	 0.812229894891196 
1718	 0.812057458199394 
1719	 0.81182683804794 
1720	 0.81157344559097 
1721	 0.811329053664376 
1722	 0.811096805660144 
1723	 0.810888998859173 
1724	 0.81065171695725 
1725	 0.810387587897545 
1726	 0.810067271090597 
1727	 0.809727017119145 
1728	 0.809488021279202 
1729	 0.809281676352872 
1730	 0.809074631195835 
1731	 0.808939218351486 
1732	 0.808725462284001 
1733	 0.808473449341318 
1734	 0.80829590905972 
1735	 0.808013939015362 
1736	 0.807701664159704 
1737	 0.807384845156187 
1738	 0.806895576235707 
1739	 0.806479688934611 
1740	 0.806060677504298 
1741	 0.80564756719468 
1742	 0.805278414328275 
1743	 0.804873302073569 
1744	 0.804422426325172 
1745	 0.804000621262389 
1746	 0.803599046364413 
1747	 0.803194790581365 
1748	 0.802797560598083 
1749	 0.80239652978657 
1750	 0.801966055251627 
1751	 0.801563917626041 
1752	 0.801198162011617 
1753	 0.80081949070036 
1754	 0.800449944241492 
1755	 0.800087839958675 
1756	 0.799719872758246 
1757	 0.799352782280675 
1758	 0.798971341417587 
1759	 0.798610528310855 
1760	 0.798210207214798 
1761	 0.797786467503919 
1762	 0.797412600493375 
1763	 0.797035680903989 
1764	 0.796650195884433 
1765	 0.796257144782905 
1766	 0.795818669984835 
1767	 0.795376593329709 
1768	 0.794950406816782 
1769	 0.794564582462019 
1770	 0.794260357086872 
1771	 0.793900204074938 
1772	 0.793529444968884 
1773	 0.79314685377275 
1774	 0.792690425829735 
1775	 0.792302226550664 
1776	 0.791929664358059 
1777	 0.791625087999122 
1778	 0.791381260868189 
1779	 0.791018212155215 
1780	 0.790691432899951 
1781	 0.790395814487617 
1782	 0.789967832393011 
1783	 0.789644092114732 
1784	 0.789391979568314 
1785	 0.789058764966237 
1786	 0.788796594405568 
1787	 0.788559215964222 
1788	 0.788352410532025 
1789	 0.788181310673867 
1790	 0.788047967881324 
1791	 0.787993627758687 
1792	 0.787864608261004 
1793	 0.78772526826209 
1794	 0.787565078930549 
1795	 0.787430563080012 
1796	 0.787349019798982 
1797	 0.787230609721021 
1798	 0.78708633277469 
1799	 0.786870279155804 
1800	 0.786674581928235 
1801	 0.773830445413014 
1802	 0.773993938610138 
1803	 0.774283012098351 
1804	 0.774723533288915 
1805	 0.775206222743345 
1806	 0.775723198563003 
1807	 0.776332515629795 
1808	 0.776936457056294 
1809	 0.777729610418851 
1810	 0.77822797674735 
1811	 0.778658984432056 
1812	 0.7790017042314 
1813	 0.779117485921091 
1814	 0.779244166975288 
1815	 0.779446870713793 
1816	 0.779659238725449 
1817	 0.77972411462011 
1818	 0.77968028907793 
1819	 0.779660894583532 
1820	 0.779551261870951 
1821	 0.779462494183295 
1822	 0.779387392724989 
1823	 0.779328227779425 
1824	 0.779198981150611 
1825	 0.779050347160804 
1826	 0.778963150153482 
1827	 0.778951934898334 
1828	 0.778850558171887 
1829	 0.778733638530064 
1830	 0.77859973501835 
1831	 0.778437280947377 
1832	 0.778217738836074 
1833	 0.778023326907353 
1834	 0.77787199135688 
1835	 0.777715458632679 
1836	 0.777504465671001 
1837	 0.777295557891886 
1838	 0.777143761321768 
1839	 0.776893902702963 
1840	 0.776561817354591 
1841	 0.776249878823643 
1842	 0.775980062474647 
1843	 0.775516448582618 
1844	 0.775066484460289 
1845	 0.774654930166433 
1846	 0.773984783322984 
1847	 0.773309246512458 
1848	 0.772563013719091 
1849	 0.771662328448486 
1850	 0.770763228838421 
1851	 0.76982998505668 
1852	 0.768904400734845 
1853	 0.767910481722965 
1854	 0.766969121327444 
1855	 0.765983667756134 
1856	 0.764808286355087 
1857	 0.763506022078762 
1858	 0.762084904768473 
1859	 0.760591154087762 
1860	 0.759105601608478 
1861	 0.757328680422728 
1862	 0.755416716664043 
1863	 0.753292943332646 
1864	 0.750909374579418 
1865	 0.748448566178557 
1866	 0.745813139551412 
1867	 0.742948990735195 
1868	 0.740037470820401 
1869	 0.736598986626485 
1870	 0.732987210944923 
1871	 0.729266209076049 
1872	 0.72520200010178 
1873	 0.720795831301121 
1874	 0.71625981907724 
1875	 0.711387978685365 
1876	 0.705705968851699 
1877	 0.699931566941088 
1878	 0.693748310554675 
1879	 0.687069647015008 
1880	 0.680756458208213 
1881	 0.674124742560761 
1882	 0.66719213244743 
1883	 0.660215194398893 
1884	 0.653263793597964 
1885	 0.645433181692666 
1886	 0.637636139244803 
1887	 0.629377596569647 
1888	 0.620652192720821 
1889	 0.612438016308579 
1890	 0.603639995212967 
1891	 0.594806854083341 
1892	 0.585968567961571 
1893	 0.576566175903846 
1894	 0.566492237278952 
1895	 0.556811564291975 
1896	 0.546873818324159 
1897	 0.536683845577888 
1898	 0.527603235685089 
1899	 0.518368398811585 
1900	 0.509480816660615 
1901	 0.501262093847399 
1902	 0.492627813834301 
1903	 0.484641784114443 
1904	 0.477262210498316 
1905	 0.470251738591532 
1906	 0.463764237371616 
1907	 0.458452802310893 
1908	 0.453537807067754 
1909	 0.449162572869124 
1910	 0.445642005042703 
1911	 0.442446212198683 
1912	 0.439864701579283 
1913	 0.437851429895443 
1914	 0.436161748118264 
1915	 0.434908213107206 
1916	 0.434151827058239 
1917	 0.433749006511056 
1918	 0.433541217401096 
1919	 0.433704669326024 
1920	 0.434149681474072 
1921	 0.434656434292889 
1922	 0.435512180627897 
1923	 0.436528314339008 
1924	 0.437468169429362 
1925	 0.43863399018614 
1926	 0.439873887641576 
1927	 0.441158814066342 
1928	 0.442536393148933 
1929	 0.444092272133206 
1930	 0.445640615740326 
1931	 0.447236480259426 
1932	 0.448814413774479 
1933	 0.450238567838169 
1934	 0.451722471703906 
1935	 0.453155644102844 
1936	 0.454513579612036 
1937	 0.4559562397219 
1938	 0.457451836210877 
1939	 0.45895764283588 
1940	 0.460466372222119 
1941	 0.462068626650618 
1942	 0.463636110660143 
1943	 0.465270743215357 
1944	 0.466776046172963 
1945	 0.468280454715188 
1946	 0.469855581102301 
1947	 0.471308082246461 
1948	 0.472881632861489 
1949	 0.474400061139336 
1950	 0.475778802415856 
1951	 0.477008945523898 
1952	 0.478348048627014 
1953	 0.479613349286553 
1954	 0.480866579303045 
1955	 0.482349329995983 
1956	 0.483840610848764 
1957	 0.485315921748355 
1958	 0.486862764536234 
1959	 0.488254280328971 
1960	 0.489755045274444 
1961	 0.491302917476342 
1962	 0.492879946604018 
1963	 0.494445245407497 
1964	 0.496169113172509 
1965	 0.49767474106133 
1966	 0.499069579330777 
1967	 0.50045107003416 
1968	 0.501746521395505 
1969	 0.50299304648016 
1970	 0.504329151039226 
1971	 0.505816893004662 
1972	 0.507369135739443 
1973	 0.509041116277651 
1974	 0.510759323063895 
1975	 0.512648691194504 
1976	 0.514400414426056 
1977	 0.516156433383229 
1978	 0.517921261042113 
1979	 0.519658570763523 
1980	 0.521317899701732 
1981	 0.523172515919464 
1982	 0.52487311811163 
1983	 0.52662753798444 
1984	 0.528489963231754 
1985	 0.53015591945943 
1986	 0.53195198346192 
1987	 0.533770412020869 
1988	 0.535586261539274 
1989	 0.537402010460797 
1990	 0.539323671446453 
1991	 0.54116973070035 
1992	 0.542971395024666 
1993	 0.544771902927857 
1994	 0.546511654089862 
1995	 0.548303456423674 
1996	 0.550039860484339 
1997	 0.551840432656108 
1998	 0.553825568398012 
1999	 0.556023208428085 
2000	 0.558044480162571 
2001	 0.560239617803079 
2002	 0.562181083417049 
2003	 0.563882334365902 
2004	 0.565680921104726 
2005	 0.567333176318527 
2006	 0.569145239170875 
2007	 0.57111239769776 
2008	 0.572969868104552 
2009	 0.574832804971949 
2010	 0.576757893055906 
2011	 0.578411512197513 
2012	 0.580163263921724 
2013	 0.581880963934654 
2014	 0.583549152780593 
2015	 0.585212124125371 
2016	 0.586918068518461 
2017	 0.588537727631122 
2018	 0.590159200150659 
2019	 0.59168405670283 
2020	 0.59310188040368 
2021	 0.59450738456089 
2022	 0.595898046985483 
2023	 0.597321690439591 
2024	 0.598844089827573 
2025	 0.600293676284882 
2026	 0.601641957496937 
2027	 0.602823384370548 
2028	 0.60417834621684 
2029	 0.605480731002399 
2030	 0.606921654244776 
2031	 0.608578748435163 
2032	 0.610116996885554 
2033	 0.611698717024098 
2034	 0.613192448784832 
2035	 0.614623900603812 
2036	 0.616051932585886 
2037	 0.617385606094112 
2038	 0.618622279079529 
2039	 0.619907526614129 
2040	 0.621171469828318 
2041	 0.622397817122161 
2042	 0.623671099696002 
2043	 0.624795723198645 
2044	 0.625769084449426 
2045	 0.626800178380228 
2046	 0.627753894162905 
2047	 0.628764501799385 
2048	 0.629740278894332 
2049	 0.630837881111223 
2050	 0.632004918680732 
2051	 0.633217685470696 
2052	 0.634523400752527 
2053	 0.635747171982249 
2054	 0.636871559095234 
2055	 0.637890436886197 
2056	 0.63891053802824 
2057	 0.639852959241471 
2058	 0.640831214515927 
2059	 0.641798417483415 
2060	 0.642733892219542 
2061	 0.643725044561924 
2062	 0.644568509419606 
2063	 0.645208276980724 
2064	 0.6460270830115 
2065	 0.646874146158039 
2066	 0.647657479662986 
2067	 0.648648508047729 
2068	 0.649576882115163 
2069	 0.650456039412587 
2070	 0.651284973104223 
2071	 0.652096731871279 
2072	 0.652872092147828 
2073	 0.653666015892276 
2074	 0.654390736865201 
2075	 0.655194809129331 
2076	 0.65604303009332 
2077	 0.656879679081136 
2078	 0.65779169268099 
2079	 0.65863588412373 
2080	 0.659461674566428 
2081	 0.660252886045671 
2082	 0.660967741117346 
2083	 0.661701107366719 
2084	 0.662489483273894 
2085	 0.66317474119611 
2086	 0.663898987764847 
2087	 0.664681518824451 
2088	 0.665362562501743 
2089	 0.66595584064701 
2090	 0.666607713995284 
2091	 0.667218021517367 
2092	 0.667860080455861 
2093	 0.668551880970109 
2094	 0.669221872599014 
2095	 0.669949488314302 
2096	 0.67057534329689 
2097	 0.67109747746319 
2098	 0.671667045855577 
2099	 0.67233160739909 
2100	 0.672811090633426 
2101	 0.673434795011993 
2102	 0.674137297179837 
2103	 0.674887243503711 
2104	 0.675711109645766 
2105	 0.676457659175598 
2106	 0.677291429552112 
2107	 0.678006389149861 
2108	 0.678520908319301 
2109	 0.679209115967227 
2110	 0.67998190005776 
2111	 0.680691521863402 
2112	 0.68148116374559 
2113	 0.682195266325129 
2114	 0.682745967462303 
2115	 0.683449002739763 
2116	 0.684338491986826 
2117	 0.685054233324181 
2118	 0.685626662486299 
2119	 0.686217009149437 
2120	 0.686598961211633 
2121	 0.686629553076883 
2122	 0.686879040406051 
2123	 0.687084090776933 
2124	 0.687440995209084 
2125	 0.68791014799139 
2126	 0.688342216799551 
2127	 0.688925175203457 
2128	 0.689367273166568 
2129	 0.689792162378207 
2130	 0.690087667161664 
2131	 0.690279585279733 
2132	 0.69041328163107 
2133	 0.690467908350876 
2134	 0.690366147884241 
2135	 0.690244607119712 
2136	 0.690233928942629 
2137	 0.690020393349685 
2138	 0.689734529894507 
2139	 0.6892963965195 
2140	 0.688675368127242 
2141	 0.688086298895318 
2142	 0.68739072856219 
2143	 0.686718802764656 
2144	 0.686041376218653 
2145	 0.685334004359104 
2146	 0.684557885392366 
2147	 0.683800796916558 
2148	 0.683054087820856 
2149	 0.682273168691539 
2150	 0.681597388646678 
2151	 0.680707827988341 
2152	 0.679758169009741 
2153	 0.67869585560789 
2154	 0.677187042949857 
2155	 0.675498217276836 
2156	 0.673732937978641 
2157	 0.671669986345233 
2158	 0.669631300417087 
2159	 0.667594551280989 
2160	 0.665333606339445 
2161	 0.662791029027891 
2162	 0.66045601594328 
2163	 0.658023133481208 
2164	 0.655689181031656 
2165	 0.653497067196914 
2166	 0.65119710165035 
2167	 0.649002356114015 
2168	 0.646558624886317 
2169	 0.643844896924952 
2170	 0.641332896117187 
2171	 0.638653351785474 
2172	 0.636124100943958 
2173	 0.633839441718701 
2174	 0.631529626867231 
2175	 0.629131669726372 
2176	 0.62679849603326 
2177	 0.62458866165438 
2178	 0.622477521861091 
2179	 0.620322664327376 
2180	 0.618198571601747 
2181	 0.616187548352008 
2182	 0.614151714058203 
2183	 0.612294190273139 
2184	 0.610770343008638 
2185	 0.608989655676596 
2186	 0.607184839132212 
2187	 0.605302501643152 
2188	 0.60308699101822 
2189	 0.601261347224362 
2190	 0.599544975152114 
2191	 0.597968702733025 
2192	 0.596766439597519 
2193	 0.595470081083136 
2194	 0.594231156627442 
2195	 0.593002900212444 
2196	 0.591805524408918 
2197	 0.590581352794729 
2198	 0.589618629984085 
2199	 0.588515008337205 
2200	 0.587234328267406 
2201	 0.585667753125402 
2202	 0.584846999104965 
2203	 0.584038204321246 
2204	 0.583669842464875 
2205	 0.584146938234336 
2206	 0.584311539082973 
2207	 0.584469312852932 
2208	 0.58476762394967 
2209	 0.585164825763952 
2210	 0.585842348226673 
2211	 0.586778349689416 
2212	 0.587615329245754 
2213	 0.588883238343892 
2214	 0.589729162992801 
2215	 0.590007934797638 
2216	 0.590747648008455 
2217	 0.591547631238898 
2218	 0.592406870360014 
2219	 0.593675371937076 
2220	 0.594747915233211 
2221	 0.59575282115201 
2222	 0.596695813290996 
2223	 0.597314717726971 
2224	 0.597990472196396 
2225	 0.59921640965146 
2226	 0.600408253795704 
2227	 0.601298524826437 
2228	 0.602553910848859 
2229	 0.603149674338663 
2230	 0.602924596105485 
2231	 0.603231416197961 
2232	 0.603809970277782 
2233	 0.603894696434152 
2234	 0.603697524068832 
2235	 0.603616650361438 
2236	 0.603117034896628 
2237	 0.603146979347839 
2238	 0.603713724856611 
2239	 0.603875884316452 
2240	 0.604011368721287 
2241	 0.604099446807261 
2242	 0.603827094241698 
2243	 0.603868808726435 
2244	 0.604314107190578 
2245	 0.604454693924767 
2246	 0.604335370330778 
2247	 0.604546480770706 
2248	 0.604810349319062 
2249	 0.605033597717091 
2250	 0.605506163473673 
2251	 0.606026370713438 
2252	 0.606051182683705 
2253	 0.605993068348183 
2254	 0.605689322527038 
2255	 0.605271666397654 
2256	 0.604967950008626 
2257	 0.604922112687037 
2258	 0.605003531322928 
2259	 0.605396529471941 
2260	 0.605545109510113 
2261	 0.605801815153343 
2262	 0.605739018308246 
2263	 0.605298205115673 
2264	 0.605397798443933 
2265	 0.605620603202768 
2266	 0.60578401377762 
2267	 0.606364709810094 
2268	 0.606463038528933 
2269	 0.606280901382537 
2270	 0.606060529522599 
2271	 0.605700276633137 
2272	 0.605278905435897 
2273	 0.604635381586196 
2274	 0.604073868989236 
2275	 0.603455209646967 
2276	 0.602909033978478 
2277	 0.602475759946766 
2278	 0.601859974134853 
2279	 0.600988098267896 
2280	 0.600489946009605 
2281	 0.599953474008035 
2282	 0.59972699849702 
2283	 0.60017016039527 
2284	 0.60013151172963 
2285	 0.60016533774319 
2286	 0.600541697739522 
2287	 0.600352942968339 
2288	 0.600157853641365 
2289	 0.599411774714783 
2290	 0.598169758005567 
2291	 0.59724113195111 
2292	 0.596570213449186 
2293	 0.596257694112503 
2294	 0.596054757034754 
2295	 0.595430216662378 
2296	 0.594468275411983 
2297	 0.593861040935664 
2298	 0.593166863389731 
2299	 0.592639229599369 
2300	 0.59267548407161 
2301	 0.591771534933566 
2302	 0.590309697036178 
2303	 0.589406952366529 
2304	 0.588076917327785 
2305	 0.587424065290411 
2306	 0.587562066148433 
2307	 0.586999538078913 
2308	 0.58629685981808 
2309	 0.585711210479154 
2310	 0.584952243943543 
2311	 0.584391629874794 
2312	 0.58431793556725 
2313	 0.58357857183747 
2314	 0.582122460115863 
2315	 0.581428657698468 
2316	 0.580622608606026 
2317	 0.580145975310062 
2318	 0.580920603928447 
2319	 0.580536322357019 
2320	 0.579571170879201 
2321	 0.578438806002336 
2322	 0.576347088287931 
2323	 0.575105948009644 
2324	 0.574333269318323 
2325	 0.573415195867904 
2326	 0.572429641426216 
2327	 0.571932584477514 
2328	 0.572217640531398 
2329	 0.571426251502104 
2330	 0.570410967215564 
2331	 0.569460238443519 
2332	 0.568034543694118 
2333	 0.566473815076913 
2334	 0.565389377630343 
2335	 0.564574900548719 
2336	 0.563501670966166 
2337	 0.562682846292637 
2338	 0.56188196544981 
2339	 0.561327683256622 
2340	 0.561081554570479 
2341	 0.55963924348174 
2342	 0.558641215009639 
2343	 0.55812135218998 
2344	 0.556780725063184 
2345	 0.55584522954229 
2346	 0.556186896890359 
2347	 0.556174386428468 
2348	 0.555172993720919 
2349	 0.554218112654898 
2350	 0.552875950573548 
2351	 0.551660385585133 
2352	 0.550296642769459 
2353	 0.549092208175271 
2354	 0.547805330525665 
2355	 0.54596109069677 
2356	 0.544900170059476 
2357	 0.544315994504476 
2358	 0.542491068052149 
2359	 0.540008219747065 
2360	 0.539903606373634 
2361	 0.539656067459243 
2362	 0.538945674505755 
2363	 0.539749904276297 
2364	 0.53810509010748 
2365	 0.535383452602593 
2366	 0.533442499616003 
2367	 0.532342533667812 
2368	 0.532488593029409 
2369	 0.531418023439665 
2370	 0.530891472578726 
2371	 0.530275127398485 
2372	 0.528127348674628 
2373	 0.526950298618344 
2374	 0.525547181895812 
2375	 0.523953096998286 
2376	 0.522959797945968 
2377	 0.521006661179796 
2378	 0.519336549103774 
2379	 0.518217462063291 
2380	 0.516531315687119 
2381	 0.515220988078521 
2382	 0.514432240272865 
2383	 0.514555260884088 
2384	 0.513795751287001 
2385	 0.513026128614249 
2386	 0.512539851772845 
2387	 0.511304031837188 
2388	 0.509863118566815 
2389	 0.509548715304435 
2390	 0.507969991558063 
2391	 0.504575888931534 
2392	 0.503052306191285 
2393	 0.502198450023077 
2394	 0.501282601359245 
2395	 0.501269741607095 
2396	 0.499824740910142 
2397	 0.496915669079654 
2398	 0.49588608291193 
2399	 0.495892419370729 
2400	 0.495962176480203 
2401	 0.497091948564232 
2402	 0.497571122197335 
2403	 0.496808869478898 
2404	 0.494709123031501 
2405	 0.49249114840735 
2406	 0.488728377794048 
2407	 0.486682593541678 
2408	 0.486027627655022 
2409	 0.484008656372552 
2410	 0.481715036601075 
2411	 0.480106028149403 
2412	 0.479404422178879 
2413	 0.479957117037751 
2414	 0.481783944867892 
2415	 0.481616740018496 
2416	 0.479740461164725 
2417	 0.478359672984635 
2418	 0.476789429477142 
2419	 0.473827548967844 
2420	 0.469109742790005 
2421	 0.46421185481156 
2422	 0.460708446347258 
2423	 0.459422212774867 
2424	 0.460540838221096 
2425	 0.463364619672165 
2426	 0.463944686403088 
2427	 0.464467406136764 
2428	 0.465537188691294 
2429	 0.46477044748705 
2430	 0.461093285750678 
2431	 0.456301176249669 
2432	 0.453285787689341 
2433	 0.446584546425204 
2434	 0.443551335845823 
2435	 0.443377250036137 
2436	 0.437691586924807 
2437	 0.436345070066449 
2438	 0.439507726900064 
2439	 0.440736452614506 
2440	 0.444361687638144 
2441	 0.449995064167605 
2442	 0.451009671971332 
2443	 0.451847696884557 
2444	 0.452473306642709 
2445	 0.451407303019374 
2446	 0.450388727004424 
2447	 0.445120205075729 
2448	 0.443895786026489 
2449	 0.441442389886062 
2450	 0.431801912686082 
2451	 0.430881188275751 
2452	 0.428399242822744 
2453	 0.425051068909593 
2454	 0.434048654708977 
2455	 0.436755212660206 
2456	 0.435934268728339 
2457	 0.435143226102437 
2458	 0.432149966490062 
2459	 0.430801536263949 
2460	 0.427868871011833 
2461	 0.435571159298621 
2462	 0.436892515925488 
2463	 0.430603290526959 
2464	 0.429753327676145 
2465	 0.416745817280625 
2466	 0.403352028768557 
2467	 0.403827101046169 
2468	 0.406987189044257 
2469	 0.409011577045942 
2470	 0.415848412995762 
2471	 0.419663516461191 
2472	 0.417392470870335 
2473	 0.412893207098816 
2474	 0.40452071662524 
2475	 0.399586623282428 
2476	 0.401444052463637 
2477	 0.409528150911594 
2478	 0.416539091585287 
2479	 0.416055256904526 
2480	 0.414763196880503 
2481	 0.413221551777933 
2482	 0.421099570354551 
2483	 0.419038118723032 
2484	 0.403440926222941 
2485	 0.390294971139791 
2486	 0.386535176250101 
2487	 0.383311702663588 
2488	 0.381060891079617 
2489	 0.399203477539261 
2490	 0.401818384041823 
2491	 0.394298147035878 
2492	 0.41165713436937 
2493	 0.416244437894391 
2494	 0.411517325909239 
2495	 0.424026924546385 
2496	 0.42504226459424 
2497	 0.417703501915158 
2498	 0.425219958173155 
2499	 0.420540754280362 
2500	 0.397049677625766 
