Wavelength	A00012.asd.hr
350	 1 
351	 1 
352	 0.982652068138123 
353	 0.889074981212616 
354	 0.913296937942505 
355	 0.881235361099243 
356	 0.819921672344208 
357	 0.796886146068573 
358	 0.880799412727356 
359	 0.856794059276581 
360	 0.782174944877625 
361	 0.806830763816834 
362	 0.768793106079102 
363	 0.728651165962219 
364	 0.725271165370941 
365	 0.748676240444183 
366	 0.72393137216568 
367	 0.700628876686096 
368	 0.719037175178528 
369	 0.715302169322968 
370	 0.684355914592743 
371	 0.662301361560822 
372	 0.68942528963089 
373	 0.673724174499512 
374	 0.647322118282318 
375	 0.639209091663361 
376	 0.657601118087769 
377	 0.65356457233429 
378	 0.647218823432922 
379	 0.656908929347992 
380	 0.640155255794525 
381	 0.638253331184387 
382	 0.643835127353668 
383	 0.627768039703369 
384	 0.627746760845184 
385	 0.625653028488159 
386	 0.615062713623047 
387	 0.614019930362701 
388	 0.607377648353577 
389	 0.601833581924438 
390	 0.60440593957901 
391	 0.603813409805298 
392	 0.599234879016876 
393	 0.593863964080811 
394	 0.592536687850952 
395	 0.591525077819824 
396	 0.591646730899811 
397	 0.593044459819794 
398	 0.5942223072052 
399	 0.592443645000458 
400	 0.588894963264465 
401	 0.58628249168396 
402	 0.588516414165497 
403	 0.588216006755829 
404	 0.585424423217773 
405	 0.585411310195923 
406	 0.585244715213776 
407	 0.581946194171906 
408	 0.577632486820221 
409	 0.5845547914505 
410	 0.589006125926971 
411	 0.588358223438263 
412	 0.58434385061264 
413	 0.579500734806061 
414	 0.579805612564087 
415	 0.583730638027191 
416	 0.58360356092453 
417	 0.583846986293793 
418	 0.584798455238342 
419	 0.585497736930847 
420	 0.58328378200531 
421	 0.582634747028351 
422	 0.584570527076721 
423	 0.588055193424225 
424	 0.590020418167114 
425	 0.589311540126801 
426	 0.587916672229767 
427	 0.590968191623688 
428	 0.592150509357452 
429	 0.592805743217468 
430	 0.594619393348694 
431	 0.595022797584534 
432	 0.595558643341064 
433	 0.596763849258423 
434	 0.598561465740204 
435	 0.600881576538086 
436	 0.603712916374207 
437	 0.606595754623413 
438	 0.608384370803833 
439	 0.609222829341888 
440	 0.609941899776459 
441	 0.611272573471069 
442	 0.612545371055603 
443	 0.61376291513443 
444	 0.615716516971588 
445	 0.619471907615662 
446	 0.620493769645691 
447	 0.62184751033783 
448	 0.625060021877289 
449	 0.625398635864258 
450	 0.625844478607178 
451	 0.626944541931152 
452	 0.628407537937164 
453	 0.630654096603394 
454	 0.631891965866089 
455	 0.632210075855255 
456	 0.633824169635773 
457	 0.63487434387207 
458	 0.635284781455994 
459	 0.635706126689911 
460	 0.637859284877777 
461	 0.639147162437439 
462	 0.639803767204285 
463	 0.641358733177185 
464	 0.641553938388824 
465	 0.642041981220245 
466	 0.64322429895401 
467	 0.642915785312653 
468	 0.643679857254028 
469	 0.644266068935394 
470	 0.64353346824646 
471	 0.645628809928894 
472	 0.646741628646851 
473	 0.646452665328979 
474	 0.647097885608673 
475	 0.64739727973938 
476	 0.647892534732819 
477	 0.64885425567627 
478	 0.649332225322723 
479	 0.650127708911896 
480	 0.650847434997559 
481	 0.650953888893127 
482	 0.652030110359192 
483	 0.652864217758179 
484	 0.653434276580811 
485	 0.655237793922424 
486	 0.655239641666412 
487	 0.655225694179535 
488	 0.656846106052399 
489	 0.657946169376373 
490	 0.658509194850922 
491	 0.659115493297577 
492	 0.660571336746216 
493	 0.662018835544586 
494	 0.663228809833527 
495	 0.664234519004822 
496	 0.665398836135864 
497	 0.665793120861053 
498	 0.666670143604279 
499	 0.669089257717133 
500	 0.670181155204773 
501	 0.670825242996216 
502	 0.671527922153473 
503	 0.672329783439636 
504	 0.673580348491669 
505	 0.674915194511414 
506	 0.675963521003723 
507	 0.676556766033173 
508	 0.677909433841705 
509	 0.679451286792755 
510	 0.680036962032318 
511	 0.68063360452652 
512	 0.681913435459137 
513	 0.683626472949982 
514	 0.68440854549408 
515	 0.685612380504608 
516	 0.686858892440796 
517	 0.687638223171234 
518	 0.688445329666138 
519	 0.690020501613617 
520	 0.692029654979706 
521	 0.693426191806793 
522	 0.694214522838593 
523	 0.695402801036835 
524	 0.697317004203796 
525	 0.698700904846191 
526	 0.70041435956955 
527	 0.702369570732117 
528	 0.70425945520401 
529	 0.706433296203613 
530	 0.70888489484787 
531	 0.7112175822258 
532	 0.712691187858582 
533	 0.714403033256531 
534	 0.716903984546661 
535	 0.720123708248138 
536	 0.722657322883606 
537	 0.725282728672028 
538	 0.728097558021545 
539	 0.730829060077667 
540	 0.733672201633453 
541	 0.736519455909729 
542	 0.739458441734314 
543	 0.742962896823883 
544	 0.746639490127563 
545	 0.750319540500641 
546	 0.753919780254364 
547	 0.757367491722107 
548	 0.761107325553894 
549	 0.764996290206909 
550	 0.768444001674652 
551	 0.77321058511734 
552	 0.778153419494629 
553	 0.782438576221466 
554	 0.787348926067352 
555	 0.792056381702423 
556	 0.797319412231445 
557	 0.804135203361511 
558	 0.810067594051361 
559	 0.815869629383087 
560	 0.821844398975372 
561	 0.827274024486542 
562	 0.8321772813797 
563	 0.837199568748474 
564	 0.84290885925293 
565	 0.848812818527222 
566	 0.854950666427612 
567	 0.861203789710999 
568	 0.867236614227295 
569	 0.872074246406555 
570	 0.876823842525482 
571	 0.881886839866638 
572	 0.884585857391357 
573	 0.885625064373016 
574	 0.885241329669952 
575	 0.884034097194672 
576	 0.883585929870605 
577	 0.885596752166748 
578	 0.889990746974945 
579	 0.895079851150513 
580	 0.900560915470123 
581	 0.905941665172577 
582	 0.91091650724411 
583	 0.915517270565033 
584	 0.920399487018585 
585	 0.92515242099762 
586	 0.928931832313538 
587	 0.933587074279785 
588	 0.937955975532532 
589	 0.941551864147186 
590	 0.945726156234741 
591	 0.948202133178711 
592	 0.949672102928162 
593	 0.951532483100891 
594	 0.95387202501297 
595	 0.955869555473328 
596	 0.957805812358856 
597	 0.960801243782043 
598	 0.962800681591034 
599	 0.964382410049438 
600	 0.966263353824615 
601	 0.968343079090118 
602	 0.970185160636902 
603	 0.971856832504272 
604	 0.973585367202759 
605	 0.974793076515198 
606	 0.976665914058685 
607	 0.978900790214539 
608	 0.979174077510834 
609	 0.980404913425446 
610	 0.981863617897034 
611	 0.982564389705658 
612	 0.983850836753845 
613	 0.985223710536957 
614	 0.986079216003418 
615	 0.986006677150726 
616	 0.987168550491333 
617	 0.988372683525085 
618	 0.988948285579681 
619	 0.990022838115692 
620	 0.99061918258667 
621	 0.990984678268433 
622	 0.991647064685822 
623	 0.992420315742493 
624	 0.992811799049377 
625	 0.99284702539444 
626	 0.993062317371368 
627	 0.993715047836304 
628	 0.994435667991638 
629	 0.994862914085388 
630	 0.995029270648956 
631	 0.994845867156982 
632	 0.994833946228027 
633	 0.995602250099182 
634	 0.996362805366516 
635	 0.996871769428253 
636	 0.997159361839294 
637	 0.997537910938263 
638	 0.997376322746277 
639	 0.997180879116058 
640	 0.99748307466507 
641	 0.99801778793335 
642	 0.997958660125732 
643	 0.997708916664124 
644	 0.998287081718445 
645	 0.998530566692352 
646	 0.998447000980377 
647	 0.998392879962921 
648	 0.99908447265625 
649	 0.999452114105225 
650	 0.999440729618073 
651	 0.999275684356689 
652	 0.998898088932037 
653	 0.998409032821655 
654	 0.998109638690948 
655	 0.998388648033142 
656	 0.998713612556458 
657	 0.998743057250977 
658	 0.998645603656769 
659	 0.999724268913269 
660	 0.999643325805664 
661	 0.998866200447083 
662	 0.99871963262558 
663	 0.998818218708038 
664	 0.999108135700226 
665	 0.999231219291687 
666	 0.998599767684937 
667	 0.998901128768921 
668	 0.999438762664795 
669	 0.999325156211853 
670	 0.998321652412415 
671	 0.998612582683563 
672	 0.999722957611084 
673	 1 
674	 0.99931925535202 
675	 0.999038279056549 
676	 0.999584197998047 
677	 1 
678	 0.99858570098877 
679	 0.997422516345978 
680	 0.99824595451355 
681	 0.999035656452179 
682	 0.999217510223389 
683	 0.999165892601013 
684	 0.999615490436554 
685	 0.999127864837646 
686	 0.998694956302643 
687	 0.99865460395813 
688	 0.998080313205719 
689	 0.997947454452515 
690	 0.998101353645325 
691	 0.998305261135101 
692	 0.999304473400116 
693	 0.999384760856628 
694	 0.998709499835968 
695	 0.998639822006226 
696	 0.999391555786133 
697	 0.999331772327423 
698	 0.998509407043457 
699	 1 
700	 0.999563336372375 
701	 0.998409271240234 
702	 0.998678028583527 
703	 0.999151170253754 
704	 0.999582469463348 
705	 0.999646425247192 
706	 0.999139010906219 
707	 0.999577403068542 
708	 1 
709	 0.999874114990234 
710	 0.999882996082306 
711	 0.999501347541809 
712	 0.998675167560577 
713	 0.997871398925781 
714	 0.999058783054352 
715	 0.999732911586761 
716	 0.999326765537262 
717	 0.998852252960205 
718	 0.999524772167206 
719	 0.999587297439575 
720	 0.998636424541473 
721	 0.999281287193298 
722	 0.998843193054199 
723	 0.998445093631744 
724	 0.9994176030159 
725	 0.999144732952118 
726	 0.999064981937408 
727	 0.999430894851685 
728	 0.999594330787659 
729	 0.999401986598969 
730	 0.99924236536026 
731	 0.999412655830383 
732	 0.999970376491547 
733	 0.999562561511993 
734	 0.998774230480194 
735	 0.998647391796112 
736	 0.999662339687347 
737	 1 
738	 0.999302983283997 
739	 0.997988998889923 
740	 0.99882584810257 
741	 0.999438941478729 
742	 0.998861491680145 
743	 0.999205946922302 
744	 0.99939501285553 
745	 0.999563872814178 
746	 0.999832987785339 
747	 0.999178171157837 
748	 0.999074339866638 
749	 0.99924898147583 
750	 0.998713076114655 
751	 0.999663531780243 
752	 1 
753	 0.999163210391998 
754	 0.998705863952637 
755	 0.997701466083527 
756	 0.997578918933868 
757	 0.998942494392395 
758	 0.998620390892029 
759	 0.998125851154327 
760	 0.997779309749603 
761	 0.997480511665344 
762	 0.998100996017456 
763	 0.998388230800629 
764	 0.998341083526611 
765	 0.999350845813751 
766	 1 
767	 0.99971330165863 
768	 0.998475015163422 
769	 0.998527705669403 
770	 0.999003946781158 
771	 0.999414801597595 
772	 0.999350249767303 
773	 0.998276770114899 
774	 0.998053729534149 
775	 0.99861204624176 
776	 0.998410701751709 
777	 0.999226987361908 
778	 1 
779	 0.999925255775452 
780	 0.999249696731567 
781	 0.999450147151947 
782	 0.999853491783142 
783	 0.999641418457031 
784	 0.999960720539093 
785	 1 
786	 0.999642491340637 
787	 0.999192714691162 
788	 0.999146521091461 
789	 0.998767673969269 
790	 0.998063802719116 
791	 0.998010635375977 
792	 0.997896313667297 
793	 0.997694373130798 
794	 0.997571229934692 
795	 0.997792541980743 
796	 0.998584091663361 
797	 0.998648226261139 
798	 0.997053980827332 
799	 0.997375965118408 
800	 0.997829973697662 
801	 0.997831523418427 
802	 0.99784392118454 
803	 0.997250199317932 
804	 0.996655941009521 
805	 0.996216475963593 
806	 0.99517810344696 
807	 0.995244681835175 
808	 0.996555268764496 
809	 0.998307585716248 
810	 0.998366713523865 
811	 0.99773895740509 
812	 0.996973276138306 
813	 0.996541440486908 
814	 0.997574627399445 
815	 0.998139500617981 
816	 0.997519493103027 
817	 0.996344327926636 
818	 0.995311141014099 
819	 0.994515538215637 
820	 0.994035243988037 
821	 0.994107484817505 
822	 0.994802713394165 
823	 0.994836568832397 
824	 0.993649542331696 
825	 0.993951797485352 
826	 0.994677782058716 
827	 0.994404733181 
828	 0.992281258106232 
829	 0.991365194320679 
830	 0.992004215717316 
831	 0.993015944957733 
832	 0.992270708084106 
833	 0.990765511989594 
834	 0.990312814712524 
835	 0.991112470626831 
836	 0.990772783756256 
837	 0.990930557250977 
838	 0.990809857845306 
839	 0.989686131477356 
840	 0.9885014295578 
841	 0.987831234931946 
842	 0.987845003604889 
843	 0.988263666629791 
844	 0.987985789775848 
845	 0.987227380275726 
846	 0.985953688621521 
847	 0.984273254871368 
848	 0.98537141084671 
849	 0.98669821023941 
850	 0.98687219619751 
851	 0.986876666545868 
852	 0.986620128154755 
853	 0.986096799373627 
854	 0.985561668872833 
855	 0.985820114612579 
856	 0.985817134380341 
857	 0.986348330974579 
858	 0.987693071365356 
859	 0.986117541790009 
860	 0.984741985797882 
861	 0.984494686126709 
862	 0.984907686710358 
863	 0.98531037569046 
864	 0.9844850897789 
865	 0.983268141746521 
866	 0.983940243721008 
867	 0.984588801860809 
868	 0.985176563262939 
869	 0.985170066356659 
870	 0.98320347070694 
871	 0.983857810497284 
872	 0.984622299671173 
873	 0.983343303203583 
874	 0.98218035697937 
875	 0.98189640045166 
876	 0.982118785381317 
877	 0.982362747192383 
878	 0.983695030212402 
879	 0.983402132987976 
880	 0.981192588806152 
881	 0.978694438934326 
882	 0.979894280433655 
883	 0.981444239616394 
884	 0.981539845466614 
885	 0.98027902841568 
886	 0.979347825050354 
887	 0.979415118694305 
888	 0.980093479156494 
889	 0.980029821395874 
890	 0.979123771190643 
891	 0.978890180587769 
892	 0.979643940925598 
893	 0.979216992855072 
894	 0.978531837463379 
895	 0.97769683599472 
896	 0.977003335952759 
897	 0.977730870246887 
898	 0.978080868721008 
899	 0.977479994297028 
900	 0.97641932964325 
901	 0.977435767650604 
902	 0.977969467639923 
903	 0.977940261363983 
904	 0.978378415107727 
905	 0.978737533092499 
906	 0.978528320789337 
907	 0.978030204772949 
908	 0.97798353433609 
909	 0.97797018289566 
910	 0.978483438491821 
911	 0.97921746969223 
912	 0.979115724563599 
913	 0.978743612766266 
914	 0.979056239128113 
915	 0.980045735836029 
916	 0.980368971824646 
917	 0.98040783405304 
918	 0.980338096618652 
919	 0.980468571186066 
920	 0.981372237205505 
921	 0.981074690818787 
922	 0.98010778427124 
923	 0.979564309120178 
924	 0.980087459087372 
925	 0.980744063854218 
926	 0.981445491313934 
927	 0.982097148895264 
928	 0.981687247753143 
929	 0.979666769504547 
930	 0.978355348110199 
931	 0.98004287481308 
932	 0.981641173362732 
933	 0.982472240924835 
934	 0.983147442340851 
935	 0.984420359134674 
936	 0.983557462692261 
937	 0.983126819133759 
938	 0.98329770565033 
939	 0.982618510723114 
940	 0.982242465019226 
941	 0.981490790843964 
942	 0.980981826782227 
943	 0.982051730155945 
944	 0.981373965740204 
945	 0.981340050697327 
946	 0.982162594795227 
947	 0.981405377388 
948	 0.981546521186829 
949	 0.981415033340454 
950	 0.980913817882538 
951	 0.981785833835602 
952	 0.983319997787476 
953	 0.982947111129761 
954	 0.981040596961975 
955	 0.982368767261505 
956	 0.983038544654846 
957	 0.982537806034088 
958	 0.981498956680298 
959	 0.981187283992767 
960	 0.982246100902557 
961	 0.983548700809479 
962	 0.984110772609711 
963	 0.984198927879334 
964	 0.98343425989151 
965	 0.983880460262299 
966	 0.985868573188782 
967	 0.98462975025177 
968	 0.983749032020569 
969	 0.982936441898346 
970	 0.982036113739014 
971	 0.98402327299118 
972	 0.985109567642212 
973	 0.985998034477234 
974	 0.987666010856628 
975	 0.987785875797272 
976	 0.987504720687866 
977	 0.986724853515625 
978	 0.985763370990753 
979	 0.987319767475128 
980	 0.988515198230743 
981	 0.989151358604431 
982	 0.989679515361786 
983	 0.989344358444214 
984	 0.98995977640152 
985	 0.990438878536224 
986	 0.989666819572449 
987	 0.990078747272491 
988	 0.99007648229599 
989	 0.990542471408844 
990	 0.992343902587891 
991	 0.993433058261871 
992	 0.993606865406036 
993	 0.992106258869171 
994	 0.989449739456177 
995	 0.990495562553406 
996	 0.990868985652924 
997	 0.990222334861755 
998	 0.989890813827515 
999	 0.991352677345276 
1000	 0.992622971534729 
1001	 0.99662709236145 
1002	 0.996953785419464 
1003	 0.997194707393646 
1004	 0.997234046459198 
1005	 0.997193992137909 
1006	 0.997110247612 
1007	 0.996809005737305 
1008	 0.996645152568817 
1009	 0.996542990207672 
1010	 0.996427774429321 
1011	 0.996250092983246 
1012	 0.996125876903534 
1013	 0.996003806591034 
1014	 0.995969533920288 
1015	 0.995994091033936 
1016	 0.996093451976776 
1017	 0.996140956878662 
1018	 0.996118068695068 
1019	 0.996022343635559 
1020	 0.995980441570282 
1021	 0.996085822582245 
1022	 0.996385216712952 
1023	 0.996519923210144 
1024	 0.996624171733856 
1025	 0.996825873851776 
1026	 0.997024655342102 
1027	 0.99721223115921 
1028	 0.997492909431458 
1029	 0.997766971588135 
1030	 0.997869491577148 
1031	 0.997971892356873 
1032	 0.998134732246399 
1033	 0.998307049274445 
1034	 0.998507559299469 
1035	 0.998785793781281 
1036	 0.99897426366806 
1037	 0.999154627323151 
1038	 0.999265968799591 
1039	 0.999253392219543 
1040	 0.999322533607483 
1041	 0.999395549297333 
1042	 0.999484598636627 
1043	 0.999616920948029 
1044	 0.999766767024994 
1045	 0.99989652633667 
1046	 0.999999940395355 
1047	 0.999908685684204 
1048	 0.999869227409363 
1049	 0.999898910522461 
1050	 0.9999138712883 
1051	 1 
1052	 0.999998688697815 
1053	 1 
1054	 0.999897599220276 
1055	 0.999861299991608 
1056	 0.999999940395355 
1057	 0.999999940395355 
1058	 1 
1059	 0.999821186065674 
1060	 0.999652802944183 
1061	 0.99941349029541 
1062	 0.999294817447662 
1063	 0.999338865280151 
1064	 0.999311089515686 
1065	 0.999169170856476 
1066	 0.998832941055298 
1067	 0.99839848279953 
1068	 0.998086392879486 
1069	 0.997836768627167 
1070	 0.99759566783905 
1071	 0.99741804599762 
1072	 0.997308671474457 
1073	 0.997196674346924 
1074	 0.997024714946747 
1075	 0.996908783912659 
1076	 0.99689519405365 
1077	 0.996740162372589 
1078	 0.996594130992889 
1079	 0.996623814105988 
1080	 0.996510803699493 
1081	 0.996389746665955 
1082	 0.996435761451721 
1083	 0.996420502662659 
1084	 0.996354103088379 
1085	 0.996335446834564 
1086	 0.996261656284332 
1087	 0.9961296916008 
1088	 0.995933175086975 
1089	 0.995746731758118 
1090	 0.995529592037201 
1091	 0.995321333408356 
1092	 0.995168387889862 
1093	 0.995004951953888 
1094	 0.99482536315918 
1095	 0.994819641113281 
1096	 0.994812726974487 
1097	 0.994699597358704 
1098	 0.994764149188995 
1099	 0.994745850563049 
1100	 0.994479417800903 
1101	 0.994312107563019 
1102	 0.994274199008942 
1103	 0.994219958782196 
1104	 0.994137704372406 
1105	 0.994155466556549 
1106	 0.994214653968811 
1107	 0.994195997714996 
1108	 0.994280934333801 
1109	 0.994449377059937 
1110	 0.994580209255219 
1111	 0.994701504707336 
1112	 0.994768977165222 
1113	 0.994871616363525 
1114	 0.995091319084167 
1115	 0.995327234268188 
1116	 0.995538949966431 
1117	 0.995726823806763 
1118	 0.995901703834534 
1119	 0.996075809001923 
1120	 0.996209383010864 
1121	 0.996334969997406 
1122	 0.99639356136322 
1123	 0.996418178081512 
1124	 0.99639904499054 
1125	 0.996469080448151 
1126	 0.996626198291779 
1127	 0.996742844581604 
1128	 0.996916472911835 
1129	 0.997027456760406 
1130	 0.996987581253052 
1131	 0.997015953063965 
1132	 0.997095167636871 
1133	 0.997142851352692 
1134	 0.997147560119629 
1135	 0.997178673744202 
1136	 0.997196197509766 
1137	 0.997234225273132 
1138	 0.997242033481598 
1139	 0.997384190559387 
1140	 0.997636914253235 
1141	 0.997791290283203 
1142	 0.998009622097015 
1143	 0.99822211265564 
1144	 0.998294532299042 
1145	 0.998360931873322 
1146	 0.998429715633392 
1147	 0.998518586158752 
1148	 0.998713850975037 
1149	 0.998934149742126 
1150	 0.999134659767151 
1151	 0.999292016029358 
1152	 0.999435842037201 
1153	 0.999542653560638 
1154	 0.999613642692566 
1155	 0.999679982662201 
1156	 0.999712109565735 
1157	 0.999655723571777 
1158	 0.999638319015503 
1159	 0.99962854385376 
1160	 0.999613642692566 
1161	 0.999623477458954 
1162	 0.999571204185486 
1163	 0.99944543838501 
1164	 0.999367296695709 
1165	 0.99931401014328 
1166	 0.999243855476379 
1167	 0.999223411083221 
1168	 0.999208867549896 
1169	 0.9991734623909 
1170	 0.999051511287689 
1171	 0.999085664749146 
1172	 0.999209225177765 
1173	 0.999306917190552 
1174	 0.999521851539612 
1175	 0.99960994720459 
1176	 0.999630987644196 
1177	 0.999640703201294 
1178	 0.999544143676758 
1179	 0.999545693397522 
1180	 0.999664843082428 
1181	 0.999738931655884 
1182	 0.999835431575775 
1183	 0.999946594238281 
1184	 0.999999940395355 
1185	 1 
1186	 1 
1187	 0.999972224235535 
1188	 0.999987959861755 
1189	 0.999966740608215 
1190	 0.999952614307404 
1191	 1 
1192	 1 
1193	 0.999979555606842 
1194	 0.999943852424622 
1195	 0.999904870986938 
1196	 0.999829053878784 
1197	 0.999755203723907 
1198	 0.99956887960434 
1199	 0.999305248260498 
1200	 0.999127209186554 
1201	 0.998891592025757 
1202	 0.998603940010071 
1203	 0.998446941375732 
1204	 0.998365163803101 
1205	 0.99831348657608 
1206	 0.998383164405823 
1207	 0.998342156410217 
1208	 0.998262643814087 
1209	 0.998222410678864 
1210	 0.998122215270996 
1211	 0.998113214969635 
1212	 0.998215317726135 
1213	 0.99826455116272 
1214	 0.99831759929657 
1215	 0.99836653470993 
1216	 0.998389303684235 
1217	 0.998433649539948 
1218	 0.998476922512054 
1219	 0.998575747013092 
1220	 0.998625218868256 
1221	 0.998660922050476 
1222	 0.998650133609772 
1223	 0.998605072498322 
1224	 0.998574554920197 
1225	 0.99852442741394 
1226	 0.998493313789368 
1227	 0.998477458953857 
1228	 0.998429417610168 
1229	 0.998390197753906 
1230	 0.998311042785645 
1231	 0.9981729388237 
1232	 0.998090803623199 
1233	 0.998003005981445 
1234	 0.997921407222748 
1235	 0.997893810272217 
1236	 0.997824132442474 
1237	 0.997723162174225 
1238	 0.997637331485748 
1239	 0.997528553009033 
1240	 0.997448861598969 
1241	 0.997414886951447 
1242	 0.997325837612152 
1243	 0.997255802154541 
1244	 0.997162282466888 
1245	 0.997170448303223 
1246	 0.997226238250732 
1247	 0.997264802455902 
1248	 0.99736875295639 
1249	 0.997448801994324 
1250	 0.997494161128998 
1251	 0.997556567192078 
1252	 0.997629761695862 
1253	 0.997743964195251 
1254	 0.997869551181793 
1255	 0.998000860214233 
1256	 0.998193025588989 
1257	 0.998362958431244 
1258	 0.998509645462036 
1259	 0.9986612200737 
1260	 0.99884432554245 
1261	 0.998993515968323 
1262	 0.999120593070984 
1263	 0.999221205711365 
1264	 0.999362051486969 
1265	 0.999515295028687 
1266	 0.999625742435455 
1267	 0.999738931655884 
1268	 0.999853610992432 
1269	 0.99998152256012 
1270	 0.999995529651642 
1271	 0.999999940395355 
1272	 1 
1273	 0.99994957447052 
1274	 0.999916076660156 
1275	 0.999855816364288 
1276	 0.999795973300934 
1277	 0.999717235565186 
1278	 0.999596476554871 
1279	 0.999482274055481 
1280	 0.999322414398193 
1281	 0.999078452587128 
1282	 0.998851656913757 
1283	 0.998578011989594 
1284	 0.998358070850372 
1285	 0.998160481452942 
1286	 0.99797648191452 
1287	 0.997803688049316 
1288	 0.997676014900208 
1289	 0.99752002954483 
1290	 0.997363209724426 
1291	 0.997183084487915 
1292	 0.997013509273529 
1293	 0.996800124645233 
1294	 0.996581256389618 
1295	 0.996284544467926 
1296	 0.995886325836182 
1297	 0.995577216148376 
1298	 0.995211601257324 
1299	 0.994938731193542 
1300	 0.994767546653748 
1301	 0.994583785533905 
1302	 0.9945068359375 
1303	 0.994289696216583 
1304	 0.993994355201721 
1305	 0.993727624416351 
1306	 0.993374228477478 
1307	 0.993048489093781 
1308	 0.992775440216064 
1309	 0.992482364177704 
1310	 0.992212116718292 
1311	 0.991914510726929 
1312	 0.991674482822418 
1313	 0.991452574729919 
1314	 0.991310238838196 
1315	 0.991207540035248 
1316	 0.991138994693756 
1317	 0.99115252494812 
1318	 0.991153001785278 
1319	 0.991131246089935 
1320	 0.991198658943176 
1321	 0.991350591182709 
1322	 0.991465032100677 
1323	 0.991658806800842 
1324	 0.991760492324829 
1325	 0.991783320903778 
1326	 0.991841077804565 
1327	 0.991875886917114 
1328	 0.991919159889221 
1329	 0.991990685462952 
1330	 0.992041289806366 
1331	 0.992026269435883 
1332	 0.992085695266724 
1333	 0.992205917835236 
1334	 0.992292642593384 
1335	 0.992395758628845 
1336	 0.992547690868378 
1337	 0.992665767669678 
1338	 0.992766320705414 
1339	 0.992840766906738 
1340	 0.992918312549591 
1341	 0.992971777915955 
1342	 0.992989242076874 
1343	 0.992996871471405 
1344	 0.993021845817566 
1345	 0.99298083782196 
1346	 0.992904901504517 
1347	 0.992782294750214 
1348	 0.992566287517548 
1349	 0.9924276471138 
1350	 0.992256999015808 
1351	 0.992142975330353 
1352	 0.992090106010437 
1353	 0.992049694061279 
1354	 0.992058932781219 
1355	 0.992030262947083 
1356	 0.992018580436707 
1357	 0.991986155509949 
1358	 0.991914689540863 
1359	 0.991847395896912 
1360	 0.991772949695587 
1361	 0.991705477237701 
1362	 0.991642773151398 
1363	 0.991609275341034 
1364	 0.99156242609024 
1365	 0.991560518741608 
1366	 0.991459786891937 
1367	 0.991351664066315 
1368	 0.9911248087883 
1369	 0.990849733352661 
1370	 0.990445077419281 
1371	 0.989956438541412 
1372	 0.989346086978912 
1373	 0.988636255264282 
1374	 0.987798094749451 
1375	 0.986894965171814 
1376	 0.985738635063171 
1377	 0.984359383583069 
1378	 0.982910096645355 
1379	 0.98120903968811 
1380	 0.979537129402161 
1381	 0.977824687957764 
1382	 0.976036548614502 
1383	 0.974127650260925 
1384	 0.972269535064697 
1385	 0.970447540283203 
1386	 0.96854555606842 
1387	 0.966690897941589 
1388	 0.964744567871094 
1389	 0.962719261646271 
1390	 0.960626006126404 
1391	 0.958566606044769 
1392	 0.956258773803711 
1393	 0.953912794589996 
1394	 0.951527178287506 
1395	 0.949095368385315 
1396	 0.946582734584808 
1397	 0.944116353988647 
1398	 0.941642284393311 
1399	 0.939137518405914 
1400	 0.936621189117432 
1401	 0.934084534645081 
1402	 0.931512176990509 
1403	 0.928947389125824 
1404	 0.926374912261963 
1405	 0.923839867115021 
1406	 0.921278476715088 
1407	 0.918793857097626 
1408	 0.916265189647675 
1409	 0.913949072360992 
1410	 0.911529958248138 
1411	 0.909647405147552 
1412	 0.907879650592804 
1413	 0.906740367412567 
1414	 0.906076431274414 
1415	 0.905808985233307 
1416	 0.906151592731476 
1417	 0.906618356704712 
1418	 0.907518804073334 
1419	 0.908448994159698 
1420	 0.909600019454956 
1421	 0.910779237747192 
1422	 0.912087023258209 
1423	 0.913411915302277 
1424	 0.914797961711884 
1425	 0.916230976581573 
1426	 0.917638957500458 
1427	 0.919058203697205 
1428	 0.920469999313354 
1429	 0.921766579151154 
1430	 0.923036813735962 
1431	 0.924245476722717 
1432	 0.925467550754547 
1433	 0.926662087440491 
1434	 0.927821636199951 
1435	 0.928968548774719 
1436	 0.930102646350861 
1437	 0.931202471256256 
1438	 0.932262241840363 
1439	 0.933356523513794 
1440	 0.934319078922272 
1441	 0.935185253620148 
1442	 0.936027705669403 
1443	 0.936813950538635 
1444	 0.93754506111145 
1445	 0.93820858001709 
1446	 0.938864588737488 
1447	 0.939476132392883 
1448	 0.940056324005127 
1449	 0.940609872341156 
1450	 0.941152095794678 
1451	 0.9416623711586 
1452	 0.942146003246307 
1453	 0.942633807659149 
1454	 0.943069100379944 
1455	 0.943422973155975 
1456	 0.943805038928986 
1457	 0.944169938564301 
1458	 0.944541096687317 
1459	 0.94495552778244 
1460	 0.945312917232513 
1461	 0.945604681968689 
1462	 0.945935130119324 
1463	 0.946239769458771 
1464	 0.946567118167877 
1465	 0.946881949901581 
1466	 0.947295129299164 
1467	 0.947714149951935 
1468	 0.948182046413422 
1469	 0.948791444301605 
1470	 0.949403285980225 
1471	 0.950005114078522 
1472	 0.950637996196747 
1473	 0.951264977455139 
1474	 0.951888144016266 
1475	 0.952503204345703 
1476	 0.953108966350555 
1477	 0.953781068325043 
1478	 0.954402208328247 
1479	 0.955197036266327 
1480	 0.956125557422638 
1481	 0.957042992115021 
1482	 0.958118200302124 
1483	 0.959013044834137 
1484	 0.959852635860443 
1485	 0.960683465003967 
1486	 0.961432278156281 
1487	 0.962181508541107 
1488	 0.962951064109802 
1489	 0.963658332824707 
1490	 0.964268803596497 
1491	 0.964949250221252 
1492	 0.965631663799286 
1493	 0.96632993221283 
1494	 0.967056691646576 
1495	 0.967778563499451 
1496	 0.968532860279083 
1497	 0.96923041343689 
1498	 0.969939887523651 
1499	 0.970580697059631 
1500	 0.971169233322144 
1501	 0.971712470054626 
1502	 0.972177922725677 
1503	 0.972663164138794 
1504	 0.973055720329285 
1505	 0.973552525043488 
1506	 0.974115192890167 
1507	 0.974673449993134 
1508	 0.975332200527191 
1509	 0.975910365581512 
1510	 0.976446866989136 
1511	 0.976970314979553 
1512	 0.977461457252502 
1513	 0.977928876876831 
1514	 0.9783735871315 
1515	 0.978809177875519 
1516	 0.979207038879395 
1517	 0.979610919952393 
1518	 0.980061292648315 
1519	 0.980426907539368 
1520	 0.980754196643829 
1521	 0.981034994125366 
1522	 0.981244385242462 
1523	 0.981482446193695 
1524	 0.981768488883972 
1525	 0.982091069221497 
1526	 0.982400417327881 
1527	 0.982738733291626 
1528	 0.983058929443359 
1529	 0.983335614204407 
1530	 0.983728110790253 
1531	 0.98419600725174 
1532	 0.984585702419281 
1533	 0.985023736953735 
1534	 0.985391795635223 
1535	 0.985685467720032 
1536	 0.985989928245544 
1537	 0.986271440982819 
1538	 0.986605525016785 
1539	 0.986936807632446 
1540	 0.987268686294556 
1541	 0.987667202949524 
1542	 0.987986743450165 
1543	 0.988240957260132 
1544	 0.98852550983429 
1545	 0.988797783851624 
1546	 0.989090740680695 
1547	 0.989398658275604 
1548	 0.989688456058502 
1549	 0.989993214607239 
1550	 0.990264177322388 
1551	 0.990507304668427 
1552	 0.990752756595612 
1553	 0.990991473197937 
1554	 0.991212368011475 
1555	 0.99144834280014 
1556	 0.991612672805786 
1557	 0.991685748100281 
1558	 0.991852045059204 
1559	 0.992002785205841 
1560	 0.992197930812836 
1561	 0.992492437362671 
1562	 0.992722690105438 
1563	 0.992931187152863 
1564	 0.993136525154114 
1565	 0.993326544761658 
1566	 0.99352502822876 
1567	 0.993676602840424 
1568	 0.99392032623291 
1569	 0.994212687015533 
1570	 0.994515359401703 
1571	 0.994937539100647 
1572	 0.995232343673706 
1573	 0.995487630367279 
1574	 0.995700359344482 
1575	 0.995821893215179 
1576	 0.995965540409088 
1577	 0.996074914932251 
1578	 0.996213376522064 
1579	 0.996367514133453 
1580	 0.996502220630646 
1581	 0.996638536453247 
1582	 0.996776401996613 
1583	 0.996908009052277 
1584	 0.99702650308609 
1585	 0.997166156768799 
1586	 0.997262179851532 
1587	 0.997320055961609 
1588	 0.997370004653931 
1589	 0.997427642345428 
1590	 0.997418105602264 
1591	 0.997342586517334 
1592	 0.997289538383484 
1593	 0.99711012840271 
1594	 0.997102320194244 
1595	 0.997196316719055 
1596	 0.997312009334564 
1597	 0.99762350320816 
1598	 0.997767627239227 
1599	 0.997863054275513 
1600	 0.9979088306427 
1601	 0.997835457324982 
1602	 0.997784078121185 
1603	 0.997701585292816 
1604	 0.997633993625641 
1605	 0.997531354427338 
1606	 0.997484147548676 
1607	 0.997463583946228 
1608	 0.997468113899231 
1609	 0.997554361820221 
1610	 0.997579634189606 
1611	 0.99754935503006 
1612	 0.997591316699982 
1613	 0.997643947601318 
1614	 0.997707068920136 
1615	 0.997867584228516 
1616	 0.997953236103058 
1617	 0.997951745986938 
1618	 0.998012125492096 
1619	 0.998065710067749 
1620	 0.998159825801849 
1621	 0.998309254646301 
1622	 0.998462021350861 
1623	 0.998641073703766 
1624	 0.998814105987549 
1625	 0.999036610126495 
1626	 0.999194025993347 
1627	 0.999336779117584 
1628	 0.99942547082901 
1629	 0.999451816082001 
1630	 0.999456346035004 
1631	 0.999382019042969 
1632	 0.9993577003479 
1633	 0.999309599399567 
1634	 0.99931389093399 
1635	 0.99936830997467 
1636	 0.999427735805511 
1637	 0.999521195888519 
1638	 0.999611914157867 
1639	 0.99973452091217 
1640	 0.999830424785614 
1641	 0.999968409538269 
1642	 1 
1643	 0.999970138072968 
1644	 0.999922692775726 
1645	 0.999778032302856 
1646	 0.999672472476959 
1647	 0.999588966369629 
1648	 0.999471008777618 
1649	 0.999293088912964 
1650	 0.999190986156464 
1651	 0.999096989631653 
1652	 0.999039530754089 
1653	 0.99906587600708 
1654	 0.999071359634399 
1655	 0.999092519283295 
1656	 0.999083936214447 
1657	 0.999066114425659 
1658	 0.999047756195068 
1659	 0.999006032943726 
1660	 0.998974800109863 
1661	 0.998977482318878 
1662	 0.998935401439667 
1663	 0.998904943466187 
1664	 0.998775720596313 
1665	 0.998536825180054 
1666	 0.998353838920593 
1667	 0.998093605041504 
1668	 0.997943639755249 
1669	 0.997867524623871 
1670	 0.997819781303406 
1671	 0.997842311859131 
1672	 0.997833132743835 
1673	 0.997861921787262 
1674	 0.997865855693817 
1675	 0.997871816158295 
1676	 0.997825264930725 
1677	 0.997776329517365 
1678	 0.997658371925354 
1679	 0.997436940670013 
1680	 0.997274816036224 
1681	 0.99708765745163 
1682	 0.996927082538605 
1683	 0.996748268604279 
1684	 0.996687233448029 
1685	 0.996672868728638 
1686	 0.996720194816589 
1687	 0.996904134750366 
1688	 0.997036099433899 
1689	 0.997186005115509 
1690	 0.997306406497955 
1691	 0.99741131067276 
1692	 0.997540712356567 
1693	 0.997660100460052 
1694	 0.997800767421722 
1695	 0.997940361499786 
1696	 0.998159885406494 
1697	 0.99842244386673 
1698	 0.998658895492554 
1699	 0.999009072780609 
1700	 0.999212622642517 
1701	 0.999341607093811 
1702	 0.99943333864212 
1703	 0.999422609806061 
1704	 0.999452412128448 
1705	 0.999432504177094 
1706	 0.999538004398346 
1707	 0.999667704105377 
1708	 0.999797344207764 
1709	 0.999903321266174 
1710	 0.999929428100586 
1711	 0.999965190887451 
1712	 0.999992847442627 
1713	 1 
1714	 0.999951660633087 
1715	 0.999858736991882 
1716	 0.999849021434784 
1717	 0.999824345111847 
1718	 0.999871373176575 
1719	 0.99992573261261 
1720	 0.999881148338318 
1721	 0.999857723712921 
1722	 0.999777317047119 
1723	 0.999747812747955 
1724	 0.999789535999298 
1725	 0.999741911888123 
1726	 0.999701380729675 
1727	 0.999677002429962 
1728	 0.999673902988434 
1729	 0.999740898609161 
1730	 0.999811291694641 
1731	 0.999920427799225 
1732	 1 
1733	 0.999999940395355 
1734	 1 
1735	 0.99997490644455 
1736	 0.999907910823822 
1737	 0.999800682067871 
1738	 0.99970543384552 
1739	 0.99956089258194 
1740	 0.999316692352295 
1741	 0.99910694360733 
1742	 0.998868584632874 
1743	 0.998669385910034 
1744	 0.998502552509308 
1745	 0.998322665691376 
1746	 0.998182594776154 
1747	 0.997987449169159 
1748	 0.997764050960541 
1749	 0.997539222240448 
1750	 0.997270822525024 
1751	 0.99701452255249 
1752	 0.996773421764374 
1753	 0.996473908424377 
1754	 0.996093988418579 
1755	 0.995873749256134 
1756	 0.995680034160614 
1757	 0.99562019109726 
1758	 0.995561420917511 
1759	 0.995398759841919 
1760	 0.995250642299652 
1761	 0.995104968547821 
1762	 0.995069444179535 
1763	 0.995076060295105 
1764	 0.995049297809601 
1765	 0.995080411434174 
1766	 0.995079100131989 
1767	 0.995114803314209 
1768	 0.995224475860596 
1769	 0.995334029197693 
1770	 0.99543559551239 
1771	 0.995469868183136 
1772	 0.995564341545105 
1773	 0.995715379714966 
1774	 0.995831429958344 
1775	 0.996013402938843 
1776	 0.996178865432739 
1777	 0.996287882328033 
1778	 0.996474146842957 
1779	 0.996645987033844 
1780	 0.996728301048279 
1781	 0.996754288673401 
1782	 0.99662983417511 
1783	 0.996541976928711 
1784	 0.996604859828949 
1785	 0.996670603752136 
1786	 0.996787965297699 
1787	 0.996888041496277 
1788	 0.997057616710663 
1789	 0.997327744960785 
1790	 0.997580349445343 
1791	 0.997922718524933 
1792	 0.998181581497192 
1793	 0.998363852500916 
1794	 0.998677670955658 
1795	 0.998950958251953 
1796	 0.999268412590027 
1797	 0.99963366985321 
1798	 0.999865412712097 
1799	 0.999950230121613 
1800	 0.999999940395355 
1801	 0.989034414291382 
1802	 0.989399909973145 
1803	 0.989824235439301 
1804	 0.99031537771225 
1805	 0.990843176841736 
1806	 0.991442680358887 
1807	 0.99207466840744 
1808	 0.992633819580078 
1809	 0.99340957403183 
1810	 0.993899345397949 
1811	 0.994186162948608 
1812	 0.99448436498642 
1813	 0.994758486747742 
1814	 0.994843542575836 
1815	 0.994859874248505 
1816	 0.994877696037292 
1817	 0.994925200939178 
1818	 0.994846224784851 
1819	 0.994927942752838 
1820	 0.995194315910339 
1821	 0.995343327522278 
1822	 0.99550449848175 
1823	 0.995644330978394 
1824	 0.995707631111145 
1825	 0.995689630508423 
1826	 0.995763897895813 
1827	 0.995914161205292 
1828	 0.995963037014008 
1829	 0.996018171310425 
1830	 0.996018886566162 
1831	 0.995933949947357 
1832	 0.995775997638702 
1833	 0.995853424072266 
1834	 0.995969712734222 
1835	 0.996140539646149 
1836	 0.99633800983429 
1837	 0.996380805969238 
1838	 0.996294736862183 
1839	 0.996247231960297 
1840	 0.996101677417755 
1841	 0.996052742004395 
1842	 0.996070504188538 
1843	 0.996036231517792 
1844	 0.996021747589111 
1845	 0.995935499668121 
1846	 0.995645880699158 
1847	 0.995471119880676 
1848	 0.995410919189453 
1849	 0.995505154132843 
1850	 0.995363116264343 
1851	 0.995251774787903 
1852	 0.995095908641815 
1853	 0.994660437107086 
1854	 0.994165122509003 
1855	 0.993790924549103 
1856	 0.993325352668762 
1857	 0.992868423461914 
1858	 0.992317020893097 
1859	 0.991583704948425 
1860	 0.990799963474274 
1861	 0.989811718463898 
1862	 0.988606452941895 
1863	 0.987290143966675 
1864	 0.985886871814728 
1865	 0.984354197978973 
1866	 0.982783019542694 
1867	 0.981195151805878 
1868	 0.979550361633301 
1869	 0.977518975734711 
1870	 0.975456297397614 
1871	 0.973333597183228 
1872	 0.971014499664307 
1873	 0.968531548976898 
1874	 0.966043412685394 
1875	 0.963189661502838 
1876	 0.959718406200409 
1877	 0.956115126609802 
1878	 0.952183783054352 
1879	 0.948027014732361 
1880	 0.944067180156708 
1881	 0.939905345439911 
1882	 0.935510396957397 
1883	 0.931174516677856 
1884	 0.926935017108917 
1885	 0.92214697599411 
1886	 0.917440414428711 
1887	 0.912546277046204 
1888	 0.907226860523224 
1889	 0.902073442935944 
1890	 0.896554946899414 
1891	 0.890843033790588 
1892	 0.884883224964142 
1893	 0.878351807594299 
1894	 0.871275365352631 
1895	 0.864103972911835 
1896	 0.856259405612946 
1897	 0.848020374774933 
1898	 0.840389132499695 
1899	 0.83216392993927 
1900	 0.824146568775177 
1901	 0.816618740558624 
1902	 0.80855518579483 
1903	 0.80106908082962 
1904	 0.793972194194794 
1905	 0.787188053131104 
1906	 0.780553758144379 
1907	 0.774841070175171 
1908	 0.769481837749481 
1909	 0.764594912528992 
1910	 0.760518014431 
1911	 0.756710708141327 
1912	 0.753572165966034 
1913	 0.751071572303772 
1914	 0.749002158641815 
1915	 0.747496902942657 
1916	 0.746692895889282 
1917	 0.746215522289276 
1918	 0.745848417282104 
1919	 0.74602735042572 
1920	 0.746526956558228 
1921	 0.746955513954163 
1922	 0.747782349586487 
1923	 0.74885481595993 
1924	 0.749788761138916 
1925	 0.751073062419891 
1926	 0.752545535564423 
1927	 0.754301488399506 
1928	 0.75595623254776 
1929	 0.757798552513123 
1930	 0.759604454040527 
1931	 0.761355638504028 
1932	 0.763119399547577 
1933	 0.764811754226685 
1934	 0.766627132892609 
1935	 0.768305957317352 
1936	 0.769752502441406 
1937	 0.771383702754974 
1938	 0.773043811321259 
1939	 0.774738073348999 
1940	 0.776456952095032 
1941	 0.778383553028107 
1942	 0.780183017253876 
1943	 0.781876742839813 
1944	 0.783485352993011 
1945	 0.785006284713745 
1946	 0.786682665348053 
1947	 0.788435697555542 
1948	 0.790080666542053 
1949	 0.791727066040039 
1950	 0.793317854404449 
1951	 0.794711828231812 
1952	 0.796188056468964 
1953	 0.797686338424683 
1954	 0.799236297607422 
1955	 0.800769805908203 
1956	 0.802336692810059 
1957	 0.803983807563782 
1958	 0.805708050727844 
1959	 0.807224810123444 
1960	 0.808894574642181 
1961	 0.810528934001923 
1962	 0.812106668949127 
1963	 0.813679993152618 
1964	 0.815397679805756 
1965	 0.816852390766144 
1966	 0.818169891834259 
1967	 0.819408714771271 
1968	 0.820559740066528 
1969	 0.821781516075134 
1970	 0.823155522346497 
1971	 0.824700474739075 
1972	 0.826231062412262 
1973	 0.827729642391205 
1974	 0.829385459423065 
1975	 0.831185877323151 
1976	 0.832874000072479 
1977	 0.834655463695526 
1978	 0.836404323577881 
1979	 0.838136911392212 
1980	 0.839634418487549 
1981	 0.841327011585236 
1982	 0.843066990375519 
1983	 0.844710409641266 
1984	 0.8464674949646 
1985	 0.848108232021332 
1986	 0.849718272686005 
1987	 0.851384520530701 
1988	 0.853021621704102 
1989	 0.854648232460022 
1990	 0.856309831142426 
1991	 0.858018934726715 
1992	 0.859710097312927 
1993	 0.861467003822327 
1994	 0.863191843032837 
1995	 0.864875912666321 
1996	 0.866537153720856 
1997	 0.868011355400085 
1998	 0.86971515417099 
1999	 0.871608436107636 
2000	 0.873391449451447 
2001	 0.875282824039459 
2002	 0.877020180225372 
2003	 0.878568470478058 
2004	 0.880217790603638 
2005	 0.881767928600311 
2006	 0.883452117443085 
2007	 0.885233461856842 
2008	 0.887111067771912 
2009	 0.888906419277191 
2010	 0.8909010887146 
2011	 0.892910897731781 
2012	 0.894927799701691 
2013	 0.896894156932831 
2014	 0.898941814899445 
2015	 0.900822401046753 
2016	 0.902623534202576 
2017	 0.904277920722961 
2018	 0.905802607536316 
2019	 0.907274425029755 
2020	 0.908492028713226 
2021	 0.909928560256958 
2022	 0.911402821540833 
2023	 0.912856817245483 
2024	 0.914343416690826 
2025	 0.9157794713974 
2026	 0.917156755924225 
2027	 0.918378531932831 
2028	 0.919710874557495 
2029	 0.921087205410004 
2030	 0.922435343265533 
2031	 0.923681378364563 
2032	 0.925164341926575 
2033	 0.926858484745026 
2034	 0.92838442325592 
2035	 0.929946482181549 
2036	 0.931587994098663 
2037	 0.933033883571625 
2038	 0.934456884860992 
2039	 0.935776174068451 
2040	 0.937174439430237 
2041	 0.938185393810272 
2042	 0.938918232917786 
2043	 0.939603388309479 
2044	 0.939949333667755 
2045	 0.940547168254852 
2046	 0.941005051136017 
2047	 0.941739797592163 
2048	 0.942646563053131 
2049	 0.943685352802277 
2050	 0.944933712482452 
2051	 0.946316003799438 
2052	 0.947732508182526 
2053	 0.94897598028183 
2054	 0.950026333332062 
2055	 0.950884699821472 
2056	 0.951758801937103 
2057	 0.952496826648712 
2058	 0.953155279159546 
2059	 0.953721165657043 
2060	 0.954321146011353 
2061	 0.954722225666046 
2062	 0.955310821533203 
2063	 0.955916821956635 
2064	 0.95673143863678 
2065	 0.9576735496521 
2066	 0.958727896213531 
2067	 0.959987223148346 
2068	 0.961213529109955 
2069	 0.962413370609283 
2070	 0.963659167289734 
2071	 0.964790940284729 
2072	 0.965936481952667 
2073	 0.966886043548584 
2074	 0.967614352703094 
2075	 0.968427300453186 
2076	 0.969091594219208 
2077	 0.969909846782684 
2078	 0.970908463001251 
2079	 0.97177928686142 
2080	 0.972557842731476 
2081	 0.97343635559082 
2082	 0.974378287792206 
2083	 0.975174963474274 
2084	 0.976263582706451 
2085	 0.977147340774536 
2086	 0.977764487266541 
2087	 0.978099882602692 
2088	 0.978607177734375 
2089	 0.978869020938873 
2090	 0.979339778423309 
2091	 0.980014622211456 
2092	 0.980590045452118 
2093	 0.981108427047729 
2094	 0.98168021440506 
2095	 0.982289373874664 
2096	 0.982907593250275 
2097	 0.983408153057098 
2098	 0.984207332134247 
2099	 0.985002756118774 
2100	 0.985685288906097 
2101	 0.986384510993958 
2102	 0.98708701133728 
2103	 0.987752318382263 
2104	 0.988362491130829 
2105	 0.989051699638367 
2106	 0.989712297916412 
2107	 0.990485727787018 
2108	 0.991617679595947 
2109	 0.992191135883331 
2110	 0.992467045783997 
2111	 0.99286413192749 
2112	 0.992794752120972 
2113	 0.993071734905243 
2114	 0.993725538253784 
2115	 0.994275808334351 
2116	 0.995004951953888 
2117	 0.995420336723328 
2118	 0.995884597301483 
2119	 0.996345221996307 
2120	 0.996708631515503 
2121	 0.996902644634247 
2122	 0.997291326522827 
2123	 0.997606754302979 
2124	 0.998128890991211 
2125	 0.999124526977539 
2126	 0.999499201774597 
2127	 0.999620497226715 
2128	 0.999839007854462 
2129	 0.999686002731323 
2130	 0.999673068523407 
2131	 0.999966979026794 
2132	 1 
2133	 0.999905347824097 
2134	 0.999902367591858 
2135	 0.999997675418854 
2136	 1 
2137	 0.999969840049744 
2138	 1 
2139	 0.999892711639404 
2140	 0.999515354633331 
2141	 0.999350368976593 
2142	 0.999249815940857 
2143	 0.999054074287415 
2144	 0.998979866504669 
2145	 0.998678088188171 
2146	 0.998210072517395 
2147	 0.997672379016876 
2148	 0.99700927734375 
2149	 0.996274173259735 
2150	 0.995781242847443 
2151	 0.994621515274048 
2152	 0.992971360683441 
2153	 0.991195917129517 
2154	 0.989134192466736 
2155	 0.98714417219162 
2156	 0.985427618026733 
2157	 0.984138786792755 
2158	 0.982482612133026 
2159	 0.980731427669525 
2160	 0.979000866413116 
2161	 0.977068662643433 
2162	 0.975475668907166 
2163	 0.974207758903503 
2164	 0.972591578960419 
2165	 0.970933973789215 
2166	 0.969353556632996 
2167	 0.967627227306366 
2168	 0.965867221355438 
2169	 0.964392960071564 
2170	 0.96256160736084 
2171	 0.960173726081848 
2172	 0.95812863111496 
2173	 0.956101715564728 
2174	 0.954119563102722 
2175	 0.952463626861572 
2176	 0.950792133808136 
2177	 0.949144184589386 
2178	 0.947498142719269 
2179	 0.945993661880493 
2180	 0.944398939609528 
2181	 0.943328678607941 
2182	 0.942736625671387 
2183	 0.941934466362 
2184	 0.941461980342865 
2185	 0.940718173980713 
2186	 0.939833402633667 
2187	 0.938864290714264 
2188	 0.937649428844452 
2189	 0.936740517616272 
2190	 0.93576979637146 
2191	 0.93497371673584 
2192	 0.934749066829681 
2193	 0.934114813804626 
2194	 0.933132529258728 
2195	 0.932357490062714 
2196	 0.931341350078583 
2197	 0.930788278579712 
2198	 0.9302619099617 
2199	 0.9295534491539 
2200	 0.928500056266785 
2201	 0.927050888538361 
2202	 0.925784289836884 
2203	 0.924209654331207 
2204	 0.923005163669586 
2205	 0.921742081642151 
2206	 0.921152949333191 
2207	 0.921173453330994 
2208	 0.921028256416321 
2209	 0.921238839626312 
2210	 0.921588063240051 
2211	 0.921715080738068 
2212	 0.922476649284363 
2213	 0.923756539821625 
2214	 0.925326645374298 
2215	 0.92757660150528 
2216	 0.929498612880707 
2217	 0.931745648384094 
2218	 0.933784127235413 
2219	 0.935144484043121 
2220	 0.937154471874237 
2221	 0.939628005027771 
2222	 0.942154049873352 
2223	 0.944387197494507 
2224	 0.946834206581116 
2225	 0.9483243227005 
2226	 0.949808359146118 
2227	 0.951448559761047 
2228	 0.953177392482758 
2229	 0.954663276672363 
2230	 0.956256687641144 
2231	 0.957258403301239 
2232	 0.957532584667206 
2233	 0.958636522293091 
2234	 0.959900259971619 
2235	 0.961059868335724 
2236	 0.962734818458557 
2237	 0.963902592658997 
2238	 0.964476406574249 
2239	 0.965355336666107 
2240	 0.966242253780365 
2241	 0.967429041862488 
2242	 0.9689981341362 
2243	 0.970044016838074 
2244	 0.970931351184845 
2245	 0.971987068653107 
2246	 0.972633123397827 
2247	 0.973639130592346 
2248	 0.975692570209503 
2249	 0.976590633392334 
2250	 0.97711181640625 
2251	 0.97693145275116 
2252	 0.976096391677856 
2253	 0.976329445838928 
2254	 0.976400017738342 
2255	 0.97686892747879 
2256	 0.977718114852905 
2257	 0.978027284145355 
2258	 0.978680074214935 
2259	 0.979733943939209 
2260	 0.980083107948303 
2261	 0.980095088481903 
2262	 0.98034930229187 
2263	 0.980153679847717 
2264	 0.98060542345047 
2265	 0.981797277927399 
2266	 0.982180655002594 
2267	 0.982344210147858 
2268	 0.982562065124512 
2269	 0.982472777366638 
2270	 0.98253208398819 
2271	 0.982971429824829 
2272	 0.982689917087555 
2273	 0.981688141822815 
2274	 0.981277883052826 
2275	 0.980494499206543 
2276	 0.980450034141541 
2277	 0.981541633605957 
2278	 0.981740713119507 
2279	 0.981833577156067 
2280	 0.981763184070587 
2281	 0.98120641708374 
2282	 0.980819165706635 
2283	 0.980638027191162 
2284	 0.980013072490692 
2285	 0.979378461837769 
2286	 0.978410482406616 
2287	 0.976886808872223 
2288	 0.97577041387558 
2289	 0.975273609161377 
2290	 0.974341988563538 
2291	 0.973565697669983 
2292	 0.973199129104614 
2293	 0.972781717777252 
2294	 0.971915543079376 
2295	 0.970765173435211 
2296	 0.970141410827637 
2297	 0.969372570514679 
2298	 0.96833074092865 
2299	 0.967265188694 
2300	 0.966132283210754 
2301	 0.965572834014893 
2302	 0.965221345424652 
2303	 0.964644849300385 
2304	 0.964825212955475 
2305	 0.964150846004486 
2306	 0.962429761886597 
2307	 0.961439192295074 
2308	 0.960591197013855 
2309	 0.959970831871033 
2310	 0.95987343788147 
2311	 0.959056556224823 
2312	 0.957715570926666 
2313	 0.957009732723236 
2314	 0.955905139446259 
2315	 0.955626785755157 
2316	 0.957033753395081 
2317	 0.956688940525055 
2318	 0.956098139286041 
2319	 0.954929828643799 
2320	 0.951809585094452 
2321	 0.950043916702271 
2322	 0.94875293970108 
2323	 0.947196841239929 
2324	 0.946002125740051 
2325	 0.945216774940491 
2326	 0.944487154483795 
2327	 0.94395923614502 
2328	 0.944480657577515 
2329	 0.943711459636688 
2330	 0.942021727561951 
2331	 0.940546452999115 
2332	 0.939401030540466 
2333	 0.938392102718353 
2334	 0.938113212585449 
2335	 0.936752378940582 
2336	 0.936113595962524 
2337	 0.936593770980835 
2338	 0.936527788639069 
2339	 0.936939299106598 
2340	 0.936891555786133 
2341	 0.935810446739197 
2342	 0.936116874217987 
2343	 0.937552630901337 
2344	 0.938237428665161 
2345	 0.937742471694946 
2346	 0.937299966812134 
2347	 0.938991904258728 
2348	 0.939672768115997 
2349	 0.939099073410034 
2350	 0.938466668128967 
2351	 0.935337066650391 
2352	 0.932900011539459 
2353	 0.93354320526123 
2354	 0.934702396392822 
2355	 0.936218023300171 
2356	 0.938280761241913 
2357	 0.9389568567276 
2358	 0.938038289546967 
2359	 0.937114059925079 
2360	 0.93683397769928 
2361	 0.936513304710388 
2362	 0.93809562921524 
2363	 0.941423833370209 
2364	 0.944349646568298 
2365	 0.946905970573425 
2366	 0.946715474128723 
2367	 0.946631133556366 
2368	 0.948307633399963 
2369	 0.948151111602783 
2370	 0.949503242969513 
2371	 0.951931595802307 
2372	 0.951884984970093 
2373	 0.950788974761963 
2374	 0.951705098152161 
2375	 0.951589643955231 
2376	 0.949220538139343 
2377	 0.948811590671539 
2378	 0.945927321910858 
2379	 0.942282140254974 
2380	 0.940870702266693 
2381	 0.942633092403412 
2382	 0.943880975246429 
2383	 0.947288691997528 
2384	 0.947665154933929 
2385	 0.946514487266541 
2386	 0.94553130865097 
2387	 0.943016707897186 
2388	 0.943560659885406 
2389	 0.947056651115417 
2390	 0.946599006652832 
2391	 0.945222854614258 
2392	 0.945179343223572 
2393	 0.943000435829163 
2394	 0.942343950271606 
2395	 0.943150997161865 
2396	 0.941711902618408 
2397	 0.940041422843933 
2398	 0.938601970672607 
2399	 0.937820017337799 
2400	 0.937788248062134 
2401	 0.934699058532715 
2402	 0.935767114162445 
2403	 0.938457846641541 
2404	 0.939125895500183 
2405	 0.94368189573288 
2406	 0.945921123027802 
2407	 0.944121241569519 
2408	 0.941525340080261 
2409	 0.940984666347504 
2410	 0.941267371177673 
2411	 0.941873788833618 
2412	 0.94549173116684 
2413	 0.94503253698349 
2414	 0.941734075546265 
2415	 0.938440501689911 
2416	 0.936120688915253 
2417	 0.932931303977966 
2418	 0.926714420318604 
2419	 0.924139201641083 
2420	 0.917654693126678 
2421	 0.909839570522308 
2422	 0.914004683494568 
2423	 0.918116390705109 
2424	 0.927186250686646 
2425	 0.942776799201965 
2426	 0.946806967258453 
2427	 0.946820974349976 
2428	 0.935623168945313 
2429	 0.924726188182831 
2430	 0.922333061695099 
2431	 0.91378778219223 
2432	 0.909928858280182 
2433	 0.910101532936096 
2434	 0.906764507293701 
2435	 0.901865661144257 
2436	 0.90511429309845 
2437	 0.907675266265869 
2438	 0.912549257278442 
2439	 0.923086225986481 
2440	 0.916373610496521 
2441	 0.90967333316803 
2442	 0.914445161819458 
2443	 0.912867307662964 
2444	 0.920227110385895 
2445	 0.924688696861267 
2446	 0.900045275688171 
2447	 0.890178382396698 
2448	 0.896294593811035 
2449	 0.898273229598999 
2450	 0.910406589508057 
2451	 0.91933935880661 
2452	 0.921162545681 
2453	 0.919955730438232 
2454	 0.924610793590546 
2455	 0.92492401599884 
2456	 0.912921845912933 
2457	 0.905711352825165 
2458	 0.900626122951508 
2459	 0.886647760868073 
2460	 0.877084791660309 
2461	 0.880520820617676 
2462	 0.879301130771637 
2463	 0.889804124832153 
2464	 0.903088390827179 
2465	 0.907812297344208 
2466	 0.912722110748291 
2467	 0.89937424659729 
2468	 0.895503342151642 
2469	 0.896354198455811 
2470	 0.888847231864929 
2471	 0.906765103340149 
2472	 0.927587151527405 
2473	 0.929794311523438 
2474	 0.930831432342529 
2475	 0.906661748886108 
2476	 0.870720267295837 
2477	 0.878582537174225 
2478	 0.892351865768433 
2479	 0.906885266304016 
2480	 0.905239582061768 
2481	 0.890152633190155 
2482	 0.871864914894104 
2483	 0.870857894420624 
2484	 0.885027050971985 
2485	 0.900584042072296 
2486	 0.89345508813858 
2487	 0.905972540378571 
2488	 0.896635115146637 
2489	 0.8746457695961 
2490	 0.872128844261169 
2491	 0.867019534111023 
2492	 0.872080683708191 
2493	 0.875218272209167 
2494	 0.873581051826477 
2495	 0.903362989425659 
2496	 0.934753119945526 
2497	 0.962684333324432 
2498	 1 
2499	 1 
2500	 1 
