Wavelength	A00015.asd.hr
350	 1 
351	 1 
352	 0.900502502918243 
353	 0.768972754478455 
354	 0.863288760185242 
355	 0.841861724853516 
356	 0.7679363489151 
357	 0.755383431911469 
358	 0.830690503120422 
359	 0.796372592449188 
360	 0.708834409713745 
361	 0.712582409381866 
362	 0.679827272891998 
363	 0.666543066501617 
364	 0.685190975666046 
365	 0.681568741798401 
366	 0.652078628540039 
367	 0.642217993736267 
368	 0.671087443828583 
369	 0.658031225204468 
370	 0.626212537288666 
371	 0.600623965263367 
372	 0.599129259586334 
373	 0.584774255752563 
374	 0.569752037525177 
375	 0.562948226928711 
376	 0.562323331832886 
377	 0.561598300933838 
378	 0.559450149536133 
379	 0.556539714336395 
380	 0.555061995983124 
381	 0.552956640720367 
382	 0.547525584697723 
383	 0.536568880081177 
384	 0.522728204727173 
385	 0.513957142829895 
386	 0.514768123626709 
387	 0.525741815567017 
388	 0.52508556842804 
389	 0.515203773975372 
390	 0.505466938018799 
391	 0.503218710422516 
392	 0.500479161739349 
393	 0.496778100728989 
394	 0.496088445186615 
395	 0.495236188173294 
396	 0.494877815246582 
397	 0.493801116943359 
398	 0.486705362796783 
399	 0.483171075582504 
400	 0.481760203838348 
401	 0.479633688926697 
402	 0.482964277267456 
403	 0.479765027761459 
404	 0.473850637674332 
405	 0.478697210550308 
406	 0.473095089197159 
407	 0.467985451221466 
408	 0.469622582197189 
409	 0.466814696788788 
410	 0.46767246723175 
411	 0.469621747732162 
412	 0.467965930700302 
413	 0.464577883481979 
414	 0.461638122797012 
415	 0.460800886154175 
416	 0.462953478097916 
417	 0.46405878663063 
418	 0.462969958782196 
419	 0.460325628519058 
420	 0.459249705076218 
421	 0.458140164613724 
422	 0.456615746021271 
423	 0.45511993765831 
424	 0.456368148326874 
425	 0.455990642309189 
426	 0.453798651695251 
427	 0.4548100233078 
428	 0.455786377191544 
429	 0.45561009645462 
430	 0.454435646533966 
431	 0.454851001501083 
432	 0.453817874193192 
433	 0.452384054660797 
434	 0.453344732522964 
435	 0.453112989664078 
436	 0.452890783548355 
437	 0.45326754450798 
438	 0.453101247549057 
439	 0.452050030231476 
440	 0.451566994190216 
441	 0.452610582113266 
442	 0.45181480050087 
443	 0.451845526695251 
444	 0.45321923494339 
445	 0.454510301351547 
446	 0.454059422016144 
447	 0.453559428453445 
448	 0.454120069742203 
449	 0.454310536384583 
450	 0.454772174358368 
451	 0.454949975013733 
452	 0.454275339841843 
453	 0.454734116792679 
454	 0.454998582601547 
455	 0.454892456531525 
456	 0.45567861199379 
457	 0.454324632883072 
458	 0.452901691198349 
459	 0.453369677066803 
460	 0.453974783420563 
461	 0.45498251914978 
462	 0.45509135723114 
463	 0.452901899814606 
464	 0.453606188297272 
465	 0.454371154308319 
466	 0.453700572252274 
467	 0.453523010015488 
468	 0.453209668397903 
469	 0.452710330486298 
470	 0.452244311571121 
471	 0.452621459960938 
472	 0.452532857656479 
473	 0.451670706272125 
474	 0.450664609670639 
475	 0.450984984636307 
476	 0.451433002948761 
477	 0.45118647813797 
478	 0.451187014579773 
479	 0.451800048351288 
480	 0.451509356498718 
481	 0.449040144681931 
482	 0.449345767498016 
483	 0.450014799833298 
484	 0.449810683727264 
485	 0.449454963207245 
486	 0.449397683143616 
487	 0.449758917093277 
488	 0.450306713581085 
489	 0.450193643569946 
490	 0.4493268430233 
491	 0.448844432830811 
492	 0.450133085250854 
493	 0.449678003787994 
494	 0.449312537908554 
495	 0.449917256832123 
496	 0.449701249599457 
497	 0.450236409902573 
498	 0.450847744941711 
499	 0.450581103563309 
500	 0.45041623711586 
501	 0.450304388999939 
502	 0.450239270925522 
503	 0.450287818908691 
504	 0.450692296028137 
505	 0.451087087392807 
506	 0.451202154159546 
507	 0.451194792985916 
508	 0.451651245355606 
509	 0.45221483707428 
510	 0.452167630195618 
511	 0.451510190963745 
512	 0.451419502496719 
513	 0.452168703079224 
514	 0.452790379524231 
515	 0.452590107917786 
516	 0.45223006606102 
517	 0.45244562625885 
518	 0.452802211046219 
519	 0.453350186347961 
520	 0.453954935073853 
521	 0.454372197389603 
522	 0.454677492380142 
523	 0.455189883708954 
524	 0.455952942371368 
525	 0.456412047147751 
526	 0.457128137350082 
527	 0.457963526248932 
528	 0.458692044019699 
529	 0.460064202547073 
530	 0.461359024047852 
531	 0.462319850921631 
532	 0.463272213935852 
533	 0.464180290699005 
534	 0.46555307507515 
535	 0.467535942792892 
536	 0.468923956155777 
537	 0.470521837472916 
538	 0.472354918718338 
539	 0.474062263965607 
540	 0.476149052381516 
541	 0.478279560804367 
542	 0.480418860912323 
543	 0.48321059346199 
544	 0.485801488161087 
545	 0.48819488286972 
546	 0.490710198879242 
547	 0.493760168552399 
548	 0.49674254655838 
549	 0.499588757753372 
550	 0.502773582935333 
551	 0.50704288482666 
552	 0.512368977069855 
553	 0.518271863460541 
554	 0.523763179779053 
555	 0.529260516166687 
556	 0.534889340400696 
557	 0.540641903877258 
558	 0.546183049678802 
559	 0.551546812057495 
560	 0.556758642196655 
561	 0.561728477478027 
562	 0.566593766212463 
563	 0.571549296379089 
564	 0.576532185077667 
565	 0.580342054367065 
566	 0.584159433841705 
567	 0.588426232337952 
568	 0.592889010906219 
569	 0.597188830375671 
570	 0.601867973804474 
571	 0.607391238212585 
572	 0.613048136234283 
573	 0.621086239814758 
574	 0.631901562213898 
575	 0.644024252891541 
576	 0.6537104845047 
577	 0.660521864891052 
578	 0.665047645568848 
579	 0.668136417865753 
580	 0.670884013175964 
581	 0.67369019985199 
582	 0.676786303520203 
583	 0.680513978004456 
584	 0.684644341468811 
585	 0.68895411491394 
586	 0.693255960941315 
587	 0.697734594345093 
588	 0.702301681041718 
589	 0.70717316865921 
590	 0.713160455226898 
591	 0.718233644962311 
592	 0.723211228847504 
593	 0.729288280010223 
594	 0.735258519649506 
595	 0.740478098392487 
596	 0.745039284229279 
597	 0.749615848064423 
598	 0.753501534461975 
599	 0.757165789604187 
600	 0.76090794801712 
601	 0.764075577259064 
602	 0.767670691013336 
603	 0.771176755428314 
604	 0.773684799671173 
605	 0.776280760765076 
606	 0.779610395431519 
607	 0.783232033252716 
608	 0.785390257835388 
609	 0.787928760051727 
610	 0.790447175502777 
611	 0.792414009571075 
612	 0.794758856296539 
613	 0.797234416007996 
614	 0.799388408660889 
615	 0.80076801776886 
616	 0.802226722240448 
617	 0.803956031799316 
618	 0.805998504161835 
619	 0.808403313159943 
620	 0.810362696647644 
621	 0.81192684173584 
622	 0.813504934310913 
623	 0.815600156784058 
624	 0.816900134086609 
625	 0.817671477794647 
626	 0.819605886936188 
627	 0.820936441421509 
628	 0.822165071964264 
629	 0.823865354061127 
630	 0.825948476791382 
631	 0.826664388179779 
632	 0.827032566070557 
633	 0.82896500825882 
634	 0.830808401107788 
635	 0.832378149032593 
636	 0.833679795265198 
637	 0.834820508956909 
638	 0.83618825674057 
639	 0.837625801563263 
640	 0.838933169841766 
641	 0.840200781822205 
642	 0.841573417186737 
643	 0.843200981616974 
644	 0.845155954360962 
645	 0.8466477394104 
646	 0.847618937492371 
647	 0.848526000976563 
648	 0.85051953792572 
649	 0.85237991809845 
650	 0.85405969619751 
651	 0.855692327022552 
652	 0.856548368930817 
653	 0.857560634613037 
654	 0.859136819839478 
655	 0.861137270927429 
656	 0.862824201583862 
657	 0.863974273204803 
658	 0.864905893802643 
659	 0.866860508918762 
660	 0.868993520736694 
661	 0.870527029037476 
662	 0.871186673641205 
663	 0.873101353645325 
664	 0.875045359134674 
665	 0.87651264667511 
666	 0.877923667430878 
667	 0.87959897518158 
668	 0.881223499774933 
669	 0.882498800754547 
670	 0.883428156375885 
671	 0.885806262493134 
672	 0.888397812843323 
673	 0.889166116714478 
674	 0.891148805618286 
675	 0.892979800701141 
676	 0.894473850727081 
677	 0.89719831943512 
678	 0.898115158081055 
679	 0.898836255073547 
680	 0.901025354862213 
681	 0.90301787853241 
682	 0.905365288257599 
683	 0.90751039981842 
684	 0.908546507358551 
685	 0.90948873758316 
686	 0.910932064056396 
687	 0.912826657295227 
688	 0.914303719997406 
689	 0.916618525981903 
690	 0.918950736522675 
691	 0.920557916164398 
692	 0.923035740852356 
693	 0.924885451793671 
694	 0.926166951656342 
695	 0.927868604660034 
696	 0.929264485836029 
697	 0.930285453796387 
698	 0.931428194046021 
699	 0.933989226818085 
700	 0.936573088169098 
701	 0.937920331954956 
702	 0.937976360321045 
703	 0.940835237503052 
704	 0.943167448043823 
705	 0.944565057754517 
706	 0.946638107299805 
707	 0.948788583278656 
708	 0.950406551361084 
709	 0.951635599136353 
710	 0.953927755355835 
711	 0.954968810081482 
712	 0.955349862575531 
713	 0.956406474113464 
714	 0.958668172359467 
715	 0.96071070432663 
716	 0.962214827537537 
717	 0.963700413703918 
718	 0.965181052684784 
719	 0.966716051101685 
720	 0.968244850635529 
721	 0.969570398330688 
722	 0.9697625041008 
723	 0.970496892929077 
724	 0.97304379940033 
725	 0.973682880401611 
726	 0.974761366844177 
727	 0.976551532745361 
728	 0.977813959121704 
729	 0.978691041469574 
730	 0.979520082473755 
731	 0.98063337802887 
732	 0.982311069965363 
733	 0.983452260494232 
734	 0.983864545822144 
735	 0.984040260314941 
736	 0.985884845256805 
737	 0.986916959285736 
738	 0.987251937389374 
739	 0.988587856292725 
740	 0.989825963973999 
741	 0.990329802036285 
742	 0.99027806520462 
743	 0.990976572036743 
744	 0.992079794406891 
745	 0.993095219135284 
746	 0.993713140487671 
747	 0.994480073451996 
748	 0.995016992092133 
749	 0.995381355285645 
750	 0.9959437251091 
751	 0.997545123100281 
752	 0.998177528381348 
753	 0.997289478778839 
754	 0.996533989906311 
755	 0.996635615825653 
756	 0.997236907482147 
757	 0.997698187828064 
758	 0.997431218624115 
759	 0.997156500816345 
760	 0.997238397598267 
761	 0.997790992259979 
762	 0.998589277267456 
763	 0.999421656131744 
764	 1 
765	 0.999999940395355 
766	 1 
767	 0.999475657939911 
768	 0.998435795307159 
769	 0.998537540435791 
770	 0.998841047286987 
771	 0.998778641223907 
772	 0.997975289821625 
773	 0.996125757694244 
774	 0.996210277080536 
775	 0.998109400272369 
776	 0.999159514904022 
777	 0.999626576900482 
778	 0.999860465526581 
779	 1 
780	 0.999799430370331 
781	 0.999719560146332 
782	 0.999696910381317 
783	 0.999465882778168 
784	 0.99876993894577 
785	 0.997781813144684 
786	 0.997079432010651 
787	 0.997278034687042 
788	 0.997687518596649 
789	 0.997569739818573 
790	 0.996995985507965 
791	 0.996953547000885 
792	 0.99705696105957 
793	 0.997481882572174 
794	 0.998049199581146 
795	 0.997500836849213 
796	 0.996630430221558 
797	 0.995692014694214 
798	 0.994816601276398 
799	 0.99437689781189 
800	 0.994502425193787 
801	 0.99444979429245 
802	 0.993064880371094 
803	 0.992027103900909 
804	 0.990841686725616 
805	 0.989626467227936 
806	 0.989806711673737 
807	 0.989478409290314 
808	 0.989971578121185 
809	 0.991834223270416 
810	 0.99078357219696 
811	 0.99030876159668 
812	 0.99016934633255 
813	 0.988897800445557 
814	 0.988186836242676 
815	 0.988211929798126 
816	 0.988177478313446 
817	 0.986696302890778 
818	 0.9848473072052 
819	 0.983162641525269 
820	 0.9820636510849 
821	 0.981895565986633 
822	 0.983032464981079 
823	 0.983256757259369 
824	 0.981389164924622 
825	 0.981443166732788 
826	 0.982546448707581 
827	 0.982617735862732 
828	 0.980112075805664 
829	 0.979931235313416 
830	 0.980295181274414 
831	 0.980367660522461 
832	 0.980372428894043 
833	 0.978600203990936 
834	 0.977138876914978 
835	 0.977138221263886 
836	 0.977456033229828 
837	 0.976617693901062 
838	 0.975689113140106 
839	 0.975501954555511 
840	 0.974137961864471 
841	 0.973512709140778 
842	 0.974036455154419 
843	 0.975113093852997 
844	 0.974873721599579 
845	 0.97377997636795 
846	 0.972110331058502 
847	 0.970217347145081 
848	 0.970879912376404 
849	 0.971381366252899 
850	 0.970471918582916 
851	 0.969604015350342 
852	 0.969745516777039 
853	 0.96944522857666 
854	 0.968004107475281 
855	 0.967413604259491 
856	 0.966929614543915 
857	 0.966897010803223 
858	 0.967451512813568 
859	 0.966985404491425 
860	 0.965890944004059 
861	 0.965179741382599 
862	 0.965815424919128 
863	 0.966790914535522 
864	 0.966295003890991 
865	 0.964710831642151 
866	 0.96424663066864 
867	 0.964918613433838 
868	 0.965481340885162 
869	 0.965272486209869 
870	 0.964749753475189 
871	 0.96495509147644 
872	 0.964575529098511 
873	 0.96319717168808 
874	 0.9635329246521 
875	 0.963979959487915 
876	 0.964199185371399 
877	 0.964290976524353 
878	 0.964585244655609 
879	 0.964564144611359 
880	 0.963538646697998 
881	 0.961530148983002 
882	 0.962288916110992 
883	 0.963557481765747 
884	 0.964081764221191 
885	 0.963774144649506 
886	 0.962601661682129 
887	 0.962453603744507 
888	 0.963370800018311 
889	 0.963204681873322 
890	 0.963186979293823 
891	 0.964153587818146 
892	 0.965579152107239 
893	 0.964863300323486 
894	 0.964698553085327 
895	 0.964470982551575 
896	 0.963636815547943 
897	 0.964074730873108 
898	 0.964380085468292 
899	 0.963719248771667 
900	 0.962094008922577 
901	 0.961419761180878 
902	 0.963049054145813 
903	 0.964958429336548 
904	 0.964291095733643 
905	 0.963678181171417 
906	 0.963222980499268 
907	 0.963296711444855 
908	 0.964186429977417 
909	 0.963709533214569 
910	 0.963667571544647 
911	 0.96478796005249 
912	 0.966125011444092 
913	 0.965388655662537 
914	 0.965228915214539 
915	 0.966426908969879 
916	 0.96625292301178 
917	 0.966224431991577 
918	 0.966495931148529 
919	 0.967056453227997 
920	 0.968081653118134 
921	 0.967660546302795 
922	 0.967654883861542 
923	 0.969188570976257 
924	 0.968943893909454 
925	 0.969352781772614 
926	 0.970357358455658 
927	 0.970988094806671 
928	 0.969976842403412 
929	 0.969381749629974 
930	 0.969866573810577 
931	 0.971273720264435 
932	 0.973096191883087 
933	 0.974930822849274 
934	 0.976279675960541 
935	 0.976701080799103 
936	 0.975919485092163 
937	 0.975509643554688 
938	 0.975581884384155 
939	 0.975371599197388 
940	 0.976238071918488 
941	 0.976674377918243 
942	 0.976980924606323 
943	 0.978720784187317 
944	 0.978475511074066 
945	 0.978532493114471 
946	 0.979381918907166 
947	 0.979109406471252 
948	 0.978928983211517 
949	 0.977802872657776 
950	 0.976748943328857 
951	 0.979225516319275 
952	 0.981869459152222 
953	 0.982512414455414 
954	 0.981423199176788 
955	 0.981881201267242 
956	 0.982596695423126 
957	 0.982251405715942 
958	 0.981135249137878 
959	 0.98213267326355 
960	 0.982356011867523 
961	 0.98285835981369 
962	 0.984337687492371 
963	 0.985008955001831 
964	 0.985016882419586 
965	 0.985490322113037 
966	 0.986605286598206 
967	 0.985833823680878 
968	 0.984797835350037 
969	 0.984170734882355 
970	 0.984349429607391 
971	 0.985765337944031 
972	 0.986618459224701 
973	 0.987186074256897 
974	 0.988101780414581 
975	 0.989049136638641 
976	 0.988992273807526 
977	 0.988505303859711 
978	 0.988888561725616 
979	 0.991862177848816 
980	 0.99429988861084 
981	 0.995548248291016 
982	 0.995909690856934 
983	 0.995432078838348 
984	 0.995783150196075 
985	 0.996465981006622 
986	 0.996586322784424 
987	 0.996934115886688 
988	 0.996491730213165 
989	 0.996816694736481 
990	 0.998929381370544 
991	 0.999025762081146 
992	 0.99912303686142 
993	 0.998941004276276 
994	 0.997991263866425 
995	 0.997778654098511 
996	 0.998535931110382 
997	 0.999163210391998 
998	 0.998869776725769 
999	 0.999655246734619 
1000	 0.999999940395355 
1001	 0.982769072055817 
1002	 0.983212530612946 
1003	 0.983749389648438 
1004	 0.984234154224396 
1005	 0.984610080718994 
1006	 0.985038280487061 
1007	 0.985485196113586 
1008	 0.9859938621521 
1009	 0.986518323421478 
1010	 0.987003326416016 
1011	 0.987572312355042 
1012	 0.988057434558868 
1013	 0.988429248332977 
1014	 0.98883444070816 
1015	 0.989224791526794 
1016	 0.98969703912735 
1017	 0.990061044692993 
1018	 0.990395247936249 
1019	 0.990944027900696 
1020	 0.991456627845764 
1021	 0.991929411888123 
1022	 0.992541432380676 
1023	 0.992960572242737 
1024	 0.993148267269135 
1025	 0.993494927883148 
1026	 0.993876516819 
1027	 0.994192779064178 
1028	 0.99448549747467 
1029	 0.99491935968399 
1030	 0.995188474655151 
1031	 0.995400726795197 
1032	 0.995572030544281 
1033	 0.995636820793152 
1034	 0.995790719985962 
1035	 0.995920836925507 
1036	 0.996013700962067 
1037	 0.99617213010788 
1038	 0.996233940124512 
1039	 0.99612295627594 
1040	 0.996196389198303 
1041	 0.996358931064606 
1042	 0.996450662612915 
1043	 0.996575236320496 
1044	 0.996696889400482 
1045	 0.996782302856445 
1046	 0.996881365776062 
1047	 0.997134447097778 
1048	 0.997368454933167 
1049	 0.997422933578491 
1050	 0.997584760189056 
1051	 0.997720837593079 
1052	 0.997711420059204 
1053	 0.997849583625793 
1054	 0.998129606246948 
1055	 0.998328685760498 
1056	 0.998552858829498 
1057	 0.998774111270905 
1058	 0.999038577079773 
1059	 0.999136388301849 
1060	 0.99916273355484 
1061	 0.99924224615097 
1062	 0.999286592006683 
1063	 0.999291360378265 
1064	 0.99936842918396 
1065	 0.999356031417847 
1066	 0.999192237854004 
1067	 0.999095499515533 
1068	 0.999141275882721 
1069	 0.999159634113312 
1070	 0.999111771583557 
1071	 0.999083936214447 
1072	 0.999031960964203 
1073	 0.998905658721924 
1074	 0.998865246772766 
1075	 0.998885810375214 
1076	 0.998953640460968 
1077	 0.999076426029205 
1078	 0.999095141887665 
1079	 0.999213635921478 
1080	 0.999397456645966 
1081	 0.999435067176819 
1082	 0.99950647354126 
1083	 0.999636948108673 
1084	 0.999756634235382 
1085	 0.999867856502533 
1086	 0.999932050704956 
1087	 0.999988198280334 
1088	 1 
1089	 1 
1090	 1 
1091	 1 
1092	 0.999941766262054 
1093	 0.999843835830688 
1094	 0.999838292598724 
1095	 0.999877154827118 
1096	 0.999982535839081 
1097	 1 
1098	 0.999983489513397 
1099	 0.999986588954926 
1100	 0.999839425086975 
1101	 0.999742686748505 
1102	 0.999756157398224 
1103	 0.999701201915741 
1104	 0.99958997964859 
1105	 0.999559342861176 
1106	 0.999537587165833 
1107	 0.999529361724854 
1108	 0.999645829200745 
1109	 0.999750673770905 
1110	 0.999845147132874 
1111	 0.999934673309326 
1112	 0.999894142150879 
1113	 0.999840974807739 
1114	 0.999912083148956 
1115	 0.999906539916992 
1116	 0.999911308288574 
1117	 0.999994039535522 
1118	 1 
1119	 0.999966263771057 
1120	 0.999974429607391 
1121	 0.999986827373505 
1122	 1 
1123	 0.999993801116943 
1124	 0.999967873096466 
1125	 0.999999940395355 
1126	 1 
1127	 0.99999612569809 
1128	 1 
1129	 0.999945819377899 
1130	 0.999760031700134 
1131	 0.99959135055542 
1132	 0.999319195747375 
1133	 0.998989641666412 
1134	 0.998620092868805 
1135	 0.998317182064056 
1136	 0.998003363609314 
1137	 0.997717261314392 
1138	 0.997506201267242 
1139	 0.99728262424469 
1140	 0.997047364711761 
1141	 0.996753633022308 
1142	 0.996577322483063 
1143	 0.996430456638336 
1144	 0.996217489242554 
1145	 0.99598354101181 
1146	 0.99577122926712 
1147	 0.99549925327301 
1148	 0.995293021202087 
1149	 0.995162785053253 
1150	 0.99492746591568 
1151	 0.994658827781677 
1152	 0.994455754756927 
1153	 0.994264245033264 
1154	 0.994065463542938 
1155	 0.993884861469269 
1156	 0.993761658668518 
1157	 0.993649482727051 
1158	 0.993534505367279 
1159	 0.993463933467865 
1160	 0.993413150310516 
1161	 0.993356466293335 
1162	 0.993270993232727 
1163	 0.993154287338257 
1164	 0.993081212043762 
1165	 0.993048191070557 
1166	 0.993021130561829 
1167	 0.993094205856323 
1168	 0.993221700191498 
1169	 0.993329584598541 
1170	 0.993419051170349 
1171	 0.993577539920807 
1172	 0.993769943714142 
1173	 0.993977248668671 
1174	 0.994229376316071 
1175	 0.994467616081238 
1176	 0.994725584983826 
1177	 0.994982361793518 
1178	 0.995225727558136 
1179	 0.995509445667267 
1180	 0.99582302570343 
1181	 0.996120393276215 
1182	 0.996396422386169 
1183	 0.996687352657318 
1184	 0.996982634067535 
1185	 0.997193694114685 
1186	 0.997372150421143 
1187	 0.99752938747406 
1188	 0.997664034366608 
1189	 0.997720241546631 
1190	 0.997818171977997 
1191	 0.997944951057434 
1192	 0.998027265071869 
1193	 0.998074948787689 
1194	 0.998137831687927 
1195	 0.998217403888702 
1196	 0.998253285884857 
1197	 0.998285114765167 
1198	 0.998267352581024 
1199	 0.998244762420654 
1200	 0.998217701911926 
1201	 0.998213171958923 
1202	 0.998202204704285 
1203	 0.998176217079163 
1204	 0.998114824295044 
1205	 0.998068809509277 
1206	 0.997998476028442 
1207	 0.998001575469971 
1208	 0.997990071773529 
1209	 0.998085141181946 
1210	 0.998304963111877 
1211	 0.998445749282837 
1212	 0.998594701290131 
1213	 0.998780071735382 
1214	 0.998968362808228 
1215	 0.999146163463593 
1216	 0.999405324459076 
1217	 0.999590396881104 
1218	 0.999713957309723 
1219	 0.999825060367584 
1220	 0.999928176403046 
1221	 0.999999940395355 
1222	 0.999959230422974 
1223	 0.999890625476837 
1224	 0.999902307987213 
1225	 0.999902248382568 
1226	 0.999900698661804 
1227	 1 
1228	 1 
1229	 0.999877691268921 
1230	 0.999861419200897 
1231	 0.999892055988312 
1232	 0.999879121780396 
1233	 0.999895930290222 
1234	 0.999872326850891 
1235	 0.999798834323883 
1236	 0.999719560146332 
1237	 0.999624311923981 
1238	 0.999527812004089 
1239	 0.999374449253082 
1240	 0.999286234378815 
1241	 0.999228596687317 
1242	 0.99915486574173 
1243	 0.999135732650757 
1244	 0.999136745929718 
1245	 0.999209403991699 
1246	 0.999344885349274 
1247	 0.999476969242096 
1248	 0.999708235263824 
1249	 0.999821305274963 
1250	 0.999893665313721 
1251	 0.999950051307678 
1252	 0.999942779541016 
1253	 0.999957263469696 
1254	 1 
1255	 1 
1256	 0.999990165233612 
1257	 0.999989748001099 
1258	 0.999955892562866 
1259	 0.999914765357971 
1260	 0.999835133552551 
1261	 0.999816477298737 
1262	 0.999794960021973 
1263	 0.999825656414032 
1264	 0.999856054782867 
1265	 0.999967634677887 
1266	 0.999978065490723 
1267	 0.999924659729004 
1268	 0.99993371963501 
1269	 0.999949038028717 
1270	 0.999944865703583 
1271	 0.999952256679535 
1272	 0.999968647956848 
1273	 1 
1274	 1 
1275	 1 
1276	 0.99998539686203 
1277	 0.999869465827942 
1278	 0.999800860881805 
1279	 0.99979829788208 
1280	 0.999721050262451 
1281	 0.99956887960434 
1282	 0.999465823173523 
1283	 0.999286890029907 
1284	 0.999212682247162 
1285	 0.999200701713562 
1286	 0.999270915985107 
1287	 0.999322414398193 
1288	 0.999433219432831 
1289	 0.999516367912292 
1290	 0.999593138694763 
1291	 0.999682486057281 
1292	 0.999798774719238 
1293	 0.999879539012909 
1294	 0.999990344047546 
1295	 1 
1296	 1 
1297	 1 
1298	 0.999991595745087 
1299	 0.999999940395355 
1300	 0.999999940395355 
1301	 0.999999940395355 
1302	 0.999999940395355 
1303	 1 
1304	 0.999975979328156 
1305	 0.999969005584717 
1306	 0.999971985816956 
1307	 0.999960005283356 
1308	 1 
1309	 1 
1310	 0.999979853630066 
1311	 0.999929249286652 
1312	 0.99983423948288 
1313	 0.999665439128876 
1314	 0.999541044235229 
1315	 0.999392509460449 
1316	 0.999273359775543 
1317	 0.999185085296631 
1318	 0.999065160751343 
1319	 0.998929977416992 
1320	 0.99881511926651 
1321	 0.998728156089783 
1322	 0.998581171035767 
1323	 0.998434007167816 
1324	 0.998250365257263 
1325	 0.998008072376251 
1326	 0.997759997844696 
1327	 0.997536242008209 
1328	 0.997235417366028 
1329	 0.996861457824707 
1330	 0.996496200561523 
1331	 0.996064186096191 
1332	 0.995666980743408 
1333	 0.995311319828033 
1334	 0.994918763637543 
1335	 0.994518756866455 
1336	 0.994118869304657 
1337	 0.993704497814178 
1338	 0.993271172046661 
1339	 0.992828607559204 
1340	 0.992398262023926 
1341	 0.991913259029388 
1342	 0.991385400295258 
1343	 0.99085921049118 
1344	 0.990304470062256 
1345	 0.989754498004913 
1346	 0.989206790924072 
1347	 0.988641262054443 
1348	 0.988077461719513 
1349	 0.987471997737885 
1350	 0.986849665641785 
1351	 0.986191630363464 
1352	 0.98543781042099 
1353	 0.984770834445953 
1354	 0.984115600585938 
1355	 0.983479797840118 
1356	 0.982962727546692 
1357	 0.982335209846497 
1358	 0.981692969799042 
1359	 0.980964183807373 
1360	 0.980179011821747 
1361	 0.979306221008301 
1362	 0.978325128555298 
1363	 0.977340996265411 
1364	 0.976235210895538 
1365	 0.975055634975433 
1366	 0.97376674413681 
1367	 0.972417116165161 
1368	 0.97089159488678 
1369	 0.96929919719696 
1370	 0.967419743537903 
1371	 0.96536773443222 
1372	 0.963105440139771 
1373	 0.9606654047966 
1374	 0.957908034324646 
1375	 0.954891860485077 
1376	 0.951633989810944 
1377	 0.948095977306366 
1378	 0.944230914115906 
1379	 0.940111041069031 
1380	 0.935685455799103 
1381	 0.930936694145203 
1382	 0.925855755805969 
1383	 0.920491755008698 
1384	 0.914838194847107 
1385	 0.908907055854797 
1386	 0.902675628662109 
1387	 0.896093428134918 
1388	 0.889508962631226 
1389	 0.882661879062653 
1390	 0.875790476799011 
1391	 0.869036376476288 
1392	 0.861824750900269 
1393	 0.854961454868317 
1394	 0.84795469045639 
1395	 0.841121554374695 
1396	 0.834429323673248 
1397	 0.827844679355621 
1398	 0.821252942085266 
1399	 0.814924538135529 
1400	 0.808715462684631 
1401	 0.802796125411987 
1402	 0.797016441822052 
1403	 0.791570365428925 
1404	 0.786349058151245 
1405	 0.781591951847076 
1406	 0.777097880840302 
1407	 0.773054003715515 
1408	 0.769390225410461 
1409	 0.766161739826202 
1410	 0.763242423534393 
1411	 0.760884642601013 
1412	 0.758990943431854 
1413	 0.757603049278259 
1414	 0.756754040718079 
1415	 0.756248772144318 
1416	 0.75634765625 
1417	 0.756541073322296 
1418	 0.757062196731567 
1419	 0.757746279239655 
1420	 0.75865650177002 
1421	 0.759684562683105 
1422	 0.760925352573395 
1423	 0.762267589569092 
1424	 0.763733983039856 
1425	 0.765349447727203 
1426	 0.766937494277954 
1427	 0.768647372722626 
1428	 0.770358860492706 
1429	 0.771946847438812 
1430	 0.773636162281036 
1431	 0.775362253189087 
1432	 0.777115345001221 
1433	 0.778908908367157 
1434	 0.780690610408783 
1435	 0.782508373260498 
1436	 0.784307897090912 
1437	 0.786108374595642 
1438	 0.787862777709961 
1439	 0.789640545845032 
1440	 0.791324377059937 
1441	 0.792961299419403 
1442	 0.794538259506226 
1443	 0.796046733856201 
1444	 0.797536432743073 
1445	 0.799009561538696 
1446	 0.800366461277008 
1447	 0.801695108413696 
1448	 0.802897453308105 
1449	 0.803971707820892 
1450	 0.804994463920593 
1451	 0.805935621261597 
1452	 0.806809961795807 
1453	 0.80761331319809 
1454	 0.808337152004242 
1455	 0.808959782123566 
1456	 0.809561789035797 
1457	 0.810075998306274 
1458	 0.810592889785767 
1459	 0.811060845851898 
1460	 0.811560690402985 
1461	 0.811996877193451 
1462	 0.812539875507355 
1463	 0.813100576400757 
1464	 0.813773512840271 
1465	 0.81453937292099 
1466	 0.815387427806854 
1467	 0.816291213035584 
1468	 0.817368924617767 
1469	 0.818695366382599 
1470	 0.820062756538391 
1471	 0.821508884429932 
1472	 0.823137402534485 
1473	 0.824723303318024 
1474	 0.826309561729431 
1475	 0.827974677085876 
1476	 0.829710006713867 
1477	 0.831493556499481 
1478	 0.833289563655853 
1479	 0.835200726985931 
1480	 0.837218999862671 
1481	 0.839247763156891 
1482	 0.841414272785187 
1483	 0.84344869852066 
1484	 0.845472395420074 
1485	 0.847462594509125 
1486	 0.849375784397125 
1487	 0.851295053958893 
1488	 0.853222668170929 
1489	 0.855103552341461 
1490	 0.856955289840698 
1491	 0.858776926994324 
1492	 0.860549807548523 
1493	 0.862338781356812 
1494	 0.864085674285889 
1495	 0.865859866142273 
1496	 0.867660164833069 
1497	 0.869442582130432 
1498	 0.871276378631592 
1499	 0.873010218143463 
1500	 0.874692142009735 
1501	 0.876353442668915 
1502	 0.87794041633606 
1503	 0.879514038562775 
1504	 0.88103711605072 
1505	 0.882606565952301 
1506	 0.884188592433929 
1507	 0.8857461810112 
1508	 0.887371361255646 
1509	 0.888906359672546 
1510	 0.890328288078308 
1511	 0.891788899898529 
1512	 0.89322155714035 
1513	 0.894666850566864 
1514	 0.896157383918762 
1515	 0.89760959148407 
1516	 0.899046421051025 
1517	 0.900462746620178 
1518	 0.901907503604889 
1519	 0.903244733810425 
1520	 0.904511451721191 
1521	 0.905731737613678 
1522	 0.90690004825592 
1523	 0.908071935176849 
1524	 0.909243822097778 
1525	 0.910440325737 
1526	 0.911606252193451 
1527	 0.912733912467957 
1528	 0.913893818855286 
1529	 0.915068864822388 
1530	 0.916232109069824 
1531	 0.917411148548126 
1532	 0.918537855148315 
1533	 0.919614970684052 
1534	 0.92077112197876 
1535	 0.921930134296417 
1536	 0.923094749450684 
1537	 0.924317061901093 
1538	 0.925506889820099 
1539	 0.926685452461243 
1540	 0.927822172641754 
1541	 0.92896431684494 
1542	 0.930068492889404 
1543	 0.931089520454407 
1544	 0.932170808315277 
1545	 0.933287441730499 
1546	 0.934359192848206 
1547	 0.935431957244873 
1548	 0.936471402645111 
1549	 0.937479257583618 
1550	 0.938475489616394 
1551	 0.939431369304657 
1552	 0.940427958965302 
1553	 0.941434979438782 
1554	 0.94242250919342 
1555	 0.943452656269073 
1556	 0.944403946399689 
1557	 0.945264458656311 
1558	 0.94620269536972 
1559	 0.94715416431427 
1560	 0.948085069656372 
1561	 0.949047148227692 
1562	 0.949989378452301 
1563	 0.950886249542236 
1564	 0.951811611652374 
1565	 0.952777922153473 
1566	 0.953702628612518 
1567	 0.954582870006561 
1568	 0.955511808395386 
1569	 0.956463515758514 
1570	 0.957390427589417 
1571	 0.958379209041595 
1572	 0.959261953830719 
1573	 0.96011608839035 
1574	 0.960865497589111 
1575	 0.961468756198883 
1576	 0.962141692638397 
1577	 0.962761521339417 
1578	 0.963404953479767 
1579	 0.964108049869537 
1580	 0.964762687683105 
1581	 0.965376615524292 
1582	 0.965994298458099 
1583	 0.966646611690521 
1584	 0.967214941978455 
1585	 0.967728674411774 
1586	 0.968230903148651 
1587	 0.968662261962891 
1588	 0.969112575054169 
1589	 0.969556748867035 
1590	 0.970009207725525 
1591	 0.970438122749329 
1592	 0.970906496047974 
1593	 0.971415936946869 
1594	 0.971907436847687 
1595	 0.972419381141663 
1596	 0.972910404205322 
1597	 0.973421633243561 
1598	 0.973857283592224 
1599	 0.974249124526978 
1600	 0.974626243114471 
1601	 0.974903523921967 
1602	 0.975245296955109 
1603	 0.975605130195618 
1604	 0.975982248783112 
1605	 0.976368844509125 
1606	 0.976800858974457 
1607	 0.977287948131561 
1608	 0.977753698825836 
1609	 0.978286385536194 
1610	 0.978740334510803 
1611	 0.979121625423431 
1612	 0.979524493217468 
1613	 0.979907631874084 
1614	 0.980278968811035 
1615	 0.980611860752106 
1616	 0.981012165546417 
1617	 0.981414794921875 
1618	 0.981855154037476 
1619	 0.982384860515594 
1620	 0.982892155647278 
1621	 0.983397901058197 
1622	 0.983903825283051 
1623	 0.98443728685379 
1624	 0.984935939311981 
1625	 0.985395014286041 
1626	 0.985891163349152 
1627	 0.986377716064453 
1628	 0.986881196498871 
1629	 0.987466633319855 
1630	 0.98796135187149 
1631	 0.988453686237335 
1632	 0.988860785961151 
1633	 0.989125728607178 
1634	 0.989460170269012 
1635	 0.98978590965271 
1636	 0.990094482898712 
1637	 0.990442931652069 
1638	 0.990743279457092 
1639	 0.990970551967621 
1640	 0.991234838962555 
1641	 0.991526305675507 
1642	 0.991779446601868 
1643	 0.992025315761566 
1644	 0.992249011993408 
1645	 0.992427468299866 
1646	 0.992621243000031 
1647	 0.992829024791718 
1648	 0.993009150028229 
1649	 0.993168294429779 
1650	 0.99332720041275 
1651	 0.993506729602814 
1652	 0.993615329265594 
1653	 0.993709802627563 
1654	 0.993744611740112 
1655	 0.993678987026215 
1656	 0.993623793125153 
1657	 0.993560791015625 
1658	 0.993458569049835 
1659	 0.993288218975067 
1660	 0.993182361125946 
1661	 0.993070125579834 
1662	 0.992974460124969 
1663	 0.992920696735382 
1664	 0.992870390415192 
1665	 0.992762684822083 
1666	 0.992778241634369 
1667	 0.992866218090057 
1668	 0.993008434772491 
1669	 0.993252336978912 
1670	 0.993499577045441 
1671	 0.993855237960815 
1672	 0.994083106517792 
1673	 0.994335293769836 
1674	 0.994443833827972 
1675	 0.994375467300415 
1676	 0.994354665279388 
1677	 0.994267642498016 
1678	 0.994209110736847 
1679	 0.994131088256836 
1680	 0.994128406047821 
1681	 0.994131207466125 
1682	 0.994196951389313 
1683	 0.994337022304535 
1684	 0.994486510753632 
1685	 0.994680106639862 
1686	 0.994891405105591 
1687	 0.995140135288239 
1688	 0.995402693748474 
1689	 0.995671927928925 
1690	 0.995972275733948 
1691	 0.996323883533478 
1692	 0.996632516384125 
1693	 0.996933341026306 
1694	 0.997249126434326 
1695	 0.997561812400818 
1696	 0.997872531414032 
1697	 0.998209953308105 
1698	 0.998514115810394 
1699	 0.998802423477173 
1700	 0.99904477596283 
1701	 0.999296367168427 
1702	 0.999459564685822 
1703	 0.999521911144257 
1704	 0.999612808227539 
1705	 0.999659955501556 
1706	 0.999736905097961 
1707	 0.999837160110474 
1708	 0.999927222728729 
1709	 0.999990999698639 
1710	 1 
1711	 1 
1712	 0.999999940395355 
1713	 0.999971330165863 
1714	 0.99990439414978 
1715	 0.999850988388062 
1716	 0.999869644641876 
1717	 0.999925076961517 
1718	 0.999997496604919 
1719	 1 
1720	 0.999932765960693 
1721	 0.999900698661804 
1722	 0.999925494194031 
1723	 0.99995630979538 
1724	 0.999977946281433 
1725	 1 
1726	 0.99996292591095 
1727	 0.999879539012909 
1728	 0.999867975711823 
1729	 0.999811470508575 
1730	 0.999679744243622 
1731	 0.999625980854034 
1732	 0.999602615833282 
1733	 0.999533474445343 
1734	 0.999440789222717 
1735	 0.999319851398468 
1736	 0.999132931232452 
1737	 0.99885880947113 
1738	 0.998625755310059 
1739	 0.998401641845703 
1740	 0.998156309127808 
1741	 0.99790745973587 
1742	 0.997673153877258 
1743	 0.997395217418671 
1744	 0.997100055217743 
1745	 0.996756374835968 
1746	 0.996383190155029 
1747	 0.996007800102234 
1748	 0.995567321777344 
1749	 0.99514776468277 
1750	 0.994745135307312 
1751	 0.994321525096893 
1752	 0.993872046470642 
1753	 0.993438899517059 
1754	 0.992965459823608 
1755	 0.992619514465332 
1756	 0.992317736148834 
1757	 0.992095112800598 
1758	 0.991906702518463 
1759	 0.991704404354095 
1760	 0.991491436958313 
1761	 0.991153180599213 
1762	 0.990896821022034 
1763	 0.990627288818359 
1764	 0.990338921546936 
1765	 0.990134358406067 
1766	 0.989847183227539 
1767	 0.989611566066742 
1768	 0.989534437656403 
1769	 0.989561557769775 
1770	 0.989677906036377 
1771	 0.989815354347229 
1772	 0.989880084991455 
1773	 0.989909529685974 
1774	 0.990009009838104 
1775	 0.990127563476563 
1776	 0.990330815315247 
1777	 0.99065887928009 
1778	 0.990959882736206 
1779	 0.991218388080597 
1780	 0.991422653198242 
1781	 0.991572678089142 
1782	 0.991695582866669 
1783	 0.991796135902405 
1784	 0.991927146911621 
1785	 0.992101669311523 
1786	 0.992278397083282 
1787	 0.99249267578125 
1788	 0.992767035961151 
1789	 0.993028521537781 
1790	 0.993430554866791 
1791	 0.994033992290497 
1792	 0.994444131851196 
1793	 0.994803607463837 
1794	 0.995101511478424 
1795	 0.995372951030731 
1796	 0.995647549629211 
1797	 0.995967626571655 
1798	 0.996204137802124 
1799	 0.996392667293549 
1800	 0.9966721534729 
1801	 0.9815833568573 
1802	 0.98195868730545 
1803	 0.982699394226074 
1804	 0.983673632144928 
1805	 0.984767556190491 
1806	 0.985929250717163 
1807	 0.987396061420441 
1808	 0.988644123077393 
1809	 0.989953100681305 
1810	 0.991075754165649 
1811	 0.99216365814209 
1812	 0.993104100227356 
1813	 0.993881285190582 
1814	 0.99465149641037 
1815	 0.995281755924225 
1816	 0.995764136314392 
1817	 0.996192038059235 
1818	 0.996464610099792 
1819	 0.996773898601532 
1820	 0.997036874294281 
1821	 0.997271597385406 
1822	 0.997495353221893 
1823	 0.997703552246094 
1824	 0.99779337644577 
1825	 0.99782133102417 
1826	 0.99791294336319 
1827	 0.99797511100769 
1828	 0.998108148574829 
1829	 0.998282968997955 
1830	 0.998492360115051 
1831	 0.998799920082092 
1832	 0.998978734016418 
1833	 0.999268472194672 
1834	 0.999380111694336 
1835	 0.999456882476807 
1836	 0.999595880508423 
1837	 0.999588668346405 
1838	 0.999525845050812 
1839	 0.999422132968903 
1840	 0.999231517314911 
1841	 0.998950600624084 
1842	 0.998655021190643 
1843	 0.998195886611938 
1844	 0.997580647468567 
1845	 0.996985971927643 
1846	 0.996197283267975 
1847	 0.995450794696808 
1848	 0.994724035263062 
1849	 0.993968069553375 
1850	 0.99319314956665 
1851	 0.992517232894897 
1852	 0.991671621799469 
1853	 0.990639984607697 
1854	 0.989633023738861 
1855	 0.988315522670746 
1856	 0.986818730831146 
1857	 0.985071063041687 
1858	 0.982981860637665 
1859	 0.980881869792938 
1860	 0.97868549823761 
1861	 0.976187288761139 
1862	 0.973532438278198 
1863	 0.970782458782196 
1864	 0.967546105384827 
1865	 0.964154422283173 
1866	 0.960607171058655 
1867	 0.956563115119934 
1868	 0.952507793903351 
1869	 0.947799861431122 
1870	 0.942690193653107 
1871	 0.93734884262085 
1872	 0.93152928352356 
1873	 0.925149917602539 
1874	 0.918539226055145 
1875	 0.911419451236725 
1876	 0.903064966201782 
1877	 0.894761145114899 
1878	 0.885906636714935 
1879	 0.876649916172028 
1880	 0.868100166320801 
1881	 0.8590367436409 
1882	 0.849580347537994 
1883	 0.840149879455566 
1884	 0.830652236938477 
1885	 0.819981694221497 
1886	 0.809607326984406 
1887	 0.798608243465424 
1888	 0.786899745464325 
1889	 0.775926291942596 
1890	 0.764147579669952 
1891	 0.752266585826874 
1892	 0.740513980388641 
1893	 0.728015124797821 
1894	 0.714713752269745 
1895	 0.701776087284088 
1896	 0.688538312911987 
1897	 0.674981415271759 
1898	 0.662811756134033 
1899	 0.650498807430267 
1900	 0.638635635375977 
1901	 0.62772262096405 
1902	 0.616454005241394 
1903	 0.606220960617065 
1904	 0.596711575984955 
1905	 0.587773144245148 
1906	 0.579445242881775 
1907	 0.57263845205307 
1908	 0.566179275512695 
1909	 0.560439646244049 
1910	 0.555939614772797 
1911	 0.551883816719055 
1912	 0.548743426799774 
1913	 0.546425342559814 
1914	 0.54455840587616 
1915	 0.543188631534576 
1916	 0.542442500591278 
1917	 0.542114675045013 
1918	 0.542128086090088 
1919	 0.542590200901031 
1920	 0.543429255485535 
1921	 0.544400036334991 
1922	 0.545666992664337 
1923	 0.547240436077118 
1924	 0.548957765102386 
1925	 0.550880968570709 
1926	 0.552876055240631 
1927	 0.555035352706909 
1928	 0.557207524776459 
1929	 0.559491336345673 
1930	 0.56178230047226 
1931	 0.564176023006439 
1932	 0.56641960144043 
1933	 0.568455755710602 
1934	 0.570672869682312 
1935	 0.572882056236267 
1936	 0.575079619884491 
1937	 0.57738721370697 
1938	 0.579878449440002 
1939	 0.582257688045502 
1940	 0.58463191986084 
1941	 0.587037801742554 
1942	 0.589316964149475 
1943	 0.591589689254761 
1944	 0.593792855739594 
1945	 0.595971703529358 
1946	 0.598296642303467 
1947	 0.600521802902222 
1948	 0.602766990661621 
1949	 0.605095505714417 
1950	 0.607299625873566 
1951	 0.609424114227295 
1952	 0.611624658107758 
1953	 0.613814949989319 
1954	 0.615885674953461 
1955	 0.618148505687714 
1956	 0.620418965816498 
1957	 0.622919678688049 
1958	 0.625529885292053 
1959	 0.628019690513611 
1960	 0.630731523036957 
1961	 0.633369505405426 
1962	 0.635927677154541 
1963	 0.638524115085602 
1964	 0.641243755817413 
1965	 0.64381206035614 
1966	 0.646287560462952 
1967	 0.648767054080963 
1968	 0.651227474212646 
1969	 0.653587400913239 
1970	 0.655889987945557 
1971	 0.658382475376129 
1972	 0.661066174507141 
1973	 0.663769602775574 
1974	 0.666507065296173 
1975	 0.669473767280579 
1976	 0.672228753566742 
1977	 0.674789845943451 
1978	 0.67759507894516 
1979	 0.680481791496277 
1980	 0.683292269706726 
1981	 0.686450302600861 
1982	 0.689386606216431 
1983	 0.692290604114532 
1984	 0.6952885389328 
1985	 0.697930574417114 
1986	 0.700722575187683 
1987	 0.7035031914711 
1988	 0.706160247325897 
1989	 0.708971321582794 
1990	 0.711878895759583 
1991	 0.714791893959045 
1992	 0.717726171016693 
1993	 0.720807075500488 
1994	 0.723810434341431 
1995	 0.726992964744568 
1996	 0.730037212371826 
1997	 0.732986688613892 
1998	 0.736123859882355 
1999	 0.739354848861694 
2000	 0.742471158504486 
2001	 0.745778679847717 
2002	 0.748811483383179 
2003	 0.751640439033508 
2004	 0.75444632768631 
2005	 0.757024705410004 
2006	 0.759792864322662 
2007	 0.762621343135834 
2008	 0.765334844589233 
2009	 0.768302381038666 
2010	 0.771292090415955 
2011	 0.773993790149689 
2012	 0.776887059211731 
2013	 0.779751837253571 
2014	 0.782532632350922 
2015	 0.785404145717621 
2016	 0.788507282733917 
2017	 0.791294515132904 
2018	 0.793988883495331 
2019	 0.79664820432663 
2020	 0.799075663089752 
2021	 0.801620304584503 
2022	 0.804207623004913 
2023	 0.806521952152252 
2024	 0.808930933475494 
2025	 0.811267077922821 
2026	 0.813650190830231 
2027	 0.816085457801819 
2028	 0.818442106246948 
2029	 0.820734441280365 
2030	 0.823131918907166 
2031	 0.825469970703125 
2032	 0.827942311763763 
2033	 0.830606043338776 
2034	 0.833142280578613 
2035	 0.83569860458374 
2036	 0.838283598423004 
2037	 0.840652465820313 
2038	 0.842923700809479 
2039	 0.845189332962036 
2040	 0.847311854362488 
2041	 0.849545955657959 
2042	 0.851840734481812 
2043	 0.854019403457642 
2044	 0.856195211410522 
2045	 0.858314335346222 
2046	 0.860298097133636 
2047	 0.862377226352692 
2048	 0.864423453807831 
2049	 0.866531312465668 
2050	 0.868721127510071 
2051	 0.870904564857483 
2052	 0.873115062713623 
2053	 0.875174045562744 
2054	 0.877074837684631 
2055	 0.878796458244324 
2056	 0.880500495433807 
2057	 0.881889998912811 
2058	 0.8836949467659 
2059	 0.885682463645935 
2060	 0.88756537437439 
2061	 0.889763474464417 
2062	 0.891634702682495 
2063	 0.893125236034393 
2064	 0.894861042499542 
2065	 0.896587729454041 
2066	 0.898328840732574 
2067	 0.90034145116806 
2068	 0.902300000190735 
2069	 0.904342412948608 
2070	 0.906550467014313 
2071	 0.90855884552002 
2072	 0.910555601119995 
2073	 0.912467360496521 
2074	 0.914255082607269 
2075	 0.915993630886078 
2076	 0.917609930038452 
2077	 0.91933286190033 
2078	 0.921071290969849 
2079	 0.922746002674103 
2080	 0.924514889717102 
2081	 0.92616879940033 
2082	 0.927630960941315 
2083	 0.929058611392975 
2084	 0.930926740169525 
2085	 0.932603478431702 
2086	 0.934153616428375 
2087	 0.935772180557251 
2088	 0.937281668186188 
2089	 0.938364505767822 
2090	 0.93985903263092 
2091	 0.941614866256714 
2092	 0.943268001079559 
2093	 0.945018172264099 
2094	 0.946728944778442 
2095	 0.948499143123627 
2096	 0.95015275478363 
2097	 0.951784491539001 
2098	 0.953245043754578 
2099	 0.954963982105255 
2100	 0.95633989572525 
2101	 0.957881510257721 
2102	 0.959542095661163 
2103	 0.961137056350708 
2104	 0.962663114070892 
2105	 0.964220583438873 
2106	 0.965766191482544 
2107	 0.967335879802704 
2108	 0.968888401985168 
2109	 0.970514416694641 
2110	 0.972296893596649 
2111	 0.973923802375793 
2112	 0.97554075717926 
2113	 0.977075755596161 
2114	 0.978479862213135 
2115	 0.97986501455307 
2116	 0.981233775615692 
2117	 0.982487320899963 
2118	 0.983802616596222 
2119	 0.985118269920349 
2120	 0.986362993717194 
2121	 0.987650990486145 
2122	 0.988729536533356 
2123	 0.989602625370026 
2124	 0.990593910217285 
2125	 0.991561233997345 
2126	 0.992484748363495 
2127	 0.993312537670136 
2128	 0.994299471378326 
2129	 0.995424389839172 
2130	 0.996350586414337 
2131	 0.997483372688293 
2132	 0.998291492462158 
2133	 0.998923420906067 
2134	 0.999131977558136 
2135	 0.999239265918732 
2136	 0.999335765838623 
2137	 0.999479651451111 
2138	 0.999504268169403 
2139	 0.999632596969604 
2140	 1 
2141	 0.999999940395355 
2142	 1 
2143	 1 
2144	 0.999882876873016 
2145	 0.999892055988312 
2146	 1 
2147	 0.999950110912323 
2148	 1 
2149	 0.999665319919586 
2150	 0.999033153057098 
2151	 0.99829775094986 
2152	 0.997335731983185 
2153	 0.996153473854065 
2154	 0.994776785373688 
2155	 0.993265748023987 
2156	 0.99164617061615 
2157	 0.98979377746582 
2158	 0.98781430721283 
2159	 0.98584258556366 
2160	 0.983448088169098 
2161	 0.980563759803772 
2162	 0.977935492992401 
2163	 0.975191235542297 
2164	 0.972321212291718 
2165	 0.969404697418213 
2166	 0.966463625431061 
2167	 0.963421583175659 
2168	 0.960299134254456 
2169	 0.95701003074646 
2170	 0.953944981098175 
2171	 0.95071268081665 
2172	 0.947699904441834 
2173	 0.94490522146225 
2174	 0.942384839057922 
2175	 0.939999520778656 
2176	 0.937512516975403 
2177	 0.934899985790253 
2178	 0.932334303855896 
2179	 0.929721713066101 
2180	 0.926632404327393 
2181	 0.924264490604401 
2182	 0.922454059123993 
2183	 0.920268356800079 
2184	 0.918153941631317 
2185	 0.916263043880463 
2186	 0.914380609989166 
2187	 0.912433087825775 
2188	 0.91059285402298 
2189	 0.908945381641388 
2190	 0.907013177871704 
2191	 0.905568480491638 
2192	 0.905062973499298 
2193	 0.904041290283203 
2194	 0.903026580810547 
2195	 0.901766896247864 
2196	 0.900295734405518 
2197	 0.898439407348633 
2198	 0.89649510383606 
2199	 0.895157098770142 
2200	 0.893601179122925 
2201	 0.892077147960663 
2202	 0.890729308128357 
2203	 0.889199614524841 
2204	 0.888420343399048 
2205	 0.887765467166901 
2206	 0.888194978237152 
2207	 0.889791429042816 
2208	 0.89121288061142 
2209	 0.893379509449005 
2210	 0.895505428314209 
2211	 0.897748410701752 
2212	 0.900126278400421 
2213	 0.903365075588226 
2214	 0.90564090013504 
2215	 0.907159507274628 
2216	 0.909106552600861 
2217	 0.910327851772308 
2218	 0.912362158298492 
2219	 0.915316522121429 
2220	 0.918001592159271 
2221	 0.921199798583984 
2222	 0.923863530158997 
2223	 0.926408171653748 
2224	 0.928772509098053 
2225	 0.930484533309937 
2226	 0.932848751544952 
2227	 0.935024738311768 
2228	 0.937138676643372 
2229	 0.939233839511871 
2230	 0.941668391227722 
2231	 0.943278193473816 
2232	 0.944564580917358 
2233	 0.945569336414337 
2234	 0.945853531360626 
2235	 0.946509838104248 
2236	 0.946797966957092 
2237	 0.947582006454468 
2238	 0.948790490627289 
2239	 0.949851334095001 
2240	 0.950935542583466 
2241	 0.952515542507172 
2242	 0.954203128814697 
2243	 0.955749750137329 
2244	 0.957798182964325 
2245	 0.959716796875 
2246	 0.961666822433472 
2247	 0.963372111320496 
2248	 0.964846253395081 
2249	 0.966457068920136 
2250	 0.967845499515533 
2251	 0.969402670860291 
2252	 0.970638036727905 
2253	 0.971683740615845 
2254	 0.971851050853729 
2255	 0.971644163131714 
2256	 0.971946775913239 
2257	 0.972915768623352 
2258	 0.974460959434509 
2259	 0.977036893367767 
2260	 0.978566706180573 
2261	 0.980141818523407 
2262	 0.981633365154266 
2263	 0.98250275850296 
2264	 0.984052181243896 
2265	 0.986485302448273 
2266	 0.987926721572876 
2267	 0.989162802696228 
2268	 0.989691436290741 
2269	 0.989176332950592 
2270	 0.989580273628235 
2271	 0.989699721336365 
2272	 0.990379750728607 
2273	 0.992097496986389 
2274	 0.992972135543823 
2275	 0.993649423122406 
2276	 0.994215488433838 
2277	 0.994206607341766 
2278	 0.994554460048676 
2279	 0.994888305664063 
2280	 0.995555877685547 
2281	 0.996832370758057 
2282	 0.997738182544708 
2283	 0.99886554479599 
2284	 0.999409794807434 
2285	 0.999831080436707 
2286	 0.999699354171753 
2287	 0.999252378940582 
2288	 0.999417960643768 
2289	 0.999044239521027 
2290	 0.998180270195007 
2291	 0.997937381267548 
2292	 0.997783184051514 
2293	 0.998385727405548 
2294	 0.999228477478027 
2295	 0.999330341815948 
2296	 0.999408483505249 
2297	 0.999404311180115 
2298	 0.998721063137054 
2299	 0.998792290687561 
2300	 1 
2301	 0.999366164207459 
2302	 0.997497498989105 
2303	 0.996900618076324 
2304	 0.995356202125549 
2305	 0.995262503623962 
2306	 0.997630536556244 
2307	 0.997536718845367 
2308	 0.995972394943237 
2309	 0.995692729949951 
2310	 0.994767904281616 
2311	 0.995069861412048 
2312	 0.997361958026886 
2313	 0.998507082462311 
2314	 0.999766409397125 
2315	 1 
2316	 0.999721944332123 
2317	 0.999469637870789 
2318	 0.998176217079163 
2319	 0.997503340244293 
2320	 0.996956706047058 
2321	 0.997096657752991 
2322	 0.998196065425873 
2323	 0.998622238636017 
2324	 1 
2325	 0.999664843082428 
2326	 0.996263206005096 
2327	 0.995535731315613 
2328	 0.996245086193085 
2329	 0.995648503303528 
2330	 0.995414197444916 
2331	 0.995787501335144 
2332	 0.996429681777954 
2333	 0.99718564748764 
2334	 0.998492777347565 
2335	 0.99982738494873 
2336	 1 
2337	 0.999636828899384 
2338	 0.998929560184479 
2339	 0.999604642391205 
2340	 0.998790979385376 
2341	 0.995582222938538 
2342	 0.994779407978058 
2343	 0.99444192647934 
2344	 0.994537711143494 
2345	 0.995580792427063 
2346	 0.99666690826416 
2347	 0.997388780117035 
2348	 0.99607640504837 
2349	 0.993786811828613 
2350	 0.992440283298492 
2351	 0.993078052997589 
2352	 0.99398398399353 
2353	 0.99528568983078 
2354	 0.995872974395752 
2355	 0.993210792541504 
2356	 0.992110729217529 
2357	 0.993299603462219 
2358	 0.993436634540558 
2359	 0.993502140045166 
2360	 0.99278736114502 
2361	 0.990597605705261 
2362	 0.990701973438263 
2363	 0.992902100086212 
2364	 0.99485832452774 
2365	 0.998744785785675 
2366	 1 
2367	 0.999805212020874 
2368	 0.999083280563354 
2369	 0.993083894252777 
2370	 0.990643262863159 
2371	 0.989195048809052 
2372	 0.985664188861847 
2373	 0.98770546913147 
2374	 0.988898992538452 
2375	 0.986077964305878 
2376	 0.985815942287445 
2377	 0.987039983272552 
2378	 0.984962224960327 
2379	 0.98363071680069 
2380	 0.986647665500641 
2381	 0.986375987529755 
2382	 0.985130369663239 
2383	 0.984460294246674 
2384	 0.983832895755768 
2385	 0.97988224029541 
2386	 0.979722201824188 
2387	 0.982475757598877 
2388	 0.981775939464569 
2389	 0.980721592903137 
2390	 0.979631006717682 
2391	 0.976073563098907 
2392	 0.977364420890808 
2393	 0.981788516044617 
2394	 0.983349859714508 
2395	 0.988047420978546 
2396	 0.986207187175751 
2397	 0.978549838066101 
2398	 0.97623610496521 
2399	 0.971956729888916 
2400	 0.972484290599823 
2401	 0.977660596370697 
2402	 0.977967798709869 
2403	 0.978293478488922 
2404	 0.978999137878418 
2405	 0.982372999191284 
2406	 0.978380858898163 
2407	 0.979503691196442 
2408	 0.97528088092804 
2409	 0.968620598316193 
2410	 0.972450256347656 
2411	 0.972809016704559 
2412	 0.977116465568542 
2413	 0.978086709976196 
2414	 0.97435450553894 
2415	 0.972311437129974 
2416	 0.966261923313141 
2417	 0.962936401367188 
2418	 0.958302438259125 
2419	 0.955689430236816 
2420	 0.95511931180954 
2421	 0.953272223472595 
2422	 0.958706438541412 
2423	 0.959997713565826 
2424	 0.96075713634491 
2425	 0.963251113891602 
2426	 0.960628807544708 
2427	 0.95728588104248 
2428	 0.951728343963623 
2429	 0.946896493434906 
2430	 0.941693603992462 
2431	 0.939938068389893 
2432	 0.942607820034027 
2433	 0.94878214597702 
2434	 0.954138994216919 
2435	 0.959269106388092 
2436	 0.965648710727692 
2437	 0.960930466651917 
2438	 0.948690235614777 
2439	 0.946709036827087 
2440	 0.959154307842255 
2441	 0.970836699008942 
2442	 0.981619536876678 
2443	 0.988576829433441 
2444	 0.982163310050964 
2445	 0.982299566268921 
2446	 0.985573530197144 
2447	 0.979965567588806 
2448	 0.972120642662048 
2449	 0.948435664176941 
2450	 0.924220442771912 
2451	 0.9216548204422 
2452	 0.926821410655975 
2453	 0.930271327495575 
2454	 0.948507249355316 
2455	 0.96695202589035 
2456	 0.963767170906067 
2457	 0.959031343460083 
2458	 0.948238730430603 
2459	 0.947236657142639 
2460	 0.955142080783844 
2461	 0.964154958724976 
2462	 0.97854071855545 
2463	 0.98516982793808 
2464	 0.993774771690369 
2465	 0.992224752902985 
2466	 0.989124238491058 
2467	 0.973510563373566 
2468	 0.948418021202087 
2469	 0.942598521709442 
2470	 0.930086731910706 
2471	 0.938891887664795 
2472	 0.95828253030777 
2473	 0.949659585952759 
2474	 0.945265889167786 
2475	 0.926086008548737 
2476	 0.912942826747894 
2477	 0.919801890850067 
2478	 0.930106699466705 
2479	 0.948904275894165 
2480	 0.933226764202118 
2481	 0.92822003364563 
2482	 0.916489481925964 
2483	 0.928568780422211 
2484	 0.917896032333374 
2485	 0.925952613353729 
2486	 0.967349052429199 
2487	 0.994576156139374 
2488	 0.990170955657959 
2489	 0.966699838638306 
2490	 0.955057322978973 
2491	 0.92409747838974 
2492	 0.89386773109436 
2493	 0.870349884033203 
2494	 0.84072357416153 
2495	 0.84057492017746 
2496	 0.898372173309326 
2497	 0.97184944152832 
2498	 1 
2499	 0.999999940395355 
2500	 1 
