Wavelength	A00013.asd
350	 0.21127648703467 
351	 0.211485885453709 
352	 0.194547146167408 
353	 0.180381559262358 
354	 0.198058925494882 
355	 0.176618175463271 
356	 0.156710700262743 
357	 0.170915554101624 
358	 0.168393109713514 
359	 0.161753485182962 
360	 0.158307918263041 
361	 0.159566547230582 
362	 0.149702353690667 
363	 0.142021668618733 
364	 0.142763853004958 
365	 0.146681023739134 
366	 0.145155089178775 
367	 0.142308768964875 
368	 0.142893870926122 
369	 0.144842059815236 
370	 0.143226795019034 
371	 0.13757376918269 
372	 0.130708233913788 
373	 0.130941537382585 
374	 0.129293785457276 
375	 0.124237118568767 
376	 0.126087893959012 
377	 0.127122732311321 
378	 0.127489500971278 
379	 0.128273510344074 
380	 0.127634408566566 
381	 0.124812100387893 
382	 0.122278827924178 
383	 0.123552581115474 
384	 0.12581100205378 
385	 0.123956290630566 
386	 0.119690768142807 
387	 0.124570099311211 
388	 0.123565628661121 
389	 0.119521315294788 
390	 0.118484923141958 
391	 0.120158435852957 
392	 0.120013822406656 
393	 0.118285691662945 
394	 0.11792856006516 
395	 0.115953197882741 
396	 0.115554712342542 
397	 0.117380478789115 
398	 0.1169914936232 
399	 0.117085998888819 
400	 0.117133770139543 
401	 0.116435242356164 
402	 0.117403222300338 
403	 0.11670170412758 
404	 0.115433302635751 
405	 0.11746440223933 
406	 0.116758646662486 
407	 0.116095488553944 
408	 0.116980775328036 
409	 0.116010135018684 
410	 0.115874951306873 
411	 0.11641707130402 
412	 0.116591639241075 
413	 0.115606694954415 
414	 0.115845569238497 
415	 0.117225355865444 
416	 0.117444930592029 
417	 0.116797790121894 
418	 0.116565720178355 
419	 0.117269772117376 
420	 0.11734383995909 
421	 0.117126667063082 
422	 0.117244116022 
423	 0.118160459212105 
424	 0.118508763363068 
425	 0.11831037155307 
426	 0.118261669024253 
427	 0.119646877418551 
428	 0.119750714233139 
429	 0.11962979240947 
430	 0.120390049563965 
431	 0.120650603806273 
432	 0.120796592617431 
433	 0.121029651899325 
434	 0.121441501869754 
435	 0.122138297100814 
436	 0.122644059067116 
437	 0.122880041632273 
438	 0.123485167372612 
439	 0.123681690482025 
440	 0.123824130696239 
441	 0.124370670920536 
442	 0.12479103928974 
443	 0.125185618076886 
444	 0.125695789659336 
445	 0.126452393128471 
446	 0.127130825612002 
447	 0.127735835803231 
448	 0.128275908004703 
449	 0.128589380487102 
450	 0.129093561855819 
451	 0.129666978276562 
452	 0.130032817496122 
453	 0.130376550345497 
454	 0.130776610164913 
455	 0.131199686371784 
456	 0.131501208689474 
457	 0.131679939513943 
458	 0.132194790174112 
459	 0.133126096181489 
460	 0.133109377096233 
461	 0.133365512722276 
462	 0.134054300521277 
463	 0.134687452228765 
464	 0.134797425627661 
465	 0.135079896300699 
466	 0.135707217939852 
467	 0.135846252768231 
468	 0.135906519496727 
469	 0.136140492122837 
470	 0.136667997489975 
471	 0.137283906921531 
472	 0.137594939889988 
473	 0.137662529477511 
474	 0.13789686520293 
475	 0.138162244771749 
476	 0.138371840355309 
477	 0.138559838481952 
478	 0.139021743112286 
479	 0.139606875942399 
480	 0.139997664375633 
481	 0.139967133413046 
482	 0.140262010494077 
483	 0.140661406645 
484	 0.140957731189614 
485	 0.141053302786313 
486	 0.14158270655807 
487	 0.14225878757898 
488	 0.142702326755105 
489	 0.142965427122089 
490	 0.143194653789486 
491	 0.14356364922727 
492	 0.144205120789572 
493	 0.144798050483077 
494	 0.145271505528928 
495	 0.145662157120497 
496	 0.146128435466104 
497	 0.146479245988683 
498	 0.146932517314272 
499	 0.147638280263257 
500	 0.147825897374066 
501	 0.148250148780158 
502	 0.148906972696253 
503	 0.149120494225807 
504	 0.149633537000421 
505	 0.150205764934978 
506	 0.150590550062319 
507	 0.150944100678036 
508	 0.151428278885367 
509	 0.151900875559867 
510	 0.152151811173488 
511	 0.152582085852991 
512	 0.153035717352659 
513	 0.153496490363378 
514	 0.154200839721307 
515	 0.154529438681557 
516	 0.154846469123659 
517	 0.155532237851061 
518	 0.15607412357054 
519	 0.156609613811386 
520	 0.157197731095651 
521	 0.157824212653194 
522	 0.158362915484782 
523	 0.158972282567637 
524	 0.159679568554237 
525	 0.160157021764278 
526	 0.160829359338146 
527	 0.1616189479053 
528	 0.162347443315899 
529	 0.163381262482743 
530	 0.16435912366007 
531	 0.165161622226509 
532	 0.165972753701601 
533	 0.166862354444034 
534	 0.167890737503521 
535	 0.169030973178075 
536	 0.170031814284683 
537	 0.171106967233324 
538	 0.172289770767523 
539	 0.173501158361477 
540	 0.174688861131221 
541	 0.175943938197815 
542	 0.177332050703933 
543	 0.178859413410774 
544	 0.180381501523113 
545	 0.18186439953507 
546	 0.183361797610456 
547	 0.185126819582836 
548	 0.186876227932344 
549	 0.188571772443496 
550	 0.190423247306077 
551	 0.192649505383506 
552	 0.195246217526196 
553	 0.198069875988976 
554	 0.200839656123537 
555	 0.203533356746723 
556	 0.206244830440619 
557	 0.209099777824814 
558	 0.211920469622347 
559	 0.214609501477772 
560	 0.217197078682915 
561	 0.219847660650406 
562	 0.222322129097303 
563	 0.224835515425031 
564	 0.227543500525819 
565	 0.229874904826898 
566	 0.232013908353226 
567	 0.234189570976837 
568	 0.23663871695993 
569	 0.239034664523946 
570	 0.241563794836223 
571	 0.244376287905827 
572	 0.247055729332089 
573	 0.250803471896608 
574	 0.255459247876349 
575	 0.260128645453903 
576	 0.264318253278438 
577	 0.267566190756646 
578	 0.26997086136153 
579	 0.271952197652761 
580	 0.273896029360087 
581	 0.275801920909625 
582	 0.277685475846299 
583	 0.279919823144572 
584	 0.282303144947519 
585	 0.284797218814427 
586	 0.287439222824821 
587	 0.290037063149272 
588	 0.292566477099921 
589	 0.295184428899223 
590	 0.29831525577799 
591	 0.301199751809817 
592	 0.303948341557529 
593	 0.306864896437399 
594	 0.309790815663646 
595	 0.312542048162522 
596	 0.315150240105444 
597	 0.3178140680064 
598	 0.320109760005237 
599	 0.322271571362356 
600	 0.324490821654676 
601	 0.326558279047123 
602	 0.328625537416312 
603	 0.33067578878953 
604	 0.332641461811001 
605	 0.334572306105784 
606	 0.336639809077312 
607	 0.338705608870347 
608	 0.340219795583474 
609	 0.341873177289923 
610	 0.343583670765853 
611	 0.345158536896544 
612	 0.346706932888298 
613	 0.348403885757034 
614	 0.349987779563235 
615	 0.351029392630279 
616	 0.35250952033949 
617	 0.353902318206077 
618	 0.3550001268589 
619	 0.356563747126555 
620	 0.357857453668152 
621	 0.358964207686901 
622	 0.360229355427114 
623	 0.361885506471085 
624	 0.363067810041482 
625	 0.363763773150343 
626	 0.364790560936032 
627	 0.366060161917738 
628	 0.367247597728126 
629	 0.368218490022642 
630	 0.36952984842027 
631	 0.370399630817723 
632	 0.370992741924699 
633	 0.371861207431546 
634	 0.372890533359691 
635	 0.374055042622242 
636	 0.37524963591832 
637	 0.376281238765107 
638	 0.376959155783536 
639	 0.377647271247505 
640	 0.378654143949889 
641	 0.379640199332899 
642	 0.380461219461057 
643	 0.381231854264439 
644	 0.382211993763299 
645	 0.383270244468984 
646	 0.384100133041113 
647	 0.384796077649537 
648	 0.386166934781883 
649	 0.387175200097117 
650	 0.38796425473462 
651	 0.388890135023168 
652	 0.389536176260214 
653	 0.390177418707522 
654	 0.391030544976391 
655	 0.392204051208389 
656	 0.393327042613129 
657	 0.39423814625163 
658	 0.394970501680556 
659	 0.395877186183621 
660	 0.396643081787425 
661	 0.397476082279467 
662	 0.398658912014373 
663	 0.399748639883497 
664	 0.400876734475644 
665	 0.401924165618116 
666	 0.402527100329038 
667	 0.403556724469469 
668	 0.404495462374918 
669	 0.405011240593799 
670	 0.405953777996399 
671	 0.407548951833861 
672	 0.409137968411737 
673	 0.409862697648122 
674	 0.410707842009745 
675	 0.411715784266267 
676	 0.412842575434987 
677	 0.41402227064936 
678	 0.414802765183174 
679	 0.415617250226915 
680	 0.416892909224313 
681	 0.418409382688812 
682	 0.419650829987307 
683	 0.420478247030515 
684	 0.421080774658229 
685	 0.422190608832826 
686	 0.423138774151821 
687	 0.423781053781003 
688	 0.424908881220736 
689	 0.425998423295992 
690	 0.427233893990886 
691	 0.42875297477241 
692	 0.429965235208031 
693	 0.430832721466117 
694	 0.431635835697697 
695	 0.432784037262564 
696	 0.433762612742391 
697	 0.434627755182545 
698	 0.435711980740724 
699	 0.437731526382233 
700	 0.438512144619435 
701	 0.438930604667914 
702	 0.440262408667782 
703	 0.44160158471565 
704	 0.442892474943456 
705	 0.444119740445819 
706	 0.445302420783357 
707	 0.44655258158771 
708	 0.447719677545443 
709	 0.448748837456996 
710	 0.44979841544644 
711	 0.450891271123233 
712	 0.451687956275026 
713	 0.452142575453197 
714	 0.453816140371615 
715	 0.455229278841404 
716	 0.456104445546789 
717	 0.457088068147846 
718	 0.4582938924983 
719	 0.459390191784867 
720	 0.460226119986598 
721	 0.461062303593736 
722	 0.462075478743895 
723	 0.463006706399159 
724	 0.463632910651698 
725	 0.464392295251212 
726	 0.465464233513251 
727	 0.466623282060008 
728	 0.467408242989338 
729	 0.467945283707538 
730	 0.469051403291521 
731	 0.470713005957628 
732	 0.471438543095924 
733	 0.472157415027976 
734	 0.472759178100211 
735	 0.473133026245766 
736	 0.474306896792961 
737	 0.475131912322787 
738	 0.475494664728545 
739	 0.476020242041995 
740	 0.477032250029182 
741	 0.477849308381088 
742	 0.478240413872581 
743	 0.478845901967633 
744	 0.479532067649963 
745	 0.480269280576401 
746	 0.480992955157327 
747	 0.481464047296246 
748	 0.482115491522036 
749	 0.482722171120804 
750	 0.482853598649264 
751	 0.483757567834038 
752	 0.484379645699241 
753	 0.484325452404927 
754	 0.484346693731004 
755	 0.484359313548803 
756	 0.484697344719099 
757	 0.485437493468998 
758	 0.485728289091981 
759	 0.485925039890224 
760	 0.486226675473135 
761	 0.486723354470842 
762	 0.487315051680438 
763	 0.487507042846242 
764	 0.487516312114607 
765	 0.488262093563697 
766	 0.488551775939666 
767	 0.488381915777203 
768	 0.488089783620024 
769	 0.488208541689144 
770	 0.488484820715485 
771	 0.48873769386785 
772	 0.488763155440235 
773	 0.488101975532181 
774	 0.488119387949255 
775	 0.488741753295299 
776	 0.48877440124777 
777	 0.489290772573831 
778	 0.489547268299043 
779	 0.489214936321095 
780	 0.489059666356758 
781	 0.489408935375606 
782	 0.489562108026368 
783	 0.488989199243346 
784	 0.488880828274676 
785	 0.488830462855794 
786	 0.488737314744493 
787	 0.4886350861239 
788	 0.488154739356725 
789	 0.487828077962507 
790	 0.487757262103496 
791	 0.48746473996064 
792	 0.487678352911438 
793	 0.487903275714838 
794	 0.487701582012105 
795	 0.48737002167436 
796	 0.487149489719546 
797	 0.486683067480566 
798	 0.485752158311697 
799	 0.485932344751165 
800	 0.486092479780453 
801	 0.485846985629411 
802	 0.485475037582459 
803	 0.484758846427527 
804	 0.48409417564422 
805	 0.483736860166665 
806	 0.483612125992923 
807	 0.483683617623949 
808	 0.48382727967479 
809	 0.483910685467653 
810	 0.483848853866992 
811	 0.483588019918502 
812	 0.48327695928166 
813	 0.483071551908267 
814	 0.482545355505165 
815	 0.48239326877803 
816	 0.482385485536564 
817	 0.481536776263264 
818	 0.480658901768547 
819	 0.480021425491032 
820	 0.479750291035871 
821	 0.479875608303006 
822	 0.480037683171961 
823	 0.479852210302152 
824	 0.479329854548909 
825	 0.479643753424314 
826	 0.479947472433822 
827	 0.479403565217458 
828	 0.47780145816551 
829	 0.478055597385646 
830	 0.478752020518081 
831	 0.478905277774114 
832	 0.478250817943652 
833	 0.477053045897688 
834	 0.476809661478929 
835	 0.477584792594568 
836	 0.47706356425737 
837	 0.476809884678732 
838	 0.476870635884063 
839	 0.476826134900823 
840	 0.475937148784258 
841	 0.475520209413779 
842	 0.47582309485824 
843	 0.476383732866181 
844	 0.475875760739788 
845	 0.475214858695312 
846	 0.474643905144463 
847	 0.473978708802133 
848	 0.474637019748945 
849	 0.474927226195117 
850	 0.474374517978467 
851	 0.474437939496212 
852	 0.474410801570655 
853	 0.474111794527176 
854	 0.473619762850127 
855	 0.473340069180973 
856	 0.473181790393247 
857	 0.473453192201709 
858	 0.474169969520477 
859	 0.473972396680636 
860	 0.473411247628895 
861	 0.472943457678039 
862	 0.472946332325945 
863	 0.473770130335218 
864	 0.47360318411118 
865	 0.47278234135875 
866	 0.473373873854711 
867	 0.473930654126542 
868	 0.474491959228377 
869	 0.47471642283226 
870	 0.47360740584812 
871	 0.474254067305429 
872	 0.474927551576279 
873	 0.474336270029183 
874	 0.474585970204003 
875	 0.474958070016419 
876	 0.475040542301222 
877	 0.474809809535685 
878	 0.475423091917758 
879	 0.475370502134379 
880	 0.4745314172818 
881	 0.473760816777195 
882	 0.474800031965482 
883	 0.475637405382765 
884	 0.47582037702372 
885	 0.476239021538014 
886	 0.476635425542494 
887	 0.477090451315552 
888	 0.477550873925702 
889	 0.477784008585843 
890	 0.477523854525349 
891	 0.47768931700227 
892	 0.478548441900756 
893	 0.478933769485724 
894	 0.479340859792755 
895	 0.479595988745974 
896	 0.47955186239652 
897	 0.479478054262681 
898	 0.479744861614881 
899	 0.480142748981907 
900	 0.480382369896313 
901	 0.480735467356287 
902	 0.481499214782674 
903	 0.482269008805306 
904	 0.482488680148387 
905	 0.482903283208048 
906	 0.48290720222193 
907	 0.482791041873292 
908	 0.483397727218003 
909	 0.484165009487465 
910	 0.485073415763798 
911	 0.485886656338316 
912	 0.486191175605922 
913	 0.486479326975291 
914	 0.486976558014538 
915	 0.487729717279885 
916	 0.488582160102122 
917	 0.48919203560069 
918	 0.489443655333639 
919	 0.489620851070384 
920	 0.490580245773032 
921	 0.491246801189171 
922	 0.491507185472811 
923	 0.491672639542681 
924	 0.492386630684194 
925	 0.493264771211195 
926	 0.494507750986549 
927	 0.496023060571648 
928	 0.496111918570749 
929	 0.496226238903069 
930	 0.496786861953525 
931	 0.49763804718228 
932	 0.498285070568632 
933	 0.499461589039625 
934	 0.500931541516506 
935	 0.501998637466621 
936	 0.502744394262186 
937	 0.503236935599666 
938	 0.503685545909955 
939	 0.504300397053157 
940	 0.50465784669679 
941	 0.505117683581623 
942	 0.506105333776012 
943	 0.507794114014794 
944	 0.508484276591441 
945	 0.508732590844352 
946	 0.509194424290861 
947	 0.51020356010941 
948	 0.511094238550944 
949	 0.511338291083866 
950	 0.511329751201724 
951	 0.512436856510147 
952	 0.514208300343037 
953	 0.515397143880131 
954	 0.515723417689102 
955	 0.516512955149313 
956	 0.517820334720166 
957	 0.518685179329177 
958	 0.518942143351038 
959	 0.520111205909349 
960	 0.521162425843979 
961	 0.522363400698976 
962	 0.523843091860831 
963	 0.524904255575667 
964	 0.525160960009701 
965	 0.525745793035302 
966	 0.527086274396061 
967	 0.527112512970755 
968	 0.527761895350566 
969	 0.528685497547767 
970	 0.529266089303906 
971	 0.529835100110951 
972	 0.531941165570705 
973	 0.533903065704351 
974	 0.534351752425019 
975	 0.53584546571571 
976	 0.536673505461933 
977	 0.536958164475569 
978	 0.537514774247738 
979	 0.539329850265703 
980	 0.541445478803198 
981	 0.542995871116491 
982	 0.543642889547001 
983	 0.544409177394831 
984	 0.545874584012076 
985	 0.54733027784469 
986	 0.548125379108163 
987	 0.549677867231296 
988	 0.549665386765319 
989	 0.54983138988899 
990	 0.551934882174266 
991	 0.552612013918319 
992	 0.553606312744125 
993	 0.55462356952762 
994	 0.555043707008052 
995	 0.555615508885308 
996	 0.557139632330726 
997	 0.558659291620877 
998	 0.559154731463097 
999	 0.559613228354097 
1000	 0.561545178023029 
1001	 0.554359532755055 
1002	 0.555492859109243 
1003	 0.556664758784721 
1004	 0.557667086288486 
1005	 0.558504240568806 
1006	 0.5594602041605 
1007	 0.560403323411 
1008	 0.561366379332336 
1009	 0.562345874419534 
1010	 0.563342761618484 
1011	 0.564368276310032 
1012	 0.565348645025513 
1013	 0.566333498967915 
1014	 0.567316419867973 
1015	 0.568264314800099 
1016	 0.569222646887003 
1017	 0.570161083214803 
1018	 0.57106181186257 
1019	 0.572161101697712 
1020	 0.573231342825723 
1021	 0.574224214413987 
1022	 0.575354583168176 
1023	 0.576268938327361 
1024	 0.57687103931779 
1025	 0.577717004114484 
1026	 0.578616786782205 
1027	 0.579506462456417 
1028	 0.580449958112163 
1029	 0.58148086013381 
1030	 0.582372104318721 
1031	 0.583125053483077 
1032	 0.583918451906448 
1033	 0.58474843329389 
1034	 0.585586572302407 
1035	 0.586476275895882 
1036	 0.587325121528293 
1037	 0.588185396051201 
1038	 0.588950963289977 
1039	 0.589632069099506 
1040	 0.590409887794324 
1041	 0.591143292662879 
1042	 0.591930549075891 
1043	 0.592815849112177 
1044	 0.593669496346466 
1045	 0.594444420316339 
1046	 0.595379778975739 
1047	 0.596201996273638 
1048	 0.596930286456398 
1049	 0.597736261629913 
1050	 0.59845092072447 
1051	 0.599240452185527 
1052	 0.600013786734874 
1053	 0.600734043014645 
1054	 0.601376073323081 
1055	 0.602110863097474 
1056	 0.602812551245302 
1057	 0.603621365446331 
1058	 0.604574193025358 
1059	 0.605390749346288 
1060	 0.606175516291029 
1061	 0.606947649284237 
1062	 0.607717731542211 
1063	 0.608511335164936 
1064	 0.609230271334955 
1065	 0.60997864179131 
1066	 0.610640777785857 
1067	 0.611242146353267 
1068	 0.612002232449635 
1069	 0.612684131801633 
1070	 0.613372843142973 
1071	 0.614064422858936 
1072	 0.614791222129345 
1073	 0.615388911091551 
1074	 0.61609284861503 
1075	 0.616820568846847 
1076	 0.617489755562738 
1077	 0.618189768042684 
1078	 0.618829308998135 
1079	 0.619516259986456 
1080	 0.620172094688074 
1081	 0.620738948797124 
1082	 0.621418559085001 
1083	 0.622072390641066 
1084	 0.62270390929691 
1085	 0.623438024102905 
1086	 0.624110157500202 
1087	 0.624756125948473 
1088	 0.625369431379881 
1089	 0.625997720533869 
1090	 0.626584601206866 
1091	 0.62719127935759 
1092	 0.627761596239922 
1093	 0.628309029880681 
1094	 0.628922413771543 
1095	 0.62951296483958 
1096	 0.630090642274562 
1097	 0.630676651326941 
1098	 0.631184521534387 
1099	 0.631698941088371 
1100	 0.632202636401908 
1101	 0.63266278096509 
1102	 0.633140689948682 
1103	 0.633596353400984 
1104	 0.634022673355461 
1105	 0.63445635480099 
1106	 0.634909463778453 
1107	 0.63538881577491 
1108	 0.635895668827026 
1109	 0.63640558114786 
1110	 0.636984043301774 
1111	 0.637534087853119 
1112	 0.638010962460272 
1113	 0.638516886368412 
1114	 0.638980546854748 
1115	 0.639335561167406 
1116	 0.639744284412324 
1117	 0.640224104451582 
1118	 0.640679627283165 
1119	 0.641147931918627 
1120	 0.641616287480118 
1121	 0.642110218438091 
1122	 0.642539695180222 
1123	 0.642927662704996 
1124	 0.643299427991174 
1125	 0.643720902239734 
1126	 0.644120067223121 
1127	 0.644442115631069 
1128	 0.644778067140979 
1129	 0.645038617557781 
1130	 0.645189648976396 
1131	 0.64543768712368 
1132	 0.645713388190632 
1133	 0.645909510505854 
1134	 0.646096937107076 
1135	 0.646275615419244 
1136	 0.646424314527646 
1137	 0.646557437050667 
1138	 0.646668896805604 
1139	 0.646805314793548 
1140	 0.646952019297165 
1141	 0.647034665382334 
1142	 0.647140713051561 
1143	 0.647271048430867 
1144	 0.647346960817703 
1145	 0.647398249520055 
1146	 0.647430965696163 
1147	 0.647443113060811 
1148	 0.647508163894384 
1149	 0.64756224356177 
1150	 0.6475572450217 
1151	 0.647574317896892 
1152	 0.647603550702393 
1153	 0.647562460415649 
1154	 0.64761373565055 
1155	 0.647740186241091 
1156	 0.647864860245419 
1157	 0.648003898730507 
1158	 0.648176019456838 
1159	 0.648388258523362 
1160	 0.648596042294676 
1161	 0.648874574208903 
1162	 0.649105516341938 
1163	 0.649235160369937 
1164	 0.649397666939872 
1165	 0.649572360634429 
1166	 0.649749213665143 
1167	 0.650014208912324 
1168	 0.650335676083415 
1169	 0.650648339819823 
1170	 0.650956792421028 
1171	 0.651302386611007 
1172	 0.651692441339026 
1173	 0.652075159911308 
1174	 0.652486025565012 
1175	 0.652858245241885 
1176	 0.653229775277397 
1177	 0.653570641262325 
1178	 0.65385311639979 
1179	 0.654202408442495 
1180	 0.654526668743882 
1181	 0.654829963230622 
1182	 0.655171798204338 
1183	 0.655480239155457 
1184	 0.655827787948158 
1185	 0.656180367034388 
1186	 0.656501627604859 
1187	 0.656824349376656 
1188	 0.657139773113378 
1189	 0.657423280977073 
1190	 0.657720568949751 
1191	 0.658040380025255 
1192	 0.658316077345543 
1193	 0.65856746149547 
1194	 0.65881669430574 
1195	 0.659061939805826 
1196	 0.659276318315096 
1197	 0.659475908369799 
1198	 0.659648844335739 
1199	 0.659802748535968 
1200	 0.659986127683723 
1201	 0.66013635589169 
1202	 0.66027193024097 
1203	 0.660489397638351 
1204	 0.660689411313755 
1205	 0.660930469255809 
1206	 0.661266873473081 
1207	 0.661539818043944 
1208	 0.66178355349658 
1209	 0.662042477540628 
1210	 0.662318986205416 
1211	 0.662542741591656 
1212	 0.662724547524641 
1213	 0.662948602136714 
1214	 0.663180053317718 
1215	 0.663388333467232 
1216	 0.66359881866937 
1217	 0.663819913350758 
1218	 0.664022881870052 
1219	 0.664222187421802 
1220	 0.664447104224458 
1221	 0.664653741071637 
1222	 0.664785701048772 
1223	 0.664929477250262 
1224	 0.665088369777732 
1225	 0.665256550272053 
1226	 0.66539210184028 
1227	 0.665542781647176 
1228	 0.665645545800172 
1229	 0.665683926248774 
1230	 0.665775466849221 
1231	 0.665856738380319 
1232	 0.665970238813354 
1233	 0.666111607168736 
1234	 0.666255741874579 
1235	 0.666455609944169 
1236	 0.666595349247614 
1237	 0.666702460964125 
1238	 0.666821909414856 
1239	 0.666923150338197 
1240	 0.666998202298453 
1241	 0.667099865044073 
1242	 0.667212069603025 
1243	 0.667345338881808 
1244	 0.66747398388106 
1245	 0.667640913157151 
1246	 0.667866649768609 
1247	 0.668043981285706 
1248	 0.668236488170075 
1249	 0.668377919935221 
1250	 0.668483705111025 
1251	 0.668583070485944 
1252	 0.668638732768793 
1253	 0.668723602955952 
1254	 0.668838138148459 
1255	 0.668894645378605 
1256	 0.668944172813297 
1257	 0.668965952983189 
1258	 0.668880435100262 
1259	 0.668881230501446 
1260	 0.668895820109281 
1261	 0.668948840725036 
1262	 0.669050192462334 
1263	 0.669209228401685 
1264	 0.669320430302257 
1265	 0.669445365670645 
1266	 0.66954837010114 
1267	 0.669610644663773 
1268	 0.669726408702364 
1269	 0.669876934967343 
1270	 0.669990020346144 
1271	 0.670120579970386 
1272	 0.670222203951453 
1273	 0.670288408148037 
1274	 0.670356517106077 
1275	 0.670431388736616 
1276	 0.670474911869937 
1277	 0.670471179538418 
1278	 0.67049922856764 
1279	 0.670548223241982 
1280	 0.670560390158521 
1281	 0.670563238821213 
1282	 0.670567654364878 
1283	 0.67050405085389 
1284	 0.670501984827144 
1285	 0.670530786048943 
1286	 0.670604585568254 
1287	 0.670650642468466 
1288	 0.670729436043807 
1289	 0.67076476652182 
1290	 0.670791882396198 
1291	 0.670770816272545 
1292	 0.670713023243261 
1293	 0.670664319063101 
1294	 0.670580373551515 
1295	 0.670505433424238 
1296	 0.670448814733107 
1297	 0.670364106540996 
1298	 0.670254258291377 
1299	 0.67014383702183 
1300	 0.670063792298067 
1301	 0.669906698414551 
1302	 0.669685892881379 
1303	 0.669486237662422 
1304	 0.669233630304179 
1305	 0.669007130381745 
1306	 0.668811299835258 
1307	 0.668608961499665 
1308	 0.668419688191832 
1309	 0.668191954791844 
1310	 0.667996759555606 
1311	 0.667822491685216 
1312	 0.667612841765373 
1313	 0.667393398161159 
1314	 0.667179359776368 
1315	 0.666934759337503 
1316	 0.666733959515139 
1317	 0.666584006454559 
1318	 0.666368932176756 
1319	 0.66616871683253 
1320	 0.665900481215 
1321	 0.665584237101068 
1322	 0.665234745841842 
1323	 0.664838454225777 
1324	 0.66443140913001 
1325	 0.66397065814767 
1326	 0.663527766568348 
1327	 0.663094911159489 
1328	 0.662632036527362 
1329	 0.662172082080818 
1330	 0.661678007884127 
1331	 0.661156490255135 
1332	 0.660608385716844 
1333	 0.660043049450715 
1334	 0.659428640919266 
1335	 0.658831938151529 
1336	 0.658217976914887 
1337	 0.657598462457997 
1338	 0.65698444201481 
1339	 0.656341576612241 
1340	 0.655659051001461 
1341	 0.655019684241447 
1342	 0.654380772076525 
1343	 0.653752007258756 
1344	 0.653161623703966 
1345	 0.652528325201869 
1346	 0.651861167901531 
1347	 0.651231996646854 
1348	 0.650594039627721 
1349	 0.649982902579731 
1350	 0.649419622313981 
1351	 0.648819289807523 
1352	 0.648222837261429 
1353	 0.647600766295976 
1354	 0.646959921799074 
1355	 0.646306807960843 
1356	 0.645653428562577 
1357	 0.644956522792291 
1358	 0.644235424155496 
1359	 0.643480324197779 
1360	 0.642691197873187 
1361	 0.641879931555217 
1362	 0.640978789618571 
1363	 0.64009688650212 
1364	 0.639134751337943 
1365	 0.638154162869621 
1366	 0.637003900209113 
1367	 0.635795720666351 
1368	 0.634434944520695 
1369	 0.632941544459076 
1370	 0.631301435393177 
1371	 0.629583403945281 
1372	 0.627646627243981 
1373	 0.625538249591206 
1374	 0.623239800503426 
1375	 0.62073721112024 
1376	 0.618072725528101 
1377	 0.615240240161494 
1378	 0.612151076620736 
1379	 0.608863325122964 
1380	 0.605351249554087 
1381	 0.601608130684347 
1382	 0.59762223570606 
1383	 0.593382521078952 
1384	 0.589002554841027 
1385	 0.584444436773768 
1386	 0.579710555234468 
1387	 0.574818863456064 
1388	 0.569879732694239 
1389	 0.564761691354284 
1390	 0.559615335749773 
1391	 0.554533695671292 
1392	 0.549102861471667 
1393	 0.543952578665724 
1394	 0.53867930650751 
1395	 0.533577872715237 
1396	 0.528584135671289 
1397	 0.523713342026955 
1398	 0.518881153053478 
1399	 0.514235204465674 
1400	 0.509716508847134 
1401	 0.505360110526788 
1402	 0.501111576240389 
1403	 0.497062543616659 
1404	 0.493147196284875 
1405	 0.489541103331856 
1406	 0.486093156003454 
1407	 0.482962730030793 
1408	 0.48010289055444 
1409	 0.477503673174229 
1410	 0.475124245672614 
1411	 0.473071420877266 
1412	 0.471276914956935 
1413	 0.469833521002692 
1414	 0.468708826414021 
1415	 0.467859019591317 
1416	 0.467405480334829 
1417	 0.467062130115781 
1418	 0.467003812970226 
1419	 0.467022625115306 
1420	 0.467213925858691 
1421	 0.467474662653428 
1422	 0.467856963847788 
1423	 0.468305905066027 
1424	 0.468830368033768 
1425	 0.469454372464382 
1426	 0.470103596234848 
1427	 0.470834826880086 
1428	 0.471641049324878 
1429	 0.472428221038487 
1430	 0.473244397012443 
1431	 0.474097045972232 
1432	 0.474975108089404 
1433	 0.47585908071492 
1434	 0.476789184565322 
1435	 0.477787655359643 
1436	 0.47875765891019 
1437	 0.479740414431632 
1438	 0.480703824459161 
1439	 0.48167845315662 
1440	 0.482615274511385 
1441	 0.483539527580586 
1442	 0.484439917239874 
1443	 0.485334972413211 
1444	 0.486173463352909 
1445	 0.486982941851019 
1446	 0.487745810641113 
1447	 0.488440705882571 
1448	 0.489138174786172 
1449	 0.489832646017345 
1450	 0.490472104980965 
1451	 0.491079384042946 
1452	 0.491659283331817 
1453	 0.492201580080318 
1454	 0.492698653408921 
1455	 0.493162069030248 
1456	 0.493599164559267 
1457	 0.493980073286069 
1458	 0.494352827413739 
1459	 0.494719330236629 
1460	 0.495052835980552 
1461	 0.495316494307042 
1462	 0.495621314488794 
1463	 0.495879412448793 
1464	 0.496217689838471 
1465	 0.496595331361393 
1466	 0.497033613319703 
1467	 0.497503287945412 
1468	 0.498074897227404 
1469	 0.498783299781463 
1470	 0.499539746047851 
1471	 0.500355141977097 
1472	 0.501286901043086 
1473	 0.502205606297913 
1474	 0.503137756567197 
1475	 0.5041403557454 
1476	 0.505201354958081 
1477	 0.506298711415307 
1478	 0.507440576427697 
1479	 0.50860916135667 
1480	 0.509824564460077 
1481	 0.511061742969917 
1482	 0.51236050228252 
1483	 0.513617052861673 
1484	 0.514889822339909 
1485	 0.516145698004251 
1486	 0.517383170276594 
1487	 0.518599134834947 
1488	 0.519824874979937 
1489	 0.521003516782708 
1490	 0.52213237610023 
1491	 0.523271838566511 
1492	 0.524377974041454 
1493	 0.525513653979083 
1494	 0.526665351586532 
1495	 0.527792663731166 
1496	 0.528917348883832 
1497	 0.530044880678295 
1498	 0.531168914707993 
1499	 0.532277928091224 
1500	 0.533403605215044 
1501	 0.534495030206255 
1502	 0.535554328168772 
1503	 0.536596868335707 
1504	 0.537610937140907 
1505	 0.538627016609706 
1506	 0.539630395357714 
1507	 0.540627083327336 
1508	 0.541643129790073 
1509	 0.542615059199895 
1510	 0.543561431777698 
1511	 0.544477869428517 
1512	 0.545349858823362 
1513	 0.546215741466123 
1514	 0.547051546722905 
1515	 0.547892356776023 
1516	 0.548710255457078 
1517	 0.549548562442846 
1518	 0.550438630286254 
1519	 0.551259617381796 
1520	 0.552044946439248 
1521	 0.552826800539706 
1522	 0.553573891837408 
1523	 0.554350927920655 
1524	 0.555103063071515 
1525	 0.555891212991734 
1526	 0.556611130380585 
1527	 0.557275113929046 
1528	 0.55796017575136 
1529	 0.558629375535574 
1530	 0.55931446893803 
1531	 0.560006533138315 
1532	 0.560680095443938 
1533	 0.561350642545655 
1534	 0.562025891271354 
1535	 0.562690710925863 
1536	 0.56335162208443 
1537	 0.564031159706487 
1538	 0.564670967089425 
1539	 0.565291755047305 
1540	 0.565887457449155 
1541	 0.566474997347964 
1542	 0.567009299960337 
1543	 0.567500563937916 
1544	 0.567977092143214 
1545	 0.568391112296595 
1546	 0.568857304395407 
1547	 0.569321521070598 
1548	 0.569807787584358 
1549	 0.570325423767689 
1550	 0.570831801671277 
1551	 0.57135898264279 
1552	 0.571844916852244 
1553	 0.572325367833126 
1554	 0.572777032567759 
1555	 0.57319597860025 
1556	 0.573603193133768 
1557	 0.573959488698666 
1558	 0.574381739268528 
1559	 0.574829998747817 
1560	 0.575253357621955 
1561	 0.575714547752186 
1562	 0.576142491636662 
1563	 0.576514500707215 
1564	 0.576925290804727 
1565	 0.577356088205805 
1566	 0.577784680671902 
1567	 0.578226944619936 
1568	 0.578651562643919 
1569	 0.579089815899075 
1570	 0.579489351910349 
1571	 0.579874810474268 
1572	 0.580222910510359 
1573	 0.580515864001189 
1574	 0.580834023072565 
1575	 0.581123195258134 
1576	 0.581441413755391 
1577	 0.581777710114638 
1578	 0.58212496766413 
1579	 0.582504724669981 
1580	 0.582849048289009 
1581	 0.583200373107179 
1582	 0.583524714938379 
1583	 0.583834466462173 
1584	 0.584101635245665 
1585	 0.584330645339073 
1586	 0.584561249627995 
1587	 0.58474934212717 
1588	 0.584947231391383 
1589	 0.585185797834231 
1590	 0.585353900731644 
1591	 0.585470481929208 
1592	 0.585588889278737 
1593	 0.585615573473008 
1594	 0.585741792046785 
1595	 0.585922491262628 
1596	 0.586105257095118 
1597	 0.586373714109672 
1598	 0.586578042226007 
1599	 0.586761637435931 
1600	 0.586922285286487 
1601	 0.587053634359576 
1602	 0.587167523307603 
1603	 0.587252833098317 
1604	 0.58733324690991 
1605	 0.587368685959649 
1606	 0.587448320076825 
1607	 0.587550883704501 
1608	 0.587645739857891 
1609	 0.587773116438752 
1610	 0.587875550017508 
1611	 0.587950963444733 
1612	 0.588035166494793 
1613	 0.588115490856072 
1614	 0.588200253661335 
1615	 0.588300509926936 
1616	 0.588377688455332 
1617	 0.588444793196061 
1618	 0.588506361765887 
1619	 0.588545980246368 
1620	 0.588595271339137 
1621	 0.588613917636222 
1622	 0.588692310566828 
1623	 0.588794723374604 
1624	 0.588922417297464 
1625	 0.589133254881283 
1626	 0.589298607678919 
1627	 0.589455262923412 
1628	 0.589606656005332 
1629	 0.589763144471792 
1630	 0.589873114207564 
1631	 0.589958669978352 
1632	 0.590031191472021 
1633	 0.590050468147726 
1634	 0.590086683385271 
1635	 0.590123032022974 
1636	 0.590162949769624 
1637	 0.590163670548507 
1638	 0.590234947961865 
1639	 0.590353109518828 
1640	 0.590475249285674 
1641	 0.590692858258073 
1642	 0.590821395555293 
1643	 0.590904800633238 
1644	 0.59097761812207 
1645	 0.590987962696269 
1646	 0.591023400022675 
1647	 0.591072286504297 
1648	 0.591101457815344 
1649	 0.591116800593196 
1650	 0.59113651853074 
1651	 0.591140761278355 
1652	 0.591166978723585 
1653	 0.591231516662309 
1654	 0.591251777954576 
1655	 0.591268857456281 
1656	 0.591248607445001 
1657	 0.591164060599039 
1658	 0.591112950721706 
1659	 0.591077626430802 
1660	 0.591012358041449 
1661	 0.590953229716193 
1662	 0.590864682296187 
1663	 0.590735274003189 
1664	 0.590604041547002 
1665	 0.590460600493028 
1666	 0.590306995251889 
1667	 0.590095030136654 
1668	 0.589966510105209 
1669	 0.589867056784071 
1670	 0.589799254109239 
1671	 0.589836493887536 
1672	 0.58978370129668 
1673	 0.589721224040126 
1674	 0.589615743466403 
1675	 0.589453550756165 
1676	 0.589281605433291 
1677	 0.589087559527517 
1678	 0.588872109635672 
1679	 0.588614954488841 
1680	 0.588380020960097 
1681	 0.58811289072968 
1682	 0.587893689949766 
1683	 0.587693485205905 
1684	 0.587517566779847 
1685	 0.587367922812409 
1686	 0.587260386891161 
1687	 0.587209381883657 
1688	 0.58712168077245 
1689	 0.587052538941482 
1690	 0.58696699077072 
1691	 0.586830586755858 
1692	 0.586758183497149 
1693	 0.586737307555808 
1694	 0.586681111285116 
1695	 0.586616293747694 
1696	 0.586590356651134 
1697	 0.586573285227009 
1698	 0.586559506639298 
1699	 0.586601990600495 
1700	 0.586584312061244 
1701	 0.586539605356888 
1702	 0.586459075211225 
1703	 0.58633862906819 
1704	 0.586220121841747 
1705	 0.586069980575785 
1706	 0.585950065701835 
1707	 0.585815722743838 
1708	 0.585696916024245 
1709	 0.585563079040877 
1710	 0.585317045313206 
1711	 0.585064091861824 
1712	 0.584768283413863 
1713	 0.584397185903787 
1714	 0.584030915933501 
1715	 0.583682446111233 
1716	 0.58339806363551 
1717	 0.583120407153482 
1718	 0.582831279441502 
1719	 0.582570632706221 
1720	 0.582288570999397 
1721	 0.581953561563883 
1722	 0.581679480740364 
1723	 0.581413548017461 
1724	 0.58102585081893 
1725	 0.580669397804119 
1726	 0.580311715230268 
1727	 0.579887672588198 
1728	 0.579530274814468 
1729	 0.579159085162895 
1730	 0.578764525334394 
1731	 0.578441389936124 
1732	 0.578131365481758 
1733	 0.577828849547085 
1734	 0.577526962481532 
1735	 0.577217140808744 
1736	 0.576915591025374 
1737	 0.576537299720835 
1738	 0.576155005306569 
1739	 0.575755369837664 
1740	 0.575311612086262 
1741	 0.574864376359571 
1742	 0.574389520794542 
1743	 0.573913813105418 
1744	 0.573436820667904 
1745	 0.572929417481868 
1746	 0.572412123444938 
1747	 0.571910392574778 
1748	 0.571352741208291 
1749	 0.570876651424344 
1750	 0.570469410775109 
1751	 0.570008711088707 
1752	 0.569575467483124 
1753	 0.569076430581246 
1754	 0.568513752554279 
1755	 0.568003694650832 
1756	 0.567490008818081 
1757	 0.567044117305568 
1758	 0.566537934454399 
1759	 0.56603786026706 
1760	 0.56553494786968 
1761	 0.564990653804088 
1762	 0.564552689678756 
1763	 0.564169077614361 
1764	 0.563781150512167 
1765	 0.563427532561935 
1766	 0.56305627442502 
1767	 0.562682225756122 
1768	 0.562316816376427 
1769	 0.562000400849983 
1770	 0.561734869764568 
1771	 0.561455897057853 
1772	 0.561189019548764 
1773	 0.560962709732078 
1774	 0.560715992603861 
1775	 0.560445227077314 
1776	 0.560205941653756 
1777	 0.559927850527826 
1778	 0.559657074305451 
1779	 0.559429295807309 
1780	 0.55916338761871 
1781	 0.558906729457025 
1782	 0.55862422923918 
1783	 0.558347980251711 
1784	 0.558137897641404 
1785	 0.557951887067808 
1786	 0.557783916542424 
1787	 0.557643782063517 
1788	 0.557496653576341 
1789	 0.557346852101116 
1790	 0.557223118687097 
1791	 0.557125187185428 
1792	 0.557016197080654 
1793	 0.556933933684971 
1794	 0.556833944030347 
1795	 0.556723614156671 
1796	 0.556625752633091 
1797	 0.556537030848031 
1798	 0.556448996106768 
1799	 0.556329249926788 
1800	 0.556234116981112 
1801	 0.54912800128914 
1802	 0.549300016310597 
1803	 0.549506008832487 
1804	 0.549681915331697 
1805	 0.549947333693211 
1806	 0.550269013467311 
1807	 0.550759671732339 
1808	 0.55110819609928 
1809	 0.551516517198221 
1810	 0.551768401800138 
1811	 0.551885359616115 
1812	 0.552041334970811 
1813	 0.552143947453761 
1814	 0.552216555991671 
1815	 0.55233111944356 
1816	 0.552471985259723 
1817	 0.552479812620406 
1818	 0.552377560599096 
1819	 0.552302500932327 
1820	 0.552172176346769 
1821	 0.552027528219306 
1822	 0.551860507725756 
1823	 0.551741399523798 
1824	 0.551539788863068 
1825	 0.551324845471054 
1826	 0.551132373967067 
1827	 0.550960513251657 
1828	 0.55077178559792 
1829	 0.55056894055958 
1830	 0.550381186342919 
1831	 0.550214429841438 
1832	 0.549989183037556 
1833	 0.549835628253245 
1834	 0.549614705669549 
1835	 0.549388172392042 
1836	 0.54918587849163 
1837	 0.548902679222599 
1838	 0.548558305869077 
1839	 0.548260658245092 
1840	 0.54797090080002 
1841	 0.547597608210655 
1842	 0.547253364479662 
1843	 0.546815289305211 
1844	 0.546220659938761 
1845	 0.545553550213636 
1846	 0.544781393251148 
1847	 0.544018236500707 
1848	 0.543258712567478 
1849	 0.542461082638445 
1850	 0.541639941769262 
1851	 0.540854206584541 
1852	 0.540005128799797 
1853	 0.538996250865239 
1854	 0.53804904215041 
1855	 0.536937100218735 
1856	 0.53569205594608 
1857	 0.534444165227803 
1858	 0.532971565320196 
1859	 0.5314131565566 
1860	 0.529822570706766 
1861	 0.52798730009344 
1862	 0.525960553854811 
1863	 0.52384621059621 
1864	 0.521482473261815 
1865	 0.519095760741842 
1866	 0.516497344684766 
1867	 0.513614099032938 
1868	 0.510869261708376 
1869	 0.507610910683245 
1870	 0.504132834750716 
1871	 0.500531200169432 
1872	 0.496716462780772 
1873	 0.492544762416325 
1874	 0.488268967846396 
1875	 0.483950979897759 
1876	 0.478847572988959 
1877	 0.473549605386964 
1878	 0.468032890618195 
1879	 0.462092653524982 
1880	 0.456478595162031 
1881	 0.450718810202944 
1882	 0.444812606639294 
1883	 0.438927313573168 
1884	 0.433104647395378 
1885	 0.426655712085617 
1886	 0.420470600744561 
1887	 0.414016177173632 
1888	 0.407192999275687 
1889	 0.400853448719715 
1890	 0.394017156839311 
1891	 0.38714898292179 
1892	 0.380344834661461 
1893	 0.373124267448028 
1894	 0.365457155126808 
1895	 0.358076846962829 
1896	 0.35045246609068 
1897	 0.342736574736578 
1898	 0.33583192289129 
1899	 0.328694960797539 
1900	 0.321875405132301 
1901	 0.315488846358856 
1902	 0.308729351777407 
1903	 0.302591885361786 
1904	 0.296840269840341 
1905	 0.291334747901981 
1906	 0.286168454688327 
1907	 0.281950229786404 
1908	 0.277939425577015 
1909	 0.274363099902475 
1910	 0.271331852399214 
1911	 0.268375754262582 
1912	 0.265891700479448 
1913	 0.263737430483145 
1914	 0.261809800931153 
1915	 0.260306383209822 
1916	 0.259261437198328 
1917	 0.258446315735673 
1918	 0.257789783182863 
1919	 0.257445352060201 
1920	 0.257299115321597 
1921	 0.257209361291552 
1922	 0.257295019358236 
1923	 0.257524575191953 
1924	 0.257842597338931 
1925	 0.258254736501712 
1926	 0.258779289108544 
1927	 0.25948799504074 
1928	 0.2602291999955 
1929	 0.261051652069881 
1930	 0.261916818704657 
1931	 0.262887090060669 
1932	 0.263799927270105 
1933	 0.264709324224718 
1934	 0.265732484529477 
1935	 0.266725142994275 
1936	 0.267714020088184 
1937	 0.268772545612346 
1938	 0.269860847234113 
1939	 0.270963841323195 
1940	 0.272117383169511 
1941	 0.273338422353985 
1942	 0.274430758841005 
1943	 0.275507615422985 
1944	 0.276517058074461 
1945	 0.277535838769557 
1946	 0.278668854180902 
1947	 0.279790670241194 
1948	 0.28095480549987 
1949	 0.282114891224992 
1950	 0.283208091566185 
1951	 0.284222126476906 
1952	 0.285283129728045 
1953	 0.286339285251644 
1954	 0.287352706129946 
1955	 0.288438904508431 
1956	 0.289533703481709 
1957	 0.290637210459268 
1958	 0.291807507637737 
1959	 0.292949373253174 
1960	 0.294148798750981 
1961	 0.295282707907232 
1962	 0.29634332252046 
1963	 0.297495290348485 
1964	 0.298709201361355 
1965	 0.29981889907282 
1966	 0.30095269244329 
1967	 0.302069993612276 
1968	 0.303000194923981 
1969	 0.303887505651325 
1970	 0.304832027017119 
1971	 0.30590817831819 
1972	 0.307086646154364 
1973	 0.308328399422949 
1974	 0.309563696229694 
1975	 0.310856753891524 
1976	 0.312143724359754 
1977	 0.313453144648558 
1978	 0.314748891602513 
1979	 0.316068246849454 
1980	 0.317357097170843 
1981	 0.318714298524168 
1982	 0.320008881688314 
1983	 0.321356098335444 
1984	 0.322763416034092 
1985	 0.323966020653255 
1986	 0.325216599996839 
1987	 0.326496742092163 
1988	 0.327694339028915 
1989	 0.329032310973273 
1990	 0.330518391994029 
1991	 0.331917900983103 
1992	 0.33333354655037 
1993	 0.334806316778855 
1994	 0.336061754307703 
1995	 0.337441082885898 
1996	 0.338921227467159 
1997	 0.340371485238872 
1998	 0.341896519607532 
1999	 0.343586585202277 
2000	 0.345127459302468 
2001	 0.346674650917782 
2002	 0.34812964399743 
2003	 0.34952131886132 
2004	 0.350901745107261 
2005	 0.352070620953957 
2006	 0.353438777811622 
2007	 0.354949413965875 
2008	 0.356368780170999 
2009	 0.35786625075612 
2010	 0.35947676167467 
2011	 0.360826628536343 
2012	 0.362260236851479 
2013	 0.363647021315278 
2014	 0.364955457024017 
2015	 0.366315505098534 
2016	 0.367702508739759 
2017	 0.36906700217722 
2018	 0.370523918809801 
2019	 0.371841588264668 
2020	 0.373076260232994 
2021	 0.374288674478503 
2022	 0.375438050263852 
2023	 0.376546141620825 
2024	 0.377733497820495 
2025	 0.378864779095989 
2026	 0.380019518168786 
2027	 0.381160431151636 
2028	 0.382311019676991 
2029	 0.383454838795243 
2030	 0.384678724184698 
2031	 0.385953178560436 
2032	 0.387188274769232 
2033	 0.388485003443527 
2034	 0.389704768740204 
2035	 0.390844360488959 
2036	 0.392079538453004 
2037	 0.393106061546426 
2038	 0.394147624162349 
2039	 0.395114471160143 
2040	 0.395908561131079 
2041	 0.39680031372238 
2042	 0.39772912206997 
2043	 0.398622320342137 
2044	 0.399500177763758 
2045	 0.400393043666351 
2046	 0.401253690453756 
2047	 0.402141425268994 
2048	 0.403033615021853 
2049	 0.403957332911658 
2050	 0.404909713925771 
2051	 0.405892724181259 
2052	 0.406890118697191 
2053	 0.407852386821364 
2054	 0.408707865807514 
2055	 0.40944917129002 
2056	 0.410273364887833 
2057	 0.411045954494844 
2058	 0.411850383881469 
2059	 0.412749457949259 
2060	 0.413535770652402 
2061	 0.414272773297351 
2062	 0.414960486509127 
2063	 0.415526522524021 
2064	 0.41619531665399 
2065	 0.416905595387656 
2066	 0.417546259811235 
2067	 0.418222567314728 
2068	 0.418926438637665 
2069	 0.419673869162431 
2070	 0.420445242916974 
2071	 0.421165499091606 
2072	 0.421974457469358 
2073	 0.422634672499429 
2074	 0.423087167792231 
2075	 0.423719631678317 
2076	 0.424321135272942 
2077	 0.425060583456154 
2078	 0.426075889370982 
2079	 0.426863283398865 
2080	 0.427602560365445 
2081	 0.428339291659126 
2082	 0.428983045328535 
2083	 0.429525552475854 
2084	 0.430249796514898 
2085	 0.430976085176351 
2086	 0.431505926508338 
2087	 0.431862417415436 
2088	 0.432383424253823 
2089	 0.432803163714471 
2090	 0.43332821911402 
2091	 0.434077805321733 
2092	 0.434630920249617 
2093	 0.435044882538705 
2094	 0.435552062059424 
2095	 0.435998597665305 
2096	 0.436541105965913 
2097	 0.437189072594268 
2098	 0.43782440362475 
2099	 0.438394758534782 
2100	 0.439065821323092 
2101	 0.439716261932984 
2102	 0.440341511980027 
2103	 0.44099192148849 
2104	 0.441774982886256 
2105	 0.44233010054431 
2106	 0.442739694736197 
2107	 0.443243446620737 
2108	 0.44363325982061 
2109	 0.444108707942064 
2110	 0.444676576669107 
2111	 0.445227618423042 
2112	 0.445803102250806 
2113	 0.446349848518525 
2114	 0.446938079060415 
2115	 0.447475155554082 
2116	 0.448026768385854 
2117	 0.4484253222104 
2118	 0.448800286863852 
2119	 0.449107962325069 
2120	 0.449430309642176 
2121	 0.449659121815501 
2122	 0.449960189385248 
2123	 0.450280178087814 
2124	 0.450646344498148 
2125	 0.451129137178813 
2126	 0.451439726908133 
2127	 0.451657947250053 
2128	 0.451945393909569 
2129	 0.452236194696099 
2130	 0.45240168813208 
2131	 0.452618810271691 
2132	 0.452720740666858 
2133	 0.45268018122273 
2134	 0.452475515200893 
2135	 0.452322724071466 
2136	 0.45225788885701 
2137	 0.45203531847382 
2138	 0.451687271939045 
2139	 0.451417447870143 
2140	 0.451156320986251 
2141	 0.45076577813031 
2142	 0.450399083764546 
2143	 0.449907689231931 
2144	 0.449199266614104 
2145	 0.448589681319326 
2146	 0.448045225393489 
2147	 0.447324667317854 
2148	 0.446519596838269 
2149	 0.445685874685969 
2150	 0.444811021591991 
2151	 0.443771197305606 
2152	 0.442619220292075 
2153	 0.441451180394657 
2154	 0.440064605716237 
2155	 0.438512927766174 
2156	 0.437030716785147 
2157	 0.435568352286809 
2158	 0.433906113731191 
2159	 0.432197048333058 
2160	 0.430325621130669 
2161	 0.428189068271136 
2162	 0.426183806943048 
2163	 0.424098182739266 
2164	 0.422037513157161 
2165	 0.419951451909422 
2166	 0.417954921736827 
2167	 0.416053986746764 
2168	 0.414048736656182 
2169	 0.412064123699545 
2170	 0.410089325742588 
2171	 0.407937637556544 
2172	 0.405919656935275 
2173	 0.404064014516303 
2174	 0.402112355783537 
2175	 0.400166373850867 
2176	 0.398550460003259 
2177	 0.396862372164975 
2178	 0.395307236086222 
2179	 0.393585876641663 
2180	 0.39174980753538 
2181	 0.390135904772458 
2182	 0.388486011998237 
2183	 0.387033958479093 
2184	 0.385831665112667 
2185	 0.384633182577867 
2186	 0.383643186497701 
2187	 0.382416862298404 
2188	 0.381173231398522 
2189	 0.379916664418969 
2190	 0.378303998546015 
2191	 0.377044976232135 
2192	 0.376116898981626 
2193	 0.37503909967038 
2194	 0.37400170426203 
2195	 0.373045450066236 
2196	 0.37211649421714 
2197	 0.371126186461478 
2198	 0.370276076551426 
2199	 0.369346068116447 
2200	 0.368484484353929 
2201	 0.367586816748421 
2202	 0.366701819896077 
2203	 0.365819572137968 
2204	 0.365151429778692 
2205	 0.364353515063424 
2206	 0.364120859082821 
2207	 0.364448955713268 
2208	 0.364577702903416 
2209	 0.365031211425652 
2210	 0.365242068253781 
2211	 0.365223045335442 
2212	 0.365521008244585 
2213	 0.365739321096238 
2214	 0.366386686770079 
2215	 0.367582845383616 
2216	 0.368474191745972 
2217	 0.369632599287829 
2218	 0.37050309786862 
2219	 0.37097332933584 
2220	 0.371608049566642 
2221	 0.372233941563962 
2222	 0.372854248258422 
2223	 0.373463992597693 
2224	 0.374395996012407 
2225	 0.375035139334559 
2226	 0.375359755342694 
2227	 0.375737786426592 
2228	 0.375900757001551 
2229	 0.376208122494206 
2230	 0.376510712348181 
2231	 0.376936710797254 
2232	 0.377479583402155 
2233	 0.377917856613333 
2234	 0.378542760787336 
2235	 0.378770434469572 
2236	 0.378607004803613 
2237	 0.378776710201192 
2238	 0.37888396516243 
2239	 0.379012751481765 
2240	 0.379474911163109 
2241	 0.379592477644122 
2242	 0.379412186565982 
2243	 0.379337840910237 
2244	 0.378943259904576 
2245	 0.379040655221647 
2246	 0.379478623157591 
2247	 0.37980954328251 
2248	 0.380851135435196 
2249	 0.381145820308218 
2250	 0.380861839175512 
2251	 0.380385077274491 
2252	 0.380487396457463 
2253	 0.38043929956533 
2254	 0.380711336423465 
2255	 0.38128313938734 
2256	 0.381429967516005 
2257	 0.381440187979297 
2258	 0.381413057220501 
2259	 0.381463624744994 
2260	 0.381324551846497 
2261	 0.380945227109296 
2262	 0.38059375693296 
2263	 0.379958392289244 
2264	 0.380049117983237 
2265	 0.380497328366269 
2266	 0.380714912572678 
2267	 0.38154047677551 
2268	 0.381666490762303 
2269	 0.38106167428233 
2270	 0.380890444011926 
2271	 0.38078018217831 
2272	 0.380650300527756 
2273	 0.38077068876913 
2274	 0.38056685780048 
2275	 0.380112705736721 
2276	 0.37967376798372 
2277	 0.378777430607724 
2278	 0.378407257421289 
2279	 0.378545383745382 
2280	 0.378345819701411 
2281	 0.37822327271734 
2282	 0.378157754806383 
2283	 0.377934578266063 
2284	 0.377590716485625 
2285	 0.377792374115964 
2286	 0.377590966308104 
2287	 0.377170618466288 
2288	 0.37696761419733 
2289	 0.376933874633921 
2290	 0.376860077828127 
2291	 0.376024084272345 
2292	 0.374939944271086 
2293	 0.374062768877033 
2294	 0.373024432631907 
2295	 0.372629252521224 
2296	 0.372765377864971 
2297	 0.372366722629705 
2298	 0.371667089968453 
2299	 0.371070965861221 
2300	 0.370352318729728 
2301	 0.369727922609111 
2302	 0.36902905526677 
2303	 0.368497660271778 
2304	 0.368097798536657 
2305	 0.367716542206076 
2306	 0.367460563891408 
2307	 0.367147649443144 
2308	 0.367052111393775 
2309	 0.366535395850822 
2310	 0.365675864923677 
2311	 0.365045856359095 
2312	 0.364168262966067 
2313	 0.363508127978818 
2314	 0.363301734048873 
2315	 0.362515101449383 
2316	 0.361359185405797 
2317	 0.360628035808285 
2318	 0.359843424837751 
2319	 0.359153404662467 
2320	 0.35866111437776 
2321	 0.357926624524679 
2322	 0.357320140395016 
2323	 0.356358326893948 
2324	 0.354959266912263 
2325	 0.354192109838734 
2326	 0.353547610948918 
2327	 0.352486207630411 
2328	 0.351480570385542 
2329	 0.350686878007818 
2330	 0.349407579350931 
2331	 0.348722705581052 
2332	 0.348885774731378 
2333	 0.348987533150903 
2334	 0.348330439546089 
2335	 0.3471177856518 
2336	 0.345315853624646 
2337	 0.344052722871369 
2338	 0.343326703836719 
2339	 0.342904588342238 
2340	 0.342797904683908 
2341	 0.341989336359116 
2342	 0.34162755553437 
2343	 0.340787616635161 
2344	 0.339106581732416 
2345	 0.33879969692774 
2346	 0.338016312488627 
2347	 0.336485482521348 
2348	 0.335330577341872 
2349	 0.333791827345363 
2350	 0.332573247921843 
2351	 0.331965255958646 
2352	 0.331915761183481 
2353	 0.331365872100421 
2354	 0.32968672480563 
2355	 0.328211968267243 
2356	 0.326752547394605 
2357	 0.325715957294714 
2358	 0.32590695906406 
2359	 0.325998523467674 
2360	 0.32540112427305 
2361	 0.324362475848387 
2362	 0.323114790452311 
2363	 0.321900773370488 
2364	 0.321561832431975 
2365	 0.322411747439352 
2366	 0.321888845095802 
2367	 0.320612786377463 
2368	 0.319690543952789 
2369	 0.317349871652928 
2370	 0.315965136361491 
2371	 0.315591732628759 
2372	 0.313890775395889 
2373	 0.312434646341475 
2374	 0.312369937583411 
2375	 0.312160809657954 
2376	 0.31158545912922 
2377	 0.311814225725764 
2378	 0.309731315638158 
2379	 0.306477720015473 
2380	 0.305632380856511 
2381	 0.304967604544426 
2382	 0.304155532051312 
2383	 0.304505234681198 
2384	 0.303946153092179 
2385	 0.302568455242868 
2386	 0.301480446911583 
2387	 0.300618515854779 
2388	 0.299974121585523 
2389	 0.298395833083024 
2390	 0.298490004843657 
2391	 0.301321112604796 
2392	 0.300731957498188 
2393	 0.299126863223482 
2394	 0.297176674878095 
2395	 0.291358446114707 
2396	 0.288678390434484 
2397	 0.288677338284216 
2398	 0.287793481628349 
2399	 0.287660261617686 
2400	 0.287724524031267 
2401	 0.287201998335752 
2402	 0.288949141279115 
2403	 0.289702529890363 
2404	 0.289259982379581 
2405	 0.288336425996308 
2406	 0.285624003677067 
2407	 0.281740317258409 
2408	 0.279862002170915 
2409	 0.279825115139663 
2410	 0.278514821444224 
2411	 0.279550021514228 
2412	 0.280769127762976 
2413	 0.279056402999563 
2414	 0.278637561407991 
2415	 0.278653283449412 
2416	 0.279929193887319 
2417	 0.280675193144085 
2418	 0.279170854872015 
2419	 0.278961611797444 
2420	 0.276676426325106 
2421	 0.273950729687046 
2422	 0.274426569173952 
2423	 0.27293819874062 
2424	 0.270721399348765 
2425	 0.268100233703076 
2426	 0.263088545122122 
2427	 0.259310184033571 
2428	 0.256797376273815 
2429	 0.257978725820862 
2430	 0.259059706258835 
2431	 0.259427555451513 
2432	 0.262842085800387 
2433	 0.260504509334498 
2434	 0.259027389664746 
2435	 0.259334172123696 
2436	 0.255652587223384 
2437	 0.256750901400049 
2438	 0.258386066156747 
2439	 0.25978574734468 
2440	 0.261231090278264 
2441	 0.259940267469034 
2442	 0.258152612415148 
2443	 0.255599055501241 
2444	 0.252507475494402 
2445	 0.247563018574021 
2446	 0.24610143649942 
2447	 0.245921373531559 
2448	 0.247156725474385 
2449	 0.250771195225113 
2450	 0.251880708174832 
2451	 0.255649196232148 
2452	 0.259626521413524 
2453	 0.260692507750595 
2454	 0.255013176459873 
2455	 0.247718442367652 
2456	 0.242629345970768 
2457	 0.234613056972137 
2458	 0.232311685843799 
2459	 0.22980524500251 
2460	 0.228440958433459 
2461	 0.233815682044515 
2462	 0.235610447588057 
2463	 0.238574076089138 
2464	 0.237681158648113 
2465	 0.23063266354745 
2466	 0.232672614825665 
2467	 0.235223032594013 
2468	 0.235912349615516 
2469	 0.235765047215669 
2470	 0.231667797279802 
2471	 0.235125006924328 
2472	 0.234548340272951 
2473	 0.238785619534405 
2474	 0.248042772945022 
2475	 0.248848359344472 
2476	 0.257208870503171 
2477	 0.255174703590422 
2478	 0.244441291157933 
2479	 0.240859463912516 
2480	 0.242298250054597 
2481	 0.243909734501259 
2482	 0.25247895302081 
2483	 0.246608689771212 
2484	 0.231507178129392 
2485	 0.208287328002979 
2486	 0.205690545594752 
2487	 0.21635848380433 
2488	 0.220458323914814 
2489	 0.221808379457859 
2490	 0.225139447971298 
2491	 0.226934513186818 
2492	 0.234821443670951 
2493	 0.252326869406487 
2494	 0.266549397179694 
2495	 0.261932656801742 
2496	 0.24264347965956 
2497	 0.232091699022167 
2498	 0.220215878813131 
2499	 0.211225532070217 
2500	 0.215562394165794 
