Wavelength	A00014.asd.hr
350	 1 
351	 0.999999940395355 
352	 0.937843084335327 
353	 0.743009269237518 
354	 0.754061937332153 
355	 0.722793579101563 
356	 0.707060217857361 
357	 0.755364656448364 
358	 0.73797208070755 
359	 0.691313087940216 
360	 0.663862526416779 
361	 0.683814346790314 
362	 0.64273339509964 
363	 0.593240976333618 
364	 0.572282493114471 
365	 0.578785300254822 
366	 0.580177009105682 
367	 0.580328166484833 
368	 0.582149207592011 
369	 0.558628737926483 
370	 0.542749226093292 
371	 0.535681843757629 
372	 0.52191287279129 
373	 0.495034664869308 
374	 0.48478090763092 
375	 0.495567709207535 
376	 0.495515197515488 
377	 0.492927044630051 
378	 0.484153896570206 
379	 0.4694784283638 
380	 0.468622237443924 
381	 0.4671231508255 
382	 0.459268689155579 
383	 0.446159541606903 
384	 0.437631011009216 
385	 0.432942926883698 
386	 0.43221053481102 
387	 0.43958780169487 
388	 0.433398842811584 
389	 0.42137947678566 
390	 0.416443079710007 
391	 0.420859426259995 
392	 0.414618700742722 
393	 0.403067260980606 
394	 0.404911607503891 
395	 0.403808325529099 
396	 0.399589389562607 
397	 0.395167261362076 
398	 0.395405292510986 
399	 0.391022890806198 
400	 0.382881969213486 
401	 0.376250833272934 
402	 0.382366508245468 
403	 0.380053609609604 
404	 0.372217029333115 
405	 0.37752765417099 
406	 0.373272269964218 
407	 0.367722600698471 
408	 0.367358237504959 
409	 0.36739256978035 
410	 0.366655200719833 
411	 0.365156620740891 
412	 0.363140016794205 
413	 0.358549833297729 
414	 0.356745153665543 
415	 0.358070552349091 
416	 0.35825902223587 
417	 0.355262786149979 
418	 0.353101909160614 
419	 0.35363295674324 
420	 0.35120877623558 
421	 0.350053668022156 
422	 0.349607020616531 
423	 0.347928643226624 
424	 0.347508400678635 
425	 0.346139341592789 
426	 0.344201982021332 
427	 0.3452969789505 
428	 0.344972878694534 
429	 0.343520075082779 
430	 0.342251867055893 
431	 0.342179387807846 
432	 0.3421810567379 
433	 0.341836631298065 
434	 0.341183632612228 
435	 0.34027573466301 
436	 0.339991420507431 
437	 0.34032353758812 
438	 0.339844465255737 
439	 0.338711142539978 
440	 0.33771339058876 
441	 0.33756098151207 
442	 0.33791521191597 
443	 0.337402254343033 
444	 0.33646696805954 
445	 0.336855798959732 
446	 0.336647599935532 
447	 0.336638540029526 
448	 0.337186574935913 
449	 0.336673259735107 
450	 0.336460649967194 
451	 0.336073279380798 
452	 0.334794789552689 
453	 0.334736108779907 
454	 0.334875494241714 
455	 0.334735065698624 
456	 0.334665954113007 
457	 0.334008693695068 
458	 0.333351910114288 
459	 0.3331698179245 
460	 0.332769751548767 
461	 0.332371026277542 
462	 0.33241605758667 
463	 0.333214521408081 
464	 0.332841277122498 
465	 0.332650661468506 
466	 0.33296126127243 
467	 0.331907391548157 
468	 0.331864684820175 
469	 0.332025229930878 
470	 0.33121258020401 
471	 0.330710172653198 
472	 0.330399096012115 
473	 0.330411940813065 
474	 0.330967724323273 
475	 0.330083221197128 
476	 0.328820586204529 
477	 0.328517317771912 
478	 0.330326318740845 
479	 0.330393701791763 
480	 0.329120129346848 
481	 0.328479319810867 
482	 0.328334093093872 
483	 0.328353375196457 
484	 0.328426271677017 
485	 0.328722089529037 
486	 0.328431725502014 
487	 0.328194975852966 
488	 0.328525751829147 
489	 0.328482240438461 
490	 0.328696221113205 
491	 0.329094588756561 
492	 0.329204827547073 
493	 0.328915268182755 
494	 0.328828871250153 
495	 0.329205811023712 
496	 0.329665303230286 
497	 0.329402357339859 
498	 0.329368054866791 
499	 0.330412566661835 
500	 0.330297917127609 
501	 0.330043107271194 
502	 0.330061763525009 
503	 0.330107510089874 
504	 0.329976916313171 
505	 0.330023497343063 
506	 0.330412656068802 
507	 0.330596804618835 
508	 0.331118196249008 
509	 0.331569582223892 
510	 0.331320881843567 
511	 0.33123978972435 
512	 0.331683099269867 
513	 0.332450151443481 
514	 0.332718580961227 
515	 0.332906782627106 
516	 0.333195209503174 
517	 0.33367520570755 
518	 0.334355175495148 
519	 0.334822744131088 
520	 0.33516588807106 
521	 0.335783064365387 
522	 0.336326569318771 
523	 0.337092936038971 
524	 0.33813264966011 
525	 0.338853567838669 
526	 0.339731514453888 
527	 0.340790927410126 
528	 0.341939657926559 
529	 0.343376576900482 
530	 0.344734221696854 
531	 0.345994591712952 
532	 0.347527980804443 
533	 0.348993718624115 
534	 0.350718110799789 
535	 0.35291114449501 
536	 0.355062484741211 
537	 0.35727447271347 
538	 0.359546065330505 
539	 0.361853808164597 
540	 0.364541202783585 
541	 0.36742889881134 
542	 0.370455980300903 
543	 0.373887956142426 
544	 0.377123326063156 
545	 0.380510419607162 
546	 0.384531795978546 
547	 0.388849884271622 
548	 0.393155127763748 
549	 0.397517412900925 
550	 0.402349203824997 
551	 0.407845437526703 
552	 0.41455802321434 
553	 0.422389209270477 
554	 0.429750293493271 
555	 0.437570452690125 
556	 0.445721715688705 
557	 0.45373061299324 
558	 0.46164807677269 
559	 0.469618111848831 
560	 0.477627009153366 
561	 0.485370695590973 
562	 0.492920190095901 
563	 0.500565052032471 
564	 0.508405148983002 
565	 0.515499293804169 
566	 0.522242069244385 
567	 0.529164254665375 
568	 0.536795139312744 
569	 0.543752312660217 
570	 0.551061928272247 
571	 0.559574365615845 
572	 0.567971110343933 
573	 0.577701091766357 
574	 0.58924001455307 
575	 0.601918160915375 
576	 0.613249361515045 
577	 0.622196316719055 
578	 0.62919807434082 
579	 0.635402798652649 
580	 0.641360282897949 
581	 0.647395014762878 
582	 0.653608620166779 
583	 0.659609854221344 
584	 0.666054904460907 
585	 0.673074185848236 
586	 0.680406033992767 
587	 0.687536120414734 
588	 0.694525480270386 
589	 0.70172244310379 
590	 0.709836900234222 
591	 0.716798603534698 
592	 0.72333163022995 
593	 0.730623841285706 
594	 0.73776638507843 
595	 0.744368553161621 
596	 0.750493228435516 
597	 0.756563365459442 
598	 0.762087643146515 
599	 0.767205476760864 
600	 0.772090435028076 
601	 0.776758015155792 
602	 0.78098326921463 
603	 0.785141587257385 
604	 0.789655268192291 
605	 0.793177723884583 
606	 0.796938300132751 
607	 0.801210105419159 
608	 0.804765343666077 
609	 0.808191537857056 
610	 0.811297655105591 
611	 0.813969194889069 
612	 0.816909790039063 
613	 0.819903194904327 
614	 0.822460234165192 
615	 0.824121296405792 
616	 0.826511800289154 
617	 0.829028189182281 
618	 0.831213235855103 
619	 0.833471417427063 
620	 0.835494756698608 
621	 0.837264895439148 
622	 0.839051127433777 
623	 0.84206622838974 
624	 0.843872845172882 
625	 0.844386339187622 
626	 0.84580010175705 
627	 0.847453117370605 
628	 0.849202334880829 
629	 0.85101181268692 
630	 0.853138446807861 
631	 0.854210734367371 
632	 0.854993343353271 
633	 0.85692286491394 
634	 0.858590126037598 
635	 0.860191702842712 
636	 0.861841797828674 
637	 0.863406777381897 
638	 0.864266157150269 
639	 0.865295946598053 
640	 0.867115139961243 
641	 0.868219971656799 
642	 0.869351804256439 
643	 0.870857775211334 
644	 0.872748374938965 
645	 0.874146282672882 
646	 0.875284492969513 
647	 0.876575648784637 
648	 0.878514230251312 
649	 0.880378007888794 
650	 0.881893455982208 
651	 0.883012115955353 
652	 0.88390451669693 
653	 0.885080456733704 
654	 0.886536359786987 
655	 0.887876808643341 
656	 0.889543354511261 
657	 0.891221940517426 
658	 0.892674565315247 
659	 0.894016683101654 
660	 0.895691573619843 
661	 0.897290527820587 
662	 0.898366570472717 
663	 0.899998605251312 
664	 0.901836812496185 
665	 0.903468608856201 
666	 0.904560148715973 
667	 0.906482875347137 
668	 0.908034861087799 
669	 0.908578276634216 
670	 0.910228550434113 
671	 0.913034677505493 
672	 0.915680527687073 
673	 0.916660308837891 
674	 0.918157756328583 
675	 0.91975474357605 
676	 0.921294450759888 
677	 0.923141419887543 
678	 0.924176156520844 
679	 0.925299108028412 
680	 0.927297055721283 
681	 0.929048001766205 
682	 0.931271255016327 
683	 0.933424890041351 
684	 0.934469521045685 
685	 0.935001015663147 
686	 0.935852229595184 
687	 0.937383770942688 
688	 0.939277291297913 
689	 0.941250443458557 
690	 0.943352997303009 
691	 0.945557713508606 
692	 0.947266042232513 
693	 0.94866555929184 
694	 0.950108885765076 
695	 0.951918005943298 
696	 0.9528928399086 
697	 0.953766524791718 
698	 0.955303430557251 
699	 0.95804363489151 
700	 0.959531903266907 
701	 0.960243165493011 
702	 0.96142715215683 
703	 0.963656365871429 
704	 0.965307772159576 
705	 0.966195166110992 
706	 0.967225074768066 
707	 0.969269454479218 
708	 0.970921099185944 
709	 0.971818685531616 
710	 0.973902344703674 
711	 0.974571764469147 
712	 0.974489033222198 
713	 0.975111067295074 
714	 0.976847529411316 
715	 0.978470325469971 
716	 0.979594111442566 
717	 0.980532169342041 
718	 0.981773376464844 
719	 0.983000814914703 
720	 0.984066784381866 
721	 0.985377907752991 
722	 0.985410690307617 
723	 0.985383927822113 
724	 0.986646413803101 
725	 0.987440645694733 
726	 0.988480985164642 
727	 0.989669144153595 
728	 0.990330278873444 
729	 0.990230202674866 
730	 0.990747272968292 
731	 0.992272794246674 
732	 0.993297636508942 
733	 0.993819892406464 
734	 0.993989706039429 
735	 0.994260728359222 
736	 0.99591726064682 
737	 0.996803998947144 
738	 0.996772170066834 
739	 0.997040092945099 
740	 0.997775912284851 
741	 0.997972726821899 
742	 0.99741804599762 
743	 0.997296273708344 
744	 0.998074471950531 
745	 0.999174833297729 
746	 0.999768972396851 
747	 0.999350428581238 
748	 0.998699307441711 
749	 0.998379766941071 
750	 0.998743891716003 
751	 0.999999940395355 
752	 0.999999940395355 
753	 0.998644709587097 
754	 0.9985231757164 
755	 0.998430371284485 
756	 0.998487770557404 
757	 0.998791217803955 
758	 0.998575747013092 
759	 0.998088181018829 
760	 0.997679352760315 
761	 0.997731745243073 
762	 0.998437762260437 
763	 0.998976707458496 
764	 0.999194085597992 
765	 0.999688923358917 
766	 1 
767	 0.999545037746429 
768	 0.998218834400177 
769	 0.99878340959549 
770	 0.999267339706421 
771	 0.99898099899292 
772	 0.99787050485611 
773	 0.996391415596008 
774	 0.996293485164642 
775	 0.997467577457428 
776	 0.998322367668152 
777	 0.999474823474884 
778	 0.99978893995285 
779	 0.999012768268585 
780	 0.99866396188736 
781	 0.999214947223663 
782	 0.999343991279602 
783	 0.998011410236359 
784	 0.99709552526474 
785	 0.996326565742493 
786	 0.995848953723907 
787	 0.995842397212982 
788	 0.995123624801636 
789	 0.994477510452271 
790	 0.994274199008942 
791	 0.99416047334671 
792	 0.99406498670578 
793	 0.993868231773376 
794	 0.993584275245667 
795	 0.993545770645142 
796	 0.993652641773224 
797	 0.992913782596588 
798	 0.990871906280518 
799	 0.991096973419189 
800	 0.991364002227783 
801	 0.990867793560028 
802	 0.990092396736145 
803	 0.98870313167572 
804	 0.987454473972321 
805	 0.986756145954132 
806	 0.986294209957123 
807	 0.985780537128448 
808	 0.986066102981567 
809	 0.987282574176788 
810	 0.986554622650146 
811	 0.986051917076111 
812	 0.985825061798096 
813	 0.985089182853699 
814	 0.984031021595001 
815	 0.983911633491516 
816	 0.984015226364136 
817	 0.98214852809906 
818	 0.980835378170013 
819	 0.979513466358185 
820	 0.978135824203491 
821	 0.978220403194427 
822	 0.978923976421356 
823	 0.978697299957275 
824	 0.976989924907684 
825	 0.976735711097717 
826	 0.97737455368042 
827	 0.977109491825104 
828	 0.9747034907341 
829	 0.975578904151917 
830	 0.976113021373749 
831	 0.975196897983551 
832	 0.974342942237854 
833	 0.972611486911774 
834	 0.971776783466339 
835	 0.97237354516983 
836	 0.972528159618378 
837	 0.971800208091736 
838	 0.97067666053772 
839	 0.969669222831726 
840	 0.968429028987885 
841	 0.967522978782654 
842	 0.967708468437195 
843	 0.969088017940521 
844	 0.968609213829041 
845	 0.967619597911835 
846	 0.966246604919434 
847	 0.964086711406708 
848	 0.965505480766296 
849	 0.966520845890045 
850	 0.965377986431122 
851	 0.964383542537689 
852	 0.964310467243195 
853	 0.963956534862518 
854	 0.962653517723084 
855	 0.961776971817017 
856	 0.962003350257874 
857	 0.962777614593506 
858	 0.963084161281586 
859	 0.962075412273407 
860	 0.960943222045898 
861	 0.960218727588654 
862	 0.960066676139832 
863	 0.961162388324738 
864	 0.960571050643921 
865	 0.958847403526306 
866	 0.959341704845428 
867	 0.959591269493103 
868	 0.959768772125244 
869	 0.959703743457794 
870	 0.958407759666443 
871	 0.958971917629242 
872	 0.959226548671722 
873	 0.957820296287537 
874	 0.957788527011871 
875	 0.958087384700775 
876	 0.958289742469788 
877	 0.958353042602539 
878	 0.959241628646851 
879	 0.958782315254211 
880	 0.957077980041504 
881	 0.955722093582153 
882	 0.95724093914032 
883	 0.958332479000092 
884	 0.957992196083069 
885	 0.957408130168915 
886	 0.957486391067505 
887	 0.958036303520203 
888	 0.958443641662598 
889	 0.957918643951416 
890	 0.957297623157501 
891	 0.957764983177185 
892	 0.959224998950958 
893	 0.959436535835266 
894	 0.959453463554382 
895	 0.95915675163269 
896	 0.958550333976746 
897	 0.958613753318787 
898	 0.958970487117767 
899	 0.95889276266098 
900	 0.958068132400513 
901	 0.95811915397644 
902	 0.958666384220123 
903	 0.959245800971985 
904	 0.959486842155457 
905	 0.959887266159058 
906	 0.959398925304413 
907	 0.958622813224792 
908	 0.959099590778351 
909	 0.959363222122192 
910	 0.96038818359375 
911	 0.961995005607605 
912	 0.962706208229065 
913	 0.962429881095886 
914	 0.962374925613403 
915	 0.963099956512451 
916	 0.963919281959534 
917	 0.963756918907166 
918	 0.963819086551666 
919	 0.96473228931427 
920	 0.965160012245178 
921	 0.965307354927063 
922	 0.965373277664185 
923	 0.96539717912674 
924	 0.964825868606567 
925	 0.96581369638443 
926	 0.967430353164673 
927	 0.968046009540558 
928	 0.967386305332184 
929	 0.966921269893646 
930	 0.96743255853653 
931	 0.9688840508461 
932	 0.969493865966797 
933	 0.970804750919342 
934	 0.972618103027344 
935	 0.973816275596619 
936	 0.974292695522308 
937	 0.974021434783936 
938	 0.973369657993317 
939	 0.972895741462708 
940	 0.972472369670868 
941	 0.973035633563995 
942	 0.974576234817505 
943	 0.976025402545929 
944	 0.975093007087708 
945	 0.974869728088379 
946	 0.976274788379669 
947	 0.977230429649353 
948	 0.976973295211792 
949	 0.975670576095581 
950	 0.974663734436035 
951	 0.976150214672089 
952	 0.978134393692017 
953	 0.979026973247528 
954	 0.978769838809967 
955	 0.979345679283142 
956	 0.98090010881424 
957	 0.981343984603882 
958	 0.980280041694641 
959	 0.980871438980103 
960	 0.980618059635162 
961	 0.981018841266632 
962	 0.982728183269501 
963	 0.98303347826004 
964	 0.98243647813797 
965	 0.982598006725311 
966	 0.983994960784912 
967	 0.983786046504974 
968	 0.983441710472107 
969	 0.982933938503265 
970	 0.982363402843475 
971	 0.983037412166595 
972	 0.985205948352814 
973	 0.98693573474884 
974	 0.986954092979431 
975	 0.987891733646393 
976	 0.987626731395721 
977	 0.986844420433044 
978	 0.987112641334534 
979	 0.989760518074036 
980	 0.992662608623505 
981	 0.99430114030838 
982	 0.994326889514923 
983	 0.99499249458313 
984	 0.995626747608185 
985	 0.996169567108154 
986	 0.996736884117126 
987	 0.997584521770477 
988	 0.996873140335083 
989	 0.996521353721619 
990	 0.998340547084808 
991	 0.999043941497803 
992	 0.999925136566162 
993	 0.999890267848969 
994	 0.998285353183746 
995	 0.998606562614441 
996	 0.998375475406647 
997	 0.998127698898315 
998	 0.998892545700073 
999	 0.999603152275085 
1000	 1 
1001	 0.994134783744812 
1002	 0.99444568157196 
1003	 0.99484121799469 
1004	 0.995103061199188 
1005	 0.995259881019592 
1006	 0.995460569858551 
1007	 0.995606660842896 
1008	 0.995827436447144 
1009	 0.996072769165039 
1010	 0.996344327926636 
1011	 0.996716141700745 
1012	 0.996977925300598 
1013	 0.997193157672882 
1014	 0.997410953044891 
1015	 0.99762749671936 
1016	 0.997731566429138 
1017	 0.997828304767609 
1018	 0.998005926609039 
1019	 0.99819403886795 
1020	 0.998371481895447 
1021	 0.998451471328735 
1022	 0.99854975938797 
1023	 0.998564660549164 
1024	 0.998284101486206 
1025	 0.99832409620285 
1026	 0.998539686203003 
1027	 0.998701632022858 
1028	 0.998932600021362 
1029	 0.999311208724976 
1030	 0.999465882778168 
1031	 0.999405980110168 
1032	 0.999386787414551 
1033	 0.999413013458252 
1034	 0.999414145946503 
1035	 0.999417185783386 
1036	 0.999453783035278 
1037	 0.999471366405487 
1038	 0.999544680118561 
1039	 0.999706149101257 
1040	 0.999814450740814 
1041	 0.999924421310425 
1042	 0.999971330165863 
1043	 0.999981939792633 
1044	 1 
1045	 0.999991655349731 
1046	 1 
1047	 0.999912261962891 
1048	 0.999818861484528 
1049	 0.999801814556122 
1050	 0.999763071537018 
1051	 0.999903380870819 
1052	 1 
1053	 0.999996542930603 
1054	 0.999870777130127 
1055	 0.999834716320038 
1056	 0.999667704105377 
1057	 0.999679207801819 
1058	 0.999865651130676 
1059	 0.999934911727905 
1060	 0.999959647655487 
1061	 0.999986529350281 
1062	 0.999959468841553 
1063	 0.999999940395355 
1064	 0.999998331069946 
1065	 1 
1066	 0.999983787536621 
1067	 0.999886929988861 
1068	 0.999888896942139 
1069	 0.999898791313171 
1070	 0.999909341335297 
1071	 0.999923646450043 
1072	 0.999971926212311 
1073	 0.999991118907928 
1074	 1 
1075	 1 
1076	 1 
1077	 0.999946475028992 
1078	 0.999916911125183 
1079	 0.999976992607117 
1080	 0.999999940395355 
1081	 0.999964594841003 
1082	 0.999961793422699 
1083	 0.99994295835495 
1084	 0.999908924102783 
1085	 0.999930799007416 
1086	 0.999906241893768 
1087	 0.999859213829041 
1088	 0.999775648117065 
1089	 0.999744474887848 
1090	 0.999688744544983 
1091	 0.999704778194427 
1092	 0.999720215797424 
1093	 0.999686062335968 
1094	 0.999772131443024 
1095	 0.99989265203476 
1096	 1 
1097	 1 
1098	 0.999974131584167 
1099	 1 
1100	 0.999922871589661 
1101	 0.999920248985291 
1102	 0.999993443489075 
1103	 1 
1104	 0.999932169914246 
1105	 0.999944269657135 
1106	 0.999936521053314 
1107	 0.999865472316742 
1108	 0.999887883663177 
1109	 0.999930024147034 
1110	 0.99996155500412 
1111	 1 
1112	 0.999949932098389 
1113	 0.999801516532898 
1114	 0.999703288078308 
1115	 0.999608814716339 
1116	 0.999560058116913 
1117	 0.999576270580292 
1118	 0.99954628944397 
1119	 0.999459624290466 
1120	 0.999451398849487 
1121	 0.99946004152298 
1122	 0.999503672122955 
1123	 0.999566853046417 
1124	 0.999678611755371 
1125	 0.999861478805542 
1126	 0.999951899051666 
1127	 0.999964892864227 
1128	 1 
1129	 1 
1130	 0.999937236309052 
1131	 0.999966144561768 
1132	 0.999995827674866 
1133	 0.999957680702209 
1134	 0.999849319458008 
1135	 0.999799370765686 
1136	 0.999760508537292 
1137	 0.999684572219849 
1138	 0.999680876731873 
1139	 0.999579787254334 
1140	 0.999424338340759 
1141	 0.999155342578888 
1142	 0.998921513557434 
1143	 0.998650729656219 
1144	 0.998315989971161 
1145	 0.997907757759094 
1146	 0.997389733791351 
1147	 0.99678498506546 
1148	 0.996236622333527 
1149	 0.99580329656601 
1150	 0.99542897939682 
1151	 0.995147407054901 
1152	 0.994927763938904 
1153	 0.994779109954834 
1154	 0.994660675525665 
1155	 0.994661629199982 
1156	 0.994606733322144 
1157	 0.994553804397583 
1158	 0.994512140750885 
1159	 0.994480788707733 
1160	 0.994399428367615 
1161	 0.994370520114899 
1162	 0.994350612163544 
1163	 0.994285225868225 
1164	 0.994301319122314 
1165	 0.994369328022003 
1166	 0.99445652961731 
1167	 0.994591236114502 
1168	 0.994715571403503 
1169	 0.994911849498749 
1170	 0.995155870914459 
1171	 0.995412230491638 
1172	 0.995789885520935 
1173	 0.996041178703308 
1174	 0.996272444725037 
1175	 0.996404826641083 
1176	 0.996409952640533 
1177	 0.996467590332031 
1178	 0.996460318565369 
1179	 0.996517956256866 
1180	 0.996645152568817 
1181	 0.996690332889557 
1182	 0.996721386909485 
1183	 0.996775150299072 
1184	 0.996840059757233 
1185	 0.996870338916779 
1186	 0.996902942657471 
1187	 0.996931612491608 
1188	 0.997000515460968 
1189	 0.997052133083344 
1190	 0.997163414955139 
1191	 0.997343182563782 
1192	 0.997500538825989 
1193	 0.997685432434082 
1194	 0.997834861278534 
1195	 0.998029410839081 
1196	 0.998128712177277 
1197	 0.998150169849396 
1198	 0.99816632270813 
1199	 0.998152792453766 
1200	 0.998180270195007 
1201	 0.998279213905334 
1202	 0.998348593711853 
1203	 0.998449921607971 
1204	 0.998535990715027 
1205	 0.998629629611969 
1206	 0.998724639415741 
1207	 0.998846173286438 
1208	 0.998997449874878 
1209	 0.999111592769623 
1210	 0.999248802661896 
1211	 0.999315917491913 
1212	 0.999331414699554 
1213	 0.999337613582611 
1214	 0.999316155910492 
1215	 0.999272584915161 
1216	 0.999189376831055 
1217	 0.999126136302948 
1218	 0.999028384685516 
1219	 0.99896103143692 
1220	 0.998945891857147 
1221	 0.998900234699249 
1222	 0.998860538005829 
1223	 0.998892247676849 
1224	 0.998912036418915 
1225	 0.998955190181732 
1226	 0.99897301197052 
1227	 0.99899160861969 
1228	 0.999004602432251 
1229	 0.998995006084442 
1230	 0.999016463756561 
1231	 0.999052464962006 
1232	 0.999102771282196 
1233	 0.99922102689743 
1234	 0.999234080314636 
1235	 0.999179840087891 
1236	 0.999166190624237 
1237	 0.999054312705994 
1238	 0.999042570590973 
1239	 0.999081432819366 
1240	 0.99920254945755 
1241	 0.999384105205536 
1242	 0.999542474746704 
1243	 0.999674439430237 
1244	 0.999838173389435 
1245	 0.999933898448944 
1246	 0.999997079372406 
1247	 1 
1248	 1 
1249	 1 
1250	 0.999928832054138 
1251	 0.999880731105804 
1252	 0.999829173088074 
1253	 0.999790251255035 
1254	 0.999729573726654 
1255	 0.999692320823669 
1256	 0.999687314033508 
1257	 0.999682307243347 
1258	 0.99966299533844 
1259	 0.999678134918213 
1260	 0.999736607074738 
1261	 0.999769389629364 
1262	 0.999784469604492 
1263	 0.999850571155548 
1264	 0.9998978972435 
1265	 0.999950289726257 
1266	 0.999955713748932 
1267	 0.999941051006317 
1268	 0.999954879283905 
1269	 0.999941468238831 
1270	 0.999939620494843 
1271	 1 
1272	 1 
1273	 1 
1274	 1 
1275	 0.999958634376526 
1276	 0.999947071075439 
1277	 0.999896943569183 
1278	 0.999895870685577 
1279	 0.999966442584991 
1280	 0.999982476234436 
1281	 0.999976515769959 
1282	 0.999989748001099 
1283	 0.999995887279511 
1284	 0.999987542629242 
1285	 0.999978721141815 
1286	 1 
1287	 0.999997854232788 
1288	 0.999953746795654 
1289	 0.999922394752502 
1290	 0.999861180782318 
1291	 0.99985533952713 
1292	 0.999857366085052 
1293	 0.999883115291595 
1294	 0.999999642372131 
1295	 1 
1296	 1 
1297	 1 
1298	 0.999929845333099 
1299	 0.999907553195953 
1300	 0.999898493289948 
1301	 0.999878406524658 
1302	 0.999860942363739 
1303	 0.999838292598724 
1304	 0.999769806861877 
1305	 0.999764621257782 
1306	 0.99979966878891 
1307	 0.999830901622772 
1308	 0.999915480613709 
1309	 0.99999213218689 
1310	 1 
1311	 1 
1312	 0.999996602535248 
1313	 0.999942779541016 
1314	 0.999911665916443 
1315	 0.999887228012085 
1316	 0.999833762645721 
1317	 0.999781668186188 
1318	 0.999680519104004 
1319	 0.999558329582214 
1320	 0.999393999576569 
1321	 0.999176323413849 
1322	 0.998964190483093 
1323	 0.998700141906738 
1324	 0.998480975627899 
1325	 0.998271644115448 
1326	 0.998069882392883 
1327	 0.99793803691864 
1328	 0.997721076011658 
1329	 0.997450530529022 
1330	 0.997197449207306 
1331	 0.996927440166473 
1332	 0.996621012687683 
1333	 0.996326744556427 
1334	 0.995988667011261 
1335	 0.995636165142059 
1336	 0.995216190814972 
1337	 0.994858384132385 
1338	 0.994536280632019 
1339	 0.994155526161194 
1340	 0.993753969669342 
1341	 0.993376314640045 
1342	 0.992976725101471 
1343	 0.99258416891098 
1344	 0.992203652858734 
1345	 0.991840183734894 
1346	 0.991466820240021 
1347	 0.991110920906067 
1348	 0.990827977657318 
1349	 0.990456759929657 
1350	 0.990060389041901 
1351	 0.98962128162384 
1352	 0.989085793495178 
1353	 0.988616347312927 
1354	 0.988161444664001 
1355	 0.987682938575745 
1356	 0.987246036529541 
1357	 0.986760139465332 
1358	 0.986255288124084 
1359	 0.98568868637085 
1360	 0.985137343406677 
1361	 0.984477162361145 
1362	 0.983631491661072 
1363	 0.982781231403351 
1364	 0.981844544410706 
1365	 0.980824708938599 
1366	 0.979683995246887 
1367	 0.978508532047272 
1368	 0.977153062820435 
1369	 0.975644469261169 
1370	 0.974016606807709 
1371	 0.9722980260849 
1372	 0.970406770706177 
1373	 0.968397498130798 
1374	 0.966147363185883 
1375	 0.963721334934235 
1376	 0.961066246032715 
1377	 0.958212077617645 
1378	 0.955045282840729 
1379	 0.951642990112305 
1380	 0.947959780693054 
1381	 0.944063365459442 
1382	 0.939731240272522 
1383	 0.93505585193634 
1384	 0.930112898349762 
1385	 0.924821436405182 
1386	 0.919279873371124 
1387	 0.913467824459076 
1388	 0.90757155418396 
1389	 0.901381313800812 
1390	 0.895151197910309 
1391	 0.888999819755554 
1392	 0.882363021373749 
1393	 0.876011550426483 
1394	 0.86957722902298 
1395	 0.863318264484406 
1396	 0.857160210609436 
1397	 0.851193964481354 
1398	 0.845304727554321 
1399	 0.839603006839752 
1400	 0.834050416946411 
1401	 0.828703165054321 
1402	 0.823450803756714 
1403	 0.81850391626358 
1404	 0.813733041286469 
1405	 0.809400081634521 
1406	 0.80526876449585 
1407	 0.801629722118378 
1408	 0.798371732234955 
1409	 0.79553085565567 
1410	 0.793083012104034 
1411	 0.791030049324036 
1412	 0.789399206638336 
1413	 0.78813362121582 
1414	 0.787190556526184 
1415	 0.786691129207611 
1416	 0.786738455295563 
1417	 0.786899328231812 
1418	 0.7874715924263 
1419	 0.788127958774567 
1420	 0.78895115852356 
1421	 0.789884567260742 
1422	 0.791015982627869 
1423	 0.792215824127197 
1424	 0.793506503105164 
1425	 0.794926345348358 
1426	 0.796351850032806 
1427	 0.797822892665863 
1428	 0.799296855926514 
1429	 0.80068302154541 
1430	 0.802140355110168 
1431	 0.803605675697327 
1432	 0.805113673210144 
1433	 0.806667387485504 
1434	 0.808206915855408 
1435	 0.809771656990051 
1436	 0.811337947845459 
1437	 0.812910377979279 
1438	 0.814452767372131 
1439	 0.816031277179718 
1440	 0.81751811504364 
1441	 0.818957448005676 
1442	 0.820369720458984 
1443	 0.821734189987183 
1444	 0.823079824447632 
1445	 0.824424743652344 
1446	 0.825672388076782 
1447	 0.826900959014893 
1448	 0.828006207942963 
1449	 0.828991532325745 
1450	 0.829957127571106 
1451	 0.830842673778534 
1452	 0.831692755222321 
1453	 0.832543849945068 
1454	 0.833272933959961 
1455	 0.833864629268646 
1456	 0.834485530853271 
1457	 0.834994554519653 
1458	 0.835580229759216 
1459	 0.836204469203949 
1460	 0.836845636367798 
1461	 0.837480366230011 
1462	 0.838186204433441 
1463	 0.838911890983582 
1464	 0.839714527130127 
1465	 0.84056168794632 
1466	 0.841515719890594 
1467	 0.842505931854248 
1468	 0.843646824359894 
1469	 0.844969928264618 
1470	 0.84630274772644 
1471	 0.84771740436554 
1472	 0.849238395690918 
1473	 0.850797772407532 
1474	 0.85242086648941 
1475	 0.854051411151886 
1476	 0.85575145483017 
1477	 0.857463002204895 
1478	 0.859164357185364 
1479	 0.860917866230011 
1480	 0.862734317779541 
1481	 0.864558279514313 
1482	 0.866436541080475 
1483	 0.868264317512512 
1484	 0.87011843919754 
1485	 0.871921420097351 
1486	 0.873698770999908 
1487	 0.875398695468903 
1488	 0.877059578895569 
1489	 0.878679633140564 
1490	 0.880217850208282 
1491	 0.881756544113159 
1492	 0.883275330066681 
1493	 0.884776890277863 
1494	 0.886220276355743 
1495	 0.887690305709839 
1496	 0.88916939496994 
1497	 0.890637278556824 
1498	 0.89213240146637 
1499	 0.893573462963104 
1500	 0.894975960254669 
1501	 0.896377980709076 
1502	 0.897782623767853 
1503	 0.899113357067108 
1504	 0.9003626704216 
1505	 0.901672542095184 
1506	 0.902958929538727 
1507	 0.904249846935272 
1508	 0.905620455741882 
1509	 0.90692937374115 
1510	 0.908142447471619 
1511	 0.9094118475914 
1512	 0.910699009895325 
1513	 0.911984920501709 
1514	 0.913323938846588 
1515	 0.914620101451874 
1516	 0.915858924388886 
1517	 0.91713958978653 
1518	 0.918468534946442 
1519	 0.919721305370331 
1520	 0.92098081111908 
1521	 0.922190725803375 
1522	 0.923267602920532 
1523	 0.924405932426453 
1524	 0.92554384469986 
1525	 0.926688551902771 
1526	 0.927823126316071 
1527	 0.92898428440094 
1528	 0.930069983005524 
1529	 0.931098580360413 
1530	 0.932189166545868 
1531	 0.93327385187149 
1532	 0.934351801872253 
1533	 0.935464441776276 
1534	 0.936550140380859 
1535	 0.93761283159256 
1536	 0.938644468784332 
1537	 0.939680516719818 
1538	 0.94068318605423 
1539	 0.941637217998505 
1540	 0.942583799362183 
1541	 0.943545460700989 
1542	 0.94443291425705 
1543	 0.945260941982269 
1544	 0.946075439453125 
1545	 0.946831822395325 
1546	 0.947625935077667 
1547	 0.948403179645538 
1548	 0.949207246303558 
1549	 0.950040340423584 
1550	 0.950857043266296 
1551	 0.951685011386871 
1552	 0.952486097812653 
1553	 0.953287959098816 
1554	 0.954051613807678 
1555	 0.95480215549469 
1556	 0.955502808094025 
1557	 0.956112921237946 
1558	 0.956818640232086 
1559	 0.95751816034317 
1560	 0.958260297775269 
1561	 0.959097266197205 
1562	 0.959878444671631 
1563	 0.960683524608612 
1564	 0.961401402950287 
1565	 0.962052881717682 
1566	 0.962734520435333 
1567	 0.963340044021606 
1568	 0.964020073413849 
1569	 0.964805424213409 
1570	 0.965485751628876 
1571	 0.966137409210205 
1572	 0.966772794723511 
1573	 0.967337250709534 
1574	 0.967931032180786 
1575	 0.968530893325806 
1576	 0.969133913516998 
1577	 0.969733417034149 
1578	 0.970336496829987 
1579	 0.970954835414886 
1580	 0.971557438373566 
1581	 0.972151398658752 
1582	 0.972744882106781 
1583	 0.973363518714905 
1584	 0.973921418190002 
1585	 0.974447131156921 
1586	 0.974959969520569 
1587	 0.975411295890808 
1588	 0.975887775421143 
1589	 0.976400077342987 
1590	 0.976854085922241 
1591	 0.977275371551514 
1592	 0.977691888809204 
1593	 0.978022992610931 
1594	 0.978445291519165 
1595	 0.978945195674896 
1596	 0.97939121723175 
1597	 0.979891717433929 
1598	 0.980311334133148 
1599	 0.980638325214386 
1600	 0.9809929728508 
1601	 0.981352210044861 
1602	 0.98166561126709 
1603	 0.981961607933044 
1604	 0.982234179973602 
1605	 0.982453167438507 
1606	 0.982672691345215 
1607	 0.982871174812317 
1608	 0.983085155487061 
1609	 0.983288705348969 
1610	 0.983501553535461 
1611	 0.983685314655304 
1612	 0.98395174741745 
1613	 0.98429411649704 
1614	 0.984596312046051 
1615	 0.984941363334656 
1616	 0.985272645950317 
1617	 0.985529661178589 
1618	 0.985852122306824 
1619	 0.986273527145386 
1620	 0.986619293689728 
1621	 0.986918568611145 
1622	 0.987257897853851 
1623	 0.987575948238373 
1624	 0.987910330295563 
1625	 0.988333940505981 
1626	 0.988677322864532 
1627	 0.98895126581192 
1628	 0.98924332857132 
1629	 0.989494562149048 
1630	 0.989771902561188 
1631	 0.990098476409912 
1632	 0.990375876426697 
1633	 0.99060982465744 
1634	 0.990882515907288 
1635	 0.991153001785278 
1636	 0.991414785385132 
1637	 0.991695463657379 
1638	 0.991976737976074 
1639	 0.992202281951904 
1640	 0.992515087127686 
1641	 0.99290919303894 
1642	 0.993274748325348 
1643	 0.993695437908173 
1644	 0.994059503078461 
1645	 0.994376122951508 
1646	 0.994705438613892 
1647	 0.995025515556335 
1648	 0.99533224105835 
1649	 0.99560534954071 
1650	 0.995927214622498 
1651	 0.996294260025024 
1652	 0.996607601642609 
1653	 0.996929943561554 
1654	 0.997230410575867 
1655	 0.997484803199768 
1656	 0.997720956802368 
1657	 0.99796062707901 
1658	 0.998172998428345 
1659	 0.998328983783722 
1660	 0.998510599136353 
1661	 0.998694658279419 
1662	 0.998868465423584 
1663	 0.999082565307617 
1664	 0.999202847480774 
1665	 0.999248087406158 
1666	 0.999330520629883 
1667	 0.999321341514587 
1668	 0.999413669109344 
1669	 0.999640226364136 
1670	 0.999764680862427 
1671	 0.999886751174927 
1672	 0.999969184398651 
1673	 0.999999940395355 
1674	 0.999996066093445 
1675	 0.999976634979248 
1676	 0.999911069869995 
1677	 0.999751210212708 
1678	 0.9996377825737 
1679	 0.999513387680054 
1680	 0.999406099319458 
1681	 0.999291002750397 
1682	 0.999225080013275 
1683	 0.999167323112488 
1684	 0.999164700508118 
1685	 0.999222457408905 
1686	 0.999291896820068 
1687	 0.999435245990753 
1688	 0.999505639076233 
1689	 0.999586880207062 
1690	 0.999601423740387 
1691	 0.999542832374573 
1692	 0.999490261077881 
1693	 0.999406576156616 
1694	 0.999343812465668 
1695	 0.999228537082672 
1696	 0.999216139316559 
1697	 0.999255418777466 
1698	 0.999293625354767 
1699	 0.999401450157166 
1700	 0.999507606029511 
1701	 0.999633193016052 
1702	 0.999703586101532 
1703	 0.999768257141113 
1704	 0.999818563461304 
1705	 0.999806344509125 
1706	 0.99987667798996 
1707	 0.999959707260132 
1708	 0.999972403049469 
1709	 0.999996900558472 
1710	 1 
1711	 1 
1712	 1 
1713	 0.999981224536896 
1714	 0.99989241361618 
1715	 0.999860286712646 
1716	 0.999861896038055 
1717	 0.999882400035858 
1718	 0.999961912631989 
1719	 0.999969840049744 
1720	 0.999949634075165 
1721	 0.999940574169159 
1722	 0.999946475028992 
1723	 0.999982476234436 
1724	 0.999982118606567 
1725	 0.999948680400848 
1726	 0.999845921993256 
1727	 0.999718368053436 
1728	 0.999715864658356 
1729	 0.999753713607788 
1730	 0.999790668487549 
1731	 0.999916255474091 
1732	 0.999944984912872 
1733	 0.999926388263702 
1734	 1 
1735	 1 
1736	 0.999976754188538 
1737	 0.999947905540466 
1738	 0.99970531463623 
1739	 0.999553501605988 
1740	 0.999397695064545 
1741	 0.999249160289764 
1742	 0.999154984951019 
1743	 0.999016225337982 
1744	 0.998820424079895 
1745	 0.998660624027252 
1746	 0.998525857925415 
1747	 0.998387634754181 
1748	 0.998258054256439 
1749	 0.998123645782471 
1750	 0.997952461242676 
1751	 0.997816503047943 
1752	 0.99772572517395 
1753	 0.997618794441223 
1754	 0.997523128986359 
1755	 0.997436702251434 
1756	 0.997342884540558 
1757	 0.997250080108643 
1758	 0.997139394283295 
1759	 0.997054278850555 
1760	 0.996919810771942 
1761	 0.99675589799881 
1762	 0.996654272079468 
1763	 0.996548712253571 
1764	 0.996432423591614 
1765	 0.996306538581848 
1766	 0.996123671531677 
1767	 0.995936214923859 
1768	 0.995768547058105 
1769	 0.995651245117188 
1770	 0.995636224746704 
1771	 0.995550990104675 
1772	 0.995452463626862 
1773	 0.995339035987854 
1774	 0.995132803916931 
1775	 0.995012044906616 
1776	 0.994910895824432 
1777	 0.994895040988922 
1778	 0.994955599308014 
1779	 0.994866251945496 
1780	 0.99482250213623 
1781	 0.994817912578583 
1782	 0.994646668434143 
1783	 0.994606614112854 
1784	 0.99465674161911 
1785	 0.994604706764221 
1786	 0.994642198085785 
1787	 0.994710981845856 
1788	 0.994818508625031 
1789	 0.994971096515656 
1790	 0.99517148733139 
1791	 0.995471775531769 
1792	 0.995677947998047 
1793	 0.995871245861053 
1794	 0.996038317680359 
1795	 0.996237993240356 
1796	 0.996504843235016 
1797	 0.99672520160675 
1798	 0.996913015842438 
1799	 0.997009932994843 
1800	 0.997132778167725 
1801	 0.981217503547668 
1802	 0.98179018497467 
1803	 0.98252272605896 
1804	 0.983447968959808 
1805	 0.984427511692047 
1806	 0.985451281070709 
1807	 0.986593186855316 
1808	 0.987729072570801 
1809	 0.989106476306915 
1810	 0.990109860897064 
1811	 0.991028308868408 
1812	 0.991834998130798 
1813	 0.992353200912476 
1814	 0.992885708808899 
1815	 0.99351555109024 
1816	 0.994158148765564 
1817	 0.994613111019135 
1818	 0.994929730892181 
1819	 0.995277762413025 
1820	 0.995510756969452 
1821	 0.995770633220673 
1822	 0.996048152446747 
1823	 0.996346235275269 
1824	 0.996554911136627 
1825	 0.996738970279694 
1826	 0.997001767158508 
1827	 0.997362077236176 
1828	 0.997607171535492 
1829	 0.997832536697388 
1830	 0.99803626537323 
1831	 0.998203575611115 
1832	 0.99829775094986 
1833	 0.998424351215363 
1834	 0.998606264591217 
1835	 0.998781621456146 
1836	 0.998887121677399 
1837	 0.998995423316956 
1838	 0.999177217483521 
1839	 0.999233067035675 
1840	 0.999183118343353 
1841	 0.999159038066864 
1842	 0.99918919801712 
1843	 0.998969793319702 
1844	 0.998767733573914 
1845	 0.998615086078644 
1846	 0.998128831386566 
1847	 0.997635245323181 
1848	 0.997050166130066 
1849	 0.996265113353729 
1850	 0.995481550693512 
1851	 0.994653224945068 
1852	 0.99383419752121 
1853	 0.992926180362701 
1854	 0.992085456848145 
1855	 0.99118709564209 
1856	 0.990042150020599 
1857	 0.988731980323792 
1858	 0.987266898155212 
1859	 0.985706567764282 
1860	 0.984155654907227 
1861	 0.982225656509399 
1862	 0.980118989944458 
1863	 0.977735877037048 
1864	 0.975013554096222 
1865	 0.972188830375671 
1866	 0.969135046005249 
1867	 0.965781569480896 
1868	 0.962363958358765 
1869	 0.958258211612701 
1870	 0.95392382144928 
1871	 0.949443876743317 
1872	 0.944513499736786 
1873	 0.939133822917938 
1874	 0.933580815792084 
1875	 0.927585601806641 
1876	 0.920529067516327 
1877	 0.913346529006958 
1878	 0.905624866485596 
1879	 0.897250235080719 
1880	 0.889346659183502 
1881	 0.881020724773407 
1882	 0.872295022010803 
1883	 0.863504648208618 
1884	 0.854740917682648 
1885	 0.844819605350494 
1886	 0.834934651851654 
1887	 0.824437618255615 
1888	 0.813320636749268 
1889	 0.802865326404572 
1890	 0.791636288166046 
1891	 0.780352532863617 
1892	 0.769053399562836 
1893	 0.757004857063293 
1894	 0.744064927101135 
1895	 0.731631815433502 
1896	 0.718851149082184 
1897	 0.705728948116302 
1898	 0.694056034088135 
1899	 0.682171046733856 
1900	 0.670734107494354 
1901	 0.660169184207916 
1902	 0.649048626422882 
1903	 0.638773798942566 
1904	 0.629290759563446 
1905	 0.620287179946899 
1906	 0.611966729164124 
1907	 0.605192363262177 
1908	 0.598936259746552 
1909	 0.593388378620148 
1910	 0.588965713977814 
1911	 0.584968984127045 
1912	 0.581781685352325 
1913	 0.579343736171722 
1914	 0.577332258224487 
1915	 0.575896680355072 
1916	 0.575118601322174 
1917	 0.574808478355408 
1918	 0.574756681919098 
1919	 0.575197160243988 
1920	 0.576011598110199 
1921	 0.576908528804779 
1922	 0.57826966047287 
1923	 0.579844832420349 
1924	 0.581319868564606 
1925	 0.583096504211426 
1926	 0.584972977638245 
1927	 0.586910843849182 
1928	 0.588973522186279 
1929	 0.591275155544281 
1930	 0.593568623065948 
1931	 0.595927178859711 
1932	 0.598263680934906 
1933	 0.600396990776062 
1934	 0.602611601352692 
1935	 0.6047602891922 
1936	 0.606810212135315 
1937	 0.608974933624268 
1938	 0.611212015151978 
1939	 0.613464534282684 
1940	 0.615722715854645 
1941	 0.618107795715332 
1942	 0.620448231697083 
1943	 0.622880339622498 
1944	 0.625141203403473 
1945	 0.627402603626251 
1946	 0.62976062297821 
1947	 0.631956040859222 
1948	 0.634315550327301 
1949	 0.636602997779846 
1950	 0.638704657554626 
1951	 0.640608489513397 
1952	 0.642660200595856 
1953	 0.644614338874817 
1954	 0.646553754806519 
1955	 0.648803412914276 
1956	 0.651066362857819 
1957	 0.65330958366394 
1958	 0.655650913715363 
1959	 0.657784819602966 
1960	 0.660067677497864 
1961	 0.66241580247879 
1962	 0.664805173873901 
1963	 0.667180597782135 
1964	 0.66977196931839 
1965	 0.672070622444153 
1966	 0.674221456050873 
1967	 0.676356017589569 
1968	 0.678375899791718 
1969	 0.680331230163574 
1970	 0.682409286499023 
1971	 0.684694290161133 
1972	 0.687068402767181 
1973	 0.689606666564941 
1974	 0.692209541797638 
1975	 0.695046603679657 
1976	 0.697699189186096 
1977	 0.700359761714935 
1978	 0.703034341335297 
1979	 0.70567375421524 
1980	 0.708209276199341 
1981	 0.711012303829193 
1982	 0.713608145713806 
1983	 0.716279268264771 
1984	 0.719099462032318 
1985	 0.721654415130615 
1986	 0.724388659000397 
1987	 0.727155566215515 
1988	 0.729921102523804 
1989	 0.732688784599304 
1990	 0.735603094100952 
1991	 0.738416612148285 
1992	 0.741171717643738 
1993	 0.743927538394928 
1994	 0.746602535247803 
1995	 0.749350786209106 
1996	 0.752025544643402 
1997	 0.754790246486664 
1998	 0.757809638977051 
1999	 0.761122405529022 
2000	 0.764196276664734 
2001	 0.767510771751404 
2002	 0.770480334758759 
2003	 0.773122906684875 
2004	 0.775901138782501 
2005	 0.778480768203735 
2006	 0.781281888484955 
2007	 0.784298241138458 
2008	 0.787166357040405 
2009	 0.790044248104095 
2010	 0.793009996414185 
2011	 0.795604646205902 
2012	 0.798336565494537 
2013	 0.801023721694946 
2014	 0.803644835948944 
2015	 0.806260943412781 
2016	 0.808938324451447 
2017	 0.811498939990997 
2018	 0.814064145088196 
2019	 0.816498041152954 
2020	 0.818786203861237 
2021	 0.821059226989746 
2022	 0.823313534259796 
2023	 0.825615286827087 
2024	 0.828055441379547 
2025	 0.830396890640259 
2026	 0.832599997520447 
2027	 0.834573984146118 
2028	 0.836789846420288 
2029	 0.838934719562531 
2030	 0.841273307800293 
2031	 0.843913555145264 
2032	 0.846391141414642 
2033	 0.848931014537811 
2034	 0.851350843906403 
2035	 0.853686094284058 
2036	 0.856018543243408 
2037	 0.858221709728241 
2038	 0.86029177904129 
2039	 0.862431108951569 
2040	 0.864542543888092 
2041	 0.866603374481201 
2042	 0.868731319904327 
2043	 0.870653748512268 
2044	 0.872366964817047 
2045	 0.874162018299103 
2046	 0.87585061788559 
2047	 0.877619981765747 
2048	 0.879342198371887 
2049	 0.881236016750336 
2050	 0.883228361606598 
2051	 0.885286331176758 
2052	 0.887475967407227 
2053	 0.889552772045136 
2054	 0.891492128372192 
2055	 0.89328533411026 
2056	 0.895081758499146 
2057	 0.896770834922791 
2058	 0.898511469364166 
2059	 0.900238037109375 
2060	 0.901921510696411 
2061	 0.903684556484222 
2062	 0.90524160861969 
2063	 0.906513750553131 
2064	 0.90803861618042 
2065	 0.909604430198669 
2066	 0.911081969738007 
2067	 0.912852942943573 
2068	 0.914537191390991 
2069	 0.91615355014801 
2070	 0.917700409889221 
2071	 0.919224381446838 
2072	 0.920698344707489 
2073	 0.922199666500092 
2074	 0.923604547977448 
2075	 0.925122618675232 
2076	 0.926704347133636 
2077	 0.928270995616913 
2078	 0.929945468902588 
2079	 0.931525468826294 
2080	 0.933080732822418 
2081	 0.934588313102722 
2082	 0.935989022254944 
2083	 0.937417149543762 
2084	 0.938924431800842 
2085	 0.940286755561829 
2086	 0.941705465316772 
2087	 0.94320821762085 
2088	 0.944568037986755 
2089	 0.945804357528687 
2090	 0.947124898433685 
2091	 0.948387563228607 
2092	 0.949696362018585 
2093	 0.951077044010162 
2094	 0.952427804470062 
2095	 0.953861773014069 
2096	 0.955151975154877 
2097	 0.956295430660248 
2098	 0.9575075507164 
2099	 0.958856105804443 
2100	 0.959941685199738 
2101	 0.961234092712402 
2102	 0.962640166282654 
2103	 0.964115142822266 
2104	 0.965696930885315 
2105	 0.967169582843781 
2106	 0.968768179416656 
2107	 0.970198094844818 
2108	 0.971342325210571 
2109	 0.972736239433289 
2110	 0.974252462387085 
2111	 0.975679457187653 
2112	 0.977222442626953 
2113	 0.978658318519592 
2114	 0.979860901832581 
2115	 0.981283187866211 
2116	 0.982974529266357 
2117	 0.984417676925659 
2118	 0.985655963420868 
2119	 0.986921072006226 
2120	 0.987887382507324 
2121	 0.988348722457886 
2122	 0.989125728607178 
2123	 0.989839315414429 
2124	 0.990772426128387 
2125	 0.991868138313293 
2126	 0.992911338806152 
2127	 0.994173109531403 
2128	 0.995232582092285 
2129	 0.996268153190613 
2130	 0.997117578983307 
2131	 0.997818052768707 
2132	 0.998435020446777 
2133	 0.998937964439392 
2134	 0.999215006828308 
2135	 0.999463677406311 
2136	 0.999873161315918 
2137	 0.999988973140717 
2138	 1 
2139	 0.999999940395355 
2140	 0.999966859817505 
2141	 0.999980211257935 
2142	 0.999838650226593 
2143	 0.999731242656708 
2144	 0.999615550041199 
2145	 0.999456107616425 
2146	 0.999195992946625 
2147	 0.998963236808777 
2148	 0.998745262622833 
2149	 0.99847686290741 
2150	 0.998361945152283 
2151	 0.997933447360992 
2152	 0.997416019439697 
2153	 0.996732115745544 
2154	 0.995390832424164 
2155	 0.993782341480255 
2156	 0.992058455944061 
2157	 0.989892780780792 
2158	 0.987759113311768 
2159	 0.985624551773071 
2160	 0.983154892921448 
2161	 0.98026430606842 
2162	 0.977675914764404 
2163	 0.974937856197357 
2164	 0.972341656684875 
2165	 0.969951450824738 
2166	 0.96739673614502 
2167	 0.964993894100189 
2168	 0.962216258049011 
2169	 0.959031522274017 
2170	 0.956141829490662 
2171	 0.952996969223022 
2172	 0.950070917606354 
2173	 0.947505295276642 
2174	 0.944897472858429 
2175	 0.942152917385101 
2176	 0.939500629901886 
2177	 0.937028586864471 
2178	 0.93470025062561 
2179	 0.932302117347717 
2180	 0.929945886135101 
2181	 0.927755534648895 
2182	 0.925523996353149 
2183	 0.923557341098785 
2184	 0.922090947628021 
2185	 0.920233726501465 
2186	 0.918336689472198 
2187	 0.916318893432617 
2188	 0.913792550563812 
2189	 0.911852896213531 
2190	 0.910075604915619 
2191	 0.908507883548737 
2192	 0.907506108283997 
2193	 0.906359314918518 
2194	 0.905297935009003 
2195	 0.904250860214233 
2196	 0.903249025344849 
2197	 0.902204394340515 
2198	 0.901557624340057 
2199	 0.900694072246552 
2200	 0.899557590484619 
2201	 0.897980749607086 
2202	 0.897545635700226 
2203	 0.897128045558929 
2204	 0.897386908531189 
2205	 0.898947298526764 
2206	 0.900029242038727 
2207	 0.901102602481842 
2208	 0.902394831180573 
2209	 0.903842151165009 
2210	 0.905725598335266 
2211	 0.908012509346008 
2212	 0.910150289535522 
2213	 0.912960112094879 
2214	 0.915120303630829 
2215	 0.916403651237488 
2216	 0.918405950069427 
2217	 0.92050576210022 
2218	 0.922701835632324 
2219	 0.925539910793304 
2220	 0.928077578544617 
2221	 0.930514395236969 
2222	 0.932858943939209 
2223	 0.934700727462769 
2224	 0.93663501739502 
2225	 0.939435541629791 
2226	 0.94218772649765 
2227	 0.944471478462219 
2228	 0.947333455085754 
2229	 0.949162840843201 
2230	 0.949702739715576 
2231	 0.951082289218903 
2232	 0.952893257141113 
2233	 0.953927576541901 
2234	 0.95451819896698 
2235	 0.955293953418732 
2236	 0.955407798290253 
2237	 0.956361472606659 
2238	 0.958169043064117 
2239	 0.959337294101715 
2240	 0.960465371608734 
2241	 0.961520135402679 
2242	 0.962002694606781 
2243	 0.962987005710602 
2244	 0.964617371559143 
2245	 0.965764045715332 
2246	 0.966497182846069 
2247	 0.967760682106018 
2248	 0.969111144542694 
2249	 0.970399081707001 
2250	 0.972089767456055 
2251	 0.973860263824463 
2252	 0.974837303161621 
2253	 0.975682735443115 
2254	 0.976133942604065 
2255	 0.976402223110199 
2256	 0.976854920387268 
2257	 0.977725386619568 
2258	 0.97880345582962 
2259	 0.980388164520264 
2260	 0.981579720973969 
2261	 0.982949078083038 
2262	 0.983802139759064 
2263	 0.984042346477509 
2264	 0.985162436962128 
2265	 0.986485302448273 
2266	 0.987713932991028 
2267	 0.989626109600067 
2268	 0.990753948688507 
2269	 0.991425335407257 
2270	 0.992035448551178 
2271	 0.992417633533478 
2272	 0.992700278759003 
2273	 0.992618799209595 
2274	 0.9926717877388 
2275	 0.992631018161774 
2276	 0.992709517478943 
2277	 0.99297422170639 
2278	 0.992938339710236 
2279	 0.992479503154755 
2280	 0.992637574672699 
2281	 0.992732465267181 
2282	 0.993341088294983 
2283	 0.995061099529266 
2284	 0.995984792709351 
2285	 0.997030854225159 
2286	 0.998648583889008 
2287	 0.999328911304474 
2288	 1 
2289	 0.99979555606842 
2290	 0.998762667179108 
2291	 0.998251438140869 
2292	 0.99817031621933 
2293	 0.998689293861389 
2294	 0.999393105506897 
2295	 0.99939090013504 
2296	 0.998821616172791 
2297	 0.998847782611847 
2298	 0.99872761964798 
2299	 0.998887896537781 
2300	 0.999999940395355 
2301	 0.999552249908447 
2302	 0.998160302639008 
2303	 0.997711658477783 
2304	 0.996538043022156 
2305	 0.996510624885559 
2306	 0.997826218605042 
2307	 0.997953653335571 
2308	 0.997842907905579 
2309	 0.997931301593781 
2310	 0.99772435426712 
2311	 0.997855544090271 
2312	 0.998819351196289 
2313	 0.998646140098572 
2314	 0.997244715690613 
2315	 0.997147500514984 
2316	 0.996857404708862 
2317	 0.997132897377014 
2318	 0.999561905860901 
2319	 1 
2320	 0.999831855297089 
2321	 0.999374389648438 
2322	 0.997255444526672 
2323	 0.996604263782501 
2324	 0.996763944625854 
2325	 0.996671497821808 
2326	 0.99646133184433 
2327	 0.997102081775665 
2328	 0.999110519886017 
2329	 0.999242544174194 
2330	 0.998982846736908 
2331	 0.998835682868958 
2332	 0.997853636741638 
2333	 0.996631145477295 
2334	 0.996244013309479 
2335	 0.996332228183746 
2336	 0.995963275432587 
2337	 0.996043562889099 
2338	 0.996155977249146 
2339	 0.996706485748291 
2340	 0.99780684709549 
2341	 0.996779918670654 
2342	 0.996542394161224 
2343	 0.997158527374268 
2344	 0.996307790279388 
2345	 0.996180593967438 
2346	 0.998345375061035 
2347	 0.999880194664001 
2348	 0.999639332294464 
2349	 0.999481439590454 
2350	 0.998623728752136 
2351	 0.997992157936096 
2352	 0.99709016084671 
2353	 0.996474504470825 
2354	 0.995706975460052 
2355	 0.993922472000122 
2356	 0.993560492992401 
2357	 0.994068086147308 
2358	 0.992307722568512 
2359	 0.989336311817169 
2360	 0.990719676017761 
2361	 0.991844594478607 
2362	 0.99212121963501 
2363	 0.995191216468811 
2364	 0.993748307228088 
2365	 0.990309059619904 
2366	 0.988305032253265 
2367	 0.987855195999146 
2368	 0.989719808101654 
2369	 0.98932546377182 
2370	 0.989944338798523 
2371	 0.990397453308105 
2372	 0.987987220287323 
2373	 0.987387955188751 
2374	 0.986362516880035 
2375	 0.98497474193573 
2376	 0.984713673591614 
2377	 0.982641518115997 
2378	 0.981097102165222 
2379	 0.980590343475342 
2380	 0.979007184505463 
2381	 0.978132247924805 
2382	 0.978246331214905 
2383	 0.980097413063049 
2384	 0.98027092218399 
2385	 0.980425596237183 
2386	 0.981123149394989 
2387	 0.980385899543762 
2388	 0.979252219200134 
2389	 0.980282127857208 
2390	 0.978878915309906 
2391	 0.973966836929321 
2392	 0.972655057907104 
2393	 0.972635805606842 
2394	 0.972496390342712 
2395	 0.974111139774323 
2396	 0.972943603992462 
2397	 0.968917489051819 
2398	 0.968548536300659 
2399	 0.970205247402191 
2400	 0.971991717815399 
2401	 0.975865304470062 
2402	 0.978472769260406 
2403	 0.978643655776978 
2404	 0.976176023483276 
2405	 0.973466098308563 
2406	 0.967688262462616 
2407	 0.965295970439911 
2408	 0.965658724308014 
2409	 0.963308155536652 
2410	 0.960401713848114 
2411	 0.958852648735046 
2412	 0.959113419055939 
2413	 0.96188896894455 
2414	 0.96723210811615 
2415	 0.968583643436432 
2416	 0.966496765613556 
2417	 0.965402603149414 
2418	 0.96392160654068 
2419	 0.959616959095001 
2420	 0.951734662055969 
2421	 0.943458616733551 
2422	 0.937992453575134 
2423	 0.937029123306274 
2424	 0.940975904464722 
2425	 0.948426902294159 
2426	 0.951303660869598 
2427	 0.954072952270508 
2428	 0.957977890968323 
2429	 0.958110809326172 
2430	 0.952233731746674 
2431	 0.944028794765472 
2432	 0.939476847648621 
2433	 0.92725545167923 
2434	 0.922619760036469 
2435	 0.923925220966339 
2436	 0.91372936964035 
2437	 0.912571310997009 
2438	 0.920856773853302 
2439	 0.925113081932068 
2440	 0.934424340724945 
2441	 0.948000252246857 
2442	 0.951877653598785 
2443	 0.955395936965942 
2444	 0.958477258682251 
2445	 0.957979917526245 
2446	 0.957581639289856 
2447	 0.948129177093506 
2448	 0.947271883487701 
2449	 0.94378387928009 
2450	 0.924888730049133 
2451	 0.924635112285614 
2452	 0.921024024486542 
2453	 0.915533542633057 
2454	 0.936664342880249 
2455	 0.944273173809052 
2456	 0.94426965713501 
2457	 0.944331109523773 
2458	 0.939604461193085 
2459	 0.938443124294281 
2460	 0.933819770812988 
2461	 0.952433586120605 
2462	 0.957138895988464 
2463	 0.94515722990036 
2464	 0.945091485977173 
2465	 0.91823822259903 
2466	 0.890429317951202 
2467	 0.893189013004303 
2468	 0.901909470558167 
2469	 0.908141791820526 
2470	 0.925104141235352 
2471	 0.9353968501091 
2472	 0.932137668132782 
2473	 0.923879981040955 
2474	 0.90690666437149 
2475	 0.897590816020966 
2476	 0.903524219989777 
2477	 0.923522531986237 
2478	 0.941174447536469 
2479	 0.941927969455719 
2480	 0.940850973129272 
2481	 0.939202487468719 
2482	 0.958999574184418 
2483	 0.956194400787354 
2484	 0.922429859638214 
2485	 0.894146800041199 
2486	 0.887297034263611 
2487	 0.881653547286987 
2488	 0.878229260444641 
2489	 0.921885907649994 
2490	 0.929787635803223 
2491	 0.914221704006195 
2492	 0.956394493579865 
2493	 0.969005465507507 
2494	 0.959939956665039 
2495	 0.991126954555511 
2496	 0.9955193400383 
2497	 0.980322957038879 
2498	 1 
2499	 1 
2500	 1 
