Wavelength	A00012.asd
350	 0.230301747074204 
351	 0.241640362464138 
352	 0.238103319029863 
353	 0.216021524305802 
354	 0.222515505848985 
355	 0.215291364300274 
356	 0.200858517637066 
357	 0.195746556904299 
358	 0.216945982947648 
359	 0.211604384004258 
360	 0.193696832337035 
361	 0.200340308430276 
362	 0.191407767739215 
363	 0.181899187031377 
364	 0.181538808164856 
365	 0.187896175625269 
366	 0.182168424750909 
367	 0.176771606986817 
368	 0.18189530650131 
369	 0.181427220736721 
370	 0.174034210099782 
371	 0.168867067379373 
372	 0.17624235610487 
373	 0.172677616774298 
374	 0.166342102957697 
375	 0.164683333350156 
376	 0.169860073045723 
377	 0.169253001531309 
378	 0.16804102426713 
379	 0.170994745783711 
380	 0.167060376064365 
381	 0.166989438186547 
382	 0.168878939172152 
383	 0.165082906052712 
384	 0.165495698176441 
385	 0.165360727058477 
386	 0.16297160836312 
387	 0.163104558665515 
388	 0.161744956147141 
389	 0.16066966120863 
390	 0.16175924736909 
391	 0.162003093388797 
392	 0.161174049130055 
393	 0.160125264360442 
394	 0.160162307103654 
395	 0.160283113155711 
396	 0.160710413057557 
397	 0.161485345814786 
398	 0.162202098145347 
399	 0.16211143737792 
400	 0.161532904509596 
401	 0.161207053871251 
402	 0.162213550957348 
403	 0.162522790183558 
404	 0.162141665798496 
405	 0.16252819790647 
406	 0.162872008148081 
407	 0.162341901025492 
408	 0.161523518722627 
409	 0.163848798172058 
410	 0.165489066599751 
411	 0.165699157748261 
412	 0.164958057917474 
413	 0.163977098703622 
414	 0.164449781555576 
415	 0.165952104955646 
416	 0.166304945338406 
417	 0.166763422938068 
418	 0.167424957807097 
419	 0.168015396986468 
420	 0.167768819480299 
421	 0.167970465790768 
422	 0.168918143768102 
423	 0.170316996044359 
424	 0.171279443553918 
425	 0.171466432302853 
426	 0.171452400281745 
427	 0.172736188065248 
428	 0.17347644332096 
429	 0.174063479209921 
430	 0.174992343281017 
431	 0.175507641445645 
432	 0.176062604931482 
433	 0.176816645718645 
434	 0.177748200412941 
435	 0.178837653676366 
436	 0.180082699045432 
437	 0.18134693345464 
438	 0.18228711997653 
439	 0.18294439428483 
440	 0.183566842168923 
441	 0.184374717298042 
442	 0.185166884667642 
443	 0.185944000522506 
444	 0.18694622358951 
445	 0.188499328580154 
446	 0.18922383033892 
447	 0.190051109856951 
448	 0.191449515595548 
449	 0.191970072063046 
450	 0.192524029170469 
451	 0.193280286200971 
452	 0.194150141570865 
453	 0.195264553471182 
454	 0.196068976198271 
455	 0.196589042966325 
456	 0.197513388489494 
457	 0.198263782712181 
458	 0.198815380189932 
459	 0.199370921516272 
460	 0.200471327481594 
461	 0.20130208432169 
462	 0.201935286602378 
463	 0.202853538843612 
464	 0.203342864723767 
465	 0.203925454609525 
466	 0.204729696490237 
467	 0.205060008612513 
468	 0.205732688842536 
469	 0.206349460309774 
470	 0.206543736467087 
471	 0.207646525821883 
472	 0.208435482733198 
473	 0.208773214300756 
474	 0.209412865932083 
475	 0.209941243550253 
476	 0.21053367162039 
477	 0.211278614773569 
478	 0.211867042277289 
479	 0.212559896170807 
480	 0.213228983508429 
481	 0.213697722014136 
482	 0.214485599260547 
483	 0.215195093805009 
484	 0.215818522342358 
485	 0.216850904999851 
486	 0.217288214240709 
487	 0.217720299709266 
488	 0.218696518847906 
489	 0.219501285152652 
490	 0.22012800658274 
491	 0.220769991238672 
492	 0.221697876343322 
493	 0.222624915895825 
494	 0.223473843956315 
495	 0.224255399749073 
496	 0.225091988059523 
497	 0.225669109805001 
498	 0.226410690841319 
499	 0.227678216966697 
500	 0.228496436188047 
501	 0.229163125371261 
502	 0.229850744788738 
503	 0.23057330501028 
504	 0.231451109655813 
505	 0.232359608691256 
506	 0.233171044357831 
507	 0.233826609843727 
508	 0.234745918052092 
509	 0.235732674533729 
510	 0.236389134297533 
511	 0.237050157493339 
512	 0.237950379392846 
513	 0.239003775376935 
514	 0.23973333681523 
515	 0.240611964452727 
516	 0.241507205524132 
517	 0.242239518113508 
518	 0.242982706779351 
519	 0.24399853916932 
520	 0.245170211860321 
521	 0.246127155781647 
522	 0.246869647548163 
523	 0.247755686729753 
524	 0.248902439839262 
525	 0.249862084704436 
526	 0.250941649573506 
527	 0.252110269130268 
528	 0.25325802253436 
529	 0.254510562198527 
530	 0.255866294102538 
531	 0.257182282213777 
532	 0.2581901449791 
533	 0.25928643733028 
534	 0.260671969232535 
535	 0.262322612265572 
536	 0.263727192758346 
537	 0.265168714487257 
538	 0.266683090732213 
539	 0.268170675216779 
540	 0.269702935127882 
541	 0.271240463713711 
542	 0.272815663579741 
543	 0.274603784015179 
544	 0.276460272824957 
545	 0.278322992808165 
546	 0.280160946076539 
547	 0.281946902074407 
548	 0.283846412244487 
549	 0.285806636377691 
550	 0.287606861394006 
551	 0.289906199455589 
552	 0.29227810176208 
553	 0.294409100503798 
554	 0.296781488528581 
555	 0.299083806372097 
556	 0.301602531857425 
557	 0.304716700086386 
558	 0.307504620306714 
559	 0.310250840161184 
560	 0.313070630853625 
561	 0.315690360795121 
562	 0.318116078331319 
563	 0.320593923408386 
564	 0.323342015408134 
565	 0.326172499488821 
566	 0.329100910301538 
567	 0.332081949066604 
568	 0.334986216270125 
569	 0.337436073866383 
570	 0.339858249507105 
571	 0.342408443851235 
572	 0.344045952765703 
573	 0.345040405248262 
574	 0.345480884604656 
575	 0.34559894816431 
576	 0.346012650452884 
577	 0.347390323182207 
578	 0.349707114266185 
579	 0.35230335885499 
580	 0.355060905876724 
581	 0.357786162846861 
582	 0.360358010179149 
583	 0.362788234495533 
584	 0.365336340663012 
585	 0.36783955084163 
586	 0.369961348847383 
587	 0.372437607465913 
588	 0.374805631504434 
589	 0.37687006497602 
590	 0.379171210732524 
591	 0.380795896120517 
592	 0.382019148427845 
593	 0.38340171485554 
594	 0.384980139820029 
595	 0.386423393928452 
596	 0.387844521832281 
597	 0.389697848897085 
598	 0.391150476702057 
599	 0.392435838925281 
600	 0.393845279720996 
601	 0.395338319955914 
602	 0.396737001814873 
603	 0.398068354501883 
604	 0.399425203032457 
605	 0.400570386341672 
606	 0.401990949813937 
607	 0.403563201038542 
608	 0.404328485558752 
609	 0.405490185130159 
610	 0.406747908442781 
611	 0.407693049075013 
612	 0.408882571336507 
613	 0.41010979375827 
614	 0.411123084403361 
615	 0.411750005841483 
616	 0.41289315710569 
617	 0.414055525017033 
618	 0.41495579178738 
619	 0.416066498556863 
620	 0.416977342588522 
621	 0.417791685526975 
622	 0.418731881570062 
623	 0.419719796183697 
624	 0.420547067514838 
625	 0.421223728381236 
626	 0.421976907241136 
627	 0.422916578930188 
628	 0.423886065956592 
629	 0.424731229963224 
630	 0.425465428101274 
631	 0.426050068536999 
632	 0.42670800845969 
633	 0.427701111663299 
634	 0.428691912255938 
635	 0.429575277510894 
636	 0.430363823875969 
637	 0.431192047530252 
638	 0.431786930005875 
639	 0.432366937546683 
640	 0.433162783103317 
641	 0.434060134232344 
642	 0.43469956426425 
643	 0.435255743347709 
644	 0.436173299374661 
645	 0.436945206616699 
646	 0.437574109992897 
647	 0.438215789077223 
648	 0.439185222803408 
649	 0.440012972268351 
650	 0.440674046096039 
651	 0.44126729081475 
652	 0.441766315853786 
653	 0.442215437962322 
654	 0.442748088016329 
655	 0.443537255509593 
656	 0.444347249323949 
657	 0.4450260105516 
658	 0.445648187137577 
659	 0.446795832842002 
660	 0.447425913613443 
661	 0.447743816130436 
662	 0.448343747632361 
663	 0.449053715117219 
664	 0.449849955697615 
665	 0.450571326691768 
666	 0.450952161638219 
667	 0.451754016094879 
668	 0.452663259855581 
669	 0.453277847911343 
670	 0.453488054334257 
671	 0.45428577801646 
672	 0.455457204974487 
673	 0.456249931022415 
674	 0.456574376148724 
675	 0.457080906324858 
676	 0.457965907577801 
677	 0.458791879819935 
678	 0.458775519210966 
679	 0.458872897331214 
680	 0.459884002195106 
681	 0.460880576882176 
682	 0.461597372342844 
683	 0.462206412951743 
684	 0.463047559676706 
685	 0.463454492697707 
686	 0.463886262621971 
687	 0.46450006908484 
688	 0.46486514495689 
689	 0.46543535185711 
690	 0.466139329773371 
691	 0.46686689091981 
692	 0.467967127571745 
693	 0.468637713538013 
694	 0.468953661160272 
695	 0.469553491201246 
696	 0.470539938208264 
697	 0.471144766068536 
698	 0.471389538230043 
699	 0.472726602572152 
700	 0.473114490712322 
701	 0.473161854507406 
702	 0.473882987471647 
703	 0.474701556044467 
704	 0.475500783135184 
705	 0.476125532679628 
706	 0.476477921591456 
707	 0.477281288446844 
708	 0.478077615532461 
709	 0.478603523474426 
710	 0.479193860409666 
711	 0.479596825185882 
712	 0.479785792762951 
713	 0.479984527673202 
714	 0.481141275830923 
715	 0.48205193637711 
716	 0.482441838164442 
717	 0.482798283960837 
718	 0.483709209339974 
719	 0.484325386548803 
720	 0.484450022664301 
721	 0.485348567447312 
722	 0.48572127541671 
723	 0.486112940727865 
724	 0.48717224404369 
725	 0.487624879458512 
726	 0.488171576423319 
727	 0.488936192637729 
728	 0.489602050022701 
729	 0.490093676776615 
730	 0.490601117220519 
731	 0.491270516826332 
732	 0.492130804320224 
733	 0.49251601075624 
734	 0.492712986388826 
735	 0.493235828920051 
736	 0.494323055247454 
737	 0.49507616498253 
738	 0.495211647012357 
739	 0.495040468939778 
740	 0.49593589009797 
741	 0.4967209671991 
742	 0.496914318499372 
743	 0.49756616748954 
744	 0.498140940933999 
745	 0.498705788036099 
746	 0.499320908167252 
747	 0.499474377072788 
748	 0.499902928343429 
749	 0.50047083774728 
750	 0.500682765574478 
751	 0.501639991875452 
752	 0.502289740856464 
753	 0.502290049195414 
754	 0.502480639497672 
755	 0.502395294353292 
756	 0.502753623239866 
757	 0.503861356644699 
758	 0.504119371021156 
759	 0.504289924997419 
760	 0.504534867836682 
761	 0.504803766793909 
762	 0.505537993325363 
763	 0.50610384535295 
764	 0.506500228666898 
765	 0.50743328170107 
766	 0.508183890045432 
767	 0.508334880526816 
768	 0.508001628698105 
769	 0.508324751003366 
770	 0.508863693505577 
771	 0.509369571189586 
772	 0.509633230153222 
773	 0.509382111612047 
774	 0.509564503398909 
775	 0.510145925391947 
776	 0.51033940870604 
777	 0.511053199940002 
778	 0.511745319817083 
779	 0.512001453730048 
780	 0.511949749339246 
781	 0.512346675783331 
782	 0.512847789207565 
783	 0.513033306132397 
784	 0.513491616885822 
785	 0.513806165772098 
786	 0.513906675761971 
787	 0.513959559494169 
788	 0.51421986001284 
789	 0.514308889324941 
790	 0.51423022579387 
791	 0.514486570202037 
792	 0.514711334554836 
793	 0.514890848792002 
794	 0.515110909117785 
795	 0.515508954143515 
796	 0.51620180041311 
797	 0.5165189010241 
798	 0.515977788703486 
799	 0.516427985345861 
800	 0.516946781799113 
801	 0.517231316050071 
802	 0.517521471031431 
803	 0.517497046276945 
804	 0.517472037657692 
805	 0.517527109714944 
806	 0.517270621133196 
807	 0.51758825252923 
808	 0.518553171115547 
809	 0.519748833312289 
810	 0.520063460706867 
811	 0.520020113259823 
812	 0.519904490315259 
813	 0.519962704568558 
814	 0.520785399801601 
815	 0.521364072444911 
816	 0.521323843885117 
817	 0.520992934919641 
818	 0.520735675212184 
819	 0.520602171932773 
820	 0.520633439248213 
821	 0.520953917730109 
822	 0.521601062645049 
823	 0.521901665919972 
824	 0.521561437920856 
825	 0.522002691345115 
826	 0.522666832436588 
827	 0.522806092132973 
828	 0.521971783425955 
829	 0.521771752723629 
830	 0.522390125150173 
831	 0.523205227346242 
832	 0.523094759275347 
833	 0.522582954308713 
834	 0.522625729070396 
835	 0.523329549343712 
836	 0.523431847947278 
837	 0.523796950948653 
838	 0.524014908130001 
839	 0.523701967612332 
840	 0.523356143945253 
841	 0.523282140881585 
842	 0.523570318151093 
843	 0.524073168257205 
844	 0.524206781018107 
845	 0.524085065749928 
846	 0.523689236373588 
847	 0.523076518460011 
848	 0.523940248687339 
849	 0.524926269712002 
850	 0.525299409251461 
851	 0.5255824468812 
852	 0.525726321358684 
853	 0.525727829353823 
854	 0.52572274972404 
855	 0.526140879435353 
856	 0.526419580469909 
857	 0.526983733590099 
858	 0.52798298937971 
859	 0.52742113636904 
860	 0.526965428270589 
861	 0.527112995898414 
862	 0.527614142734551 
863	 0.528110050802974 
864	 0.527947621026342 
865	 0.527574556865245 
866	 0.528214927436598 
867	 0.528843029438468 
868	 0.529438827080486 
869	 0.529715505459018 
870	 0.528937614738896 
871	 0.529569341639862 
872	 0.530260787719096 
873	 0.529851566087269 
874	 0.529504198631181 
875	 0.529630319469887 
876	 0.530029523552524 
877	 0.530440466806672 
878	 0.531439531785115 
879	 0.531560891619509 
880	 0.53064552661455 
881	 0.529572760239102 
882	 0.530500645108321 
883	 0.531618816073085 
884	 0.531949661416516 
885	 0.531545064514289 
886	 0.531318556299935 
887	 0.531633531704169 
888	 0.532280459241752 
889	 0.532524542804571 
890	 0.532310600824757 
891	 0.532461921108044 
892	 0.533150443218773 
893	 0.533196471625217 
894	 0.533101675498163 
895	 0.532924741692028 
896	 0.532824491446801 
897	 0.533499247989261 
898	 0.53396831300828 
899	 0.533918182115559 
900	 0.533616506833739 
901	 0.534449893018923 
902	 0.535019766111654 
903	 0.535281817003966 
904	 0.535799824693641 
905	 0.536274744817272 
906	 0.536438325998185 
907	 0.536443394105751 
908	 0.536695861036239 
909	 0.536966575919022 
910	 0.537526573021073 
911	 0.538208215329164 
912	 0.538430669963914 
913	 0.538504382709669 
914	 0.538954725274054 
915	 0.539778076623678 
916	 0.540234849382775 
917	 0.5405350088482 
918	 0.540775264900736 
919	 0.54112605185071 
920	 0.541903836275977 
921	 0.542018454164825 
922	 0.541762910037318 
923	 0.541741007778456 
924	 0.542308977730833 
925	 0.542951209983526 
926	 0.543618572665548 
927	 0.544258724691907 
928	 0.54431068629271 
929	 0.543468954457382 
930	 0.543019604381948 
931	 0.544234914374971 
932	 0.545401574167662 
933	 0.546142666600537 
934	 0.54679749925655 
935	 0.547785351730172 
936	 0.547584833038753 
937	 0.547624580165574 
938	 0.547999386473111 
939	 0.547900266402213 
940	 0.547969851146737 
941	 0.54782955714947 
942	 0.54782435719995 
943	 0.54870106223705 
944	 0.548601443985208 
945	 0.548861519417419 
946	 0.549600803495032 
947	 0.549456104001666 
948	 0.549814179715976 
949	 0.550019564469691 
950	 0.550017625408226 
951	 0.55078570891953 
952	 0.551925948119176 
953	 0.551996119412541 
954	 0.551204390118506 
955	 0.552229922158627 
956	 0.552886006059136 
957	 0.552883712059218 
958	 0.55257821440918 
959	 0.552681704233884 
960	 0.553557384012443 
961	 0.554571091746023 
962	 0.555167879555243 
963	 0.555497425840424 
964	 0.55534543446681 
965	 0.555877164352191 
966	 0.557280705066866 
967	 0.556860380148028 
968	 0.55664196407657 
969	 0.556461709942527 
970	 0.556231207102231 
971	 0.557636514938914 
972	 0.558532192646604 
973	 0.55931628882153 
974	 0.560543261777124 
975	 0.560892169267351 
976	 0.561013309961452 
977	 0.560850769744198 
978	 0.560584557222816 
979	 0.56175035550912 
980	 0.562711562036106 
981	 0.563354980233718 
982	 0.563937161344549 
983	 0.564027468794025 
984	 0.564659776941337 
985	 0.565214662690266 
986	 0.565055419432139 
987	 0.565572177840484 
988	 0.565852384393248 
989	 0.566400319387049 
990	 0.567712531052193 
991	 0.568618084590108 
992	 0.569000051269746 
993	 0.56842283535157 
994	 0.567182114290993 
995	 0.568063221365128 
996	 0.568559114896419 
997	 0.568469587077384 
998	 0.568560714054419 
999	 0.569682227377747 
1000	 0.570694484944234 
1001	 0.573279942948173 
1002	 0.573751313134501 
1003	 0.574173473225409 
1004	 0.574479674016852 
1005	 0.574740111768539 
1006	 0.574975394721244 
1007	 0.575085094931208 
1008	 0.575273911014511 
1009	 0.575498271088811 
1010	 0.575715026488746 
1011	 0.575895621147623 
1012	 0.57610710812144 
1013	 0.576319685546175 
1014	 0.576582991849872 
1015	 0.576880406199583 
1016	 0.577221155158196 
1017	 0.577531898259073 
1018	 0.577801912331137 
1019	 0.578029552139086 
1020	 0.578288424047253 
1021	 0.578632799290329 
1022	 0.57908999120823 
1023	 0.579451620351265 
1024	 0.579795634356556 
1025	 0.580196400484968 
1026	 0.580595569797626 
1027	 0.580988325425133 
1028	 0.581435461534501 
1029	 0.581878867353213 
1030	 0.582222368034943 
1031	 0.582565937492193 
1032	 0.582944768486396 
1033	 0.583329220853809 
1034	 0.583730303042976 
1035	 0.584176898941413 
1036	 0.584571177104864 
1037	 0.584960842973299 
1038	 0.585310143373103 
1039	 0.585586880641556 
1040	 0.585911508534818 
1041	 0.586238478129265 
1042	 0.586574858219753 
1043	 0.58693678615504 
1044	 0.587309019986546 
1045	 0.587669550074259 
1046	 0.5880146350514 
1047	 0.588239133165795 
1048	 0.588494049250004 
1049	 0.588789668755817 
1050	 0.589076604858026 
1051	 0.589405530556562 
1052	 0.589657962946946 
1053	 0.589911881721261 
1054	 0.590082995196809 
1055	 0.590293057590532 
1056	 0.590606486005936 
1057	 0.590811888506687 
1058	 0.590979056077508 
1059	 0.591028132186522 
1060	 0.591083320404335 
1061	 0.591096600025346 
1062	 0.591181104591075 
1063	 0.591361836573134 
1064	 0.591500101931688 
1065	 0.591570815832176 
1066	 0.591526352711686 
1067	 0.591423602241084 
1068	 0.591393213861661 
1069	 0.591399842903285 
1070	 0.591411361536088 
1071	 0.591460470708977 
1072	 0.591549966373801 
1073	 0.591637910679767 
1074	 0.591690252245977 
1075	 0.591775773235665 
1076	 0.591922043437095 
1077	 0.591984265085172 
1078	 0.592051851371543 
1079	 0.592223767257413 
1080	 0.59231087913243 
1081	 0.592393144146397 
1082	 0.592574807507981 
1083	 0.592719976610242 
1084	 0.59283468161066 
1085	 0.592977827344846 
1086	 0.593088108450251 
1087	 0.593163801855058 
1088	 0.593200966642121 
1089	 0.593244033067575 
1090	 0.59326879334037 
1091	 0.593298802689771 
1092	 0.59336167094126 
1093	 0.593418259850619 
1094	 0.593465138504787 
1095	 0.59361576263133 
1096	 0.593765636891334 
1097	 0.593852071030651 
1098	 0.594044624121711 
1099	 0.594187642529383 
1100	 0.594182520071336 
1101	 0.594236463011978 
1102	 0.594367717001124 
1103	 0.59448918900616 
1104	 0.594593935971522 
1105	 0.594758469888982 
1106	 0.594947776596868 
1107	 0.5950904801767 
1108	 0.595295300215305 
1109	 0.595550083502598 
1110	 0.595782385365958 
1111	 0.596009034074869 
1112	 0.596203448757328 
1113	 0.596419019439772 
1114	 0.596704770508049 
1115	 0.597000290180041 
1116	 0.597281379193927 
1117	 0.597548285489386 
1118	 0.597807406867979 
1119	 0.598066088441135 
1120	 0.598300491179495 
1121	 0.598530192989468 
1122	 0.598719659097187 
1123	 0.598888663159555 
1124	 0.599031413904914 
1125	 0.599227751390657 
1126	 0.599476589863733 
1127	 0.599701022277044 
1128	 0.599959805002506 
1129	 0.60018093453199 
1130	 0.60031130132653 
1131	 0.600482728964701 
1132	 0.600684784696455 
1133	 0.600867842468701 
1134	 0.601025052848853 
1135	 0.601198214457825 
1136	 0.601363133110088 
1137	 0.601540427903629 
1138	 0.601699528127875 
1139	 0.6019397279685 
1140	 0.602246682741776 
1141	 0.602494323464474 
1142	 0.602780662855248 
1143	 0.603063565283236 
1144	 0.603261834612711 
1145	 0.603456524054269 
1146	 0.60365265802301 
1147	 0.603860943240449 
1148	 0.604133679338526 
1149	 0.604421573421887 
1150	 0.604697536054213 
1151	 0.604947466546269 
1152	 0.605189285517969 
1153	 0.605408690869286 
1154	 0.60560643962033 
1155	 0.605801374499063 
1156	 0.605975633206153 
1157	 0.606096196344942 
1158	 0.606240381433619 
1159	 0.606389187390971 
1160	 0.606534903739616 
1161	 0.606695661587837 
1162	 0.606818659963099 
1163	 0.606897024491626 
1164	 0.607004255968357 
1165	 0.607126657292812 
1166	 0.607238678201937 
1167	 0.60738095561859 
1168	 0.607526789325201 
1169	 0.607659957397853 
1170	 0.607740437227367 
1171	 0.607915877201915 
1172	 0.608145722856381 
1173	 0.608359894057025 
1174	 0.608645501468317 
1175	 0.6088538745187 
1176	 0.609021416782997 
1177	 0.609182102055656 
1178	 0.60927804131153 
1179	 0.609433690237228 
1180	 0.609661087117417 
1181	 0.609861036990394 
1182	 0.610074711977305 
1183	 0.610297330000348 
1184	 0.61048469350736 
1185	 0.610629008305763 
1186	 0.610753643007268 
1187	 0.61085337699994 
1188	 0.610979712872199 
1189	 0.611083514509827 
1190	 0.611191577906884 
1191	 0.611337229112836 
1192	 0.611444120399928 
1193	 0.611522395968413 
1194	 0.611591344224672 
1195	 0.611658272951942 
1196	 0.611702635698995 
1197	 0.611748227328483 
1198	 0.611724932364272 
1199	 0.611654312010034 
1200	 0.611636033697826 
1201	 0.611582486619617 
1202	 0.611496950411485 
1203	 0.611491455093628 
1204	 0.611531996698913 
1205	 0.611590954270473 
1206	 0.611724292563822 
1207	 0.611789793090817 
1208	 0.611831677129176 
1209	 0.611897644666522 
1210	 0.611926840242138 
1211	 0.612011900656344 
1212	 0.612165131816942 
1213	 0.612285966788411 
1214	 0.612409123206865 
1215	 0.612529781636071 
1216	 0.612634373588826 
1217	 0.612752221094936 
1218	 0.612869418084808 
1219	 0.613020704127948 
1220	 0.613141744739504 
1221	 0.613254303652594 
1222	 0.613338306895964 
1223	 0.613401279742735 
1224	 0.613473158681435 
1225	 0.613533027516548 
1226	 0.613604546065228 
1227	 0.613685421416386 
1228	 0.613746531898781 
1229	 0.613813080159675 
1230	 0.613855033655818 
1231	 0.613860708862559 
1232	 0.613900802469564 
1233	 0.613937403064367 
1234	 0.613977785206891 
1235	 0.614051412068876 
1236	 0.614099115898639 
1237	 0.614127552092433 
1238	 0.614165278214822 
1239	 0.614188851379948 
1240	 0.614230323854418 
1241	 0.614299969975681 
1242	 0.614335578713229 
1243	 0.614382980723002 
1244	 0.614415884417298 
1245	 0.614511434340292 
1246	 0.614636334755765 
1247	 0.614750628875705 
1248	 0.614905261020758 
1249	 0.61504515274306 
1250	 0.615163668278154 
1251	 0.615292730655449 
1252	 0.615428421869685 
1253	 0.615589456207698 
1254	 0.615757522905501 
1255	 0.615929164748696 
1256	 0.616138368675304 
1257	 0.616333870660234 
1258	 0.616515071930282 
1259	 0.616699318709951 
1260	 0.616903070972442 
1261	 0.617085890488046 
1262	 0.617255030039513 
1263	 0.617407885951443 
1264	 0.617585662021613 
1265	 0.617771079802029 
1266	 0.617930092641222 
1267	 0.618090796305207 
1268	 0.618252488622825 
1269	 0.618422348507401 
1270	 0.618521773851869 
1271	 0.618615300220274 
1272	 0.618662491312562 
1273	 0.61862681274183 
1274	 0.618601542981337 
1275	 0.618559806609021 
1276	 0.618518333708261 
1277	 0.618465082464507 
1278	 0.618385892435181 
1279	 0.618310718888882 
1280	 0.618207373889774 
1281	 0.618051981215362 
1282	 0.617907133390527 
1283	 0.617733414056619 
1284	 0.617592877209926 
1285	 0.617466126008717 
1286	 0.617347830275479 
1287	 0.61723642302461 
1288	 0.617153002347728 
1289	 0.617052062631144 
1290	 0.616950523709376 
1291	 0.616834657007674 
1292	 0.616725295334771 
1293	 0.616588781105267 
1294	 0.616448934013927 
1295	 0.616260958578155 
1296	 0.616010104949509 
1297	 0.615814461702979 
1298	 0.615583811475247 
1299	 0.615410579548177 
1300	 0.615300254563902 
1301	 0.615182093369863 
1302	 0.61513003322349 
1303	 0.614991294463966 
1304	 0.614804091000965 
1305	 0.614634670040966 
1306	 0.614411664409116 
1307	 0.614205707489478 
1308	 0.614032386204635 
1309	 0.613846624701168 
1310	 0.613675044046158 
1311	 0.61348651220334 
1312	 0.61333359332695 
1313	 0.613191913933023 
1314	 0.61309943516141 
1315	 0.613031442226716 
1316	 0.612984616243469 
1317	 0.61298849063433 
1318	 0.61298434080616 
1319	 0.612966459736435 
1320	 0.613003667166259 
1321	 0.61309318707991 
1322	 0.613159520648767 
1323	 0.613274868857473 
1324	 0.613333335985279 
1325	 0.61334303831311 
1326	 0.613374243187546 
1327	 0.613391337718888 
1328	 0.613413587587341 
1329	 0.613453409437491 
1330	 0.613480269795655 
1331	 0.613466481676821 
1332	 0.613498783415774 
1333	 0.613568708241292 
1334	 0.613617846124532 
1335	 0.61367717869009 
1336	 0.613766632520893 
1337	 0.613835190628401 
1338	 0.613892931561962 
1339	 0.613934470853711 
1340	 0.613977991071331 
1341	 0.614006618368714 
1342	 0.614012921503356 
1343	 0.61401320030701 
1344	 0.614024209496694 
1345	 0.613994332585494 
1346	 0.613942940237569 
1347	 0.61386265182164 
1348	 0.613724654674488 
1349	 0.613634486709043 
1350	 0.613524458889042 
1351	 0.613449535631316 
1352	 0.61341239586495 
1353	 0.613382929385624 
1354	 0.613384204193011 
1355	 0.613361966608336 
1356	 0.613350322845867 
1357	 0.613325825996756 
1358	 0.613277148977058 
1359	 0.613231112872161 
1360	 0.613180657274582 
1361	 0.613134473174717 
1362	 0.613091251068069 
1363	 0.613066123622093 
1364	 0.613032654816288 
1365	 0.613027050562076 
1366	 0.612960256687328 
1367	 0.612889011053071 
1368	 0.612744327601505 
1369	 0.61256976283095 
1370	 0.612315172727743 
1371	 0.612008649794751 
1372	 0.611626855720119 
1373	 0.61118359029438 
1374	 0.610661038669766 
1375	 0.610098225139779 
1376	 0.609379001590507 
1377	 0.608521894818419 
1378	 0.607621554351988 
1379	 0.606565587344215 
1380	 0.605527618429383 
1381	 0.604464657672325 
1382	 0.603354888979782 
1383	 0.602170469003628 
1384	 0.601017499256075 
1385	 0.599886844035697 
1386	 0.598706784819152 
1387	 0.597556014162472 
1388	 0.596348525751826 
1389	 0.595092298689588 
1390	 0.593794081180389 
1391	 0.592516730864535 
1392	 0.591085939315663 
1393	 0.589631565131949 
1394	 0.588152652765163 
1395	 0.5866452897821 
1396	 0.585087896802323 
1397	 0.583559201671147 
1398	 0.582025768875805 
1399	 0.580473314494851 
1400	 0.578913824544751 
1401	 0.57734178018272 
1402	 0.575747607724029 
1403	 0.574158229548121 
1404	 0.572564065032853 
1405	 0.570993097853039 
1406	 0.56940586086366 
1407	 0.567866064351498 
1408	 0.566299097693525 
1409	 0.564863527953018 
1410	 0.563364280928643 
1411	 0.562196708951978 
1412	 0.561100106001789 
1413	 0.560391883468622 
1414	 0.559977502224285 
1415	 0.559808126551341 
1416	 0.560015817018513 
1417	 0.560300208716084 
1418	 0.560852580663975 
1419	 0.561423399052452 
1420	 0.562130686815133 
1421	 0.562855286677894 
1422	 0.563659431782421 
1423	 0.564474059799684 
1424	 0.56532651424919 
1425	 0.566207995509614 
1426	 0.567073944250975 
1427	 0.567946900520738 
1428	 0.568815207742405 
1429	 0.569612286047106 
1430	 0.570393110408898 
1431	 0.57113586551488 
1432	 0.571886839964209 
1433	 0.572620854269791 
1434	 0.573333177744095 
1435	 0.574037753687078 
1436	 0.574734373223049 
1437	 0.575409777653689 
1438	 0.576060454378812 
1439	 0.576732469318027 
1440	 0.577323017385145 
1441	 0.577854065357844 
1442	 0.578370405461616 
1443	 0.578851990219653 
1444	 0.579299536977793 
1445	 0.579705286244947 
1446	 0.580106409307878 
1447	 0.580480096597717 
1448	 0.58083431693394 
1449	 0.581172115567059 
1450	 0.581502943417289 
1451	 0.581813949637612 
1452	 0.582108571849243 
1453	 0.582405696140434 
1454	 0.582670424582396 
1455	 0.582884845818064 
1456	 0.583116623178442 
1457	 0.583337845916897 
1458	 0.583562931876681 
1459	 0.583814708618505 
1460	 0.584031289876535 
1461	 0.584207303672711 
1462	 0.584407162975716 
1463	 0.584591165797711 
1464	 0.584789096845673 
1465	 0.584979387428088 
1466	 0.585230391572527 
1467	 0.585484971124514 
1468	 0.585769800434062 
1469	 0.586142027791235 
1470	 0.586515724669236 
1471	 0.586883247272981 
1472	 0.587269911028607 
1473	 0.587652991687296 
1474	 0.588033723256436 
1475	 0.588409347589724 
1476	 0.588779308868968 
1477	 0.589190242739603 
1478	 0.589569591741082 
1479	 0.590056330216234 
1480	 0.590625627446318 
1481	 0.591188044777133 
1482	 0.591847917079229 
1483	 0.592396348849152 
1484	 0.592910682129616 
1485	 0.593419604106259 
1486	 0.593877773616974 
1487	 0.594336280136888 
1488	 0.594807347255971 
1489	 0.595239856109144 
1490	 0.595612598336365 
1491	 0.596028617270127 
1492	 0.596445729528863 
1493	 0.596872714603993 
1494	 0.597317222033776 
1495	 0.597758794097514 
1496	 0.598220350446644 
1497	 0.598646819996092 
1498	 0.599080683811526 
1499	 0.599472123141964 
1500	 0.599831241014856 
1501	 0.600162416489418 
1502	 0.600445509657912 
1503	 0.600740840322211 
1504	 0.6009789608012 
1505	 0.601281370688574 
1506	 0.601624528424751 
1507	 0.601964975602067 
1508	 0.602367414370551 
1509	 0.602720108657143 
1510	 0.603047075993936 
1511	 0.603365942698891 
1512	 0.603664894590379 
1513	 0.603949138559447 
1514	 0.604219411218538 
1515	 0.604484024993902 
1516	 0.604725301984759 
1517	 0.604970375347086 
1518	 0.605244099562229 
1519	 0.605465463817595 
1520	 0.60566320063355 
1521	 0.605832155052747 
1522	 0.605957063609947 
1523	 0.606099692076622 
1524	 0.60627187900411 
1525	 0.606466723248353 
1526	 0.606653347164607 
1527	 0.606857801739389 
1528	 0.607051142104125 
1529	 0.607217612930016 
1530	 0.607455533696204 
1531	 0.607740033664213 
1532	 0.607976221828574 
1533	 0.608242303498825 
1534	 0.608465179773668 
1535	 0.608642029062062 
1536	 0.608825650784114 
1537	 0.608995041803862 
1538	 0.60919686543456 
1539	 0.609396996594934 
1540	 0.609597474319205 
1541	 0.609839107135409 
1542	 0.610032006581841 
1543	 0.610184472373753 
1544	 0.61035575131209 
1545	 0.61051946924532 
1546	 0.610695851200788 
1547	 0.610881540019958 
1548	 0.611056067938604 
1549	 0.611239744313234 
1550	 0.611402605988843 
1551	 0.611548244005492 
1552	 0.611695353164009 
1553	 0.611838305610853 
1554	 0.611970198669488 
1555	 0.612111443207942 
1556	 0.612208460577758 
1557	 0.612249104978351 
1558	 0.612347344470447 
1559	 0.612435977074508 
1560	 0.612551931299128 
1561	 0.61272931701807 
1562	 0.612866963804451 
1563	 0.61299127100769 
1564	 0.61311359012455 
1565	 0.613226391646562 
1566	 0.613344492319941 
1567	 0.613433616481117 
1568	 0.613579579958294 
1569	 0.613755613543501 
1570	 0.613937952259327 
1571	 0.614194132127269 
1572	 0.614371670503147 
1573	 0.61452475545146 
1574	 0.61465161420243 
1575	 0.614722185508019 
1576	 0.614806341309097 
1577	 0.614869436706315 
1578	 0.614950423996416 
1579	 0.615041081017964 
1580	 0.615119772922686 
1581	 0.615199389701548 
1582	 0.615280036080375 
1583	 0.615356818266144 
1584	 0.615425466433645 
1585	 0.615507205030263 
1586	 0.615561990636536 
1587	 0.615593209137751 
1588	 0.615619574786569 
1589	 0.615650654242678 
1590	 0.615640316596477 
1591	 0.615589245263049 
1592	 0.615551950840265 
1593	 0.615436775686587 
1594	 0.61542748584863 
1595	 0.615481010197042 
1596	 0.615547927924098 
1597	 0.615735729196961 
1598	 0.615820171218071 
1599	 0.615874625022331 
1600	 0.615898361033804 
1601	 0.615848581517714 
1602	 0.615812416242477 
1603	 0.615756977421511 
1604	 0.615710812773944 
1605	 0.615643011686893 
1606	 0.615609358276515 
1607	 0.615592195754406 
1608	 0.615590490378753 
1609	 0.615639259002241 
1610	 0.61565041081263 
1611	 0.615627202058341 
1612	 0.615648611345888 
1613	 0.615676640992455 
1614	 0.615711066347476 
1615	 0.615805682063571 
1616	 0.615854065473113 
1617	 0.615848618344072 
1618	 0.615881449480977 
1619	 0.615909995216856 
1620	 0.615963605542479 
1621	 0.616051329434541 
1622	 0.616141106403594 
1623	 0.61624712038733 
1624	 0.616349417331845 
1625	 0.616482226954903 
1626	 0.616574888367911 
1627	 0.616658483795053 
1628	 0.616708698651176 
1629	 0.616720506828094 
1630	 0.616718763764174 
1631	 0.616668421449943 
1632	 0.616648969975688 
1633	 0.616614747239127 
1634	 0.616612914227856 
1635	 0.616642054188931 
1636	 0.616674161817686 
1637	 0.61672738947201 
1638	 0.616778820874583 
1639	 0.616850017068184 
1640	 0.616904726811003 
1641	 0.616985334155854 
1642	 0.617000350473786 
1643	 0.616968737122189 
1644	 0.616926342707954 
1645	 0.616823946982627 
1646	 0.616745639970029 
1647	 0.6166809667585 
1648	 0.61659508873279 
1649	 0.616472155033247 
1650	 0.616396009390039 
1651	 0.616324903861614 
1652	 0.616276314961884 
1653	 0.61627938692767 
1654	 0.616269666390096 
1655	 0.616269561961656 
1656	 0.616251127449402 
1657	 0.616226950424005 
1658	 0.616202528480877 
1659	 0.616163656710268 
1660	 0.616131213477029 
1661	 0.61611979187957 
1662	 0.616080675778957 
1663	 0.616048724634385 
1664	 0.615955941514315 
1665	 0.615795440514073 
1666	 0.615669453713173 
1667	 0.615495819380115 
1668	 0.615390242199057 
1669	 0.615330165454988 
1670	 0.61528757671383 
1671	 0.615288405166388 
1672	 0.615269608699723 
1673	 0.61527420532219 
1674	 0.615263495294991 
1675	 0.615254084462446 
1676	 0.615212215927665 
1677	 0.615168900837039 
1678	 0.615083099031831 
1679	 0.614933464451054 
1680	 0.614820378422442 
1681	 0.614691904775913 
1682	 0.614579773660017 
1683	 0.614456414098609 
1684	 0.614405643557781 
1685	 0.614383731169452 
1686	 0.614399771766141 
1687	 0.614500017175527 
1688	 0.61456829643252 
1689	 0.614647564419604 
1690	 0.614708645668389 
1691	 0.614760163146566 
1692	 0.614826839810411 
1693	 0.614887269308905 
1694	 0.614960817754467 
1695	 0.615033783687899 
1696	 0.615155925588208 
1697	 0.61530457749383 
1698	 0.615437218443817 
1699	 0.615639866215332 
1700	 0.615752148482642 
1701	 0.615818435566647 
1702	 0.615861855863198 
1703	 0.615842100757507 
1704	 0.615847299099857 
1705	 0.615821934102604 
1706	 0.615873773505644 
1707	 0.615940499282963 
1708	 0.616007285394746 
1709	 0.616059400069299 
1710	 0.616062312912933 
1711	 0.61607117685584 
1712	 0.616075093206124 
1713	 0.616066363462552 
1714	 0.616015573924404 
1715	 0.615937342987632 
1716	 0.615910375801101 
1717	 0.615874214822279 
1718	 0.615882149980996 
1719	 0.61589465622036 
1720	 0.615846223556204 
1721	 0.61581078626458 
1722	 0.615740286443871 
1723	 0.615701149788233 
1724	 0.615705878687832 
1725	 0.615655556838563 
1726	 0.615609630223948 
1727	 0.615573666664143 
1728	 0.615550712953057 
1729	 0.615571002197493 
1730	 0.615593341136433 
1731	 0.615639554981571 
1732	 0.615667601908837 
1733	 0.61564336099085 
1734	 0.615619074528697 
1735	 0.615558616131042 
1736	 0.615472309603735 
1737	 0.615361325957046 
1738	 0.615257655232394 
1739	 0.615123716713186 
1740	 0.614928419251093 
1741	 0.614754382453808 
1742	 0.614562687178485 
1743	 0.614395184946051 
1744	 0.614247570412105 
1745	 0.614091973967189 
1746	 0.613960916100571 
1747	 0.613795913499715 
1748	 0.613613595442869 
1749	 0.613430371484957 
1750	 0.613220469014278 
1751	 0.613017940165873 
1752	 0.612824817467103 
1753	 0.612595790452206 
1754	 0.612317403728075 
1755	 0.61213712314504 
1756	 0.611973265293719 
1757	 0.61189169146862 
1758	 0.611810700469535 
1759	 0.611665938233704 
1760	 0.611530084579589 
1761	 0.611395780675894 
1762	 0.61132912286218 
1763	 0.611288394485093 
1764	 0.611227140578537 
1765	 0.611201448154888 
1766	 0.611155814824553 
1767	 0.611132972143967 
1768	 0.611155531595165 
1769	 0.611177948312739 
1770	 0.611195516118259 
1771	 0.611171688209487 
1772	 0.611184898174463 
1773	 0.611232773882625 
1774	 0.61125917523015 
1775	 0.611326006219047 
1776	 0.611382732373966 
1777	 0.611404731808552 
1778	 0.611474218116982 
1779	 0.611534823524005 
1780	 0.611540383460859 
1781	 0.611511485352089 
1782	 0.611390212735209 
1783	 0.611291473514748 
1784	 0.611285155158886 
1785	 0.611280612794783 
1786	 0.611307683987598 
1787	 0.611324182747483 
1788	 0.61138327439189 
1789	 0.611504033227954 
1790	 0.61161401348751 
1791	 0.611778932456892 
1792	 0.611892716079296 
1793	 0.611959464615008 
1794	 0.612106898970733 
1795	 0.612229376123409 
1796	 0.61237896643154 
1797	 0.612557765168813 
1798	 0.612654764628511 
1799	 0.612661695996647 
1800	 0.612647152421947 
1801	 0.605767030871119 
1802	 0.605828643660645 
1803	 0.605926237211913 
1804	 0.606064511656014 
1805	 0.606225099192063 
1806	 0.606429318294294 
1807	 0.606653272504372 
1808	 0.606832438131172 
1809	 0.607143848240866 
1810	 0.60728019794889 
1811	 0.607292482047474 
1812	 0.607311591346914 
1813	 0.607315911479741 
1814	 0.607204727340825 
1815	 0.607051607323788 
1816	 0.606899379285563 
1817	 0.606765255173339 
1818	 0.606554039922255 
1819	 0.606440701110411 
1820	 0.606439943323516 
1821	 0.606367559055073 
1822	 0.606302562855618 
1823	 0.606224443910436 
1824	 0.60609978515704 
1825	 0.605925558912681 
1826	 0.605807547221947 
1827	 0.6057356575666 
1828	 0.605602127906221 
1829	 0.605472356688492 
1830	 0.605309526557827 
1831	 0.605094582306665 
1832	 0.604835411559961 
1833	 0.604719151127205 
1834	 0.604626524428643 
1835	 0.604566926686259 
1836	 0.604523411087705 
1837	 0.604386037085941 
1838	 0.604170470423112 
1839	 0.603978361779847 
1840	 0.603726817487693 
1841	 0.603533885063171 
1842	 0.603381293803022 
1843	 0.603197297718781 
1844	 0.603025186895309 
1845	 0.602809740899054 
1846	 0.602471182317563 
1847	 0.602202253562703 
1848	 0.602002612611343 
1849	 0.601896430206499 
1850	 0.601647393730416 
1851	 0.601416909559823 
1852	 0.601159619501987 
1853	 0.600733447023391 
1854	 0.60027134058529 
1855	 0.599882440757256 
1856	 0.599438577797258 
1857	 0.599000033494709 
1858	 0.59850473398097 
1859	 0.59789983114105 
1860	 0.597264842315454 
1861	 0.596506835132567 
1862	 0.595618426270204 
1863	 0.594663493808795 
1864	 0.593656693113976 
1865	 0.592572352280021 
1866	 0.591465434207753 
1867	 0.590348977785827 
1868	 0.589198742006609 
1869	 0.58781665926455 
1870	 0.586416347049623 
1871	 0.58498071100816 
1872	 0.583427690692697 
1873	 0.581777077171508 
1874	 0.580124094962344 
1875	 0.578252480160538 
1876	 0.57601113079114 
1877	 0.573691788328178 
1878	 0.571176739070482 
1879	 0.568527884619165 
1880	 0.565998385114042 
1881	 0.563349160442219 
1882	 0.560561580968107 
1883	 0.557810879574382 
1884	 0.555119287101624 
1885	 0.552100651551646 
1886	 0.549132389544519 
1887	 0.546053368856904 
1888	 0.542721621755459 
1889	 0.539490816422192 
1890	 0.536043504205286 
1891	 0.532482314618356 
1892	 0.52877493045288 
1893	 0.524727958190034 
1894	 0.520357652235141 
1895	 0.515932974961468 
1896	 0.511108839071986 
1897	 0.506051843915725 
1898	 0.501360183648659 
1899	 0.496316713083867 
1900	 0.491399937307329 
1901	 0.486777603016574 
1902	 0.48183841350875 
1903	 0.477245941321215 
1904	 0.472887720284724 
1905	 0.468718058107046 
1906	 0.464639802687872 
1907	 0.461112209577714 
1908	 0.45779670910826 
1909	 0.45476396903809 
1910	 0.452214397615134 
1911	 0.449826500558167 
1912	 0.447837211095437 
1913	 0.446228042178105 
1914	 0.444875739022629 
1915	 0.443859179197555 
1916	 0.44325932502503 
1917	 0.442853631453456 
1918	 0.442513490787631 
1919	 0.442497343885008 
1920	 0.442671307912112 
1921	 0.442802933306524 
1922	 0.44317054652869 
1923	 0.4436833466491 
1924	 0.444113782059495 
1925	 0.444751337175332 
1926	 0.445499915994634 
1927	 0.446415744387855 
1928	 0.447271147858102 
1929	 0.448236935695078 
1930	 0.449180596541981 
1931	 0.450091296319109 
1932	 0.451008918206355 
1933	 0.451883695433403 
1934	 0.452830619670651 
1935	 0.453696351498806 
1936	 0.454424332209014 
1937	 0.455260856936868 
1938	 0.456113899732404 
1939	 0.456986538761727 
1940	 0.457873125502351 
1941	 0.458881650063613 
1942	 0.459814585416257 
1943	 0.460684645006839 
1944	 0.461503949473846 
1945	 0.462271183258661 
1946	 0.463129362368585 
1947	 0.464032165584316 
1948	 0.464870759395527 
1949	 0.46570967803386 
1950	 0.466515396889197 
1951	 0.467204811693249 
1952	 0.4679421580081 
1953	 0.468691945349624 
1954	 0.469471653385799 
1955	 0.470241127264935 
1956	 0.471029763694754 
1957	 0.471864911903641 
1958	 0.472744799504708 
1959	 0.473502379818384 
1960	 0.474349264288493 
1961	 0.475174756575014 
1962	 0.475966606698112 
1963	 0.476755287708962 
1964	 0.477628057033795 
1965	 0.478346227170625 
1966	 0.478983659510374 
1967	 0.479574586608296 
1968	 0.480113690096036 
1969	 0.48069385829295 
1970	 0.481362603297561 
1971	 0.482130877192968 
1972	 0.482890221826393 
1973	 0.48363038517937 
1974	 0.484461832995332 
1975	 0.485377271511842 
1976	 0.486226478468029 
1977	 0.487129705801467 
1978	 0.488013232674761 
1979	 0.48888674895992 
1980	 0.489622568716057 
1981	 0.490471702159575 
1982	 0.491347808792543 
1983	 0.492167153718326 
1984	 0.493052151895646 
1985	 0.493868800474122 
1986	 0.494667067210576 
1987	 0.495497498544252 
1988	 0.49631044373772 
1989	 0.497116702714814 
1990	 0.49794284468796 
1991	 0.49879599277716 
1992	 0.499638215088085 
1993	 0.500517997921252 
1994	 0.501378662604088 
1995	 0.502215032834989 
1996	 0.50303764875786 
1997	 0.503751099187684 
1998	 0.504597329182796 
1999	 0.505552895299784 
2000	 0.506443910525324 
2001	 0.507397181040758 
2002	 0.508260489643875 
2003	 0.509013760743569 
2004	 0.509825011584275 
2005	 0.510578318188273 
2006	 0.511408652657312 
2007	 0.512294746603759 
2008	 0.513235871571718 
2009	 0.51412887361185 
2010	 0.515136460907786 
2011	 0.51615223088842 
2012	 0.517171366754441 
2013	 0.518160684351721 
2014	 0.519196282039151 
2015	 0.52013477265672 
2016	 0.521026744300654 
2017	 0.521833488058809 
2018	 0.522564868013841 
2019	 0.523265192658587 
2020	 0.523818549751233 
2021	 0.524497597007744 
2022	 0.525198007579636 
2023	 0.525886180512904 
2024	 0.526592744051965 
2025	 0.527269625006124 
2026	 0.527912297873371 
2027	 0.528464951075043 
2028	 0.529080876979438 
2029	 0.529721595303663 
2030	 0.530345710802027 
2031	 0.530910641664386 
2032	 0.531611379552958 
2033	 0.532432864041842 
2034	 0.533157261599034 
2035	 0.533901899837244 
2036	 0.534691591013037 
2037	 0.535368517862063 
2038	 0.536031803134322 
2039	 0.536635206145491 
2040	 0.537283404576537 
2041	 0.537709178955921 
2042	 0.537975248814121 
2043	 0.538213804866816 
2044	 0.538257868739037 
2045	 0.538446029022486 
2046	 0.538553859778886 
2047	 0.538819998667421 
2048	 0.539184266620256 
2049	 0.539623752227116 
2050	 0.540182691928049 
2051	 0.540817753715179 
2052	 0.54147191515112 
2053	 0.542026758472958 
2054	 0.542470976960917 
2055	 0.542805190868329 
2056	 0.543148149973019 
2057	 0.543413135900919 
2058	 0.543632562207303 
2059	 0.543798938160894 
2060	 0.543984614224524 
2061	 0.544056684107239 
2062	 0.544235525558242 
2063	 0.544424000353515 
2064	 0.544731126883926 
2065	 0.545110489237019 
2066	 0.545553492640928 
2067	 0.546112734041968 
2068	 0.54665274052655 
2069	 0.547177364170334 
2070	 0.547727647502227 
2071	 0.548212769267541 
2072	 0.54870532596722 
2073	 0.54908623621018 
2074	 0.549341156576917 
2075	 0.549643975420676 
2076	 0.549862084037521 
2077	 0.55016736865631 
2078	 0.550574618941349 
2079	 0.550909175048283 
2080	 0.551191061267556 
2081	 0.551529407028733 
2082	 0.551903289219889 
2083	 0.55219471277847 
2084	 0.552651132156677 
2085	 0.55299116989837 
2086	 0.553180166421421 
2087	 0.55320954266759 
2088	 0.553336074344064 
2089	 0.553323603275794 
2090	 0.553429170288384 
2091	 0.553649836706662 
2092	 0.553814188642392 
2093	 0.553946074122163 
2094	 0.554108023263124 
2095	 0.554290786511871 
2096	 0.554478537398234 
2097	 0.55459966625406 
2098	 0.554889019996423 
2099	 0.555175978326914 
2100	 0.555399117834065 
2101	 0.555631401073617 
2102	 0.55586527248763 
2103	 0.556078023981972 
2104	 0.55625948923163 
2105	 0.556485241648511 
2106	 0.556694646373941 
2107	 0.556967326009547 
2108	 0.557441253264294 
2109	 0.557600996289235 
2110	 0.557593297009056 
2111	 0.557653671028804 
2112	 0.55745190500357 
2113	 0.557444638433928 
2114	 0.557648694595581 
2115	 0.557794535940275 
2116	 0.558040412609036 
2117	 0.558110239770121 
2118	 0.558207290543608 
2119	 0.558302116332815 
2120	 0.55834236701991 
2121	 0.558287589382312 
2122	 0.558341780455252 
2123	 0.558354807702781 
2124	 0.558483433631946 
2125	 0.558876699640433 
2126	 0.558922435382137 
2127	 0.558826378768895 
2128	 0.558784631631259 
2129	 0.558535191917087 
2130	 0.558364110381456 
2131	 0.558364301113 
2132	 0.558218850760857 
2133	 0.557915325325105 
2134	 0.557663049586397 
2135	 0.5574655850512 
2136	 0.557216168454862 
2137	 0.556930121461758 
2138	 0.556677728108388 
2139	 0.556320818276737 
2140	 0.555813753014923 
2141	 0.555425009031502 
2142	 0.555072105850893 
2143	 0.554666477182938 
2144	 0.554328368780662 
2145	 0.553864076833132 
2146	 0.55330784690399 
2147	 0.552713264426909 
2148	 0.552049582419146 
2149	 0.551346497045526 
2150	 0.550777703349716 
2151	 0.549840659396623 
2152	 0.548633243716705 
2153	 0.547357723086891 
2154	 0.545925228736321 
2155	 0.544533489282388 
2156	 0.543293723278792 
2157	 0.542290624463769 
2158	 0.541086040107368 
2159	 0.539830141118702 
2160	 0.538586582872718 
2161	 0.537233216227039 
2162	 0.536067364575895 
2163	 0.535081061998914 
2164	 0.533904341934873 
2165	 0.53270577912914 
2166	 0.531550604924385 
2167	 0.530316320017827 
2168	 0.529064690363366 
2169	 0.527970555866068 
2170	 0.526681838435219 
2171	 0.525089920460114 
2172	 0.523686709498756 
2173	 0.522294714820282 
2174	 0.520928349439484 
2175	 0.519741131383139 
2176	 0.518546467275159 
2177	 0.517365579108333 
2178	 0.516186745798523 
2179	 0.515085983827834 
2180	 0.513936954774715 
2181	 0.51307416609215 
2182	 0.512472002037986 
2183	 0.511755938216599 
2184	 0.511219443632106 
2185	 0.510535940278174 
2186	 0.509776436169445 
2187	 0.508971760871636 
2188	 0.508034472800375 
2189	 0.507263619193065 
2190	 0.506459805418514 
2191	 0.505751083085228 
2192	 0.505351754917314 
2193	 0.504731212840932 
2194	 0.503923111363383 
2195	 0.503227446289002 
2196	 0.502402210401436 
2197	 0.501827232388976 
2198	 0.501266929616729 
2199	 0.500608916947173 
2200	 0.499765629649138 
2201	 0.498710084715258 
2202	 0.497753604031473 
2203	 0.496632249621246 
2204	 0.495710700542879 
2205	 0.494758372738262 
2206	 0.494168397780126 
2207	 0.49390562364262 
2208	 0.493554005013158 
2209	 0.493393063743388 
2210	 0.493306153171177 
2211	 0.493100221314428 
2212	 0.493233513716024 
2213	 0.493643272582837 
2214	 0.494207296835087 
2215	 0.495133253760674 
2216	 0.495882992696983 
2217	 0.496804847939505 
2218	 0.497614209946661 
2219	 0.498061242804289 
2220	 0.498853181095943 
2221	 0.499890606929748 
2222	 0.500954489707493 
2223	 0.501861177889411 
2224	 0.502880146934075 
2225	 0.503389684174238 
2226	 0.503895179057368 
2227	 0.504482584919067 
2228	 0.505115927921728 
2229	 0.505619620623652 
2230	 0.506179295367489 
2231	 0.506425041859334 
2232	 0.506285538275528 
2233	 0.506584274789459 
2234	 0.506966831394589 
2235	 0.507293593920882 
2236	 0.507891593172714 
2237	 0.508221202920566 
2238	 0.508237060511115 
2239	 0.50841330797276 
2240	 0.508593205517294 
2241	 0.508930391382551 
2242	 0.50946783646536 
2243	 0.509729401287131 
2244	 0.509907100676582 
2245	 0.510172610667955 
2246	 0.510222669159822 
2247	 0.510461057168285 
2248	 0.511247607313189 
2249	 0.511427926627995 
2250	 0.51141043133799 
2251	 0.511025695224776 
2252	 0.510298789630547 
2253	 0.510130413724851 
2254	 0.509877121059984 
2255	 0.509831618172873 
2256	 0.509984232102619 
2257	 0.509854861030712 
2258	 0.509904246252575 
2259	 0.51016214626962 
2260	 0.510052690995385 
2261	 0.50976760469292 
2262	 0.509608476960024 
2263	 0.509215453481741 
2264	 0.509158702467252 
2265	 0.509485783319031 
2266	 0.50939275868895 
2267	 0.509185653525798 
2268	 0.509006523427691 
2269	 0.508668272813503 
2270	 0.508406979868258 
2271	 0.508342150226476 
2272	 0.507904503260369 
2273	 0.50709491982845 
2274	 0.506591403324182 
2275	 0.505895556241106 
2276	 0.505581181977196 
2277	 0.505852380042036 
2278	 0.505663173721794 
2279	 0.505419210893481 
2280	 0.50509121245657 
2281	 0.504513094885518 
2282	 0.504022481566784 
2283	 0.50363790212039 
2284	 0.503025699127438 
2285	 0.502408890691814 
2286	 0.501621518187905 
2287	 0.500550015475562 
2288	 0.49968793751776 
2289	 0.499143672711916 
2290	 0.498377331643594 
2291	 0.497690862166484 
2292	 0.497214244967558 
2293	 0.496711821243726 
2294	 0.495980693731731 
2295	 0.495105146882108 
2296	 0.494498669882067 
2297	 0.49381867488814 
2298	 0.493000125488351 
2299	 0.492170169320957 
2300	 0.491306582184613 
2301	 0.490735071346814 
2302	 0.490269564164144 
2303	 0.489690017428295 
2304	 0.489494834845089 
2305	 0.488866174486059 
2306	 0.487707415278368 
2307	 0.486919715766042 
2308	 0.486204741752703 
2309	 0.485605426476198 
2310	 0.485270898457698 
2311	 0.484572856772164 
2312	 0.483610668898168 
2313	 0.482969781010687 
2314	 0.482128267365088 
2315	 0.481703866999059 
2316	 0.482128581540761 
2317	 0.481670584393672 
2318	 0.481088918535837 
2319	 0.48021724142906 
2320	 0.478365260662499 
2321	 0.477195473637512 
2322	 0.476265083133206 
2323	 0.47520236622956 
2324	 0.474321842161055 
2325	 0.473647178260801 
2326	 0.473000815063462 
2327	 0.472455901815098 
2328	 0.472436124691242 
2329	 0.471770912289754 
2330	 0.470646208096076 
2331	 0.469629613662396 
2332	 0.468778482605828 
2333	 0.467996111517436 
2334	 0.467578203150722 
2335	 0.466621491123355 
2336	 0.466025094803309 
2337	 0.465985771866117 
2338	 0.46567460168547 
2339	 0.465600734874373 
2340	 0.465298536163533 
2341	 0.464483514477246 
2342	 0.464357362746742 
2343	 0.464790918954154 
2344	 0.464851530192393 
2345	 0.464327602844488 
2346	 0.463829934086364 
2347	 0.464388131520528 
2348	 0.464445548111557 
2349	 0.463882873075494 
2350	 0.463291570433885 
2351	 0.461468598939981 
2352	 0.459988955024391 
2353	 0.460028645247728 
2354	 0.460322057727011 
2355	 0.460790244901756 
2356	 0.461526590373374 
2357	 0.461580078680937 
2358	 0.460849720666572 
2359	 0.460117129971161 
2360	 0.459701203178544 
2361	 0.459265492704952 
2362	 0.459762646889893 
2363	 0.461114012323805 
2364	 0.462266414583155 
2365	 0.463236334663204 
2366	 0.462861762060253 
2367	 0.462539167283196 
2368	 0.463076473475471 
2369	 0.4627182476856 
2370	 0.463095915468924 
2371	 0.463997343708277 
2372	 0.463691714536503 
2373	 0.462875223904103 
2374	 0.463038356665803 
2375	 0.462699402344699 
2376	 0.461265321243241 
2377	 0.460784586769686 
2378	 0.459102701981617 
2379	 0.457053482367832 
2380	 0.456089232225303 
2381	 0.45666340052295 
2382	 0.45698738893997 
2383	 0.4583557248102 
2384	 0.458256204265664 
2385	 0.457418485317222 
2386	 0.456662325616271 
2387	 0.455167560185701 
2388	 0.455149670534407 
2389	 0.456554572182889 
2390	 0.456052641354537 
2391	 0.45510869103985 
2392	 0.454806829246285 
2393	 0.453478071632191 
2394	 0.452882306391849 
2395	 0.452989857723107 
2396	 0.452018785563989 
2397	 0.4509375690334 
2398	 0.449968085241095 
2399	 0.449314507005354 
2400	 0.44902056134538 
2401	 0.447263623956263 
2402	 0.447496568962515 
2403	 0.448504384307665 
2404	 0.448544548169531 
2405	 0.450440123987989 
2406	 0.451227794808675 
2407	 0.450088589033425 
2408	 0.448571225652891 
2409	 0.448033989481428 
2410	 0.447888831781543 
2411	 0.447897446390364 
2412	 0.449336897351012 
2413	 0.448837788772444 
2414	 0.446991328612173 
2415	 0.445149117377439 
2416	 0.443770475859907 
2417	 0.441981250595104 
2418	 0.43876053819292 
2419	 0.437266634748975 
2420	 0.433925674133476 
2421	 0.429959756365796 
2422	 0.431656412110159 
2423	 0.433325366785013 
2424	 0.437330534271068 
2425	 0.444403979085639 
2426	 0.446022308403984 
2427	 0.445747508532186 
2428	 0.440197667751511 
2429	 0.434795970880973 
2430	 0.43339662639879 
2431	 0.429109657876057 
2432	 0.427027101661639 
2433	 0.426837631944411 
2434	 0.425003073136573 
2435	 0.422438941551907 
2436	 0.423691596303514 
2437	 0.424620636316662 
2438	 0.426629537383904 
2439	 0.431281362981282 
2440	 0.427872755427609 
2441	 0.42447389022023 
2442	 0.426428742255288 
2443	 0.425421648932909 
2444	 0.428578002058387 
2445	 0.430381068278232 
2446	 0.41864369735553 
2447	 0.41378967326714 
2448	 0.41636635119292 
2449	 0.417018536124183 
2450	 0.422380796732994 
2451	 0.426251887858156 
2452	 0.426823422694783 
2453	 0.425990824801953 
2454	 0.427871580863459 
2455	 0.42774161698101 
2456	 0.421919722363033 
2457	 0.418318111655996 
2458	 0.415701742884128 
2459	 0.408986235150544 
2460	 0.404314420402974 
2461	 0.405636632375221 
2462	 0.404813408013543 
2463	 0.409384353704013 
2464	 0.415227813915423 
2465	 0.417129966257601 
2466	 0.419114698994189 
2467	 0.412718151418041 
2468	 0.410675672672969 
2469	 0.410799468024067 
2470	 0.407094830919278 
2471	 0.415031782759084 
2472	 0.42428646793784 
2473	 0.425019694000449 
2474	 0.425217139489209 
2475	 0.413906595766043 
2476	 0.397239906488148 
2477	 0.400565705411833 
2478	 0.406578246822438 
2479	 0.412930497317351 
2480	 0.411912105038884 
2481	 0.404782492958131 
2482	 0.396207356726882 
2483	 0.395490901764112 
2484	 0.401662617388581 
2485	 0.408455362178993 
2486	 0.404956515758624 
2487	 0.410360785974216 
2488	 0.405864885188937 
2489	 0.395651363713817 
2490	 0.394253606560604 
2491	 0.391686221749567 
2492	 0.393713483338657 
2493	 0.394869863313681 
2494	 0.393871551864302 
2495	 0.407030842471456 
2496	 0.420896539866344 
2497	 0.433187192335114 
2498	 0.449681234814477 
2499	 0.437880751782084 
2500	 0.424880171976021 
