Wavelength	A00015.asd
350	 0.213934404997952 
351	 0.217936470184966 
352	 0.196935613531732 
353	 0.168754149083555 
354	 0.190107216993099 
355	 0.186027477829874 
356	 0.170274745448427 
357	 0.168064550134874 
358	 0.185449849386088 
359	 0.178392715220383 
360	 0.159321421405006 
361	 0.160704528999357 
362	 0.153833287927745 
363	 0.151333050991418 
364	 0.156086797157331 
365	 0.155778786735594 
366	 0.149533339745074 
367	 0.147759412623278 
368	 0.154910799689335 
369	 0.152396241588148 
370	 0.145502375293355 
371	 0.140012525326989 
372	 0.140118692542413 
373	 0.137205186478684 
374	 0.134112831559144 
375	 0.132938441818809 
376	 0.133217542197012 
377	 0.133471906704478 
378	 0.13338586652263 
379	 0.133114234940753 
380	 0.133181942477374 
381	 0.133096353271375 
382	 0.132204549100796 
383	 0.129966087317737 
384	 0.127010261450404 
385	 0.125269087830677 
386	 0.125857335352663 
387	 0.128939251050418 
388	 0.129176725383098 
389	 0.127136606201326 
390	 0.125117388723775 
391	 0.124942711494138 
392	 0.124642272221921 
393	 0.124097464236911 
394	 0.124301596625335 
395	 0.124463826870365 
396	 0.124749253217339 
397	 0.124852521207477 
398	 0.123427724351486 
399	 0.122898050437579 
400	 0.12290472587623 
401	 0.122726149804257 
402	 0.123944820247812 
403	 0.123487819935974 
404	 0.122325039262669 
405	 0.123939405700387 
406	 0.122847916950633 
407	 0.121876200944126 
408	 0.122658884053249 
409	 0.122279709457714 
410	 0.122859253528956 
411	 0.123727668418332 
412	 0.123646501976722 
413	 0.123103815034679 
414	 0.122675112271901 
415	 0.122802269927802 
416	 0.123727198202335 
417	 0.124374710904827 
418	 0.12443417822454 
419	 0.124072729137116 
420	 0.124131201458075 
421	 0.124178923110686 
422	 0.124112195903798 
423	 0.12405095104821 
424	 0.124737446714988 
425	 0.124980244379981 
426	 0.124723780555865 
427	 0.125346844505114 
428	 0.125961766325584 
429	 0.12625874741051 
430	 0.126278095932709 
431	 0.126738638079932 
432	 0.126795116387754 
433	 0.1267377643599 
434	 0.12735088765199 
435	 0.127629596708829 
436	 0.12791064674714 
437	 0.128360977110916 
438	 0.128657683172696 
439	 0.128702189583355 
440	 0.128907303797958 
441	 0.12954863762555 
442	 0.129663687213183 
443	 0.130015330315835 
444	 0.130754493728362 
445	 0.13147183679689 
446	 0.131685942522798 
447	 0.131885081169132 
448	 0.132392671835098 
449	 0.132792918474728 
450	 0.133272920863324 
451	 0.133670228626045 
452	 0.133816696203378 
453	 0.134296880715616 
454	 0.134720217587857 
455	 0.135033956756055 
456	 0.135613082596339 
457	 0.135554848524296 
458	 0.135473941568126 
459	 0.135957932122584 
460	 0.136483852226455 
461	 0.137132032754914 
462	 0.137510143212212 
463	 0.137192223623389 
464	 0.137749749385951 
465	 0.13832681514579 
466	 0.138466919435993 
467	 0.138756841812551 
468	 0.139004862118671 
469	 0.139195205969077 
470	 0.139395071411713 
471	 0.139854749037172 
472	 0.140170738133559 
473	 0.140246404931162 
474	 0.140275957046509 
475	 0.140717870673324 
476	 0.141200194916441 
477	 0.141465433273584 
478	 0.141807941056421 
479	 0.142343428219053 
480	 0.142594425790913 
481	 0.142155317922636 
482	 0.142593019277622 
483	 0.143146783666806 
484	 0.143423164680062 
485	 0.143650771841745 
486	 0.143973450016344 
487	 0.144430437747902 
488	 0.144948034432406 
489	 0.145253231368527 
490	 0.145314492916272 
491	 0.145499046088525 
492	 0.146258331480846 
493	 0.146451658287821 
494	 0.146673563706815 
495	 0.147212344160307 
496	 0.147482890832339 
497	 0.148000023484339 
498	 0.148543058729894 
499	 0.148797086454444 
500	 0.149084407337498 
501	 0.149389062342717 
502	 0.149709084342311 
503	 0.1500668890037 
504	 0.15054365588286 
505	 0.15101780049573 
506	 0.15139868496194 
507	 0.151738567833051 
508	 0.152234764905336 
509	 0.152767856366718 
510	 0.153095002781071 
511	 0.153215001474775 
512	 0.153526744694701 
513	 0.15412463419554 
514	 0.15468010028385 
515	 0.154955096166473 
516	 0.155174952700731 
517	 0.155592219236686 
518	 0.156058416819661 
519	 0.156591264077125 
520	 0.157144599423871 
521	 0.157633804729336 
522	 0.158084714754895 
523	 0.158608246154486 
524	 0.159220085347121 
525	 0.159726724183892 
526	 0.160324182154862 
527	 0.160964650459953 
528	 0.161568755071163 
529	 0.162401166960134 
530	 0.163208298476114 
531	 0.163898981244103 
532	 0.164588124932537 
533	 0.165262950003167 
534	 0.166104929087082 
535	 0.167167150651641 
536	 0.168019240634353 
537	 0.168948792628512 
538	 0.169965392958695 
539	 0.170939443355167 
540	 0.172053198871551 
541	 0.173185942803976 
542	 0.174325113355438 
543	 0.175704763485892 
544	 0.177015478058053 
545	 0.178258009105649 
546	 0.179548779021342 
547	 0.181039399275789 
548	 0.182509810749801 
549	 0.183934616752477 
550	 0.185488664625884 
551	 0.187448463722738 
552	 0.189806242358739 
553	 0.192386197610788 
554	 0.194822011847149 
555	 0.197268417679849 
556	 0.199772290137263 
557	 0.202331001594528 
558	 0.204819146825557 
559	 0.207249067963642 
560	 0.209629896236254 
561	 0.211927356277437 
562	 0.214192847618984 
563	 0.216499881791961 
564	 0.218824830161825 
565	 0.220711209261226 
566	 0.222606253690356 
567	 0.224678681174228 
568	 0.226832569376947 
569	 0.228930758468879 
570	 0.231181173872491 
571	 0.233763538680735 
572	 0.23640584989769 
573	 0.239976800692485 
574	 0.244635099974421 
575	 0.249816963025888 
576	 0.254070280006233 
577	 0.257218762762729 
578	 0.259485797212806 
579	 0.261197903376473 
580	 0.262781097945819 
581	 0.264391424212485 
582	 0.266120030307293 
583	 0.268102143854338 
584	 0.270248855084265 
585	 0.272472823024767 
586	 0.274700157727644 
587	 0.277004218690143 
588	 0.279350258159372 
589	 0.281824515141305 
590	 0.284751709325953 
591	 0.287322327475984 
592	 0.289862299643603 
593	 0.292851324761975 
594	 0.295806615602044 
595	 0.298468393757564 
596	 0.300872207383114 
597	 0.303289156153844 
598	 0.305433004693459 
599	 0.307492834042333 
600	 0.309589918667154 
601	 0.311458484316927 
602	 0.313506432856667 
603	 0.315523419717589 
604	 0.317136621838874 
605	 0.318789719362117 
606	 0.320748615402253 
607	 0.322832899553998 
608	 0.324318406360105 
609	 0.325964528491796 
610	 0.327606159612379 
611	 0.329022585220827 
612	 0.330599220546845 
613	 0.332233914612617 
614	 0.333738099457463 
615	 0.334921667636234 
616	 0.336140469445688 
617	 0.337475096250573 
618	 0.338944031809348 
619	 0.340568695325185 
620	 0.342009023125631 
621	 0.34328524713918 
622	 0.344569728596807 
623	 0.346076034864968 
624	 0.347247474100914 
625	 0.348195766043041 
626	 0.349641380413514 
627	 0.350831895862815 
628	 0.351980787332222 
629	 0.353333831619513 
630	 0.354853923497909 
631	 0.355788743653407 
632	 0.356574727936068 
633	 0.358036899299786 
634	 0.35946346439108 
635	 0.360774236656202 
636	 0.36197095334594 
637	 0.363099687342546 
638	 0.364329032987128 
639	 0.36559093724997 
640	 0.366798128809206 
641	 0.367989846772214 
642	 0.36922958930045 
643	 0.37058345956158 
644	 0.372083911371312 
645	 0.373383086878667 
646	 0.374454540890643 
647	 0.375499114359544 
648	 0.377026658343591 
649	 0.378498107888277 
650	 0.37989203142436 
651	 0.381267519583 
652	 0.382298863036083 
653	 0.383401351742072 
654	 0.384757907940812 
655	 0.386307192455487 
656	 0.387718633575398 
657	 0.388890997986053 
658	 0.3899665998543 
659	 0.391505646732783 
660	 0.393128349823317 
661	 0.394482613825507 
662	 0.395442547548955 
663	 0.396974115726778 
664	 0.398521952697863 
665	 0.399855264850373 
666	 0.401165106806855 
667	 0.402598054443929 
668	 0.404010232509845 
669	 0.405264551329219 
670	 0.406361645359257 
671	 0.408127635429935 
672	 0.409995776180196 
673	 0.411025010229028 
674	 0.412617688725177 
675	 0.414143057717591 
676	 0.415514650088196 
677	 0.417461028681391 
678	 0.418569097419592 
679	 0.419587157924973 
680	 0.421292720138013 
681	 0.422909536157349 
682	 0.424695851792439 
683	 0.426390693062589 
684	 0.427566862939112 
685	 0.428700374652989 
686	 0.430071884283867 
687	 0.431658998450261 
688	 0.433051229874739 
689	 0.434843114941518 
690	 0.436646769841439 
691	 0.438108912675856 
692	 0.439988534650657 
693	 0.441572005270612 
694	 0.442886598468377 
695	 0.444404343711096 
696	 0.445778002276545 
697	 0.446973657910987 
698	 0.448229425033467 
699	 0.450170515457351 
700	 0.452126540795524 
701	 0.453488595064536 
702	 0.454227374536321 
703	 0.456325713017975 
704	 0.458172542274721 
705	 0.459568166161791 
706	 0.461295077902362 
707	 0.463062895175113 
708	 0.464573703312979 
709	 0.465896553900122 
710	 0.467742547197899 
711	 0.468977593624041 
712	 0.469889609796167 
713	 0.471135007965624 
714	 0.472976532565698 
715	 0.474713217171774 
716	 0.476186555277533 
717	 0.477652934662346 
718	 0.479119144020708 
719	 0.480614650621124 
720	 0.482109382728009 
721	 0.483505063447868 
722	 0.484336689864333 
723	 0.485439862954939 
724	 0.487452140053728 
725	 0.488511076118743 
726	 0.489791779777211 
727	 0.491432286800483 
728	 0.492809514652772 
729	 0.493994134752351 
730	 0.495155826803803 
731	 0.496462667484271 
732	 0.498057374283264 
733	 0.499382196481952 
734	 0.500338079388665 
735	 0.501174115326879 
736	 0.502861610792153 
737	 0.504136883823013 
738	 0.505057107239803 
739	 0.506490635019855 
740	 0.507876012627335 
741	 0.508885952402012 
742	 0.509610773340413 
743	 0.510722155241229 
744	 0.51204347801965 
745	 0.513321047937687 
746	 0.514394434728848 
747	 0.5155460263633 
748	 0.516579324990611 
749	 0.517523758553289 
750	 0.518571858388137 
751	 0.520162570976741 
752	 0.521249712494362 
753	 0.521542682704221 
754	 0.521903732050642 
755	 0.522713164509274 
756	 0.52378521611519 
757	 0.524784501121747 
758	 0.525400919509976 
759	 0.526012816118526 
760	 0.526812686412337 
761	 0.527861681459799 
762	 0.529041710359864 
763	 0.530241027873189 
764	 0.531306638747399 
765	 0.53205923571068 
766	 0.532750837475354 
767	 0.533136265987718 
768	 0.533245697226856 
769	 0.53396419494187 
770	 0.53479078287098 
771	 0.535421669439027 
772	 0.535654812465521 
773	 0.535324647434785 
774	 0.536032668827592 
775	 0.537718390279293 
776	 0.538948648332373 
777	 0.539865475416791 
778	 0.54065682424618 
779	 0.541397394115272 
780	 0.541900689806959 
781	 0.542469311435071 
782	 0.543068869871328 
783	 0.543555049573629 
784	 0.543787914193017 
785	 0.543860567787292 
786	 0.544087961316944 
787	 0.544806742716041 
788	 0.545641061105369 
789	 0.546187170530139 
790	 0.546483266477383 
791	 0.547070158694557 
792	 0.547737197841749 
793	 0.548581087575767 
794	 0.549503942417712 
795	 0.549812562503316 
796	 0.549942747645982 
797	 0.5500343290243 
798	 0.55015963839467 
799	 0.550525052501128 
800	 0.551203201556406 
801	 0.55178271223235 
802	 0.551622074992408 
803	 0.551652735109324 
804	 0.551600019753367 
805	 0.551529188045068 
806	 0.552235427477594 
807	 0.552657896813496 
808	 0.553539222806667 
809	 0.55518773438484 
810	 0.555206082644338 
811	 0.555546076456242 
812	 0.55607395481343 
813	 0.55596508094069 
814	 0.556170140294366 
815	 0.556789142516286 
816	 0.557374508228827 
817	 0.557142950904468 
818	 0.556701722647906 
819	 0.556351147108416 
820	 0.556330296919254 
821	 0.556836078716208 
822	 0.558082438449597 
823	 0.558811558698123 
824	 0.558350842437004 
825	 0.558982204709867 
826	 0.560211935982568 
827	 0.560854018339966 
828	 0.560023696599334 
829	 0.560520093250404 
830	 0.561328318439418 
831	 0.561969803066512 
832	 0.562572537130747 
833	 0.562154573335439 
834	 0.561913147510209 
835	 0.562510859602276 
836	 0.563292030694322 
837	 0.563406615583619 
838	 0.563468134750727 
839	 0.563957082350846 
840	 0.563764713834191 
841	 0.563998727707771 
842	 0.564898265233926 
843	 0.566119482663706 
844	 0.566577189736051 
845	 0.566537502729943 
846	 0.566161095335633 
847	 0.565652431669943 
848	 0.566632926547861 
849	 0.567520097244501 
850	 0.567582774016314 
851	 0.567668602876643 
852	 0.568344944911619 
853	 0.568762331504217 
854	 0.568509264478657 
855	 0.568754545685217 
856	 0.569061834410009 
857	 0.569634415466935 
858	 0.570553250592868 
859	 0.570870164050608 
860	 0.570815188387235 
861	 0.570985659438993 
862	 0.571952824004383 
863	 0.573122194525075 
864	 0.573419655558423 
865	 0.573070022386094 
866	 0.573384418942254 
867	 0.574374598429975 
868	 0.57530047822606 
869	 0.575766795002986 
870	 0.576045478536878 
871	 0.576758647900022 
872	 0.577122118867639 
873	 0.576886977083606 
874	 0.577677806106211 
875	 0.578535767494636 
876	 0.579257517913896 
877	 0.579902814206333 
878	 0.580670202056374 
879	 0.581247820523814 
880	 0.581219550621777 
881	 0.580596556042732 
882	 0.581643637604929 
883	 0.5830001344879 
884	 0.583907455033676 
885	 0.584310976543099 
886	 0.584189255859846 
887	 0.584688508668954 
888	 0.585835321286117 
889	 0.586323792211946 
890	 0.586902557495651 
891	 0.588081632381255 
892	 0.589542124987951 
893	 0.589695627740588 
894	 0.590185334932508 
895	 0.590636392746865 
896	 0.590715386099069 
897	 0.59157383954633 
898	 0.592351460356507 
899	 0.592535430888842 
900	 0.592124956055644 
901	 0.592298450231352 
902	 0.593891633913856 
903	 0.595659669856172 
904	 0.59583794323491 
905	 0.596049004099523 
906	 0.596356968907638 
907	 0.596992264855649 
908	 0.598133759128109 
909	 0.598427694351175 
910	 0.59899148703784 
911	 0.600278373209688 
912	 0.601701546580972 
913	 0.601833838870949 
914	 0.602325014544856 
915	 0.603664064261965 
916	 0.604146789306702 
917	 0.604720326804666 
918	 0.605481768961356 
919	 0.60642483179467 
920	 0.607660216178932 
921	 0.607988156051955 
922	 0.608576849089902 
923	 0.610134554615635 
924	 0.61057361073299 
925	 0.611424539792437 
926	 0.612652042458111 
927	 0.613644585615175 
928	 0.613599140024547 
929	 0.613815968863128 
930	 0.614716617312392 
931	 0.616202912880671 
932	 0.617954705202588 
933	 0.619716486853339 
934	 0.621171395758748 
935	 0.622037277934569 
936	 0.622136836277063 
937	 0.622472627474846 
938	 0.623115790501598 
939	 0.623578466450915 
940	 0.624729899956809 
941	 0.625606863275929 
942	 0.626401235450811 
943	 0.628115744497715 
944	 0.628557257689682 
945	 0.629192738882004 
946	 0.630338310268184 
947	 0.630762187816 
948	 0.631245108237561 
949	 0.631117391499467 
950	 0.631034966670515 
951	 0.633234284229449 
952	 0.635544984276765 
953	 0.636562503411737 
954	 0.636457483704984 
955	 0.637355405428167 
956	 0.63842127187379 
957	 0.638798118840491 
958	 0.638672676629102 
959	 0.639923117889242 
960	 0.640669870970488 
961	 0.641599022060492 
962	 0.643167181556862 
963	 0.644208634050816 
964	 0.644816656439688 
965	 0.645729812628283 
966	 0.647064199238941 
967	 0.647161636816514 
968	 0.647084255165342 
969	 0.647274542644208 
970	 0.647994569070003 
971	 0.649529977347971 
972	 0.650695944717275 
973	 0.651674520481358 
974	 0.652883752051819 
975	 0.654115033392985 
976	 0.65468277836901 
977	 0.65496540086935 
978	 0.655824530799316 
979	 0.65840375086809 
980	 0.660630410865715 
981	 0.662069154461008 
982	 0.662919098694451 
983	 0.663210401711508 
984	 0.664053759981123 
985	 0.665119011896322 
986	 0.665809288627777 
987	 0.66665183591983 
988	 0.666965894115542 
989	 0.667793476331151 
990	 0.669820252868772 
991	 0.670496281875304 
992	 0.671173045658596 
993	 0.671662220412952 
994	 0.671634426280335 
995	 0.672101986767996 
996	 0.673223272459051 
997	 0.674257689631951 
998	 0.674671014467828 
999	 0.675813410199321 
1000	 0.676658488349252 
1001	 0.665462157840636 
1002	 0.666225841113165 
1003	 0.667053183870579 
1004	 0.667845772306417 
1005	 0.668564830490373 
1006	 0.669319829404746 
1007	 0.670087869119543 
1008	 0.670898432587414 
1009	 0.67172018387609 
1010	 0.672515590421295 
1011	 0.673368662867734 
1012	 0.674165090805215 
1013	 0.674884573899305 
1014	 0.675627283415541 
1015	 0.676360153984022 
1016	 0.677149446847336 
1017	 0.677865081150351 
1018	 0.678560650474607 
1019	 0.679403618976318 
1020	 0.680222328873556 
1021	 0.681014133795818 
1022	 0.681902095699094 
1023	 0.682657977503086 
1024	 0.683255084984024 
1025	 0.683961742226435 
1026	 0.684692850092354 
1027	 0.685379218462685 
1028	 0.68604971744816 
1029	 0.686817829850468 
1030	 0.687472652672352 
1031	 0.688088356802756 
1032	 0.688675982102054 
1033	 0.689189954686767 
1034	 0.689765793149358 
1035	 0.690325238739946 
1036	 0.690859047394757 
1037	 0.691438351021486 
1038	 0.69195076398951 
1039	 0.692343108980438 
1040	 0.69286363773818 
1041	 0.693446187922586 
1042	 0.693979668997057 
1043	 0.694536033516649 
1044	 0.695090576095133 
1045	 0.695619839136513 
1046	 0.696158764106058 
1047	 0.696805444800166 
1048	 0.697438930430388 
1049	 0.697947137344892 
1050	 0.698530459789556 
1051	 0.699095946636454 
1052	 0.699559528177433 
1053	 0.700126668244957 
1054	 0.700793488981192 
1055	 0.701403792204494 
1056	 0.702031838445612 
1057	 0.702658095709269 
1058	 0.70331493495213 
1059	 0.703854668010733 
1060	 0.704344089076023 
1061	 0.704871086817206 
1062	 0.705373269680811 
1063	 0.705847589017662 
1064	 0.706372953488296 
1065	 0.706835163153119 
1066	 0.707190193912602 
1067	 0.707592569634722 
1068	 0.70809582400449 
1069	 0.708579729543618 
1070	 0.709016597079123 
1071	 0.709467719002228 
1072	 0.709901601403655 
1073	 0.710282603737512 
1074	 0.710724603869818 
1075	 0.711209993042017 
1076	 0.711729003581284 
1077	 0.712287363452867 
1078	 0.712771499271936 
1079	 0.713326963278315 
1080	 0.71392913732914 
1081	 0.714427046120616 
1082	 0.714949085129795 
1083	 0.715513520836208 
1084	 0.716070316307137 
1085	 0.716621213578948 
1086	 0.71713845192658 
1087	 0.717650004255966 
1088	 0.718129706699642 
1089	 0.718576769826216 
1090	 0.718987370139742 
1091	 0.719390374229455 
1092	 0.719741975390276 
1093	 0.720064872438668 
1094	 0.720454270153202 
1095	 0.720875727721881 
1096	 0.721345226821964 
1097	 0.72175126239667 
1098	 0.722075410139861 
1099	 0.722413737662438 
1100	 0.722643446694533 
1101	 0.722909528377062 
1102	 0.723255250074996 
1103	 0.723551493083018 
1104	 0.723806913213113 
1105	 0.724120625874038 
1106	 0.724440816095817 
1107	 0.724770761125974 
1108	 0.725191182603054 
1109	 0.725603239593736 
1110	 0.726007851606082 
1111	 0.726408882265277 
1112	 0.726715451680779 
1113	 0.72701288720562 
1114	 0.727400595976997 
1115	 0.727732627005386 
1116	 0.728072138858808 
1117	 0.728468485820572 
1118	 0.728808890408366 
1119	 0.729086945320078 
1120	 0.729395557419686 
1121	 0.729707327459992 
1122	 0.730019630129292 
1123	 0.730300955512836 
1124	 0.730567941855077 
1125	 0.730877255724189 
1126	 0.731159620478622 
1127	 0.73142588822333 
1128	 0.731697938919233 
1129	 0.731838492153467 
1130	 0.731882692514905 
1131	 0.731939346376998 
1132	 0.731920210697367 
1133	 0.731858821655315 
1134	 0.731768118882334 
1135	 0.73172605909651 
1136	 0.731675890371739 
1137	 0.731645961230284 
1138	 0.731670985533244 
1139	 0.731686681672375 
1140	 0.731693795940743 
1141	 0.73165787999635 
1142	 0.731708020163882 
1143	 0.731779807125043 
1144	 0.731802919840862 
1145	 0.73181057953335 
1146	 0.73183404977866 
1147	 0.731813534415769 
1148	 0.731841346085737 
1149	 0.731924940951569 
1150	 0.731931160149729 
1151	 0.731912812792527 
1152	 0.731942627894588 
1153	 0.731980819297949 
1154	 0.732013648675993 
1155	 0.732059785677707 
1156	 0.732148118050577 
1157	 0.732244579501114 
1158	 0.732338914561115 
1159	 0.73246587999041 
1160	 0.732607492451655 
1161	 0.732744754458466 
1162	 0.732860658093215 
1163	 0.732953578591469 
1164	 0.733078632300793 
1165	 0.733233205469903 
1166	 0.733392201287356 
1167	 0.733625186751834 
1168	 0.73389834232677 
1169	 0.734157073731337 
1170	 0.734402260428966 
1171	 0.734698457304528 
1172	 0.735019839371918 
1173	 0.735352351846473 
1174	 0.735717999627311 
1175	 0.736073569924624 
1176	 0.736443749422707 
1177	 0.736813181963562 
1178	 0.737172795749307 
1179	 0.73756232086918 
1180	 0.737974124538842 
1181	 0.738374028202433 
1182	 0.738758197285253 
1183	 0.739153556801923 
1184	 0.739552226188343 
1185	 0.739888450489654 
1186	 0.740200634948213 
1187	 0.740497153659494 
1188	 0.740776863288323 
1189	 0.740998400956647 
1190	 0.741250980852518 
1191	 0.741525012125554 
1192	 0.741766070835697 
1193	 0.741981406887216 
1194	 0.74220797055318 
1195	 0.742447095987708 
1196	 0.742653701112326 
1197	 0.742857269977685 
1198	 0.743023983956439 
1199	 0.743187081557812 
1200	 0.74334680649109 
1201	 0.743523328510118 
1202	 0.743695108385355 
1203	 0.743855600970861 
1204	 0.743989730217531 
1205	 0.744135359254275 
1206	 0.744262737188897 
1207	 0.744444913888894 
1208	 0.74461618597173 
1209	 0.744867016901845 
1210	 0.745210998639229 
1211	 0.745495983527397 
1212	 0.745787214461009 
1213	 0.746105638716497 
1214	 0.7464263151479 
1215	 0.746739256426443 
1216	 0.747113094208596 
1217	 0.7474315548794 
1218	 0.747704120272909 
1219	 0.747967423502046 
1220	 0.748224775311365 
1221	 0.748458720191668 
1222	 0.748605026149873 
1223	 0.748730425008577 
1224	 0.748915925627752 
1225	 0.749092661904095 
1226	 0.749268259161026 
1227	 0.749519454279403 
1228	 0.749683017895731 
1229	 0.749750084717759 
1230	 0.74989671965901 
1231	 0.750078481968072 
1232	 0.750227573623733 
1233	 0.750398982026247 
1234	 0.750540083318994 
1235	 0.750643670799843 
1236	 0.750742919389968 
1237	 0.750830146313796 
1238	 0.75091637790039 
1239	 0.750959904653525 
1240	 0.751052297207382 
1241	 0.751167723084509 
1242	 0.751270934323149 
1243	 0.75141520464068 
1244	 0.751574686218024 
1245	 0.751787971770269 
1246	 0.752048661804308 
1247	 0.752306747771619 
1248	 0.752639582478414 
1249	 0.752883516403519 
1250	 0.753096761959126 
1251	 0.753298084273777 
1252	 0.753451399914726 
1253	 0.753621158712587 
1254	 0.753812142909418 
1255	 0.753956613613867 
1256	 0.754066284623169 
1257	 0.754183064206873 
1258	 0.754274582869065 
1259	 0.754360705434347 
1260	 0.754417642903844 
1261	 0.754520694964396 
1262	 0.75462146900208 
1263	 0.754761743777473 
1264	 0.754901762976022 
1265	 0.755103040474897 
1266	 0.75522804236005 
1267	 0.755304752805751 
1268	 0.755428718754815 
1269	 0.75555737248572 
1270	 0.755671335293801 
1271	 0.755793975909429 
1272	 0.755923466561808 
1273	 0.756064264132862 
1274	 0.756154696846321 
1275	 0.756245063716856 
1276	 0.756312716228413 
1277	 0.756303691304501 
1278	 0.756330462160392 
1279	 0.756407196965041 
1280	 0.756427416263972 
1281	 0.756390930755285 
1282	 0.756391549666561 
1283	 0.756334752406101 
1284	 0.756357196398498 
1285	 0.756426780924476 
1286	 0.756558525170554 
1287	 0.756676154975597 
1288	 0.756838681080104 
1289	 0.756980302966839 
1290	 0.757117099782388 
1291	 0.757263391276124 
1292	 0.757430147808152 
1293	 0.757570017412711 
1294	 0.757732648793354 
1295	 0.757818622813196 
1296	 0.757875351012225 
1297	 0.757889647946591 
1298	 0.757829696645039 
1299	 0.757782431672226 
1300	 0.757710252333727 
1301	 0.757637237792428 
1302	 0.757555936274901 
1303	 0.757467081102211 
1304	 0.757358825395464 
1305	 0.757263490573736 
1306	 0.757175756907148 
1307	 0.757076623695169 
1308	 0.757016836529732 
1309	 0.756892411661845 
1310	 0.756744437885278 
1311	 0.756573420607287 
1312	 0.75636889050415 
1313	 0.756108486954997 
1314	 0.755881809585812 
1315	 0.755636786051862 
1316	 0.755414135236366 
1317	 0.755214766107165 
1318	 0.754991581149171 
1319	 0.754756805814546 
1320	 0.754537522244156 
1321	 0.754339300809524 
1322	 0.754095731391598 
1323	 0.753852110677693 
1324	 0.753580984719297 
1325	 0.75326565863207 
1326	 0.752945955593961 
1327	 0.752644761271195 
1328	 0.75228541499643 
1329	 0.751871033398561 
1330	 0.751463345992893 
1331	 0.751005341168105 
1332	 0.750573734779181 
1333	 0.750173513107301 
1334	 0.74974565762524 
1335	 0.749312204351086 
1336	 0.748879009603722 
1337	 0.748434924632345 
1338	 0.747976797512467 
1339	 0.747511710469398 
1340	 0.747056063255116 
1341	 0.746559341709817 
1342	 0.746030436092082 
1343	 0.74550304251444 
1344	 0.744954181959238 
1345	 0.744409143771428 
1346	 0.74386592290448 
1347	 0.743309469405563 
1348	 0.742754439306534 
1349	 0.74216828522286 
1350	 0.741569547969655 
1351	 0.740944199033899 
1352	 0.740247091583374 
1353	 0.739615343719224 
1354	 0.7389926825319 
1355	 0.73838466861797 
1356	 0.737866077942471 
1357	 0.737264602186485 
1358	 0.736652361541795 
1359	 0.735975278228853 
1360	 0.735256117602302 
1361	 0.734471471724708 
1362	 0.733605810278211 
1363	 0.732738175937737 
1364	 0.731779544440445 
1365	 0.73076600266395 
1366	 0.729670748961911 
1367	 0.728530431337149 
1368	 0.727258619011221 
1369	 0.725937242846958 
1370	 0.724401218537328 
1371	 0.722736610531805 
1372	 0.720915136917242 
1373	 0.718961181361361 
1374	 0.716770450138311 
1375	 0.714386801181966 
1376	 0.711823202446281 
1377	 0.709050911698271 
1378	 0.706035070338117 
1379	 0.702829716899632 
1380	 0.699396997231999 
1381	 0.695723856230218 
1382	 0.6918038478014 
1383	 0.687673713866392 
1384	 0.683328668990359 
1385	 0.67877785966711 
1386	 0.674004368806078 
1387	 0.668970702176917 
1388	 0.663937084801728 
1389	 0.658709219997984 
1390	 0.653465040088689 
1391	 0.64831019142527 
1392	 0.642815920512083 
1393	 0.637583224043429 
1394	 0.632245469513409 
1395	 0.627038934159585 
1396	 0.621939297014964 
1397	 0.616921599124257 
1398	 0.611900362017744 
1399	 0.607077003058484 
1400	 0.602344246299138 
1401	 0.597828906043127 
1402	 0.593419101975985 
1403	 0.589259206565674 
1404	 0.585267996973976 
1405	 0.581623654660117 
1406	 0.57817619329786 
1407	 0.575064929614921 
1408	 0.572237345685474 
1409	 0.569734511267913 
1410	 0.567462316266843 
1411	 0.565608393347073 
1412	 0.564099993164274 
1413	 0.562967926206543 
1414	 0.562236623119041 
1415	 0.561760851470586 
1416	 0.561733952677373 
1417	 0.561777148786045 
1418	 0.56206368563879 
1419	 0.562470968912364 
1420	 0.563045987109323 
1421	 0.563708108522678 
1422	 0.564527848622584 
1423	 0.565422528131289 
1424	 0.56640887835486 
1425	 0.56750541310723 
1426	 0.568581120268786 
1427	 0.569746782158312 
1428	 0.570913155346599 
1429	 0.57198756392609 
1430	 0.573136606200725 
1431	 0.574312496236088 
1432	 0.575507876286011 
1433	 0.576732746625282 
1434	 0.577948422874586 
1435	 0.579190251817635 
1436	 0.580418154180279 
1437	 0.581646234881601 
1438	 0.582839801094733 
1439	 0.58405011561443 
1440	 0.585190527006427 
1441	 0.586295816514918 
1442	 0.587356360843297 
1443	 0.588365869653959 
1444	 0.589361050268235 
1445	 0.590343649952212 
1446	 0.591239944865281 
1447	 0.59211507246747 
1448	 0.592896488014128 
1449	 0.593583104104368 
1450	 0.594231375275407 
1451	 0.594819176762962 
1452	 0.595357404497565 
1453	 0.595843062299196 
1454	 0.596269822163485 
1455	 0.596621743464989 
1456	 0.596958313882451 
1457	 0.597229940102875 
1458	 0.597503478533432 
1459	 0.59774078055752 
1460	 0.598001461879546 
1461	 0.598215085287447 
1462	 0.598507312641546 
1463	 0.598812389255498 
1464	 0.599200018455358 
1465	 0.599655870256561 
1466	 0.600171945121541 
1467	 0.600728864572134 
1468	 0.601413497073722 
1469	 0.602280875376422 
1470	 0.603177957428862 
1471	 0.604132604685392 
1472	 0.605220927799661 
1473	 0.606277567524427 
1474	 0.607334038901229 
1475	 0.608447983521444 
1476	 0.609613150807465 
1477	 0.610813169393983 
1478	 0.612021967816525 
1479	 0.613314775201406 
1480	 0.614685793527525 
1481	 0.616063918316953 
1482	 0.617542628974746 
1483	 0.618923814955308 
1484	 0.620296611027499 
1485	 0.621644325740056 
1486	 0.622934962147514 
1487	 0.624229619002926 
1488	 0.625529827432962 
1489	 0.626795309908991 
1490	 0.628038908319399 
1491	 0.6292599969289 
1492	 0.630444818159975 
1493	 0.631641002655929 
1494	 0.632805875015601 
1495	 0.633990289040152 
1496	 0.635193396801026 
1497	 0.636382843410807 
1498	 0.637609482097122 
1499	 0.638762416262892 
1500	 0.639877011380869 
1501	 0.640975995912188 
1502	 0.642020253860502 
1503	 0.643054260749521 
1504	 0.644050969415141 
1505	 0.645081137728749 
1506	 0.646120041517791 
1507	 0.647140726809678 
1508	 0.648210311462449 
1509	 0.649213674853557 
1510	 0.650134018279519 
1511	 0.65108226520441 
1512	 0.652009620877579 
1513	 0.652945933518794 
1514	 0.65391481678624 
1515	 0.654855346565583 
1516	 0.655784328528192 
1517	 0.656697913514159 
1518	 0.6576318809079 
1519	 0.658487031528212 
1520	 0.659290501955232 
1521	 0.660059698006837 
1522	 0.660790807929996 
1523	 0.661524126142533 
1524	 0.662257203886546 
1525	 0.663007828958434 
1526	 0.66373595256984 
1527	 0.664435906316028 
1528	 0.665158942427234 
1529	 0.665892752252405 
1530	 0.666617651238891 
1531	 0.667353743794844 
1532	 0.668051433514467 
1533	 0.668712800326742 
1534	 0.669431265328756 
1535	 0.670151599903347 
1536	 0.670875672904454 
1537	 0.671641339415836 
1538	 0.672383086503204 
1539	 0.673116339735052 
1540	 0.673818892079764 
1541	 0.674525039152708 
1542	 0.675203413120563 
1543	 0.675821054932836 
1544	 0.676482206212701 
1545	 0.677168656893474 
1546	 0.677822354807053 
1547	 0.678476437112709 
1548	 0.67910608087942 
1549	 0.679712538109994 
1550	 0.680310268188762 
1551	 0.680878580685318 
1552	 0.68147602546573 
1553	 0.682080861479819 
1554	 0.682671233521279 
1555	 0.683292264474656 
1556	 0.683855963053638 
1557	 0.684353579953176 
1558	 0.684907288926334 
1559	 0.685470320024526 
1560	 0.686018224603644 
1561	 0.686588379494908 
1562	 0.68714400163382 
1563	 0.687666494469022 
1564	 0.68820943694042 
1565	 0.688781653531158 
1566	 0.689323608472057 
1567	 0.689833156000681 
1568	 0.690377656442904 
1569	 0.690938372987609 
1570	 0.691480884003364 
1571	 0.692067887330089 
1572	 0.692577988430228 
1573	 0.693067287051224 
1574	 0.693480693446753 
1575	 0.693788529036572 
1576	 0.694146389783251 
1577	 0.694465829105008 
1578	 0.694802138769311 
1579	 0.695181237846398 
1580	 0.695525255008387 
1581	 0.695839722363697 
1582	 0.696156741901904 
1583	 0.696498552482766 
1584	 0.696779710899223 
1585	 0.697021369234349 
1586	 0.697254615941335 
1587	 0.697436736260423 
1588	 0.697632311561822 
1589	 0.697823425441748 
1590	 0.698020322700665 
1591	 0.698200219710207 
1592	 0.698408306035477 
1593	 0.698645882340827 
1594	 0.698870352147839 
1595	 0.699109491373818 
1596	 0.699333331415856 
1597	 0.699571649189804 
1598	 0.699755526009744 
1599	 0.69990779232486 
1600	 0.700049385758741 
1601	 0.700119153598082 
1602	 0.700235182310797 
1603	 0.700364055746123 
1604	 0.700505294907026 
1605	 0.700653165631989 
1606	 0.700833559999255 
1607	 0.701053336935272 
1608	 0.701257700422848 
1609	 0.701509935927654 
1610	 0.701705535891707 
1611	 0.701848990203175 
1612	 0.702007750944677 
1613	 0.702152359170479 
1614	 0.7022883192267 
1615	 0.702396685465611 
1616	 0.702553175816722 
1617	 0.702711327003029 
1618	 0.702896349017037 
1619	 0.703145162389007 
1620	 0.703377852613174 
1621	 0.703609222197133 
1622	 0.703840677140615 
1623	 0.70409162779521 
1624	 0.704317585468046 
1625	 0.704515076601022 
1626	 0.704738987482008 
1627	 0.70495585442391 
1628	 0.705184730372329 
1629	 0.705472045602668 
1630	 0.705694354899752 
1631	 0.705914861422725 
1632	 0.706074342919723 
1633	 0.706132287907658 
1634	 0.706239716792868 
1635	 0.706340881812702 
1636	 0.706429649315005 
1637	 0.706546885035514 
1638	 0.706629606276502 
1639	 0.706660229703711 
1640	 0.706717180411346 
1641	 0.706793352424372 
1642	 0.706842245202129 
1643	 0.706885758598039 
1644	 0.706913528144609 
1645	 0.706908946670598 
1646	 0.706915272891551 
1647	 0.706931449854699 
1648	 0.706927949787568 
1649	 0.70690948595129 
1650	 0.706890730916824 
1651	 0.706886665778155 
1652	 0.706832046941491 
1653	 0.706767416670757 
1654	 0.706660234689428 
1655	 0.706481718238141 
1656	 0.706310607148503 
1657	 0.706133976894639 
1658	 0.705929475226002 
1659	 0.705676633614718 
1660	 0.70546966190064 
1661	 0.705258100261278 
1662	 0.705058423034372 
1663	 0.704888435947189 
1664	 0.704721009911301 
1665	 0.704512764857896 
1666	 0.704392114015124 
1667	 0.704322742036713 
1668	 0.704291843733946 
1669	 0.704332982963416 
1670	 0.704376520621222 
1671	 0.704496783450602 
1672	 0.704526349989097 
1673	 0.704573191343769 
1674	 0.704518064784553 
1675	 0.704337694382985 
1676	 0.704190997920747 
1677	 0.703997438039239 
1678	 0.703824021252018 
1679	 0.703636886920529 
1680	 0.703503102327344 
1681	 0.70337312161469 
1682	 0.703287710221179 
1683	 0.703254813148482 
1684	 0.703228605788516 
1685	 0.703233470400948 
1686	 0.703250821381265 
1687	 0.703294544650845 
1688	 0.703348059487589 
1689	 0.70340612135851 
1690	 0.703486159365861 
1691	 0.703602332357722 
1692	 0.703687973517572 
1693	 0.703768102990078 
1694	 0.703858651911073 
1695	 0.703947024445158 
1696	 0.704033801466604 
1697	 0.704139433815522 
1698	 0.704221449537753 
1699	 0.704292257275707 
1700	 0.704330548216048 
1701	 0.70437532624686 
1702	 0.704357732074101 
1703	 0.704269019094876 
1704	 0.704200416690077 
1705	 0.704100944058209 
1706	 0.704022520899832 
1707	 0.703960376846733 
1708	 0.703891126843481 
1709	 0.703803294103886 
1710	 0.703676938591134 
1711	 0.703524106973138 
1712	 0.70329299896665 
1713	 0.702993098252396 
1714	 0.702666318007425 
1715	 0.702349072547094 
1716	 0.702082461039831 
1717	 0.701841624842206 
1718	 0.701612759484656 
1719	 0.701334703700494 
1720	 0.701003438520474 
1721	 0.700696899258573 
1722	 0.700430163549202 
1723	 0.700167661563497 
1724	 0.699898727280281 
1725	 0.699630002286104 
1726	 0.699307699290527 
1727	 0.698952974810254 
1728	 0.69864846587275 
1729	 0.698312618960909 
1730	 0.697924310482501 
1731	 0.697590474744133 
1732	 0.697277875361936 
1733	 0.696933354093143 
1734	 0.696572408962474 
1735	 0.696191932987513 
1736	 0.69576556016697 
1737	 0.695278603630427 
1738	 0.694820359861614 
1739	 0.694368466969351 
1740	 0.693901912607362 
1741	 0.693433121115141 
1742	 0.692974583065944 
1743	 0.692485895274442 
1744	 0.691985404535382 
1745	 0.691451476093994 
1746	 0.690897167845871 
1747	 0.690341660955002 
1748	 0.68974127074618 
1749	 0.689155585874782 
1750	 0.688581932478793 
1751	 0.687993939166469 
1752	 0.687388287631591 
1753	 0.686794237583003 
1754	 0.686172619551596 
1755	 0.685639324493819 
1756	 0.685136764106767 
1757	 0.684688950100918 
1758	 0.684264856292392 
1759	 0.683831343309397 
1760	 0.683390593882491 
1761	 0.68286367898787 
1762	 0.682393352036958 
1763	 0.681914101611406 
1764	 0.681421978238618 
1765	 0.68098772734274 
1766	 0.680496794962988 
1767	 0.68004149998982 
1768	 0.679695169134683 
1769	 0.679420496040322 
1770	 0.679206952269783 
1771	 0.679007879423341 
1772	 0.67875887185663 
1773	 0.678485671435085 
1774	 0.678260390797297 
1775	 0.678048110861685 
1776	 0.677893719462045 
1777	 0.677824626227752 
1778	 0.677736849034821 
1779	 0.677619835315418 
1780	 0.677465578526785 
1781	 0.677274205287149 
1782	 0.677064132310514 
1783	 0.676838783931162 
1784	 0.676634164231236 
1785	 0.676459149464364 
1786	 0.67628555191827 
1787	 0.676137374313507 
1788	 0.676029973919619 
1789	 0.675913661389262 
1790	 0.675892862302655 
1791	 0.676008756538126 
1792	 0.675992915424777 
1793	 0.675942414058108 
1794	 0.675849810144258 
1795	 0.675739141375095 
1796	 0.675630420703629 
1797	 0.675552402632027 
1798	 0.675417543579027 
1799	 0.675250004842779 
1800	 0.67514392189336 
1801	 0.664631843838938 
1802	 0.664594909832945 
1803	 0.664804946828134 
1804	 0.66517244525934 
1805	 0.665620299385589 
1806	 0.66611316709347 
1807	 0.666811530660103 
1808	 0.667361327498113 
1809	 0.667951482396681 
1810	 0.668415211047088 
1811	 0.668854821801924 
1812	 0.669194358683395 
1813	 0.669423465468089 
1814	 0.669647426362569 
1815	 0.669776713645934 
1816	 0.669806191676449 
1817	 0.669798722012806 
1818	 0.669686561484928 
1819	 0.669598973821013 
1820	 0.669480088392716 
1821	 0.66934211885512 
1822	 0.669196595668027 
1823	 0.669040479215293 
1824	 0.668804957126877 
1825	 0.668527931748334 
1826	 0.668293526517422 
1827	 0.66803932951608 
1828	 0.667832550820604 
1829	 0.667653548063028 
1830	 0.66749763956202 
1831	 0.667407165224195 
1832	 0.667230525691384 
1833	 0.667127881687628 
1834	 0.666906163155685 
1835	 0.666661077839203 
1836	 0.666457494146106 
1837	 0.666156404579779 
1838	 0.665818253604391 
1839	 0.665452922828458 
1840	 0.665029814860348 
1841	 0.664546706964907 
1842	 0.664054073116494 
1843	 0.663452888774903 
1844	 0.662748265948536 
1845	 0.662057656830607 
1846	 0.661238657235455 
1847	 0.660448042369633 
1848	 0.659670991799932 
1849	 0.658875051288032 
1850	 0.658066967843328 
1851	 0.65732493380839 
1852	 0.656470954066239 
1853	 0.655494343430779 
1854	 0.6545347057899 
1855	 0.65337034232808 
1856	 0.652088344174491 
1857	 0.650641465658652 
1858	 0.64897017311612 
1859	 0.647292958665492 
1860	 0.645553458197004 
1861	 0.643616246959272 
1862	 0.641577310297579 
1863	 0.639477242896783 
1864	 0.637058580331995 
1865	 0.634539560145972 
1866	 0.631920275950914 
1867	 0.628976438533929 
1868	 0.626027541641826 
1869	 0.622652385194859 
1870	 0.619016159822316 
1871	 0.615230894310666 
1872	 0.611135092682051 
1873	 0.606675650343258 
1874	 0.602068347792551 
1875	 0.597131427911053 
1876	 0.591390186332968 
1877	 0.58568696926158 
1878	 0.579628465885646 
1879	 0.573312152082209 
1880	 0.567463468705867 
1881	 0.561284219068639 
1882	 0.554853708080428 
1883	 0.54844567391216 
1884	 0.541999433572519 
1885	 0.534793857874791 
1886	 0.527787685202357 
1887	 0.520380588062538 
1888	 0.512517976669162 
1889	 0.505140804301323 
1890	 0.497246141618924 
1891	 0.489291993522886 
1892	 0.481428298890242 
1893	 0.473086678909131 
1894	 0.464231176939355 
1895	 0.455619636455329 
1896	 0.446821097542929 
1897	 0.437823377743687 
1898	 0.429733123951862 
1899	 0.421557248157835 
1900	 0.413679966706876 
1901	 0.406424918780772 
1902	 0.398946202443949 
1903	 0.392144085930976 
1904	 0.385815909172128 
1905	 0.37986234875157 
1906	 0.374308499772125 
1907	 0.369741676086061 
1908	 0.365403292924788 
1909	 0.361532912321079 
1910	 0.358465185142036 
1911	 0.355686473935286 
1912	 0.353499811405203 
1913	 0.351844541126748 
1914	 0.350480982832286 
1915	 0.349438385944745 
1916	 0.348797623128888 
1917	 0.348426142233287 
1918	 0.348274032772076 
1919	 0.348410050292356 
1920	 0.348787757819581 
1921	 0.349249475787506 
1922	 0.34990049162135 
1923	 0.350747234448931 
1924	 0.35168520923617 
1925	 0.352753990586029 
1926	 0.353867669329002 
1927	 0.355085198620749 
1928	 0.356309668086569 
1929	 0.357604242381229 
1930	 0.35890196595003 
1931	 0.360264012495867 
1932	 0.361528801707549 
1933	 0.362659885467676 
1934	 0.363905217364897 
1935	 0.36514415203541 
1936	 0.366374325796855 
1937	 0.367673315449208 
1938	 0.369087845146967 
1939	 0.370429601906639 
1940	 0.371766806002053 
1941	 0.373122691979098 
1942	 0.374396620890553 
1943	 0.375665134618428 
1944	 0.376888140990862 
1945	 0.378094450358428 
1946	 0.379392088540674 
1947	 0.380625101787122 
1948	 0.3818694306383 
1949	 0.383165265097588 
1950	 0.384380980117874 
1951	 0.385544990317974 
1952	 0.38675585222875 
1953	 0.387958903412954 
1954	 0.389085090604926 
1955	 0.390331417391535 
1956	 0.391581200874088 
1957	 0.392974911338253 
1958	 0.394436162187635 
1959	 0.395819972998589 
1960	 0.397342183412971 
1961	 0.3988162891975 
1962	 0.400238604183059 
1963	 0.401683461084286 
1964	 0.40320426812504 
1965	 0.40462834019197 
1966	 0.40599254915062 
1967	 0.407357843752833 
1968	 0.408709713948978 
1969	 0.409997072176286 
1970	 0.411247080832763 
1971	 0.412614719612229 
1972	 0.414100625131009 
1973	 0.415597331263786 
1974	 0.417113761726513 
1975	 0.418771944172987 
1976	 0.420295973773184 
1977	 0.421697251190002 
1978	 0.423249443335969 
1979	 0.424850853948508 
1980	 0.426403014375548 
1981	 0.428170296575386 
1982	 0.429797463973745 
1983	 0.431402722485128 
1984	 0.433064770420051 
1985	 0.434503500499157 
1986	 0.436034008980508 
1987	 0.43755575381322 
1988	 0.43899902366226 
1989	 0.440536442314819 
1990	 0.442132088379737 
1991	 0.443729398154348 
1992	 0.445338201910158 
1993	 0.447036186244918 
1994	 0.448684288224831 
1995	 0.450441627916174 
1996	 0.452111393203781 
1997	 0.453720729964317 
1998	 0.455444443513768 
1999	 0.457224325780673 
2000	 0.458931402067628 
2001	 0.46075477544926 
2002	 0.462406490187214 
2003	 0.463930620988623 
2004	 0.465438867749816 
2005	 0.466805164965974 
2006	 0.468286871088685 
2007	 0.469804080740893 
2008	 0.471248823002811 
2009	 0.472848343691688 
2010	 0.47445970865462 
2011	 0.475892222073816 
2012	 0.477440883496807 
2013	 0.47897027658473 
2014	 0.480446450214221 
2015	 0.481976664940778 
2016	 0.483647222772813 
2017	 0.485122277449186 
2018	 0.486538782052187 
2019	 0.487932160489163 
2020	 0.48918208103241 
2021	 0.490502277185967 
2022	 0.49184705789136 
2023	 0.493023398535587 
2024	 0.494256238236529 
2025	 0.495443103426445 
2026	 0.496657292690611 
2027	 0.497901886425067 
2028	 0.499097110828206 
2029	 0.500251712699122 
2030	 0.501469031287664 
2031	 0.502648690850168 
2032	 0.503908754051895 
2033	 0.505283778168198 
2034	 0.506579684187405 
2035	 0.507886304187155 
2036	 0.509208847332495 
2037	 0.510398556270787 
2038	 0.511527675791833 
2039	 0.512652048760045 
2040	 0.513688308457989 
2041	 0.514790939704628 
2042	 0.515928967163868 
2043	 0.51699531717784 
2044	 0.518058692037468 
2045	 0.519086513112238 
2046	 0.520031240147474 
2047	 0.52103239493839 
2048	 0.522012456812406 
2049	 0.523028473469381 
2050	 0.524092694622193 
2051	 0.525151793824627 
2052	 0.526225914623439 
2053	 0.527207463884735 
2054	 0.528092535032776 
2055	 0.528868575082139 
2056	 0.529633083895232 
2057	 0.530207483905099 
2058	 0.531030732415261 
2059	 0.531962544674491 
2060	 0.532830385704844 
2061	 0.533886160393273 
2062	 0.534744648053762 
2063	 0.535373854964159 
2064	 0.536149105481525 
2065	 0.536917869777125 
2066	 0.537694249558104 
2067	 0.538631996592706 
2068	 0.53953623722729 
2069	 0.540489457288972 
2070	 0.541540388141566 
2071	 0.542470839033205 
2072	 0.543393118829092 
2073	 0.544263466610013 
2074	 0.545058801060436 
2075	 0.545823801259831 
2076	 0.546514912203429 
2077	 0.547268585564005 
2078	 0.548030416014256 
2079	 0.548753301556892 
2080	 0.549531191269438 
2081	 0.550239743827028 
2082	 0.550833448703234 
2083	 0.551405817213827 
2084	 0.552238651784312 
2085	 0.552956797988074 
2086	 0.553599008669986 
2087	 0.55428084290355 
2088	 0.554897118955603 
2089	 0.555260055323537 
2090	 0.555865832234726 
2091	 0.556625119743937 
2092	 0.557322763798906 
2093	 0.558076699633612 
2094	 0.558806394008999 
2095	 0.559570077059081 
2096	 0.560263990582265 
2097	 0.560943988819706 
2098	 0.561522218241481 
2099	 0.56225172311161 
2100	 0.562778351270012 
2101	 0.563401602251913 
2102	 0.564093860556037 
2103	 0.564746600262034 
2104	 0.56535794058119 
2105	 0.565986792698291 
2106	 0.56660779233434 
2107	 0.567242000281086 
2108	 0.567865141818462 
2109	 0.568530447835166 
2110	 0.569286444096819 
2111	 0.569950322684111 
2112	 0.570607426156853 
2113	 0.571215656610235 
2114	 0.57174640877321 
2115	 0.572265341478197 
2116	 0.572773866248839 
2117	 0.573214374982604 
2118	 0.57369017216697 
2119	 0.574165344075752 
2120	 0.574598414721315 
2121	 0.575055956797217 
2122	 0.575390850757409 
2123	 0.575605616005813 
2124	 0.575888592810386 
2125	 0.576157020514125 
2126	 0.576399418268968 
2127	 0.57658572437431 
2128	 0.576863897734817 
2129	 0.577221485427782 
2130	 0.577463207663654 
2131	 0.577824079256732 
2132	 0.577996266288266 
2133	 0.578066042725292 
2134	 0.577890583574832 
2135	 0.577656432438415 
2136	 0.577416017545165 
2137	 0.577202882082155 
2138	 0.576920785697882 
2139	 0.576698529440132 
2140	 0.576614096148565 
2141	 0.576303338079528 
2142	 0.575890197285774 
2143	 0.575454430257916 
2144	 0.574863148979181 
2145	 0.574344561418007 
2146	 0.573882644990752 
2147	 0.573320929964439 
2148	 0.572816449299461 
2149	 0.572083280142153 
2150	 0.571180448522144 
2151	 0.570219300649398 
2152	 0.569129681569025 
2153	 0.567915461632066 
2154	 0.566591828753213 
2155	 0.565193248451265 
2156	 0.563734562208852 
2157	 0.562145420612572 
2158	 0.560486222995407 
2159	 0.558833519731403 
2160	 0.556943564124417 
2161	 0.554779022290543 
2162	 0.552762351679837 
2163	 0.55068306582626 
2164	 0.548535751170346 
2165	 0.546365333130597 
2166	 0.544184298662915 
2167	 0.541949621369023 
2168	 0.539673109062146 
2169	 0.537306322212455 
2170	 0.535068786177517 
2171	 0.532740910003373 
2172	 0.530539373828858 
2173	 0.528463150753129 
2174	 0.526543118030295 
2175	 0.524701249354975 
2176	 0.522805280331857 
2177	 0.520842035871515 
2178	 0.518907675808479 
2179	 0.516950080741176 
2180	 0.514730477365388 
2181	 0.512914569165663 
2182	 0.511410245560518 
2183	 0.509700071278207 
2184	 0.50803174170535 
2185	 0.506489171888693 
2186	 0.504953414256874 
2187	 0.503383731435989 
2188	 0.501875265977443 
2189	 0.500475007910881 
2190	 0.498919857083282 
2191	 0.497634708541529 
2192	 0.496866771577622 
2193	 0.495816210156561 
2194	 0.494770636735073 
2195	 0.493592044819217 
2196	 0.492299153118406 
2197	 0.490797528306081 
2198	 0.489249840284372 
2199	 0.488034772331988 
2200	 0.486702567881375 
2201	 0.485389304679331 
2202	 0.484173552167084 
2203	 0.482860436745255 
2204	 0.481956079500551 
2205	 0.481120042945856 
2206	 0.480871751209943 
2207	 0.481254179868549 
2208	 0.481540281587941 
2209	 0.482227093496928 
2210	 0.482889642180072 
2211	 0.483612883929484 
2212	 0.484406283241508 
2213	 0.485660035674252 
2214	 0.486393028496937 
2215	 0.486717346716325 
2216	 0.487269581305841 
2217	 0.487431137288403 
2218	 0.488026281625066 
2219	 0.489110807248722 
2220	 0.490048400801013 
2221	 0.49125679479199 
2222	 0.492176896920695 
2223	 0.493030811645568 
2224	 0.493786052726367 
2225	 0.494192306042351 
2226	 0.494942745433206 
2227	 0.495590843117036 
2228	 0.496203780434629 
2229	 0.496804426400749 
2230	 0.497582141158898 
2231	 0.497921900955335 
2232	 0.498089338613302 
2233	 0.498107026669334 
2234	 0.497744492048931 
2235	 0.497577198794773 
2236	 0.497215918584728 
2237	 0.497114416149712 
2238	 0.497234506570596 
2239	 0.497276085175726 
2240	 0.497328629735814 
2241	 0.49763910505026 
2242	 0.498003963621036 
2243	 0.498293474465086 
2244	 0.498842768588115 
2245	 0.499322189631883 
2246	 0.499815891423911 
2247	 0.500180465561519 
2248	 0.500423250647105 
2249	 0.500735315084925 
2250	 0.50093047335219 
2251	 0.501211374396413 
2252	 0.501324432854673 
2253	 0.501338211857749 
2254	 0.50089815412234 
2255	 0.500265336730248 
2256	 0.49989468355655 
2257	 0.499866172293812 
2258	 0.500132252704601 
2259	 0.500925140652771 
2260	 0.501179513908279 
2261	 0.501455341601811 
2262	 0.501686840487478 
2263	 0.501598991546125 
2264	 0.501857039880271 
2265	 0.502563675282167 
2266	 0.502762915214836 
2267	 0.502856186759175 
2268	 0.502588950171489 
2269	 0.501791593705753 
2270	 0.501460586494415 
2271	 0.500985062143721 
2272	 0.500792891074524 
2273	 0.501124176063356 
2274	 0.501028160249938 
2275	 0.500831718823246 
2276	 0.500578604404839 
2277	 0.500035627221582 
2278	 0.499671970040302 
2279	 0.499300836480526 
2280	 0.499096649520641 
2281	 0.49919671713318 
2282	 0.499109936434372 
2283	 0.499132900220776 
2284	 0.498863586322051 
2285	 0.498532392538901 
2286	 0.497925234240378 
2287	 0.497161424950488 
2288	 0.496702508743376 
2289	 0.495975705246735 
2290	 0.495006146221688 
2291	 0.494345207610185 
2292	 0.493728414461323 
2293	 0.493485861595454 
2294	 0.493361198673948 
2295	 0.492870273314239 
2296	 0.492367531925114 
2297	 0.491824189343565 
2298	 0.490947062560274 
2299	 0.490441093403091 
2300	 0.490492534585349 
2301	 0.48958625317056 
2302	 0.488076525073576 
2303	 0.487190549883196 
2304	 0.485842814356643 
2305	 0.485204124859737 
2306	 0.485764234283563 
2307	 0.485124265672182 
2308	 0.483770124772973 
2309	 0.483041097319042 
2310	 0.48199982161986 
2311	 0.481553271271607 
2312	 0.482068330472377 
2313	 0.482026977058911 
2314	 0.482039275581987 
2315	 0.481556133471271 
2316	 0.480629602414144 
2317	 0.479715835572818 
2318	 0.478303611165622 
2319	 0.477190313419993 
2320	 0.476138320007682 
2321	 0.475414610139859 
2322	 0.475147377156382 
2323	 0.474558448860587 
2324	 0.474420307629769 
2325	 0.473443317626466 
2326	 0.471017133675549 
2327	 0.469858588449432 
2328	 0.469378253901088 
2329	 0.468282469304888 
2330	 0.467357758407659 
2331	 0.466718276203758 
2332	 0.466203904707408 
2333	 0.465741701475375 
2334	 0.465535170507476 
2335	 0.465339342992137 
2336	 0.464601428560933 
2337	 0.4636123837625 
2338	 0.462464661001952 
2339	 0.461956930632472 
2340	 0.460761287386272 
2341	 0.458464076815647 
2342	 0.457278044002254 
2343	 0.45630686931157 
2344	 0.455534721887596 
2345	 0.455195527763947 
2346	 0.454874232737977 
2347	 0.454385251187544 
2348	 0.452970004977908 
2349	 0.451113292751833 
2350	 0.449687676275412 
2351	 0.449161724144796 
2352	 0.44875581461166 
2353	 0.448526778642993 
2354	 0.447974219385939 
2355	 0.445961645288892 
2356	 0.444653607859476 
2357	 0.444371332222692 
2358	 0.443617432881411 
2359	 0.44283143659711 
2360	 0.441698147113033 
2361	 0.439911019315149 
2362	 0.439144417221073 
2363	 0.439304884770998 
2364	 0.439354005980146 
2365	 0.440250809280831 
2366	 0.439983515640789 
2367	 0.439046589386912 
2368	 0.437878956503907 
2369	 0.4344040397866 
2370	 0.432492997259996 
2371	 0.431018559038267 
2372	 0.428640865212124 
2373	 0.428687656402308 
2374	 0.428363728797459 
2375	 0.426302233835733 
2376	 0.425349641315433 
2377	 0.425037407580004 
2378	 0.423304092608858 
2379	 0.421894404512615 
2380	 0.42234838166416 
2381	 0.421392307585265 
2382	 0.42002142503605 
2383	 0.418897571878043 
2384	 0.417792968871488 
2385	 0.415281045432547 
2386	 0.414379087310612 
2387	 0.414707251518977 
2388	 0.413575963959461 
2389	 0.412296850956016 
2390	 0.411004300868382 
2391	 0.408680787131067 
2392	 0.408389157307153 
2393	 0.4094018499348 
2394	 0.409215704240726 
2395	 0.410329350287167 
2396	 0.408725488094849 
2397	 0.404718829958725 
2398	 0.402930710682635 
2399	 0.40033693913979 
2400	 0.399726262143424 
2401	 0.401021552970626 
2402	 0.400314930883001 
2403	 0.399615332184438 
2404	 0.399070059051301 
2405	 0.399608971965679 
2406	 0.397152057383063 
2407	 0.396773907393347 
2408	 0.394233034318623 
2409	 0.390716098216787 
2410	 0.391432945709561 
2411	 0.390749116435933 
2412	 0.391647372844585 
2413	 0.391203522858127 
2414	 0.388881204177626 
2415	 0.387237962945366 
2416	 0.384005983030925 
2417	 0.381864529102476 
2418	 0.37921099081507 
2419	 0.377363325647194 
2420	 0.376325027248318 
2421	 0.374785647352604 
2422	 0.376105924114404 
2423	 0.375795158996785 
2424	 0.375274479283582 
2425	 0.37542852694987 
2426	 0.373588618135043 
2427	 0.371473519376441 
2428	 0.368506635053134 
2429	 0.365829578694687 
2430	 0.363017703480037 
2431	 0.361540700716674 
2432	 0.361765078016372 
2433	 0.363326937652661 
2434	 0.364565937156227 
2435	 0.36570939515035 
2436	 0.367319384277637 
2437	 0.364706498827423 
2438	 0.359253199080448 
2439	 0.357696940030993 
2440	 0.361582547408218 
2441	 0.365160039246781 
2442	 0.368380026722371 
2443	 0.370149283210772 
2444	 0.366911695706969 
2445	 0.366126276126569 
2446	 0.36650743643523 
2447	 0.363587661158793 
2448	 0.35984936689309 
2449	 0.350274435169684 
2450	 0.340544438695335 
2451	 0.338814390579405 
2452	 0.339924624331172 
2453	 0.340397897703157 
2454	 0.346263096137894 
2455	 0.352173329012971 
2456	 0.350192818252783 
2457	 0.347655543680781 
2458	 0.342935819465223 
2459	 0.341766927665924 
2460	 0.34380603697646 
2461	 0.346229374253064 
2462	 0.350562210107697 
2463	 0.352098311461416 
2464	 0.354327620044285 
2465	 0.352930195347801 
2466	 0.350985209826663 
2467	 0.34461594275479 
2468	 0.334925901277457 
2469	 0.332068258908351 
2470	 0.326868621550112 
2471	 0.329163724225772 
2472	 0.335145953726096 
2473	 0.331321669277843 
2474	 0.328984020488524 
2475	 0.321520317555295 
2476	 0.316179969049228 
2477	 0.317772366536046 
2478	 0.320540562724711 
2479	 0.326210839469322 
2480	 0.320026750770825 
2481	 0.31751952832514 
2482	 0.312726536154031 
2483	 0.316057676306825 
2484	 0.311643486715625 
2485	 0.313590507744593 
2486	 0.326786556001195 
2487	 0.335137547457962 
2488	 0.3328101308878 
2489	 0.324098116145131 
2490	 0.319381730077601 
2491	 0.308241637676073 
2492	 0.297397193349741 
2493	 0.288831592037268 
2494	 0.278284107950467 
2495	 0.277519239799371 
2496	 0.295836388393164 
2497	 0.319205215889168 
2498	 0.327599917548434 
2499	 0.324123699811416 
2500	 0.320122699711152 
