Wavelength	A00013.asd.hr
350	 1 
351	 0.997771263122559 
352	 0.914912879467011 
353	 0.845583975315094 
354	 0.925493121147156 
355	 0.822683393955231 
356	 0.727643966674805 
357	 0.791096031665802 
358	 0.776968777179718 
359	 0.743992924690247 
360	 0.72586864233017 
361	 0.72935950756073 
362	 0.682145655155182 
363	 0.64514297246933 
364	 0.646512031555176 
365	 0.662206530570984 
366	 0.653306603431702 
367	 0.638536691665649 
368	 0.639206528663635 
369	 0.645951271057129 
370	 0.636811435222626 
371	 0.609828412532806 
372	 0.577649533748627 
373	 0.576942205429077 
374	 0.567975759506226 
375	 0.544132590293884 
376	 0.550594449043274 
377	 0.55346554517746 
378	 0.553419589996338 
379	 0.5551797747612 
380	 0.550788342952728 
381	 0.537029087543488 
382	 0.524590194225311 
383	 0.528508901596069 
384	 0.536604523658752 
385	 0.527160882949829 
386	 0.507548868656158 
387	 0.526716828346252 
388	 0.520967841148376 
389	 0.502472102642059 
390	 0.496691405773163 
391	 0.502271294593811 
392	 0.500241100788116 
393	 0.491640716791153 
394	 0.488771289587021 
395	 0.479229897260666 
396	 0.476241022348404 
397	 0.482410103082657 
398	 0.479467928409576 
399	 0.478518187999725 
400	 0.477383226156235 
401	 0.47322142124176 
402	 0.475836992263794 
403	 0.471690267324448 
404	 0.465281426906586 
405	 0.472170650959015 
406	 0.468050956726074 
407	 0.464124083518982 
408	 0.466392040252686 
409	 0.461268305778503 
410	 0.459485203027725 
411	 0.460390210151672 
412	 0.459840655326843 
413	 0.45473325252533 
414	 0.454454094171524 
415	 0.458640187978745 
416	 0.458276808261871 
417	 0.454542368650436 
418	 0.452438771724701 
419	 0.453970104455948 
420	 0.453061044216156 
421	 0.451035261154175 
422	 0.450305223464966 
423	 0.452639400959015 
424	 0.452791094779968 
425	 0.450858592987061 
426	 0.449505090713501 
427	 0.453594714403152 
428	 0.452817916870117 
429	 0.451197445392609 
430	 0.452900230884552 
431	 0.452719271183014 
432	 0.452110409736633 
433	 0.451829731464386 
434	 0.452216237783432 
435	 0.453659117221832 
436	 0.454387009143829 
437	 0.454114228487015 
438	 0.455203533172607 
439	 0.454784959554672 
440	 0.454170137643814 
441	 0.455036818981171 
442	 0.455438733100891 
443	 0.455744802951813 
444	 0.456469058990479 
445	 0.458082497119904 
446	 0.459405511617661 
447	 0.460457354784012 
448	 0.461270481348038 
449	 0.461266845464706 
450	 0.461945652961731 
451	 0.462868243455887 
452	 0.463047236204147 
453	 0.463146805763245 
454	 0.463445484638214 
455	 0.46382412314415 
456	 0.463772237300873 
457	 0.463288575410843 
458	 0.463986992835999 
459	 0.466140270233154 
460	 0.464971721172333 
461	 0.464759528636932 
462	 0.466052532196045 
463	 0.46714648604393 
464	 0.466424912214279 
465	 0.466302245855331 
466	 0.467367798089981 
467	 0.466750651597977 
468	 0.465866416692734 
469	 0.465580344200134 
470	 0.466297060251236 
471	 0.467311412096024 
472	 0.467285692691803 
473	 0.466435253620148 
474	 0.466152340173721 
475	 0.465975493192673 
476	 0.465611726045609 
477	 0.465177088975906 
478	 0.465661942958832 
479	 0.466556429862976 
480	 0.466798782348633 
481	 0.465638428926468 
482	 0.46556344628334 
483	 0.46583491563797 
484	 0.465764611959457 
485	 0.465032756328583 
486	 0.465731292963028 
487	 0.466908037662506 
488	 0.467318058013916 
489	 0.467136681079865 
490	 0.466845631599426 
491	 0.46701055765152 
492	 0.468059182167053 
493	 0.468945920467377 
494	 0.469442695379257 
495	 0.469670325517654 
496	 0.470140188932419 
497	 0.470237374305725 
498	 0.470662355422974 
499	 0.471892505884171 
500	 0.471464723348618 
501	 0.471791923046112 
502	 0.472856253385544 
503	 0.472511231899261 
504	 0.473114788532257 
505	 0.473902493715286 
506	 0.474096655845642 
507	 0.474191874265671 
508	 0.474696218967438 
509	 0.475162118673325 
510	 0.474934160709381 
511	 0.475265800952911 
512	 0.475668638944626 
513	 0.476091861724854 
514	 0.477267265319824 
515	 0.477277159690857 
516	 0.477251291275024 
517	 0.47835972905159 
518	 0.4790218770504 
519	 0.479661643505096 
520	 0.480459660291672 
521	 0.481371343135834 
522	 0.482012033462524 
523	 0.482864737510681 
524	 0.484010726213455 
525	 0.484456747770309 
526	 0.485489249229431 
527	 0.486870735883713 
528	 0.488062888383865 
529	 0.490166127681732 
530	 0.492093294858933 
531	 0.493488639593124 
532	 0.494903981685638 
533	 0.496547162532806 
534	 0.498595833778381 
535	 0.500967681407928 
536	 0.5029177069664 
537	 0.50507926940918 
538	 0.507549226284027 
539	 0.510093331336975 
540	 0.512557744979858 
541	 0.515209674835205 
542	 0.518239736557007 
543	 0.521663904190063 
544	 0.525059163570404 
545	 0.528327107429504 
546	 0.5316241979599 
547	 0.535682678222656 
548	 0.539680004119873 
549	 0.543506443500519 
550	 0.547766387462616 
551	 0.553085625171661 
552	 0.55944561958313 
553	 0.566429793834686 
554	 0.573233008384705 
555	 0.579793035984039 
556	 0.586378157138824 
557	 0.593344986438751 
558	 0.600187838077545 
559	 0.606632173061371 
560	 0.612765491008759 
561	 0.619052648544312 
562	 0.62482076883316 
563	 0.630676031112671 
564	 0.637053668498993 
565	 0.642354786396027 
566	 0.647099137306213 
567	 0.651927471160889 
568	 0.657497406005859 
569	 0.662898719310761 
570	 0.668648362159729 
571	 0.675159156322479 
572	 0.681278586387634 
573	 0.690315425395966 
574	 0.701813042163849 
575	 0.713305056095123 
576	 0.723440945148468 
577	 0.730966508388519 
578	 0.736164689064026 
579	 0.740191340446472 
580	 0.744101166725159 
581	 0.747893631458282 
582	 0.751611709594727 
583	 0.756263792514801 
584	 0.761300504207611 
585	 0.766616880893707 
586	 0.772311210632324 
587	 0.777866303920746 
588	 0.783217906951904 
589	 0.788786649703979 
590	 0.795703053474426 
591	 0.801938593387604 
592	 0.807790338993073 
593	 0.814066469669342 
594	 0.820344686508179 
595	 0.826138556003571 
596	 0.831534206867218 
597	 0.837056934833527 
598	 0.841592133045197 
599	 0.845759689807892 
600	 0.850062727928162 
601	 0.85395359992981 
602	 0.857830107212067 
603	 0.861648440361023 
604	 0.865233302116394 
605	 0.868715047836304 
606	 0.872538626194 
607	 0.876344382762909 
608	 0.878711998462677 
609	 0.881430208683014 
610	 0.884285807609558 
611	 0.886783003807068 
612	 0.889203548431396 
613	 0.891995966434479 
614	 0.894489705562592 
615	 0.89559131860733 
616	 0.89780580997467 
617	 0.899790704250336 
618	 0.901019990444183 
619	 0.903425216674805 
620	 0.90513950586319 
621	 0.906375825405121 
622	 0.908007144927979 
623	 0.91061669588089 
624	 0.91202712059021 
625	 0.912213027477264 
626	 0.91322648525238 
627	 0.914843380451202 
628	 0.916249811649323 
629	 0.917111992835999 
630	 0.918817937374115 
631	 0.919421970844269 
632	 0.919338285923004 
633	 0.919936120510101 
634	 0.920929253101349 
635	 0.922252357006073 
636	 0.92364501953125 
637	 0.924632489681244 
638	 0.924749076366425 
639	 0.924890160560608 
640	 0.925810217857361 
641	 0.926676332950592 
642	 0.927137434482574 
643	 0.927474439144135 
644	 0.928319156169891 
645	 0.929350435733795 
646	 0.9298255443573 
647	 0.929975390434265 
648	 0.931753218173981 
649	 0.93265163898468 
650	 0.933020055294037 
651	 0.933715760707855 
652	 0.933738350868225 
653	 0.933749377727509 
654	 0.934266686439514 
655	 0.935546457767487 
656	 0.936701834201813 
657	 0.937349677085876 
658	 0.937571048736572 
659	 0.938204884529114 
660	 0.938503563404083 
661	 0.938959836959839 
662	 0.940239667892456 
663	 0.9412961602211 
664	 0.942439496517181 
665	 0.943389773368835 
666	 0.943295419216156 
667	 0.944199740886688 
668	 0.944888770580292 
669	 0.944589197635651 
670	 0.945284366607666 
671	 0.947494506835938 
672	 0.949683427810669 
673	 0.949862480163574 
674	 0.950319528579712 
675	 0.951151192188263 
676	 0.952254474163055 
677	 0.953476071357727 
678	 0.953775942325592 
679	 0.954152941703796 
680	 0.955585837364197 
681	 0.957565307617188 
682	 0.958910226821899 
683	 0.959306418895721 
684	 0.959188997745514 
685	 0.960225820541382 
686	 0.96089231967926 
687	 0.960863173007965 
688	 0.961933314800262 
689	 0.962913632392883 
690	 0.964220285415649 
691	 0.966161966323853 
692	 0.967407464981079 
693	 0.967874526977539 
694	 0.968195736408234 
695	 0.969288885593414 
696	 0.969999432563782 
697	 0.970454454421997 
698	 0.971396565437317 
699	 0.974417924880981 
700	 0.974676251411438 
701	 0.974130213260651 
702	 0.975609660148621 
703	 0.977101027965546 
704	 0.97848117351532 
705	 0.979716837406158 
706	 0.980850577354431 
707	 0.982129275798798 
708	 0.983221828937531 
709	 0.984008610248566 
710	 0.984837710857391 
711	 0.985759019851685 
712	 0.986030995845795 
713	 0.985556542873383 
714	 0.987736582756042 
715	 0.98934417963028 
716	 0.989779591560364 
717	 0.990448653697968 
718	 0.991596579551697 
719	 0.99250453710556 
720	 0.992848038673401 
721	 0.993191123008728 
722	 0.993913888931274 
723	 0.994458496570587 
724	 0.994347393512726 
725	 0.994521856307983 
726	 0.99536406993866 
727	 0.996389925479889 
728	 0.996615171432495 
729	 0.996311902999878 
730	 0.997219324111938 
731	 0.999303460121155 
732	 0.999397218227386 
733	 0.999476492404938 
734	 0.999308109283447 
735	 0.998659133911133 
736	 0.999698162078857 
737	 1 
738	 0.999334633350372 
739	 0.99901282787323 
740	 0.999711394309998 
741	 1 
742	 0.999503374099731 
743	 0.999455571174622 
744	 0.999575972557068 
745	 0.99980241060257 
746	 1 
747	 0.999781310558319 
748	 0.999937236309052 
749	 1 
750	 0.999128699302673 
751	 0.999856173992157 
752	 1 
753	 0.999006509780884 
754	 0.998170256614685 
755	 0.997317671775818 
756	 0.997135996818542 
757	 0.997781276702881 
758	 0.997502565383911 
759	 0.997031390666962 
760	 0.996776044368744 
761	 0.996920645236969 
762	 0.997259378433228 
763	 0.996780335903168 
764	 0.995928883552551 
765	 0.99658215045929 
766	 0.996304154396057 
767	 0.995090365409851 
768	 0.993629634380341 
769	 0.993007302284241 
770	 0.992706179618835 
771	 0.992358028888702 
772	 0.991549134254456 
773	 0.989349842071533 
774	 0.988528609275818 
775	 0.988932907581329 
776	 0.988144338130951 
777	 0.988334178924561 
778	 0.987999200820923 
779	 0.986477494239807 
780	 0.985315024852753 
781	 0.985170304775238 
782	 0.984631359577179 
783	 0.982634305953979 
784	 0.981573402881622 
785	 0.98063063621521 
786	 0.979603707790375 
787	 0.978560447692871 
788	 0.976762294769287 
789	 0.975274562835693 
790	 0.97430032491684 
791	 0.972885251045227 
792	 0.972482025623322 
793	 0.972101867198944 
794	 0.970873236656189 
795	 0.969388246536255 
796	 0.96812641620636 
797	 0.966378629207611 
798	 0.963712096214294 
799	 0.963252782821655 
800	 0.962754368782043 
801	 0.961454212665558 
802	 0.959906101226807 
803	 0.957680583000183 
804	 0.955560564994812 
805	 0.954050183296204 
806	 0.953000843524933 
807	 0.952339470386505 
808	 0.951821208000183 
809	 0.951185464859009 
810	 0.950265407562256 
811	 0.948956549167633 
812	 0.947551310062408 
813	 0.94635546207428 
814	 0.94453364610672 
815	 0.943446516990662 
816	 0.942643284797668 
817	 0.940199375152588 
818	 0.937702775001526 
819	 0.935678839683533 
820	 0.934371709823608 
821	 0.933838427066803 
822	 0.933377325534821 
823	 0.932241976261139 
824	 0.93045437335968 
825	 0.930291831493378 
826	 0.930109739303589 
827	 0.928286671638489 
828	 0.924419343471527 
829	 0.924146711826324 
830	 0.92472892999649 
831	 0.924261748790741 
832	 0.922237932682037 
833	 0.919170498847961 
834	 0.917945504188538 
835	 0.918681800365448 
836	 0.916925132274628 
837	 0.9156853556633 
838	 0.915050804615021 
839	 0.914215445518494 
840	 0.911763846874237 
841	 0.910219669342041 
842	 0.910054862499237 
843	 0.910382807254791 
844	 0.908669829368591 
845	 0.906667768955231 
846	 0.904840469360352 
847	 0.902836740016937 
848	 0.903355121612549 
849	 0.903172671794891 
850	 0.901388823986053 
851	 0.900777637958527 
852	 0.899995744228363 
853	 0.898699700832367 
854	 0.897040247917175 
855	 0.895785212516785 
856	 0.894761919975281 
857	 0.894551992416382 
858	 0.895183265209198 
859	 0.894088804721832 
860	 0.892310738563538 
861	 0.890711426734924 
862	 0.890000283718109 
863	 0.890833973884583 
864	 0.889804840087891 
865	 0.887549817562103 
866	 0.887947797775269 
867	 0.888279914855957 
868	 0.88862007856369 
869	 0.888329267501831 
870	 0.885545611381531 
871	 0.886046588420868 
872	 0.886596739292145 
873	 0.88478696346283 
874	 0.884547412395477 
875	 0.884536266326904 
876	 0.883986115455627 
877	 0.882854461669922 
878	 0.8832927942276 
879	 0.882494151592255 
880	 0.880237996578217 
881	 0.878112256526947 
882	 0.879341661930084 
883	 0.880195736885071 
884	 0.879838347434998 
885	 0.879917025566101 
886	 0.879954397678375 
887	 0.880099952220917 
888	 0.880255162715912 
889	 0.879991471767426 
890	 0.878820478916168 
891	 0.878433883190155 
892	 0.879322648048401 
893	 0.879339933395386 
894	 0.87939715385437 
895	 0.879175782203674 
896	 0.878406524658203 
897	 0.877584278583527 
898	 0.877386093139648 
899	 0.877427935600281 
900	 0.877180576324463 
901	 0.877140641212463 
902	 0.877849519252777 
903	 0.878568232059479 
904	 0.878284573554993 
905	 0.878355741500854 
906	 0.877680540084839 
907	 0.876788198947906 
908	 0.877209007740021 
909	 0.877920389175415 
910	 0.878886342048645 
911	 0.879678547382355 
912	 0.879549145698547 
913	 0.879390358924866 
914	 0.87960958480835 
915	 0.880290269851685 
916	 0.881149053573608 
917	 0.881569266319275 
918	 0.881343841552734 
919	 0.880984783172607 
920	 0.882032573223114 
921	 0.882552802562714 
922	 0.882342934608459 
923	 0.88196325302124 
924	 0.882567226886749 
925	 0.883464276790619 
926	 0.885013043880463 
927	 0.887046277523041 
928	 0.886527538299561 
929	 0.886054992675781 
930	 0.886379539966583 
931	 0.887221574783325 
932	 0.887698531150818 
933	 0.889117479324341 
934	 0.891056180000305 
935	 0.892275869846344 
936	 0.89292299747467 
937	 0.893119752407074 
938	 0.893238246440887 
939	 0.893651127815247 
940	 0.89360773563385 
941	 0.893745481967926 
942	 0.894816279411316 
943	 0.897124052047729 
944	 0.89766538143158 
945	 0.897426605224609 
946	 0.89756441116333 
947	 0.898666203022003 
948	 0.899557650089264 
949	 0.899310648441315 
950	 0.898620009422302 
951	 0.899889647960663 
952	 0.902323186397552 
953	 0.903731405735016 
954	 0.903626263141632 
955	 0.904332280158997 
956	 0.905943274497986 
957	 0.906778216362 
958	 0.906549990177155 
959	 0.907914340496063 
960	 0.90907096862793 
961	 0.910486996173859 
962	 0.912386298179626 
963	 0.91355437040329 
964	 0.913321733474731 
965	 0.913659572601318 
966	 0.915309190750122 
967	 0.914675772190094 
968	 0.915123760700226 
969	 0.916046380996704 
970	 0.916373610496521 
971	 0.91668039560318 
972	 0.919643998146057 
973	 0.922354221343994 
974	 0.922448098659515 
975	 0.924344599246979 
976	 0.925090849399567 
977	 0.924899995326996 
978	 0.92517763376236 
979	 0.927619218826294 
980	 0.930573880672455 
981	 0.932553350925446 
982	 0.932979583740234 
983	 0.933609843254089 
984	 0.935437142848969 
985	 0.937245190143585 
986	 0.937920093536377 
987	 0.939889132976532 
988	 0.939181387424469 
989	 0.938779354095459 
990	 0.94168359041214 
991	 0.942151725292206 
992	 0.943159580230713 
993	 0.944205045700073 
994	 0.944233119487762 
995	 0.94451904296875 
996	 0.946422219276428 
997	 0.948315143585205 
998	 0.948467910289764 
999	 0.948557794094086 
1000	 0.951143383979797 
1001	 0.938292980194092 
1002	 0.93953150510788 
1003	 0.940833330154419 
1004	 0.941847026348114 
1005	 0.94258040189743 
1006	 0.943513035774231 
1007	 0.944422781467438 
1008	 0.945364713668823 
1009	 0.946333050727844 
1010	 0.947329163551331 
1011	 0.948372066020966 
1012	 0.949337482452393 
1013	 0.950309097766876 
1014	 0.951276183128357 
1015	 0.952183067798615 
1016	 0.953106284141541 
1017	 0.953994750976563 
1018	 0.954818904399872 
1019	 0.95597368478775 
1020	 0.957078278064728 
1021	 0.958052277565002 
1022	 0.959254086017609 
1023	 0.960094332695007 
1024	 0.960413455963135 
1025	 0.96113783121109 
1026	 0.961950719356537 
1027	 0.962745606899261 
1028	 0.963628768920898 
1029	 0.964655637741089 
1030	 0.965449512004852 
1031	 0.966013252735138 
1032	 0.966643035411835 
1033	 0.967332541942596 
1034	 0.968034505844116 
1035	 0.968820750713348 
1036	 0.969538271427155 
1037	 0.970273733139038 
1038	 0.970852077007294 
1039	 0.971290349960327 
1040	 0.971887350082397 
1041	 0.972410380840302 
1042	 0.973021149635315 
1043	 0.973792195320129 
1044	 0.974510133266449 
1045	 0.975098073482513 
1046	 0.975948035717011 
1047	 0.97661155462265 
1048	 0.977120280265808 
1049	 0.977755427360535 
1050	 0.978240489959717 
1051	 0.978847086429596 
1052	 0.979426443576813 
1053	 0.979918360710144 
1054	 0.980282187461853 
1055	 0.98079651594162 
1056	 0.981256186962128 
1057	 0.981889665126801 
1058	 0.982756197452545 
1059	 0.983400285243988 
1060	 0.983991742134094 
1061	 0.984561920166016 
1062	 0.985128104686737 
1063	 0.985731482505798 
1064	 0.986213207244873 
1065	 0.986741840839386 
1066	 0.987130403518677 
1067	 0.987420201301575 
1068	 0.987965822219849 
1069	 0.988384664058685 
1070	 0.988813757896423 
1071	 0.989247024059296 
1072	 0.989736258983612 
1073	 0.990017175674438 
1074	 0.990468561649323 
1075	 0.99095743894577 
1076	 0.991351783275604 
1077	 0.991794943809509 
1078	 0.992140650749207 
1079	 0.992561757564545 
1080	 0.992932438850403 
1081	 0.993160367012024 
1082	 0.993568122386932 
1083	 0.993934273719788 
1084	 0.994264185428619 
1085	 0.994757473468781 
1086	 0.995151102542877 
1087	 0.995502591133118 
1088	 0.995801627635956 
1089	 0.996124029159546 
1090	 0.996380209922791 
1091	 0.996667444705963 
1092	 0.996896505355835 
1093	 0.997089028358459 
1094	 0.997385859489441 
1095	 0.997646152973175 
1096	 0.997885584831238 
1097	 0.998138010501862 
1098	 0.998266398906708 
1099	 0.998404979705811 
1100	 0.998526513576508 
1101	 0.998579025268555 
1102	 0.998659610748291 
1103	 0.998704969882965 
1104	 0.998704016208649 
1105	 0.998714745044708 
1106	 0.998755872249603 
1107	 0.998838365077972 
1108	 0.998963832855225 
1109	 0.999094009399414 
1110	 0.999331474304199 
1111	 0.999524056911469 
1112	 0.999601900577545 
1113	 0.999724924564362 
1114	 0.999781847000122 
1115	 0.999668657779694 
1116	 0.999639570713043 
1117	 0.999721646308899 
1118	 0.999765574932098 
1119	 0.999829471111298 
1120	 0.999893248081207 
1121	 0.999996900558472 
1122	 1 
1123	 0.999988913536072 
1124	 0.999952673912048 
1125	 0.999993741512299 
1126	 1 
1127	 0.999989211559296 
1128	 1 
1129	 1 
1130	 0.999885439872742 
1131	 0.999921381473541 
1132	 1 
1133	 0.999973833560944 
1134	 0.999934196472168 
1135	 0.999881088733673 
1136	 0.999781668186188 
1137	 0.999658167362213 
1138	 0.999501287937164 
1139	 0.999383091926575 
1140	 0.999280869960785 
1141	 0.999079763889313 
1142	 0.998914837837219 
1143	 0.998787581920624 
1144	 0.998576521873474 
1145	 0.998327553272247 
1146	 0.998050153255463 
1147	 0.997741222381592 
1148	 0.997514009475708 
1149	 0.997270047664642 
1150	 0.996935248374939 
1151	 0.996634721755981 
1152	 0.996353030204773 
1153	 0.995963394641876 
1154	 0.995716035366058 
1155	 0.99558436870575 
1156	 0.995450019836426 
1157	 0.995337903499603 
1158	 0.995276570320129 
1159	 0.995276927947998 
1160	 0.995270431041718 
1161	 0.995372474193573 
1162	 0.995401322841644 
1163	 0.995275020599365 
1164	 0.995199143886566 
1165	 0.995141983032227 
1166	 0.995088160037994 
1167	 0.995169341564178 
1168	 0.995336890220642 
1169	 0.995490849018097 
1170	 0.995638251304626 
1171	 0.995842397212982 
1172	 0.996114313602448 
1173	 0.996374845504761 
1174	 0.996678233146667 
1175	 0.996922433376312 
1176	 0.997165381908417 
1177	 0.997361361980438 
1178	 0.997468173503876 
1179	 0.997676849365234 
1180	 0.997847139835358 
1181	 0.997985422611237 
1182	 0.998182237148285 
1183	 0.998328149318695 
1184	 0.998533487319946 
1185	 0.998746395111084 
1186	 0.998911499977112 
1187	 0.999078691005707 
1188	 0.999234676361084 
1189	 0.999342083930969 
1190	 0.999470293521881 
1191	 0.999632716178894 
1192	 0.99972802400589 
1193	 0.99978631734848 
1194	 0.999841332435608 
1195	 0.999890267848969 
1196	 0.999892354011536 
1197	 0.999872028827667 
1198	 0.999811291694641 
1199	 0.999721765518188 
1200	 0.999676942825317 
1201	 0.99958199262619 
1202	 0.999464750289917 
1203	 0.999471664428711 
1204	 0.999452173709869 
1205	 0.999494731426239 
1206	 0.999681413173676 
1207	 0.999772071838379 
1208	 0.999818503856659 
1209	 0.999887883663177 
1210	 0.999983787536621 
1211	 1 
1212	 0.999953150749207 
1213	 0.999970078468323 
1214	 0.999998033046722 
1215	 0.999991118907928 
1216	 0.999987602233887 
1217	 1 
1218	 0.99999076128006 
1219	 0.99997615814209 
1220	 0.999999940395355 
1221	 1 
1222	 0.999971807003021 
1223	 0.99996143579483 
1224	 0.999973773956299 
1225	 1 
1226	 0.999988615512848 
1227	 1 
1228	 0.999960780143738 
1229	 0.99982488155365 
1230	 0.999768853187561 
1231	 0.99969744682312 
1232	 0.999674439430237 
1233	 0.999693214893341 
1234	 0.99971616268158 
1235	 0.999822735786438 
1236	 0.999839067459106 
1237	 0.999806523323059 
1238	 0.999792397022247 
1239	 0.999751031398773 
1240	 0.999670445919037 
1241	 0.999629735946655 
1242	 0.999604880809784 
1243	 0.999611556529999 
1244	 0.99961119890213 
1245	 0.99966824054718 
1246	 0.999813318252563 
1247	 0.9998859167099 
1248	 0.999981164932251 
1249	 1 
1250	 0.999999940395355 
1251	 0.999999940395355 
1252	 0.999956071376801 
1253	 0.999955832958221 
1254	 1 
1255	 0.99996954202652 
1256	 0.999928593635559 
1257	 0.999846279621124 
1258	 0.999603569507599 
1259	 0.999489903450012 
1260	 0.999396860599518 
1261	 0.999361276626587 
1262	 0.999397933483124 
1263	 0.999520659446716 
1264	 0.999571859836578 
1265	 0.999643683433533 
1266	 0.999682724475861 
1267	 0.999660909175873 
1268	 0.999718964099884 
1269	 0.999828934669495 
1270	 0.999882936477661 
1271	 0.999963045120239 
1272	 1 
1273	 0.999994695186615 
1274	 0.999992370605469 
1275	 1 
1276	 1 
1277	 0.999958038330078 
1278	 0.999963402748108 
1279	 1 
1280	 0.999985098838806 
1281	 0.999956369400024 
1282	 0.999929904937744 
1283	 0.999801993370056 
1284	 0.999765932559967 
1285	 0.999775826931 
1286	 0.999852895736694 
1287	 0.99988853931427 
1288	 0.999972939491272 
1289	 0.999992668628693 
1290	 1 
1291	 1 
1292	 0.999993205070496 
1293	 1 
1294	 0.999981939792633 
1295	 0.999977290630341 
1296	 0.999999940395355 
1297	 1 
1298	 0.999985456466675 
1299	 0.999970078468323 
1300	 1 
1301	 1 
1302	 0.999978959560394 
1303	 0.999989628791809 
1304	 0.999921023845673 
1305	 0.999891400337219 
1306	 0.999907672405243 
1307	 0.999914228916168 
1308	 0.999940276145935 
1309	 0.999908804893494 
1310	 0.999926030635834 
1311	 0.99997466802597 
1312	 0.999970257282257 
1313	 0.999951183795929 
1314	 0.999940156936646 
1315	 0.999883413314819 
1316	 0.999892234802246 
1317	 0.999977350234985 
1318	 0.999964833259583 
1319	 0.999974608421326 
1320	 0.999882221221924 
1321	 0.999717652797699 
1322	 0.999503135681152 
1323	 0.999218046665192 
1324	 0.998916625976563 
1325	 0.998534262180328 
1326	 0.998178601264954 
1327	 0.997837722301483 
1328	 0.997451424598694 
1329	 0.997069299221039 
1330	 0.996635675430298 
1331	 0.996160268783569 
1332	 0.995644569396973 
1333	 0.995102524757385 
1334	 0.994486212730408 
1335	 0.993896186351776 
1336	 0.993279695510864 
1337	 0.99265444278717 
1338	 0.992037236690521 
1339	 0.991375923156738 
1340	 0.990654349327087 
1341	 0.989997506141663 
1342	 0.989341020584106 
1343	 0.988699376583099 
1344	 0.988115429878235 
1345	 0.987466216087341 
1346	 0.986765325069427 
1347	 0.986121475696564 
1348	 0.985463917255402 
1349	 0.984846651554108 
1350	 0.984301447868347 
1351	 0.98369973897934 
1352	 0.983103573322296 
1353	 0.98246818780899 
1354	 0.981803894042969 
1355	 0.981120467185974 
1356	 0.980436265468597 
1357	 0.979685604572296 
1358	 0.978897631168365 
1359	 0.978057503700256 
1360	 0.977165102958679 
1361	 0.976238489151001 
1362	 0.97517454624176 
1363	 0.974139153957367 
1364	 0.972981095314026 
1365	 0.971794128417969 
1366	 0.970347940921783 
1367	 0.968812584877014 
1368	 0.96704375743866 
1369	 0.965071499347687 
1370	 0.962874233722687 
1371	 0.96055668592453 
1372	 0.957903921604156 
1373	 0.954987406730652 
1374	 0.951778829097748 
1375	 0.948256313800812 
1376	 0.944484293460846 
1377	 0.940453052520752 
1378	 0.936026692390442 
1379	 0.931293845176697 
1380	 0.926214814186096 
1381	 0.920778930187225 
1382	 0.914967834949493 
1383	 0.908764481544495 
1384	 0.902342200279236 
1385	 0.895642876625061 
1386	 0.888669848442078 
1387	 0.881450533866882 
1388	 0.874153733253479 
1389	 0.866577804088593 
1390	 0.858953595161438 
1391	 0.851424038410187 
1392	 0.843353271484375 
1393	 0.835708379745483 
1394	 0.827869653701782 
1395	 0.820290148258209 
1396	 0.812871396541595 
1397	 0.805637061595917 
1398	 0.798457503318787 
1399	 0.791560173034668 
1400	 0.784854292869568 
1401	 0.778394103050232 
1402	 0.772096037864685 
1403	 0.766101479530334 
1404	 0.760309159755707 
1405	 0.754990041255951 
1406	 0.749911665916443 
1407	 0.745319902896881 
1408	 0.741142988204956 
1409	 0.737365782260895 
1410	 0.733925819396973 
1411	 0.730988204479218 
1412	 0.728448033332825 
1413	 0.726449072360992 
1414	 0.724941849708557 
1415	 0.723858892917633 
1416	 0.72338855266571 
1417	 0.723088502883911 
1418	 0.723229706287384 
1419	 0.723490476608276 
1420	 0.724018633365631 
1421	 0.724654853343964 
1422	 0.725480020046234 
1423	 0.726408958435059 
1424	 0.727455735206604 
1425	 0.728657722473145 
1426	 0.729899644851685 
1427	 0.731269657611847 
1428	 0.732757091522217 
1429	 0.734215915203094 
1430	 0.735720694065094 
1431	 0.737283170223236 
1432	 0.73888623714447 
1433	 0.740499556064606 
1434	 0.742185652256012 
1435	 0.743979275226593 
1436	 0.745729744434357 
1437	 0.747501254081726 
1438	 0.749243676662445 
1439	 0.751004755496979 
1440	 0.752707958221436 
1441	 0.754392743110657 
1442	 0.756041347980499 
1443	 0.757682621479034 
1444	 0.759236633777618 
1445	 0.760746419429779 
1446	 0.762184262275696 
1447	 0.763516783714294 
1448	 0.764854252338409 
1449	 0.766187846660614 
1450	 0.76743620634079 
1451	 0.768635034561157 
1452	 0.769791781902313 
1453	 0.770890355110168 
1454	 0.771918773651123 
1455	 0.772895157337189 
1456	 0.773830950260162 
1457	 0.774679124355316 
1458	 0.775515079498291 
1459	 0.776341795921326 
1460	 0.777117311954498 
1461	 0.777783572673798 
1462	 0.778514921665192 
1463	 0.779173314571381 
1464	 0.779958248138428 
1465	 0.78080552816391 
1466	 0.781748712062836 
1467	 0.782742023468018 
1468	 0.783896267414093 
1469	 0.785266697406769 
1470	 0.786713600158691 
1471	 0.78825443983078 
1472	 0.789979577064514 
1473	 0.791685283184052 
1474	 0.793413281440735 
1475	 0.79525363445282 
1476	 0.797187209129334 
1477	 0.799179494380951 
1478	 0.801243305206299 
1479	 0.803350806236267 
1480	 0.805533528327942 
1481	 0.807752072811127 
1482	 0.810069501399994 
1483	 0.812321722507477 
1484	 0.814601004123688 
1485	 0.816855072975159 
1486	 0.819081544876099 
1487	 0.821275293827057 
1488	 0.823486030101776 
1489	 0.825623512268066 
1490	 0.827683627605438 
1491	 0.829761743545532 
1492	 0.831788420677185 
1493	 0.833863317966461 
1494	 0.835965037345886 
1495	 0.838029384613037 
1496	 0.840090870857239 
1497	 0.842158257961273 
1498	 0.844221532344818 
1499	 0.846262156963348 
1500	 0.848330676555634 
1501	 0.850346028804779 
1502	 0.852311670780182 
1503	 0.854251861572266 
1504	 0.85614800453186 
1505	 0.858048558235168 
1506	 0.859930217266083 
1507	 0.861802339553833 
1508	 0.863706648349762 
1509	 0.865541815757751 
1510	 0.86733740568161 
1511	 0.869086384773254 
1512	 0.870765566825867 
1513	 0.872436165809631 
1514	 0.874059736728668 
1515	 0.875692367553711 
1516	 0.877289414405823 
1517	 0.878920316696167 
1518	 0.880634963512421 
1519	 0.882240176200867 
1520	 0.883789420127869 
1521	 0.885334193706512 
1522	 0.886824190616608 
1523	 0.888363182544708 
1524	 0.889863312244415 
1525	 0.891422212123871 
1526	 0.892872631549835 
1527	 0.894234240055084 
1528	 0.895630717277527 
1529	 0.897002518177032 
1530	 0.898400783538818 
1531	 0.899811208248138 
1532	 0.901192843914032 
1533	 0.90257054567337 
1534	 0.903956651687622 
1535	 0.905326962471008 
1536	 0.906691908836365 
1537	 0.908087730407715 
1538	 0.909420490264893 
1539	 0.910723447799683 
1540	 0.911987006664276 
1541	 0.913238108158112 
1542	 0.914404153823853 
1543	 0.915501594543457 
1544	 0.916576087474823 
1545	 0.917550325393677 
1546	 0.918609380722046 
1547	 0.919666111469269 
1548	 0.920759081840515 
1549	 0.921903431415558 
1550	 0.923030376434326 
1551	 0.924191832542419 
1552	 0.925287246704102 
1553	 0.926374495029449 
1554	 0.92741584777832 
1555	 0.928405046463013 
1556	 0.929375767707825 
1557	 0.930264592170715 
1558	 0.931260943412781 
1559	 0.932300269603729 
1560	 0.933299839496613 
1561	 0.934361398220062 
1562	 0.935369729995728 
1563	 0.936287999153137 
1564	 0.937269806861877 
1565	 0.938284754753113 
1566	 0.939296841621399 
1567	 0.940331876277924 
1568	 0.941338837146759 
1569	 0.942368686199188 
1570	 0.943336308002472 
1571	 0.94428151845932 
1572	 0.945166528224945 
1573	 0.945962250232697 
1574	 0.946799695491791 
1575	 0.947590351104736 
1576	 0.948428928852081 
1577	 0.949297606945038 
1578	 0.950184762477875 
1579	 0.95112556219101 
1580	 0.952009081840515 
1581	 0.95290470123291 
1582	 0.953756868839264 
1583	 0.954585671424866 
1584	 0.955345332622528 
1585	 0.956043124198914 
1586	 0.956744134426117 
1587	 0.957375884056091 
1588	 0.958024084568024 
1589	 0.958739459514618 
1590	 0.959339797496796 
1591	 0.959856033325195 
1592	 0.960375607013702 
1593	 0.96074515581131 
1594	 0.961278200149536 
1595	 0.961901068687439 
1596	 0.962527751922607 
1597	 0.963295757770538 
1598	 0.963958740234375 
1599	 0.964588165283203 
1600	 0.965180218219757 
1601	 0.965724587440491 
1602	 0.966240525245667 
1603	 0.966709733009338 
1604	 0.967171192169189 
1605	 0.967558979988098 
1606	 0.968019783496857 
1607	 0.968518674373627 
1608	 0.969005227088928 
1609	 0.969545841217041 
1610	 0.970045566558838 
1611	 0.970501065254211 
1612	 0.970971405506134 
1613	 0.971435606479645 
1614	 0.971907496452332 
1615	 0.972405254840851 
1616	 0.972865343093872 
1617	 0.973308920860291 
1618	 0.973743736743927 
1619	 0.97414243221283 
1620	 0.97455757856369 
1621	 0.974922120571136 
1622	 0.975385904312134 
1623	 0.975889801979065 
1624	 0.976436078548431 
1625	 0.977120518684387 
1626	 0.977729976177216 
1627	 0.978325426578522 
1628	 0.978912651538849 
1629	 0.979508638381958 
1630	 0.980027735233307 
1631	 0.980506718158722 
1632	 0.980964243412018 
1633	 0.981333553791046 
1634	 0.981731295585632 
1635	 0.982129573822021 
1636	 0.982534050941467 
1637	 0.982873499393463 
1638	 0.983330726623535 
1639	 0.983866512775421 
1640	 0.984409153461456 
1641	 0.9851114153862 
1642	 0.985665619373322 
1643	 0.98614490032196 
1644	 0.986606776714325 
1645	 0.986964643001556 
1646	 0.987364649772644 
1647	 0.987787544727325 
1648	 0.98817765712738 
1649	 0.988544940948486 
1650	 0.988919854164124 
1651	 0.989269077777863 
1652	 0.989655256271362 
1653	 0.990105926990509 
1654	 0.990482807159424 
1655	 0.990854561328888 
1656	 0.991163969039917 
1657	 0.991365790367126 
1658	 0.991623878479004 
1659	 0.991908609867096 
1660	 0.992143213748932 
1661	 0.992388367652893 
1662	 0.99258428812027 
1663	 0.99271160364151 
1664	 0.992835938930511 
1665	 0.992939889431 
1666	 0.993026852607727 
1667	 0.993015587329865 
1668	 0.993144750595093 
1669	 0.993322968482971 
1670	 0.993554770946503 
1671	 0.993963599205017 
1672	 0.994220972061157 
1673	 0.994462251663208 
1674	 0.994631111621857 
1675	 0.994704365730286 
1676	 0.994761168956757 
1677	 0.994780838489532 
1678	 0.994764268398285 
1679	 0.994677186012268 
1680	 0.994627594947815 
1681	 0.994523644447327 
1682	 0.994500637054443 
1683	 0.994509696960449 
1684	 0.99455988407135 
1685	 0.994654715061188 
1686	 0.994820833206177 
1687	 0.995082914829254 
1688	 0.995282888412476 
1689	 0.995514631271362 
1690	 0.995718598365784 
1691	 0.995836436748505 
1692	 0.996063053607941 
1693	 0.996377229690552 
1694	 0.996631681919098 
1695	 0.996871590614319 
1696	 0.99717789888382 
1697	 0.997499406337738 
1698	 0.9978266954422 
1699	 0.998250007629395 
1700	 0.998571276664734 
1701	 0.998846709728241 
1702	 0.999061226844788 
1703	 0.99920791387558 
1704	 0.999358057975769 
1705	 0.999454319477081 
1706	 0.999602198600769 
1707	 0.999725580215454 
1708	 0.999875605106354 
1709	 1 
1710	 1 
1711	 0.999999940395355 
1712	 0.999984920024872 
1713	 0.999840974807739 
1714	 0.999705255031586 
1715	 0.999599814414978 
1716	 0.999604105949402 
1717	 0.999619901180267 
1718	 0.999616086483002 
1719	 0.999661087989807 
1720	 0.999669373035431 
1721	 0.999586760997772 
1722	 0.999608755111694 
1723	 0.999644756317139 
1724	 0.999471366405487 
1725	 0.999351561069489 
1726	 0.999229550361633 
1727	 0.998993039131165 
1728	 0.998871207237244 
1729	 0.998725473880768 
1730	 0.99853926897049 
1731	 0.998476147651672 
1732	 0.998435616493225 
1733	 0.998408019542694 
1734	 0.998381495475769 
1735	 0.998341262340546 
1736	 0.998315215110779 
1737	 0.998156309127808 
1738	 0.997990369796753 
1739	 0.997794151306152 
1740	 0.997521221637726 
1741	 0.997242033481598 
1742	 0.996914625167847 
1743	 0.996585249900818 
1744	 0.996253490447998 
1745	 0.995868504047394 
1746	 0.995465934276581 
1747	 0.995090067386627 
1748	 0.994616448879242 
1749	 0.994284391403198 
1750	 0.994072020053864 
1751	 0.993766188621521 
1752	 0.993507981300354 
1753	 0.993134677410126 
1754	 0.992649912834167 
1755	 0.99225652217865 
1756	 0.991856455802917 
1757	 0.99157452583313 
1758	 0.991186797618866 
1759	 0.990809381008148 
1760	 0.990426659584045 
1761	 0.989970982074738 
1762	 0.989701271057129 
1763	 0.989526629447937 
1764	 0.989344239234924 
1765	 0.989221930503845 
1766	 0.989068448543549 
1767	 0.988909959793091 
1768	 0.988766491413116 
1769	 0.988709032535553 
1770	 0.988741159439087 
1771	 0.988749563694 
1772	 0.988779306411743 
1773	 0.988880634307861 
1774	 0.98894602060318 
1775	 0.988969087600708 
1776	 0.989047706127167 
1777	 0.989057898521423 
1778	 0.989081025123596 
1779	 0.989180207252502 
1780	 0.989212036132813 
1781	 0.989260196685791 
1782	 0.989262700080872 
1783	 0.98927628993988 
1784	 0.989407181739807 
1785	 0.989580929279327 
1786	 0.989786803722382 
1787	 0.990042328834534 
1788	 0.990285754203796 
1789	 0.990524590015411 
1790	 0.990810036659241 
1791	 0.991141736507416 
1792	 0.991454064846039 
1793	 0.991814255714417 
1794	 0.992143273353577 
1795	 0.99245423078537 
1796	 0.992787659168243 
1797	 0.993137776851654 
1798	 0.993489503860474 
1799	 0.993784964084625 
1800	 0.9941246509552 
1801	 0.981927990913391 
1802	 0.982739925384521 
1803	 0.98361349105835 
1804	 0.984434068202972 
1805	 0.985415816307068 
1806	 0.986499488353729 
1807	 0.987887442111969 
1808	 0.989021718502045 
1809	 0.990264534950256 
1810	 0.991227567195892 
1811	 0.991949081420898 
1812	 0.992741525173187 
1813	 0.99343878030777 
1814	 0.994082748889923 
1815	 0.994802951812744 
1816	 0.995571255683899 
1817	 0.996100544929504 
1818	 0.996431767940521 
1819	 0.996812462806702 
1820	 0.997093677520752 
1821	 0.997349381446838 
1822	 0.997564852237701 
1823	 0.997867226600647 
1824	 0.998020648956299 
1825	 0.998150050640106 
1826	 0.998320341110229 
1827	 0.998528122901917 
1828	 0.998705565929413 
1829	 0.99885755777359 
1830	 0.999037086963654 
1831	 0.999254941940308 
1832	 0.999366760253906 
1833	 0.999609053134918 
1834	 0.999729037284851 
1835	 0.999838888645172 
1836	 0.999993085861206 
1837	 1 
1838	 0.999938428401947 
1839	 0.999962031841278 
1840	 1 
1841	 0.999907612800598 
1842	 0.999868333339691 
1843	 0.999657332897186 
1844	 0.999159693717957 
1845	 0.998528838157654 
1846	 0.997704923152924 
1847	 0.99689644575119 
1848	 0.996093690395355 
1849	 0.995220065116882 
1850	 0.994302332401276 
1851	 0.993448436260223 
1852	 0.992477118968964 
1853	 0.991210758686066 
1854	 0.99005651473999 
1855	 0.988597452640533 
1856	 0.986891448497772 
1857	 0.985178232192993 
1858	 0.983048558235168 
1859	 0.980757892131805 
1860	 0.978405058383942 
1861	 0.975597381591797 
1862	 0.972432255744934 
1863	 0.969101309776306 
1864	 0.965304732322693 
1865	 0.961461186408997 
1866	 0.957220554351807 
1867	 0.952446699142456 
1868	 0.947923898696899 
1869	 0.942442417144775 
1870	 0.93654602766037 
1871	 0.930412948131561 
1872	 0.923876106739044 
1873	 0.91666716337204 
1874	 0.909255623817444 
1875	 0.901756525039673 
1876	 0.892784059047699 
1877	 0.883437931537628 
1878	 0.873672127723694 
1879	 0.863103449344635 
1880	 0.853131771087646 
1881	 0.842875361442566 
1882	 0.832332670688629 
1883	 0.821816384792328 
1884	 0.811404764652252 
1885	 0.799806475639343 
1886	 0.788688957691193 
1887	 0.777052581310272 
1888	 0.764709651470184 
1889	 0.753260433673859 
1890	 0.74086332321167 
1891	 0.728391170501709 
1892	 0.716024518013 
1893	 0.702858328819275 
1894	 0.688834428787231 
1895	 0.675334334373474 
1896	 0.661357343196869 
1897	 0.647190392017365 
1898	 0.634538948535919 
1899	 0.621432960033417 
1900	 0.608911395072937 
1901	 0.597194135189056 
1902	 0.584756135940552 
1903	 0.573481917381287 
1904	 0.562925517559052 
1905	 0.55282324552536 
1906	 0.543352603912354 
1907	 0.535671710968018 
1908	 0.528375566005707 
1909	 0.52189701795578 
1910	 0.516447901725769 
1911	 0.511135339736938 
1912	 0.506715774536133 
1913	 0.502919614315033 
1914	 0.499551236629486 
1915	 0.49698868393898 
1916	 0.495298773050308 
1917	 0.494046121835709 
1918	 0.493095338344574 
1919	 0.492740660905838 
1920	 0.492765128612518 
1921	 0.492897838354111 
1922	 0.49336713552475 
1923	 0.494113057851791 
1924	 0.495029777288437 
1925	 0.496128410100937 
1926	 0.497444540262222 
1927	 0.499116480350494 
1928	 0.500853061676025 
1929	 0.502748250961304 
1930	 0.504728138446808 
1931	 0.506913185119629 
1932	 0.508990049362183 
1933	 0.511062920093536 
1934	 0.513358175754547 
1935	 0.515597283840179 
1936	 0.517831861972809 
1937	 0.520204126834869 
1938	 0.522636890411377 
1939	 0.525101244449615 
1940	 0.527666687965393 
1941	 0.530366361141205 
1942	 0.532819449901581 
1943	 0.535245597362518 
1944	 0.537543714046478 
1945	 0.539862930774689 
1946	 0.542407333850861 
1947	 0.544933140277863 
1948	 0.547544598579407 
1949	 0.550151526927948 
1950	 0.552631139755249 
1951	 0.554959297180176 
1952	 0.557382166385651 
1953	 0.559798657894135 
1954	 0.562134563922882 
1955	 0.564615845680237 
1956	 0.567117214202881 
1957	 0.569638729095459 
1958	 0.572294473648071 
1959	 0.574897766113281 
1960	 0.577617406845093 
1961	 0.580211699008942 
1962	 0.582665205001831 
1963	 0.585301578044891 
1964	 0.588063299655914 
1965	 0.590623140335083 
1966	 0.5932337641716 
1967	 0.595815181732178 
1968	 0.598030626773834 
1969	 0.600164175033569 
1970	 0.602413475513458 
1971	 0.604925990104675 
1972	 0.607644200325012 
1973	 0.610491096973419 
1974	 0.613328874111176 
1975	 0.616284906864166 
1976	 0.619232535362244 
1977	 0.622228503227234 
1978	 0.625201165676117 
1979	 0.628224611282349 
1980	 0.631191194057465 
1981	 0.634297668933868 
1982	 0.637283384799957 
1983	 0.640377879142761 
1984	 0.643596172332764 
1985	 0.646410167217255 
1986	 0.649323523044586 
1987	 0.652299761772156 
1988	 0.655114769935608 
1989	 0.658214271068573 
1990	 0.661614239215851 
1991	 0.664845168590546 
1992	 0.668112635612488 
1993	 0.671498954296112 
1994	 0.674453437328339 
1995	 0.677660524845123 
1996	 0.681074380874634 
1997	 0.684432625770569 
1998	 0.687945604324341 
1999	 0.691795527935028 
2000	 0.695349812507629 
2001	 0.698921501636505 
2002	 0.702311754226685 
2003	 0.705578684806824 
2004	 0.708827137947083 
2005	 0.711652219295502 
2006	 0.714883983135223 
2007	 0.718408465385437 
2008	 0.721752643585205 
2009	 0.725259482860565 
2010	 0.729000151157379 
2011	 0.732216835021973 
2012	 0.735607743263245 
2013	 0.738907992839813 
2014	 0.742053210735321 
2015	 0.745307624340057 
2016	 0.748621165752411 
2017	 0.751893222332001 
2018	 0.755357980728149 
2019	 0.758543252944946 
2020	 0.761563301086426 
2021	 0.764541864395142 
2022	 0.767395496368408 
2023	 0.770168423652649 
2024	 0.773107290267944 
2025	 0.775935173034668 
2026	 0.778814911842346 
2027	 0.781670093536377 
2028	 0.784548938274384 
2029	 0.787417590618134 
2030	 0.790454685688019 
2031	 0.793599784374237 
2032	 0.796667993068695 
2033	 0.799867272377014 
2034	 0.802912175655365 
2035	 0.805795848369598 
2036	 0.808880567550659 
2037	 0.811538636684418 
2038	 0.814231336116791 
2039	 0.816773176193237 
2040	 0.818961024284363 
2041	 0.82135397195816 
2042	 0.823826849460602 
2043	 0.826229274272919 
2044	 0.828603029251099 
2045	 0.831011176109314 
2046	 0.833355605602264 
2047	 0.835759520530701 
2048	 0.83817583322525 
2049	 0.840661108493805 
2050	 0.843209385871887 
2051	 0.845824837684631 
2052	 0.848473906517029 
2053	 0.851053178310394 
2054	 0.853412985801697 
2055	 0.855537354946136 
2056	 0.857837975025177 
2057	 0.860033690929413 
2058	 0.862299084663391 
2059	 0.864765763282776 
2060	 0.866999387741089 
2061	 0.869132578372955 
2062	 0.871165215969086 
2063	 0.872944951057434 
2064	 0.874943196773529 
2065	 0.877031326293945 
2066	 0.878975808620453 
2067	 0.880998015403748 
2068	 0.883081078529358 
2069	 0.885258853435516 
2070	 0.887490153312683 
2071	 0.8896164894104 
2072	 0.89193320274353 
2073	 0.893938541412354 
2074	 0.895506858825684 
2075	 0.897458553314209 
2076	 0.899347305297852 
2077	 0.901531219482422 
2078	 0.904303550720215 
2079	 0.906595706939697 
2080	 0.908788681030273 
2081	 0.910979270935059 
2082	 0.912975013256073 
2083	 0.91475784778595 
2084	 0.916930437088013 
2085	 0.919110417366028 
2086	 0.920874118804932 
2087	 0.922270119190216 
2088	 0.924019634723663 
2089	 0.925554871559143 
2090	 0.92731773853302 
2091	 0.929563760757446 
2092	 0.931391954421997 
2093	 0.932924211025238 
2094	 0.934658646583557 
2095	 0.936265230178833 
2096	 0.938080310821533 
2097	 0.940124690532684 
2098	 0.942144691944122 
2099	 0.944027602672577 
2100	 0.946130156517029 
2101	 0.948191106319427 
2102	 0.95020067691803 
2103	 0.952267289161682 
2104	 0.954623460769653 
2105	 0.956489980220795 
2106	 0.958044290542603 
2107	 0.959804594516754 
2108	 0.961320459842682 
2109	 0.963024199008942 
2110	 0.964930832386017 
2111	 0.96680361032486 
2112	 0.968732118606567 
2113	 0.970600843429565 
2114	 0.972562432289124 
2115	 0.974415481090546 
2116	 0.976302683353424 
2117	 0.977858901023865 
2118	 0.979365706443787 
2119	 0.980727791786194 
2120	 0.982123851776123 
2121	 0.983317315578461 
2122	 0.984670579433441 
2123	 0.986067235469818 
2124	 0.987566947937012 
2125	 0.989324688911438 
2126	 0.990706980228424 
2127	 0.991888284683228 
2128	 0.993223488330841 
2129	 0.994567930698395 
2130	 0.99563854932785 
2131	 0.996824324131012 
2132	 0.997757971286774 
2133	 0.99837863445282 
2134	 0.998638033866882 
2135	 0.999012351036072 
2136	 0.999581634998322 
2137	 0.999802827835083 
2138	 0.99974662065506 
2139	 0.999863564968109 
2140	 1 
2141	 0.99997353553772 
2142	 1 
2143	 1 
2144	 0.999529361724854 
2145	 0.999277889728546 
2146	 0.999171078205109 
2147	 0.998670935630798 
2148	 0.997980713844299 
2149	 0.997224867343903 
2150	 0.996375262737274 
2151	 0.995153725147247 
2152	 0.993677735328674 
2153	 0.992162346839905 
2154	 0.990151822566986 
2155	 0.987764894962311 
2156	 0.98552930355072 
2157	 0.98333352804184 
2158	 0.98068106174469 
2159	 0.977916657924652 
2160	 0.974778234958649 
2161	 0.971031546592712 
2162	 0.96757447719574 
2163	 0.963926911354065 
2164	 0.960327863693237 
2165	 0.956662833690643 
2166	 0.953193724155426 
2167	 0.949934959411621 
2168	 0.946430385112762 
2169	 0.942965030670166 
2170	 0.93951427936554 
2171	 0.935649991035461 
2172	 0.93208384513855 
2173	 0.928882777690887 
2174	 0.925453424453735 
2175	 0.922029256820679 
2176	 0.919358611106873 
2177	 0.916515171527863 
2178	 0.913972616195679 
2179	 0.911039412021637 
2180	 0.907833695411682 
2181	 0.905135989189148 
2182	 0.902348458766937 
2183	 0.900014519691467 
2184	 0.898256659507751 
2185	 0.896503627300262 
2186	 0.895233035087585 
2187	 0.89340740442276 
2188	 0.891537010669708 
2189	 0.889631986618042 
2190	 0.886887669563293 
2191	 0.884967029094696 
2192	 0.88381952047348 
2193	 0.882317125797272 
2194	 0.880906403064728 
2195	 0.87968373298645 
2196	 0.878522574901581 
2197	 0.877213656902313 
2198	 0.876233458518982 
2199	 0.875061690807343 
2200	 0.874049425125122 
2201	 0.872949123382568 
2202	 0.871876299381256 
2203	 0.870807528495789 
2204	 0.870246469974518 
2205	 0.869374454021454 
2206	 0.869850695133209 
2207	 0.871669232845306 
2208	 0.873014748096466 
2209	 0.875142097473145 
2210	 0.876692056655884 
2211	 0.877693235874176 
2212	 0.87945955991745 
2213	 0.881038248538971 
2214	 0.883655428886414 
2215	 0.887604117393494 
2216	 0.890825390815735 
2217	 0.894700825214386 
2218	 0.897887825965881 
2219	 0.900111377239227 
2220	 0.902739882469177 
2221	 0.905353248119354 
2222	 0.907959342002869 
2223	 0.910546004772186 
2224	 0.913925588130951 
2225	 0.916597664356232 
2226	 0.918506562709808 
2227	 0.920550942420959 
2228	 0.92207282781601 
2229	 0.923952996730804 
2230	 0.925826072692871 
2231	 0.928007543087006 
2232	 0.930482447147369 
2233	 0.932705223560333 
2234	 0.935394704341888 
2235	 0.937107980251312 
2236	 0.937856674194336 
2237	 0.939433455467224 
2238	 0.940859019756317 
2239	 0.94234162569046 
2240	 0.944657802581787 
2241	 0.946120858192444 
2242	 0.946844220161438 
2243	 0.947834074497223 
2244	 0.948025286197662 
2245	 0.949449241161346 
2246	 0.951730966567993 
2247	 0.953749537467957 
2248	 0.957560002803802 
2249	 0.959499716758728 
2250	 0.959985733032227 
2251	 0.959986448287964 
2252	 0.961450397968292 
2253	 0.962537527084351 
2254	 0.964438319206238 
2255	 0.967104256153107 
2256	 0.968697667121887 
2257	 0.969947695732117 
2258	 0.971105813980103 
2259	 0.972464919090271 
2260	 0.973343431949615 
2261	 0.973610043525696 
2262	 0.97394871711731 
2263	 0.973560810089111 
2264	 0.975034773349762 
2265	 0.977430760860443 
2266	 0.979239702224731 
2267	 0.982619106769562 
2268	 0.984203159809113 
2269	 0.983904302120209 
2270	 0.984725654125214 
2271	 0.985706984996796 
2272	 0.98663991689682 
2273	 0.988224804401398 
2274	 0.988971292972565 
2275	 0.989068269729614 
2276	 0.989205241203308 
2277	 0.988149225711823 
2278	 0.988464951515198 
2279	 0.990110993385315 
2280	 0.990876913070679 
2281	 0.991846740245819 
2282	 0.992968857288361 
2283	 0.993679404258728 
2284	 0.994074106216431 
2285	 0.995907843112946 
2286	 0.996682524681091 
2287	 0.99688059091568 
2288	 0.997654318809509 
2289	 0.998878717422485 
2290	 1 
2291	 0.999215364456177 
2292	 0.99776816368103 
2293	 0.996868431568146 
2294	 0.995535910129547 
2295	 0.995918452739716 
2296	 0.997724175453186 
2297	 0.998101711273193 
2298	 0.997672438621521 
2299	 0.997520208358765 
2300	 0.997037649154663 
2301	 0.996807754039764 
2302	 0.996376156806946 
2303	 0.996396124362946 
2304	 0.996772289276123 
2305	 0.997200131416321 
2306	 0.997969388961792 
2307	 0.998585999011993 
2308	 0.999796569347382 
2309	 0.999861776828766 
2310	 0.998990774154663 
2311	 0.998745024204254 
2312	 0.997820138931274 
2313	 0.997489273548126 
2314	 0.998404324054718 
2315	 0.997725188732147 
2316	 0.996026217937469 
2317	 0.995494663715363 
2318	 0.994813740253448 
2319	 0.99439263343811 
2320	 0.994518578052521 
2321	 0.99397224187851 
2322	 0.993780374526978 
2323	 0.992598176002502 
2324	 0.990192592144012 
2325	 0.989545226097107 
2326	 0.989239037036896 
2327	 0.98776376247406 
2328	 0.986440420150757 
2329	 0.985708832740784 
2330	 0.983607947826386 
2331	 0.983176589012146 
2332	 0.985138177871704 
2333	 0.986932516098022 
2334	 0.986582934856415 
2335	 0.98465633392334 
2336	 0.981049656867981 
2337	 0.978964984416962 
2338	 0.978404581546783 
2339	 0.978709876537323 
2340	 0.979917705059052 
2341	 0.979119837284088 
2342	 0.979600608348846 
2343	 0.978709638118744 
2344	 0.975396573543549 
2345	 0.976032018661499 
2346	 0.975294470787048 
2347	 0.972394645214081 
2348	 0.970573782920837 
2349	 0.967634499073029 
2350	 0.965615689754486 
2351	 0.965366005897522 
2352	 0.966742277145386 
2353	 0.966663062572479 
2354	 0.963284194469452 
2355	 0.960492730140686 
2356	 0.957737445831299 
2357	 0.956214666366577 
2358	 0.958296597003937 
2359	 0.96009236574173 
2360	 0.959861576557159 
2361	 0.95832633972168 
2362	 0.956167697906494 
2363	 0.954101860523224 
2364	 0.954627275466919 
2365	 0.958689391613007 
2366	 0.958675980567932 
2367	 0.956415891647339 
2368	 0.95520555973053 
2369	 0.949746310710907 
2370	 0.947134852409363 
2371	 0.947551429271698 
2372	 0.943976938724518 
2373	 0.941128373146057 
2374	 0.942468583583832 
2375	 0.94337671995163 
2376	 0.943179249763489 
2377	 0.945419192314148 
2378	 0.940646052360535 
2379	 0.93229603767395 
2380	 0.931256353855133 
2381	 0.930764317512512 
2382	 0.929820358753204 
2383	 0.932430803775787 
2384	 0.932262539863586 
2385	 0.929578602313995 
2386	 0.927777230739594 
2387	 0.926666736602783 
2388	 0.926224231719971 
2389	 0.922891855239868 
2390	 0.924729704856873 
2391	 0.935066998004913 
2392	 0.934807360172272 
2393	 0.931383490562439 
2394	 0.926871776580811 
2395	 0.910260319709778 
2396	 0.903413593769073 
2397	 0.90494167804718 
2398	 0.903702795505524 
2399	 0.90482085943222 
2400	 0.906564891338348 
2401	 0.906462967395782 
2402	 0.913536369800568 
2403	 0.917486786842346 
2404	 0.917656719684601 
2405	 0.916298687458038 
2406	 0.909241378307343 
2407	 0.898424804210663 
2408	 0.893976628780365 
2409	 0.895405471324921 
2410	 0.892757415771484 
2411	 0.897631466388702 
2412	 0.903114080429077 
2413	 0.899169027805328 
2414	 0.899386465549469 
2415	 0.901009798049927 
2416	 0.906720757484436 
2417	 0.910732269287109 
2418	 0.907443165779114 
2419	 0.90835964679718 
2420	 0.902507722377777 
2421	 0.895195543766022 
2422	 0.898337841033936 
2423	 0.895049929618835 
2424	 0.889357507228851 
2425	 0.882313907146454 
2426	 0.867364048957825 
2427	 0.856434106826782 
2428	 0.849652349948883 
2429	 0.855090916156769 
2430	 0.860215723514557 
2431	 0.86298668384552 
2432	 0.875920712947845 
2433	 0.86969792842865 
2434	 0.866330504417419 
2435	 0.868928015232086 
2436	 0.858147323131561 
2437	 0.863401174545288 
2438	 0.870482742786407 
2439	 0.876795411109924 
2440	 0.883285582065582 
2441	 0.880530953407288 
2442	 0.87608015537262 
2443	 0.869008898735046 
2444	 0.860079109668732 
2445	 0.844793498516083 
2446	 0.841358423233032 
2447	 0.842299997806549 
2448	 0.848101913928986 
2449	 0.86210435628891 
2450	 0.867531359195709 
2451	 0.882153749465942 
2452	 0.897552788257599 
2453	 0.902925968170166 
2454	 0.884912550449371 
2455	 0.861215353012085 
2456	 0.84511137008667 
2457	 0.818731546401978 
2458	 0.812233209609985 
2459	 0.804991841316223 
2460	 0.801731407642365 
2461	 0.822154700756073 
2462	 0.830043733119965 
2463	 0.842088580131531 
2464	 0.840541243553162 
2465	 0.817177414894104 
2466	 0.825987935066223 
2467	 0.836647927761078 
2468	 0.840716660022736 
2469	 0.841813921928406 
2470	 0.828784644603729 
2471	 0.842783033847809 
2472	 0.842348694801331 
2473	 0.859234929084778 
2474	 0.894285500049591 
2475	 0.898942530155182 
2476	 0.93096262216568 
2477	 0.925411224365234 
2478	 0.888227462768555 
2479	 0.876935243606567 
2480	 0.883913815021515 
2481	 0.891551375389099 
2482	 0.924701690673828 
2483	 0.904994189739227 
2484	 0.851264536380768 
2485	 0.76740974187851 
2486	 0.759355008602142 
2487	 0.800336003303528 
2488	 0.817136228084564 
2489	 0.823791325092316 
2490	 0.837845504283905 
2491	 0.84622859954834 
2492	 0.877407908439636 
2493	 0.944725513458252 
2494	 0.999999940395355 
2495	 0.999999940395355 
2496	 0.960361063480377 
2497	 0.953600764274597 
2498	 0.940649271011353 
2499	 0.939463078975677 
2500	 1 
