Wavelength	A00133.asd
350	 0.326476012461347 
351	 0.315909169187723 
352	 0.293606977236301 
353	 0.270221302038105 
354	 0.266074135314694 
355	 0.237836213621767 
356	 0.216773526396078 
357	 0.225471182008694 
358	 0.216146993227908 
359	 0.205312390089437 
360	 0.197613042441174 
361	 0.191933282950025 
362	 0.177910455450537 
363	 0.166946131042598 
364	 0.165381161293753 
365	 0.17079796694974 
366	 0.158941809284424 
367	 0.151330042582295 
368	 0.162777970895683 
369	 0.158084434567312 
370	 0.149085239362348 
371	 0.144140793052846 
372	 0.14655388617853 
373	 0.136207275661775 
374	 0.126828419570898 
375	 0.124910804845457 
376	 0.123358605927066 
377	 0.121972099458899 
378	 0.121198899777459 
379	 0.120757123800171 
380	 0.116623258754615 
381	 0.115292525020684 
382	 0.114817609944216 
383	 0.109955577508812 
384	 0.112422526555996 
385	 0.111678535884281 
386	 0.105684815527139 
387	 0.107586097393879 
388	 0.105518119330055 
389	 0.101389001399728 
390	 9.97861322939833E-02 
391	 0.102018272016073 
392	 0.100327512425652 
393	 9.64721170680521E-02 
394	 9.72765614640663E-02 
395	 9.52560537817241E-02 
396	 9.31316182875735E-02 
397	 9.28333506293315E-02 
398	 9.32769219270898E-02 
399	 8.96356248168713E-02 
400	 8.63716892555543E-02 
401	 8.79760195208565E-02 
402	 8.79951233170177E-02 
403	 8.70324595742198E-02 
404	 8.61768386672124E-02 
405	 8.64109245843553E-02 
406	 8.43219285832444E-02 
407	 8.25752177517387E-02 
408	 8.25344933697673E-02 
409	 8.14911664269497E-02 
410	 8.09870021126811E-02 
411	 0.080404255861845 
412	 7.89348227172366E-02 
413	 7.80204472736242E-02 
414	 7.78474159612945E-02 
415	 0.078196016503802 
416	 0.078539176661086 
417	 7.80202901994814E-02 
418	 0.077192687829178 
419	 7.65131979639737E-02 
420	 7.54780203881142E-02 
421	 0.074984625183116 
422	 7.51085386259844E-02 
423	 7.53787813950499E-02 
424	 7.43777544937324E-02 
425	 7.33993537741977E-02 
426	 7.32629497835478E-02 
427	 7.39828159890351E-02 
428	 7.37122876171924E-02 
429	 7.29294965222167E-02 
430	 7.25036405732587E-02 
431	 7.27708067977133E-02 
432	 7.28469620084157E-02 
433	 7.25401247101122E-02 
434	 7.21119433659789E-02 
435	 7.19669434361077E-02 
436	 7.15707367235102E-02 
437	 7.09548875695558E-02 
438	 7.12042043386263E-02 
439	 7.13847893626797E-02 
440	 7.12159603291193E-02 
441	 7.07692699143032E-02 
442	 7.06908212546495E-02 
443	 7.05403220174647E-02 
444	 7.03407979895026E-02 
445	 7.04675261492438E-02 
446	 7.03640536104653E-02 
447	 7.00975361108228E-02 
448	 6.98554713862179E-02 
449	 6.98643445556825E-02 
450	 6.99019413978527E-02 
451	 6.98364839098611E-02 
452	 6.96210902903379E-02 
453	 6.94689016211008E-02 
454	 6.94183143251583E-02 
455	 0.069358235268905 
456	 6.90406662417484E-02 
457	 6.88038995633308E-02 
458	 6.86604250743823E-02 
459	 6.85511597968548E-02 
460	 6.84091753899746E-02 
461	 6.85553977989581E-02 
462	 6.88201434705485E-02 
463	 0.068783808820202 
464	 6.84701852071076E-02 
465	 6.83720314656051E-02 
466	 6.85132935032793E-02 
467	 6.81163185267324E-02 
468	 6.77777865385219E-02 
469	 6.76726252211044E-02 
470	 6.78271872586857E-02 
471	 6.82849835907822E-02 
472	 6.81827680191966E-02 
473	 6.76719969821875E-02 
474	 0.067679742023349 
475	 6.77525598269211E-02 
476	 6.77552822566767E-02 
477	 6.76784762850688E-02 
478	 6.77080376680454E-02 
479	 0.067520894368876 
480	 6.72753194659364E-02 
481	 0.067278440009265 
482	 6.75267469386545E-02 
483	 6.73220500419729E-02 
484	 6.67356920763578E-02 
485	 6.67404235182788E-02 
486	 6.68918712380774E-02 
487	 6.70383623874021E-02 
488	 6.70888560193739E-02 
489	 6.69555125518571E-02 
490	 6.67731504888815E-02 
491	 6.66397395822425E-02 
492	 6.65956611304151E-02 
493	 6.63765555759659E-02 
494	 6.62660141390879E-02 
495	 6.63595069569659E-02 
496	 0.066331808905485 
497	 0.066382091042921 
498	 6.64528272377307E-02 
499	 6.64195310903813E-02 
500	 6.61738709779257E-02 
501	 6.62190698457851E-02 
502	 6.64411368912627E-02 
503	 6.62020059552562E-02 
504	 6.59206033556581E-02 
505	 6.58734945824495E-02 
506	 6.60898917873445E-02 
507	 6.60762760025465E-02 
508	 6.61721946937056E-02 
509	 0.066226840788274 
510	 6.59853936867857E-02 
511	 6.60615703860309E-02 
512	 6.60655592612137E-02 
513	 6.59266542461142E-02 
514	 6.60978009194587E-02 
515	 0.066172002565083 
516	 6.61802353754972E-02 
517	 6.62240169755467E-02 
518	 6.62341171059812E-02 
519	 6.62346984441727E-02 
520	 6.63090641630175E-02 
521	 6.65510035654825E-02 
522	 6.66801583851543E-02 
523	 6.68463834185881E-02 
524	 6.71029069963032E-02 
525	 6.71816101180063E-02 
526	 6.72741916935837E-02 
527	 6.73982586943398E-02 
528	 6.75233711894332E-02 
529	 6.77048179904351E-02 
530	 6.78917476156284E-02 
531	 6.80510331192265E-02 
532	 6.81776730146862E-02 
533	 6.84406634750409E-02 
534	 0.068644713735183 
535	 6.86565499860693E-02 
536	 6.87509869205737E-02 
537	 6.89237924966254E-02 
538	 6.91607028223062E-02 
539	 6.94137458229394E-02 
540	 6.94334056290607E-02 
541	 6.94941361091224E-02 
542	 6.97118499476289E-02 
543	 6.98471153397566E-02 
544	 6.98970306973396E-02 
545	 6.99322272496617E-02 
546	 7.00308689330793E-02 
547	 7.01611554166909E-02 
548	 7.02620312741159E-02 
549	 7.03232233685825E-02 
550	 7.03819650040643E-02 
551	 7.04336815130414E-02 
552	 7.05961454145517E-02 
553	 7.08759072987251E-02 
554	 7.09761940090797E-02 
555	 0.071085881288208 
556	 7.12420840415728E-02 
557	 7.14091388958952E-02 
558	 7.15127306994957E-02 
559	 7.16500897712804E-02 
560	 7.18265598099442E-02 
561	 7.19058261514534E-02 
562	 7.19866922848826E-02 
563	 0.07216139946612 
564	 7.24520190735754E-02 
565	 7.26132341163182E-02 
566	 7.28011212821059E-02 
567	 7.31002696344314E-02 
568	 7.35211480381579E-02 
569	 0.073977886292267 
570	 7.44733244130087E-02 
571	 7.51199609393603E-02 
572	 7.61888302741723E-02 
573	 7.79560501588647E-02 
574	 8.04523849460121E-02 
575	 8.33219522084955E-02 
576	 8.54753322709931E-02 
577	 8.72144731172059E-02 
578	 8.87111505420933E-02 
579	 8.98516710300091E-02 
580	 9.12076130248959E-02 
581	 9.28735530272159E-02 
582	 9.49575179533865E-02 
583	 9.79369528666046E-02 
584	 0.101673838679773 
585	 0.106193020495948 
586	 0.111591900720134 
587	 0.117778331173756 
588	 0.124771575375601 
589	 0.13271293059543 
590	 0.141854162295652 
591	 0.152102231117767 
592	 0.163450235458578 
593	 0.175852959275089 
594	 0.188963393542399 
595	 0.202922358330201 
596	 0.217770155823942 
597	 0.23335149569424 
598	 0.24961927645034 
599	 0.266589118365261 
600	 0.284191300522939 
601	 0.302233422983256 
602	 0.32084006303743 
603	 0.339851439547695 
604	 0.358978955559438 
605	 0.37818001200458 
606	 0.397601929746525 
607	 0.417242706472433 
608	 0.436835946297559 
609	 0.456428462646212 
610	 0.475849723830313 
611	 0.495014555539203 
612	 0.514048754178236 
613	 0.532697029908902 
614	 0.551014688301623 
615	 0.569192465876828 
616	 0.586566523436572 
617	 0.603634248598862 
618	 0.620583624781464 
619	 0.636940249547698 
620	 0.653037820439389 
621	 0.668512451680458 
622	 0.683088953486208 
623	 0.697815725909391 
624	 0.712304044818383 
625	 0.726104986665825 
626	 0.738866600705787 
627	 0.751308715605829 
628	 0.763712765699394 
629	 0.776015235016111 
630	 0.787605760847527 
631	 0.798498323846247 
632	 0.808820244221152 
633	 0.818807329291977 
634	 0.828732717692751 
635	 0.838383479364503 
636	 0.847543697943543 
637	 0.855904192639609 
638	 0.864077959329999 
639	 0.872055425838265 
640	 0.879720484509351 
641	 0.886992314656243 
642	 0.894011551036558 
643	 0.900607132790143 
644	 0.906557446664545 
645	 0.91280333974346 
646	 0.918804671578082 
647	 0.924279451589508 
648	 0.929697138688751 
649	 0.935048600046129 
650	 0.940040293646147 
651	 0.944389878892176 
652	 0.948161011941041 
653	 0.951736686577186 
654	 0.955616028743681 
655	 0.960201577283182 
656	 0.963670839631074 
657	 0.966849943984314 
658	 0.970244212846345 
659	 0.972699576169239 
660	 0.975429994085022 
661	 0.978352559753231 
662	 0.980946680990212 
663	 0.983155739680398 
664	 0.98528304131271 
665	 0.987507773382559 
666	 0.989816739893699 
667	 0.991163290595265 
668	 0.99268955137679 
669	 0.994992379938013 
670	 0.99606483737921 
671	 0.997322077066187 
672	 0.999098734216603 
673	 1.00107040345726 
674	 1.0020470041984 
675	 1.00305349961972 
676	 1.00431596177766 
677	 1.00486566839659 
678	 1.00556581413587 
679	 1.00648745419343 
680	 1.00748437379288 
681	 1.00838682956717 
682	 1.00903575024013 
683	 1.00961983861297 
684	 1.01047405554862 
685	 1.01140839422866 
686	 1.01192295895609 
687	 1.01210441539026 
688	 1.01288076916183 
689	 1.01341626055277 
690	 1.01406409499231 
691	 1.01498966307273 
692	 1.0145290576619 
693	 1.01459053282739 
694	 1.01554910685486 
695	 1.01663639166453 
696	 1.01673419412731 
697	 1.01682161372816 
698	 1.01734820653541 
699	 1.01750189824568 
700	 1.01785462224641 
701	 1.01818771044852 
702	 1.01827953753138 
703	 1.01876175154132 
704	 1.01918568528187 
705	 1.01949780274922 
706	 1.01988846831513 
707	 1.01994869748849 
708	 1.01993549939769 
709	 1.02006322718569 
710	 1.02030787871779 
711	 1.02108528804727 
712	 1.02185260583185 
713	 1.02202658564466 
714	 1.02209263465803 
715	 1.02213599203703 
716	 1.02199734480861 
717	 1.02149269176431 
718	 1.0221992448395 
719	 1.02262651973864 
720	 1.02227482294741 
721	 1.02303228711775 
722	 1.02383998962522 
723	 1.02409650182368 
724	 1.02365183212366 
725	 1.0235945741448 
726	 1.02315836501177 
727	 1.02282849744798 
728	 1.02375905702533 
729	 1.02405315893654 
730	 1.02463504415495 
731	 1.02541768647492 
732	 1.02395734932246 
733	 1.02413329587581 
734	 1.02503114465779 
735	 1.02489541926355 
736	 1.02444692969412 
737	 1.02466480950008 
738	 1.02517471533934 
739	 1.0249510647626 
740	 1.02615175187206 
741	 1.02656819092467 
742	 1.02562873419053 
743	 1.02596212050995 
744	 1.0259486042759 
745	 1.02596036359521 
746	 1.02651852431996 
747	 1.0269884629116 
748	 1.02676600030808 
749	 1.02642578707158 
750	 1.02696966325146 
751	 1.02675642175205 
752	 1.02734549690759 
753	 1.02853835520419 
754	 1.02757322694929 
755	 1.02715933966128 
756	 1.02711253157348 
757	 1.02702637057348 
758	 1.02802735632888 
759	 1.02823020879488 
760	 1.02780363344252 
761	 1.02791839424774 
762	 1.02920031204478 
763	 1.02923265419698 
764	 1.02822647344941 
765	 1.02921039126159 
766	 1.02915895346612 
767	 1.02873275071695 
768	 1.02876345961326 
769	 1.02883202217689 
770	 1.02854513670458 
771	 1.0287566925428 
772	 1.03015664010805 
773	 1.0302567975211 
774	 1.03041766309799 
775	 1.0307262528214 
776	 1.03021099302803 
777	 1.02972679784673 
778	 1.02977340681548 
779	 1.03045026458271 
780	 1.0313513150998 
781	 1.03111705603101 
782	 1.03083464849734 
783	 1.03152323128501 
784	 1.03119258629848 
785	 1.03153953742696 
786	 1.03209932046883 
787	 1.03138069990098 
788	 1.03021273836579 
789	 1.03026097326107 
790	 1.03135307622339 
791	 1.03117948034198 
792	 1.03133254490704 
793	 1.03213871776737 
794	 1.03314359791347 
795	 1.03258092381109 
796	 1.03228423024708 
797	 1.03246047057478 
798	 1.03266728226121 
799	 1.03252748924984 
800	 1.03228766384071 
801	 1.03205762983919 
802	 1.03188607881778 
803	 1.03261852031268 
804	 1.03292036517424 
805	 1.03241775568341 
806	 1.03259470008373 
807	 1.03263986566506 
808	 1.03288119223863 
809	 1.03334363594837 
810	 1.03223291890972 
811	 1.03204934369568 
812	 1.0329727013823 
813	 1.03392227512909 
814	 1.03348389491668 
815	 1.03380310405327 
816	 1.0346214655454 
817	 1.03365217853715 
818	 1.03331789016202 
819	 1.03341418530033 
820	 1.03340729848669 
821	 1.03290138531592 
822	 1.03303329031374 
823	 1.03366209725731 
824	 1.03428095891196 
825	 1.03444118873347 
826	 1.03490690367882 
827	 1.03517858938594 
828	 1.03455381020331 
829	 1.03472226036885 
830	 1.03481649607846 
831	 1.03472441139118 
832	 1.03503121926289 
833	 1.03483625217165 
834	 1.03478883137551 
835	 1.03495756974949 
836	 1.0342002103482 
837	 1.03501306296079 
838	 1.03579531658956 
839	 1.03518609297119 
840	 1.03553267747625 
841	 1.03577656993965 
842	 1.03540730604535 
843	 1.03456501203653 
844	 1.03547212915398 
845	 1.03578512297799 
846	 1.03540930773304 
847	 1.03583906804523 
848	 1.03547627660895 
849	 1.03554558237395 
850	 1.03628158067282 
851	 1.03631200709021 
852	 1.03512241387237 
853	 1.03439169628509 
854	 1.03515766807122 
855	 1.03617517361517 
856	 1.0363526611876 
857	 1.03591236059829 
858	 1.03549878748029 
859	 1.03525914658842 
860	 1.03540842127707 
861	 1.03601935480102 
862	 1.03683905042415 
863	 1.03643805321414 
864	 1.0357725425961 
865	 1.0353957158151 
866	 1.03532844591768 
867	 1.03574491694222 
868	 1.03622018921283 
869	 1.03639754101782 
870	 1.0361692959443 
871	 1.0358150170284 
872	 1.0358658609922 
873	 1.03645934633643 
874	 1.03682752335739 
875	 1.03690787087812 
876	 1.03620828912809 
877	 1.03495353411445 
878	 1.0361664372112 
879	 1.03693076572201 
880	 1.03675596339889 
881	 1.0364476879905 
882	 1.03629957022988 
883	 1.03659755163809 
884	 1.0369920759484 
885	 1.0367775819129 
886	 1.03647877243125 
887	 1.0361925156801 
888	 1.0362595320274 
889	 1.037215251283 
890	 1.03755067548728 
891	 1.03746547448632 
892	 1.03733199273018 
893	 1.03722984668153 
894	 1.03624697912317 
895	 1.03611619873381 
896	 1.03769192551864 
897	 1.03798709198255 
898	 1.03711186363099 
899	 1.03667454596184 
900	 1.03770359073496 
901	 1.03667706350384 
902	 1.036669368415 
903	 1.03740264633978 
904	 1.03722490354241 
905	 1.0372344947964 
906	 1.03757974402534 
907	 1.03786775982366 
908	 1.03749866282256 
909	 1.0372587329007 
910	 1.03658676234748 
911	 1.03592576411555 
912	 1.03665057751123 
913	 1.0377860672544 
914	 1.037664563867 
915	 1.03646663986111 
916	 1.03681459465844 
917	 1.03644428931795 
918	 1.03593184261644 
919	 1.03586334580385 
920	 1.03576825289055 
921	 1.03632557461829 
922	 1.0367918419422 
923	 1.03657381607089 
924	 1.03635042908287 
925	 1.03692209482608 
926	 1.03767712080894 
927	 1.03773410644279 
928	 1.037098892637 
929	 1.0363689595936 
930	 1.03614489483257 
931	 1.03659210817649 
932	 1.03621830403701 
933	 1.0364889455042 
934	 1.03736536105948 
935	 1.03784389905171 
936	 1.03687339264124 
937	 1.03649996313573 
938	 1.03689790043412 
939	 1.03692698930697 
940	 1.0371680863367 
941	 1.03683421016059 
942	 1.03629161762365 
943	 1.03673772635526 
944	 1.03697649070286 
945	 1.03670777507565 
946	 1.03631620608934 
947	 1.03670369762616 
948	 1.03793182882933 
949	 1.03771623754405 
950	 1.03615653897274 
951	 1.03650334814199 
952	 1.03745812833683 
953	 1.03788878785885 
954	 1.03757137596025 
955	 1.03756144644205 
956	 1.03640766588195 
957	 1.03550126412545 
958	 1.0357432122011 
959	 1.03617718436271 
960	 1.03656057036578 
961	 1.03659015761395 
962	 1.03634420236389 
963	 1.03656451836671 
964	 1.03640240536124 
965	 1.03667680001331 
966	 1.03755244432338 
967	 1.03683523569404 
968	 1.03589783227311 
969	 1.03556381152918 
970	 1.03607781396115 
971	 1.03676085823696 
972	 1.03583531820879 
973	 1.03504102163248 
974	 1.03584067561645 
975	 1.03563834770628 
976	 1.03583213894901 
977	 1.03594763385871 
978	 1.03545716019924 
979	 1.03538151446307 
980	 1.03602097373219 
981	 1.0372772146493 
982	 1.03838821505779 
983	 1.03719768653301 
984	 1.03614867468613 
985	 1.03568099815416 
986	 1.03536674848932 
987	 1.03449459687423 
988	 1.03453890594778 
989	 1.03532275391447 
990	 1.03596661363532 
991	 1.03557997938694 
992	 1.03547119092758 
993	 1.0362345156806 
994	 1.03739595624819 
995	 1.03607583118785 
996	 1.03545547092643 
997	 1.0358219014859 
998	 1.03639678314074 
999	 1.03700581920024 
1000	 1.03632504140575 
1001	 1.03093249600645 
1002	 1.03093439642071 
1003	 1.03093790924805 
1004	 1.03097662611745 
1005	 1.03105220545285 
1006	 1.03110766138802 
1007	 1.03119918738289 
1008	 1.03125235531868 
1009	 1.03125120579187 
1010	 1.03130924090309 
1011	 1.03142047257231 
1012	 1.0314715965887 
1013	 1.03154870689574 
1014	 1.03157002230276 
1015	 1.03150922580512 
1016	 1.031448623214 
1017	 1.03147702627439 
1018	 1.03148832435883 
1019	 1.03148483828777 
1020	 1.03153128991178 
1021	 1.03153822530564 
1022	 1.03155904400805 
1023	 1.03146689448856 
1024	 1.03123018663541 
1025	 1.03118327315062 
1026	 1.03117639883258 
1027	 1.03110836906529 
1028	 1.03113088984983 
1029	 1.03114601780301 
1030	 1.03097667914013 
1031	 1.03089247825897 
1032	 1.03096563441901 
1033	 1.03100594525427 
1034	 1.03102435414597 
1035	 1.03096324471528 
1036	 1.03094393656589 
1037	 1.03093693521037 
1038	 1.03092584934495 
1039	 1.03089395833164 
1040	 1.03087954685007 
1041	 1.03088332836891 
1042	 1.03076764030805 
1043	 1.03051888566948 
1044	 1.03055780852086 
1045	 1.03051245501938 
1046	 1.03042719914684 
1047	 1.03045052816027 
1048	 1.03038919231057 
1049	 1.03027964273496 
1050	 1.03020899003874 
1051	 1.03021019593888 
1052	 1.03016680927475 
1053	 1.03015142044528 
1054	 1.03018626010927 
1055	 1.03016455475538 
1056	 1.03007270751695 
1057	 1.03009475120089 
1058	 1.03017538606005 
1059	 1.03015143693765 
1060	 1.0301755229358 
1061	 1.03025116547126 
1062	 1.03022157169483 
1063	 1.03028623375379 
1064	 1.03045882142892 
1065	 1.03061550558728 
1066	 1.03082070206398 
1067	 1.03089612237564 
1068	 1.03087021052044 
1069	 1.03087968414319 
1070	 1.03088353040431 
1071	 1.03085568153097 
1072	 1.03084220845275 
1073	 1.03085136074818 
1074	 1.03087226335398 
1075	 1.03088713073862 
1076	 1.03084570957628 
1077	 1.03085328090992 
1078	 1.03092570758195 
1079	 1.03095162077293 
1080	 1.03103177299957 
1081	 1.03109335152398 
1082	 1.03100569559944 
1083	 1.03098135162248 
1084	 1.03106575932516 
1085	 1.03109351609746 
1086	 1.03111558643262 
1087	 1.03116529297155 
1088	 1.03123853607722 
1089	 1.03124556972337 
1090	 1.03128053778551 
1091	 1.03141878863094 
1092	 1.03149942328208 
1093	 1.03149093449488 
1094	 1.03153443205465 
1095	 1.03160672531079 
1096	 1.03166852485095 
1097	 1.03177219736951 
1098	 1.03184838980336 
1099	 1.03182749512805 
1100	 1.0317923908081 
1101	 1.03177425663341 
1102	 1.03176556622445 
1103	 1.03176455773262 
1104	 1.03181838292732 
1105	 1.03179394697287 
1106	 1.03173063490585 
1107	 1.03171967611103 
1108	 1.03168766375697 
1109	 1.0316758782438 
1110	 1.03160068227522 
1111	 1.03148180591784 
1112	 1.03142757241887 
1113	 1.03136434926928 
1114	 1.03138120864972 
1115	 1.03146311773433 
1116	 1.03143157741018 
1117	 1.0313408310594 
1118	 1.03126356204007 
1119	 1.03112941897931 
1120	 1.03105302853191 
1121	 1.03098059542652 
1122	 1.03095408907882 
1123	 1.03100899500927 
1124	 1.03105114540166 
1125	 1.03108134845865 
1126	 1.03117753894595 
1127	 1.03117926061743 
1128	 1.03112487467561 
1129	 1.03108325833331 
1130	 1.03101952019211 
1131	 1.03094404112154 
1132	 1.03080544738255 
1133	 1.03064817875651 
1134	 1.03049654014543 
1135	 1.03037112994382 
1136	 1.03028145225514 
1137	 1.03017136801635 
1138	 1.0300346062597 
1139	 1.02995122967885 
1140	 1.02987881288346 
1141	 1.0298141573132 
1142	 1.02979750248554 
1143	 1.02983051194263 
1144	 1.02984342861631 
1145	 1.02991454746907 
1146	 1.02998611704355 
1147	 1.02997778318374 
1148	 1.02991006326574 
1149	 1.02978314925383 
1150	 1.02962515580395 
1151	 1.02947435791381 
1152	 1.02936613708022 
1153	 1.02926759484334 
1154	 1.02921297418476 
1155	 1.02923487018925 
1156	 1.02920021165156 
1157	 1.02917855691579 
1158	 1.0291264467865 
1159	 1.02902470568543 
1160	 1.02893337933606 
1161	 1.02890894022546 
1162	 1.02886844281648 
1163	 1.02884598709838 
1164	 1.02887901452043 
1165	 1.02886472124095 
1166	 1.02884250195385 
1167	 1.02882657171979 
1168	 1.02881170576226 
1169	 1.02875414951511 
1170	 1.02866836154793 
1171	 1.02857551126448 
1172	 1.02842734771189 
1173	 1.02832399606134 
1174	 1.02820896589059 
1175	 1.02815129742621 
1176	 1.02814584753006 
1177	 1.02814126678521 
1178	 1.02817728696736 
1179	 1.02820184024155 
1180	 1.02822495471238 
1181	 1.02819536182443 
1182	 1.02818182670857 
1183	 1.02822740784508 
1184	 1.02825807392413 
1185	 1.0283141651598 
1186	 1.02829614745668 
1187	 1.02821573612242 
1188	 1.02817838052387 
1189	 1.0281012224749 
1190	 1.02805397209903 
1191	 1.02805777352354 
1192	 1.02803331334619 
1193	 1.02799387739741 
1194	 1.02796271553688 
1195	 1.02794127050857 
1196	 1.02788963420314 
1197	 1.02778483481569 
1198	 1.02776541779071 
1199	 1.02773676846071 
1200	 1.02769935881156 
1201	 1.02768683958001 
1202	 1.02764691165499 
1203	 1.02760969163426 
1204	 1.02759780091854 
1205	 1.02758227208701 
1206	 1.0276033631969 
1207	 1.02758703462958 
1208	 1.0275232724874 
1209	 1.02751806072763 
1210	 1.02755342573441 
1211	 1.02754915626319 
1212	 1.02758551847765 
1213	 1.02755003624538 
1214	 1.02741759962353 
1215	 1.02734653477149 
1216	 1.02727943764593 
1217	 1.02721346112432 
1218	 1.02718460150221 
1219	 1.02712903054364 
1220	 1.02704293108237 
1221	 1.02698956647529 
1222	 1.02698385849024 
1223	 1.02698191464732 
1224	 1.02696953300121 
1225	 1.02696673253032 
1226	 1.02697304483855 
1227	 1.02698122092169 
1228	 1.02697726050691 
1229	 1.02699465650838 
1230	 1.02698532352482 
1231	 1.02694533594115 
1232	 1.02690149607415 
1233	 1.02683320132092 
1234	 1.02681149493579 
1235	 1.02680146995462 
1236	 1.026785892367 
1237	 1.0267918441388 
1238	 1.02680287078691 
1239	 1.02677559719415 
1240	 1.02682249591279 
1241	 1.02686742773368 
1242	 1.02688882443038 
1243	 1.02688906969149 
1244	 1.02683952615883 
1245	 1.02685724062046 
1246	 1.02689503689179 
1247	 1.02691649599316 
1248	 1.02698336126505 
1249	 1.02699050767145 
1250	 1.02696460387871 
1251	 1.02692915147336 
1252	 1.02689906892951 
1253	 1.02680592748891 
1254	 1.02663530493866 
1255	 1.02650442287261 
1256	 1.02631537113056 
1257	 1.02619106291353 
1258	 1.02611927663466 
1259	 1.02605673040967 
1260	 1.02603313163687 
1261	 1.02600169386824 
1262	 1.02598117495174 
1263	 1.02596095153331 
1264	 1.02595023108882 
1265	 1.0259515743035 
1266	 1.02592614470392 
1267	 1.02590803169538 
1268	 1.02585629329906 
1269	 1.02575504868373 
1270	 1.02570108302765 
1271	 1.02565084894564 
1272	 1.02561102147203 
1273	 1.02557761483085 
1274	 1.02557367652142 
1275	 1.02560028284094 
1276	 1.02560695527948 
1277	 1.02561825874051 
1278	 1.02565404753417 
1279	 1.025670762946 
1280	 1.02572144737803 
1281	 1.02586049213886 
1282	 1.02593085397938 
1283	 1.02597661183532 
1284	 1.0260142650704 
1285	 1.02603209785636 
1286	 1.02597786150672 
1287	 1.02605722447733 
1288	 1.02620247869269 
1289	 1.02628379766947 
1290	 1.02641053721973 
1291	 1.02649584070757 
1292	 1.02651130763623 
1293	 1.02657335687937 
1294	 1.02668818482113 
1295	 1.02674301761801 
1296	 1.02674491434178 
1297	 1.02679236732558 
1298	 1.02681096223025 
1299	 1.02689365751868 
1300	 1.02708294418477 
1301	 1.02717234760613 
1302	 1.02724417582497 
1303	 1.02730647147866 
1304	 1.02727614032466 
1305	 1.02730626068056 
1306	 1.02737723376036 
1307	 1.02744673560264 
1308	 1.02757029695603 
1309	 1.02765377407951 
1310	 1.02764874700869 
1311	 1.02759931648231 
1312	 1.02754865141801 
1313	 1.02741232089695 
1314	 1.0273275727049 
1315	 1.02725848869134 
1316	 1.02721292268632 
1317	 1.02715484199265 
1318	 1.02713286159337 
1319	 1.02718639052353 
1320	 1.02717045955406 
1321	 1.02710837388525 
1322	 1.02709629370612 
1323	 1.0270633815535 
1324	 1.02708010617154 
1325	 1.0271482071879 
1326	 1.02722023751316 
1327	 1.02733419185439 
1328	 1.02741658778895 
1329	 1.02754179433183 
1330	 1.02759246799939 
1331	 1.02759998674121 
1332	 1.02757598864155 
1333	 1.02751001281453 
1334	 1.02738663412812 
1335	 1.02730472381248 
1336	 1.02720313106169 
1337	 1.02713116943929 
1338	 1.02707848059567 
1339	 1.02703053253941 
1340	 1.02698817453559 
1341	 1.0269556814354 
1342	 1.02692820132427 
1343	 1.02692097633216 
1344	 1.02694638517332 
1345	 1.02693564691324 
1346	 1.02695612256537 
1347	 1.02690345930756 
1348	 1.02680642857119 
1349	 1.0266838532482 
1350	 1.02650092254082 
1351	 1.02633826611005 
1352	 1.02611954509512 
1353	 1.02597759142736 
1354	 1.02584223535988 
1355	 1.02577126487737 
1356	 1.02579512479682 
1357	 1.02579300561086 
1358	 1.02584716147311 
1359	 1.02585726736721 
1360	 1.02585717859345 
1361	 1.0258260844231 
1362	 1.02574378699575 
1363	 1.02565138087586 
1364	 1.02554363525554 
1365	 1.02539938666675 
1366	 1.0252648180689 
1367	 1.02510625551899 
1368	 1.02500753973736 
1369	 1.02491218952919 
1370	 1.02485136811286 
1371	 1.02486996696137 
1372	 1.02481722876815 
1373	 1.02474198181185 
1374	 1.0246785365198 
1375	 1.02458385211 
1376	 1.02451642084102 
1377	 1.0245037374465 
1378	 1.02441707123271 
1379	 1.0243079893033 
1380	 1.02418013510558 
1381	 1.02398473818703 
1382	 1.02382174884807 
1383	 1.02364728927659 
1384	 1.02350126940182 
1385	 1.02333222414858 
1386	 1.02324463663571 
1387	 1.02327239444341 
1388	 1.02323061501848 
1389	 1.02318575345446 
1390	 1.02316377816258 
1391	 1.02314163556749 
1392	 1.02306242356842 
1393	 1.02304340355491 
1394	 1.02302908641509 
1395	 1.02295525516954 
1396	 1.02281849647349 
1397	 1.02273219893978 
1398	 1.02262172738536 
1399	 1.02257375735436 
1400	 1.02256795037819 
1401	 1.02254821423541 
1402	 1.02254755282157 
1403	 1.02256015715873 
1404	 1.02257080829156 
1405	 1.02260084535763 
1406	 1.0226935931575 
1407	 1.02270853083368 
1408	 1.02267545100082 
1409	 1.02267623668773 
1410	 1.02266489178229 
1411	 1.02264209477969 
1412	 1.02263808854256 
1413	 1.02262461422425 
1414	 1.02256473705678 
1415	 1.02254486210187 
1416	 1.02256941183701 
1417	 1.02256164351296 
1418	 1.02253639103015 
1419	 1.02252959600494 
1420	 1.02249012144166 
1421	 1.02250535715678 
1422	 1.02258144813651 
1423	 1.022636522954 
1424	 1.02271008079177 
1425	 1.02279673134549 
1426	 1.02283938414705 
1427	 1.02283906617624 
1428	 1.02277891748319 
1429	 1.02269990696724 
1430	 1.0225968392563 
1431	 1.02242599561388 
1432	 1.02232746735052 
1433	 1.02223028892342 
1434	 1.0221731492969 
1435	 1.02215254180911 
1436	 1.0221413366795 
1437	 1.02218068491229 
1438	 1.02215507616188 
1439	 1.02213645417 
1440	 1.02206894699826 
1441	 1.02193757921362 
1442	 1.02182570937233 
1443	 1.02167304305147 
1444	 1.02158532438628 
1445	 1.02152651581505 
1446	 1.0214639807711 
1447	 1.02143700496258 
1448	 1.0213993914945 
1449	 1.02135211620778 
1450	 1.02131118532593 
1451	 1.02129313971685 
1452	 1.0212527603184 
1453	 1.02118025436893 
1454	 1.02114048051414 
1455	 1.02108295710976 
1456	 1.02108082482119 
1457	 1.02114826803426 
1458	 1.02117912755261 
1459	 1.0212120153146 
1460	 1.02126468048329 
1461	 1.02130458340974 
1462	 1.02135923186618 
1463	 1.02145830735866 
1464	 1.0215373917869 
1465	 1.02160302982278 
1466	 1.02166943956581 
1467	 1.0217579612608 
1468	 1.0218345928202 
1469	 1.02187159106351 
1470	 1.02193169516156 
1471	 1.02195151237906 
1472	 1.02191286690854 
1473	 1.02195065396266 
1474	 1.02199598396975 
1475	 1.02208569553792 
1476	 1.02221961907249 
1477	 1.02236259735211 
1478	 1.02256224919848 
1479	 1.02267853907069 
1480	 1.02281020119612 
1481	 1.02285853610947 
1482	 1.0228191164562 
1483	 1.02280220386644 
1484	 1.02276050355732 
1485	 1.02269928395921 
1486	 1.02260038021575 
1487	 1.02254214317861 
1488	 1.02247976911825 
1489	 1.02242173722302 
1490	 1.02242743386076 
1491	 1.02234618685906 
1492	 1.02221922967462 
1493	 1.02207656172624 
1494	 1.02186736332907 
1495	 1.02170166340965 
1496	 1.02153043672615 
1497	 1.02137616862418 
1498	 1.02122749621758 
1499	 1.02111114313909 
1500	 1.02101491491415 
1501	 1.02093155108937 
1502	 1.02090473213323 
1503	 1.02083863876771 
1504	 1.02075762132206 
1505	 1.02067809898217 
1506	 1.02055170638803 
1507	 1.02048483532914 
1508	 1.02047048638134 
1509	 1.02042895431475 
1510	 1.0203817194167 
1511	 1.02037753628222 
1512	 1.02034263701759 
1513	 1.02037713291269 
1514	 1.02051241823343 
1515	 1.02062526468066 
1516	 1.02077559746414 
1517	 1.02090628682122 
1518	 1.02101250189986 
1519	 1.02113518277619 
1520	 1.02128080860973 
1521	 1.02139933650868 
1522	 1.02146599302675 
1523	 1.02158378358842 
1524	 1.02171836832476 
1525	 1.0218394581229 
1526	 1.02199460550103 
1527	 1.02223496682459 
1528	 1.02234852845269 
1529	 1.02242002935434 
1530	 1.02246445599408 
1531	 1.02242765338275 
1532	 1.02246992700916 
1533	 1.02251261045656 
1534	 1.02258795282225 
1535	 1.02270320555252 
1536	 1.02281190511154 
1537	 1.02294569873623 
1538	 1.02303907552471 
1539	 1.02311781023741 
1540	 1.02321748151909 
1541	 1.02333186202281 
1542	 1.02337163958441 
1543	 1.02339420320548 
1544	 1.02341475502289 
1545	 1.02334783347313 
1546	 1.02336346935161 
1547	 1.02343191847644 
1548	 1.02349407236868 
1549	 1.023585018865 
1550	 1.02363371201266 
1551	 1.0236821214366 
1552	 1.02371972243267 
1553	 1.02371897506192 
1554	 1.0237376683179 
1555	 1.02378347510454 
1556	 1.02378935156213 
1557	 1.02377699418142 
1558	 1.02375232389757 
1559	 1.02369704016424 
1560	 1.02365677888074 
1561	 1.02360981623252 
1562	 1.02356854320084 
1563	 1.02351407499054 
1564	 1.02350045641465 
1565	 1.02350038506542 
1566	 1.02352003478752 
1567	 1.02358732862707 
1568	 1.0236326489346 
1569	 1.0236825860225 
1570	 1.02372363767975 
1571	 1.02376680818661 
1572	 1.02379359233352 
1573	 1.02378813614423 
1574	 1.02382116820119 
1575	 1.02383222462884 
1576	 1.02390955451898 
1577	 1.02404350228853 
1578	 1.02418272012652 
1579	 1.02438128112228 
1580	 1.02454396934605 
1581	 1.02471380462398 
1582	 1.02485829216165 
1583	 1.0249884228839 
1584	 1.02509758501976 
1585	 1.02518166478664 
1586	 1.02526294225212 
1587	 1.02528748766747 
1588	 1.02538197743316 
1589	 1.02554101210152 
1590	 1.02564233229807 
1591	 1.02578118382744 
1592	 1.02585674755541 
1593	 1.02585247778348 
1594	 1.02585871754573 
1595	 1.0258357127406 
1596	 1.02583017556397 
1597	 1.02580873273427 
1598	 1.02581030990515 
1599	 1.02581500431376 
1600	 1.02585590277001 
1601	 1.02592321254312 
1602	 1.02600465129845 
1603	 1.02613981136881 
1604	 1.02624148496153 
1605	 1.02634210184444 
1606	 1.02643030991624 
1607	 1.02651745318316 
1608	 1.02657070016092 
1609	 1.02658386417836 
1610	 1.02661897697531 
1611	 1.02664390034079 
1612	 1.02666361629411 
1613	 1.02671739001466 
1614	 1.02672608905684 
1615	 1.02669525351782 
1616	 1.02665601606896 
1617	 1.02656496952772 
1618	 1.02652217567549 
1619	 1.0264526603267 
1620	 1.02646708250542 
1621	 1.02658233678183 
1622	 1.02665473244506 
1623	 1.02677889570183 
1624	 1.02685504073362 
1625	 1.02691177870397 
1626	 1.02691958463147 
1627	 1.0268692600273 
1628	 1.02683407315274 
1629	 1.02673129739246 
1630	 1.02669022633845 
1631	 1.0266916469538 
1632	 1.02670995238118 
1633	 1.02674485334196 
1634	 1.02680864794738 
1635	 1.02693053389197 
1636	 1.02700756603146 
1637	 1.02709704083978 
1638	 1.0271658944283 
1639	 1.02718721962901 
1640	 1.02723314451847 
1641	 1.02731158108788 
1642	 1.02734369482875 
1643	 1.02734931152884 
1644	 1.02735700877735 
1645	 1.02732469183809 
1646	 1.02731523542194 
1647	 1.02729469238707 
1648	 1.02732267052779 
1649	 1.02737712998227 
1650	 1.02744866515752 
1651	 1.02753893579107 
1652	 1.02768755978371 
1653	 1.02789490049614 
1654	 1.02807928590272 
1655	 1.02835589412413 
1656	 1.02852651347556 
1657	 1.02860903729992 
1658	 1.0287048919491 
1659	 1.02874203575436 
1660	 1.02881445763123 
1661	 1.02891696341687 
1662	 1.02900424704495 
1663	 1.02912442677046 
1664	 1.02917891865098 
1665	 1.02916799074312 
1666	 1.02918107724909 
1667	 1.02918524557779 
1668	 1.02914991891742 
1669	 1.02910886325683 
1670	 1.0290747396026 
1671	 1.02900400783643 
1672	 1.02892768303737 
1673	 1.02886195044022 
1674	 1.02879149266271 
1675	 1.02867903689061 
1676	 1.0286049100752 
1677	 1.02856198347328 
1678	 1.0285152911612 
1679	 1.02846818750591 
1680	 1.02843547283721 
1681	 1.02841376363561 
1682	 1.0284039559395 
1683	 1.02842418616208 
1684	 1.02841604257713 
1685	 1.02840727142271 
1686	 1.0283906839408 
1687	 1.02833247879812 
1688	 1.02833760784759 
1689	 1.02837388076612 
1690	 1.02839149390615 
1691	 1.02841918428595 
1692	 1.02847241274549 
1693	 1.02856609063412 
1694	 1.02858802738979 
1695	 1.02861903754052 
1696	 1.02860451757617 
1697	 1.02846606615898 
1698	 1.02844955998108 
1699	 1.02850960145406 
1700	 1.02849604396364 
1701	 1.02848300239455 
1702	 1.02848022718558 
1703	 1.02846071030624 
1704	 1.02841725356143 
1705	 1.02838750019412 
1706	 1.02832936314297 
1707	 1.02822202971907 
1708	 1.02812190327948 
1709	 1.02804472038219 
1710	 1.02793397301531 
1711	 1.02788030881541 
1712	 1.02796338004522 
1713	 1.02803850681398 
1714	 1.02807368925152 
1715	 1.02804943910797 
1716	 1.02789183992686 
1717	 1.02774886017496 
1718	 1.02764638910869 
1719	 1.02760578978251 
1720	 1.02759232746821 
1721	 1.02756083044615 
1722	 1.02757723065599 
1723	 1.02760687093983 
1724	 1.02771510478855 
1725	 1.02782129027461 
1726	 1.02790813672191 
1727	 1.02803608621316 
1728	 1.02807184018353 
1729	 1.02808898348683 
1730	 1.02812719353237 
1731	 1.02808974714775 
1732	 1.02806295121243 
1733	 1.02809006596141 
1734	 1.02809932575783 
1735	 1.02806833159279 
1736	 1.02805057028443 
1737	 1.02801092549522 
1738	 1.02790671097787 
1739	 1.02782358955958 
1740	 1.02769561679295 
1741	 1.02761127512792 
1742	 1.02755216497686 
1743	 1.02752254592537 
1744	 1.02751774193858 
1745	 1.02752406713645 
1746	 1.02760380412742 
1747	 1.02758804939364 
1748	 1.02754401852544 
1749	 1.02747563585355 
1750	 1.02730834665962 
1751	 1.0272192152711 
1752	 1.02715448484305 
1753	 1.02711634437265 
1754	 1.02711354159094 
1755	 1.02713023187841 
1756	 1.02714306627832 
1757	 1.02717903377283 
1758	 1.02730010101696 
1759	 1.02745353775011 
1760	 1.02757450916236 
1761	 1.02769123936582 
1762	 1.02777708865097 
1763	 1.02776693133782 
1764	 1.02781791095739 
1765	 1.02783915577833 
1766	 1.02780818525548 
1767	 1.02778949397368 
1768	 1.02774982614989 
1769	 1.02776910715311 
1770	 1.02777834141352 
1771	 1.02780979942431 
1772	 1.02787459927292 
1773	 1.02794328447874 
1774	 1.02806300861765 
1775	 1.02813168283464 
1776	 1.02814846334541 
1777	 1.02808632487803 
1778	 1.0279758308217 
1779	 1.02788253906662 
1780	 1.02779006774243 
1781	 1.02769233706127 
1782	 1.0275413840341 
1783	 1.0274055515469 
1784	 1.02728179677761 
1785	 1.02719212916216 
1786	 1.02712974484837 
1787	 1.02706790879284 
1788	 1.02706465315468 
1789	 1.0271570057876 
1790	 1.02719282179571 
1791	 1.02723313586809 
1792	 1.02724456503911 
1793	 1.02717701145924 
1794	 1.02713294535138 
1795	 1.02716424923637 
1796	 1.02709517135341 
1797	 1.02703218089891 
1798	 1.02697869478403 
1799	 1.02690020243775 
1800	 1.02689577079021 
1801	 1.0275453214218 
1802	 1.02755454370901 
1803	 1.02761930790495 
1804	 1.02776894989849 
1805	 1.02786652743244 
1806	 1.02805022690189 
1807	 1.02835529122928 
1808	 1.02850194458194 
1809	 1.02865681702065 
1810	 1.02876505681937 
1811	 1.0286795318336 
1812	 1.02871264905511 
1813	 1.02882195373209 
1814	 1.02896348030483 
1815	 1.02886361157149 
1816	 1.02896582411845 
1817	 1.02890704947718 
1818	 1.02857242879556 
1819	 1.02853468344992 
1820	 1.02864281451811 
1821	 1.02871328365556 
1822	 1.02892182325333 
1823	 1.02905222682356 
1824	 1.0291741016759 
1825	 1.02924655169958 
1826	 1.02927572879305 
1827	 1.02924106638476 
1828	 1.02932142057492 
1829	 1.02938648902449 
1830	 1.02946186521271 
1831	 1.02960142901492 
1832	 1.02978200890714 
1833	 1.02987037803899 
1834	 1.02995048634281 
1835	 1.02989963381454 
1836	 1.02979538117543 
1837	 1.02977594085248 
1838	 1.02971631518081 
1839	 1.02970892874191 
1840	 1.02983064393456 
1841	 1.02984480686216 
1842	 1.02982349034035 
1843	 1.02970874431305 
1844	 1.02967572160006 
1845	 1.02975155388981 
1846	 1.02991602523052 
1847	 1.03003185838476 
1848	 1.03007375097193 
1849	 1.03005313552676 
1850	 1.03009466020508 
1851	 1.03010054763339 
1852	 1.03008341312059 
1853	 1.03024948115069 
1854	 1.03037178220068 
1855	 1.03049649227077 
1856	 1.03069623441062 
1857	 1.03086555619433 
1858	 1.03100749212323 
1859	 1.0312039964232 
1860	 1.03144902270012 
1861	 1.03169205743519 
1862	 1.03197704251033 
1863	 1.03225286684276 
1864	 1.03247837892847 
1865	 1.0325423231305 
1866	 1.03251686275353 
1867	 1.03245976412486 
1868	 1.03228550025939 
1869	 1.03213548340047 
1870	 1.03193952810272 
1871	 1.03164724676095 
1872	 1.03140142542752 
1873	 1.0311675676506 
1874	 1.03087934502216 
1875	 1.0306343951028 
1876	 1.03044869273614 
1877	 1.03027483975583 
1878	 1.03014097264746 
1879	 1.03006516753253 
1880	 1.03004152780406 
1881	 1.02993594167178 
1882	 1.02978303317062 
1883	 1.02968002849832 
1884	 1.0295945338798 
1885	 1.02937789106544 
1886	 1.0292707085865 
1887	 1.02921391716533 
1888	 1.02907154735506 
1889	 1.02898864925611 
1890	 1.02887724220362 
1891	 1.0287710994198 
1892	 1.02864408177798 
1893	 1.02849313735198 
1894	 1.0283266326389 
1895	 1.02824106514172 
1896	 1.02803060543887 
1897	 1.02778059568393 
1898	 1.02764776479088 
1899	 1.02746288750067 
1900	 1.02731958927293 
1901	 1.02734090643192 
1902	 1.0274021945774 
1903	 1.02753402448861 
1904	 1.02756940862277 
1905	 1.02762990841041 
1906	 1.02756514222799 
1907	 1.02742466632538 
1908	 1.02718043301259 
1909	 1.02699205861593 
1910	 1.02684084612832 
1911	 1.02672788231428 
1912	 1.02656633235723 
1913	 1.02639801464771 
1914	 1.02644235226145 
1915	 1.0263934969109 
1916	 1.02630418337357 
1917	 1.0262809227362 
1918	 1.02636252000491 
1919	 1.0262274239676 
1920	 1.02612415606077 
1921	 1.02611031810676 
1922	 1.02593084473415 
1923	 1.0257517671045 
1924	 1.02571679618968 
1925	 1.0255709829666 
1926	 1.02546675389895 
1927	 1.02539419759957 
1928	 1.02538424047331 
1929	 1.02536753542295 
1930	 1.02544739328653 
1931	 1.02551323295947 
1932	 1.02558609808099 
1933	 1.0255763610463 
1934	 1.02544358800002 
1935	 1.02536849423324 
1936	 1.02524204829206 
1937	 1.02512992526821 
1938	 1.02494798076513 
1939	 1.02491163486064 
1940	 1.02493720189028 
1941	 1.02498208263471 
1942	 1.02512661349814 
1943	 1.02527167782426 
1944	 1.02531834275057 
1945	 1.02528008551586 
1946	 1.02515308355259 
1947	 1.02507437931563 
1948	 1.02506664015644 
1949	 1.02502880048685 
1950	 1.0249850516173 
1951	 1.02497275820621 
1952	 1.02491522007715 
1953	 1.02476729781695 
1954	 1.02473052197151 
1955	 1.02472150871495 
1956	 1.02471489929304 
1957	 1.02476255922911 
1958	 1.02483744512796 
1959	 1.0250309570387 
1960	 1.02519190969261 
1961	 1.0252973127985 
1962	 1.02540343585658 
1963	 1.02551258767416 
1964	 1.02554965705533 
1965	 1.02562657358527 
1966	 1.02577389978559 
1967	 1.02582134156573 
1968	 1.02589559273372 
1969	 1.02594144843433 
1970	 1.02593452147759 
1971	 1.02604800841644 
1972	 1.02601022470562 
1973	 1.02598701337782 
1974	 1.02608001662604 
1975	 1.02620098529754 
1976	 1.02635679524086 
1977	 1.02671842369087 
1978	 1.02692622421473 
1979	 1.02708288285789 
1980	 1.02722224748173 
1981	 1.02729727955245 
1982	 1.02739749755669 
1983	 1.02752143261013 
1984	 1.02760855001923 
1985	 1.02784605041644 
1986	 1.02797523448452 
1987	 1.02803716308208 
1988	 1.02802269310968 
1989	 1.02810799640286 
1990	 1.02808531969329 
1991	 1.02819201765522 
1992	 1.02841516951912 
1993	 1.02867999064327 
1994	 1.02893775145865 
1995	 1.02916059437821 
1996	 1.02935336539645 
1997	 1.02957333187505 
1998	 1.02973063333156 
1999	 1.02980043059938 
2000	 1.02997288712018 
2001	 1.03022498190987 
2002	 1.03032292319778 
2003	 1.03039919164992 
2004	 1.03043594485188 
2005	 1.03027306739281 
2006	 1.03025388566283 
2007	 1.03030848161891 
2008	 1.0303661252064 
2009	 1.03042912066755 
2010	 1.0306153855858 
2011	 1.03070415052876 
2012	 1.03096059386605 
2013	 1.03117326385204 
2014	 1.03139106352116 
2015	 1.03162942569427 
2016	 1.03190741044884 
2017	 1.0321588810287 
2018	 1.03251020814761 
2019	 1.03268938550213 
2020	 1.03278261391072 
2021	 1.03282902439969 
2022	 1.03275806956281 
2023	 1.03283187768346 
2024	 1.03299969573856 
2025	 1.03311825008396 
2026	 1.03323017194865 
2027	 1.03339107011456 
2028	 1.03345230594809 
2029	 1.03343614635418 
2030	 1.03344072085052 
2031	 1.03328847819313 
2032	 1.03333781344093 
2033	 1.03346242131307 
2034	 1.03365537735746 
2035	 1.03400539644383 
2036	 1.0344220510465 
2037	 1.03461460655312 
2038	 1.03490895282756 
2039	 1.03513721101634 
2040	 1.03526549875194 
2041	 1.03544406864902 
2042	 1.03566198064041 
2043	 1.03580114090568 
2044	 1.03590562913213 
2045	 1.03600012113944 
2046	 1.03607767386595 
2047	 1.03615576605929 
2048	 1.0361756857974 
2049	 1.03621661720823 
2050	 1.0363059513071 
2051	 1.03627769334258 
2052	 1.03626704609603 
2053	 1.03643932102662 
2054	 1.03655671818429 
2055	 1.03668377823944 
2056	 1.03688462194001 
2057	 1.03707930118385 
2058	 1.03736987281351 
2059	 1.03782632603371 
2060	 1.0381196058195 
2061	 1.03843570338678 
2062	 1.0387221599234 
2063	 1.03889728267585 
2064	 1.03911635498994 
2065	 1.03948310411 
2066	 1.03963202781352 
2067	 1.03955341307533 
2068	 1.03942504854349 
2069	 1.03934068292316 
2070	 1.03903491403324 
2071	 1.03898521158616 
2072	 1.03912622387661 
2073	 1.03918617399921 
2074	 1.03930866133998 
2075	 1.03937128495683 
2076	 1.0393497900527 
2077	 1.03945084340731 
2078	 1.03958178664119 
2079	 1.03973051076107 
2080	 1.03997276683575 
2081	 1.04023146061131 
2082	 1.04058139816327 
2083	 1.04079738337272 
2084	 1.04093707995744 
2085	 1.04107599693573 
2086	 1.04119519982671 
2087	 1.04118349419261 
2088	 1.04125249034695 
2089	 1.04132684786674 
2090	 1.04148984357219 
2091	 1.04171004002785 
2092	 1.04187598406786 
2093	 1.04217440761544 
2094	 1.0423522753261 
2095	 1.042312466461 
2096	 1.04242642033055 
2097	 1.04255174226172 
2098	 1.04278986765105 
2099	 1.04302917383291 
2100	 1.04328431137801 
2101	 1.04347618179506 
2102	 1.04369652961154 
2103	 1.04368496827559 
2104	 1.04346954410389 
2105	 1.04345065035123 
2106	 1.04328843276473 
2107	 1.04331496625108 
2108	 1.0435853818333 
2109	 1.04377296737906 
2110	 1.04399867717475 
2111	 1.04415973375774 
2112	 1.04425281189297 
2113	 1.04444891099175 
2114	 1.04465618638541 
2115	 1.04487544193744 
2116	 1.04518140328501 
2117	 1.04552682955233 
2118	 1.04577339009885 
2119	 1.04598317134559 
2120	 1.04608856497655 
2121	 1.04610426700065 
2122	 1.04615260608676 
2123	 1.04609430454922 
2124	 1.0461122628672 
2125	 1.04620897749313 
2126	 1.04621833439322 
2127	 1.04603165829194 
2128	 1.04618021097584 
2129	 1.04641348296195 
2130	 1.04678534166161 
2131	 1.04774170785769 
2132	 1.04818510419668 
2133	 1.04838611646588 
2134	 1.04863267933302 
2135	 1.04854077167693 
2136	 1.04831125335175 
2137	 1.04831112386775 
2138	 1.04836215771445 
2139	 1.04846478850867 
2140	 1.04863553125124 
2141	 1.04889816144233 
2142	 1.04927992034898 
2143	 1.04961414598541 
2144	 1.05014978668743 
2145	 1.05037810358203 
2146	 1.050513998288 
2147	 1.05048210821462 
2148	 1.04999116058265 
2149	 1.04989751945167 
2150	 1.0499585878715 
2151	 1.04990272154005 
2152	 1.05005658948431 
2153	 1.05011434299915 
2154	 1.04982146750184 
2155	 1.04937379892264 
2156	 1.04905320013257 
2157	 1.04864393583585 
2158	 1.04841648336152 
2159	 1.04826182309 
2160	 1.04817089625374 
2161	 1.04819316304045 
2162	 1.04818799219645 
2163	 1.04818794138465 
2164	 1.04834016325585 
2165	 1.04867742204241 
2166	 1.04882216701326 
2167	 1.04912392022245 
2168	 1.04913363084387 
2169	 1.0487206306985 
2170	 1.04856440481726 
2171	 1.04844700501665 
2172	 1.04825837384381 
2173	 1.04817798704328 
2174	 1.04802117997116 
2175	 1.04758182135612 
2176	 1.04731103960198 
2177	 1.04700752178213 
2178	 1.04676167073857 
2179	 1.04631680970636 
2180	 1.0457426399877 
2181	 1.04527035568403 
2182	 1.04458366055849 
2183	 1.04430488573091 
2184	 1.04432513427354 
2185	 1.04427511276796 
2186	 1.04432734505474 
2187	 1.04442611340527 
2188	 1.04461918644274 
2189	 1.04480917474406 
2190	 1.04516668813329 
2191	 1.04544968515698 
2192	 1.04583474642231 
2193	 1.04591438075224 
2194	 1.04589465668356 
2195	 1.04566783456955 
2196	 1.04508393991555 
2197	 1.04433452435682 
2198	 1.04386459002869 
2199	 1.04335410324805 
2200	 1.04287642706166 
2201	 1.04239502592069 
2202	 1.04229311968392 
2203	 1.04229667222137 
2204	 1.04242343740421 
2205	 1.04315193884964 
2206	 1.04339434663847 
2207	 1.04359155146355 
2208	 1.04339911328352 
2209	 1.04287000978873 
2210	 1.04229411034098 
2211	 1.04102386697951 
2212	 1.04055219853767 
2213	 1.04034053565284 
2214	 1.04035930877754 
2215	 1.04148839970714 
2216	 1.04149875883152 
2217	 1.04083462728637 
2218	 1.04053594158029 
2219	 1.03940112562798 
2220	 1.03896934098616 
2221	 1.0391305484743 
2222	 1.03962930352164 
2223	 1.03990999062479 
2224	 1.04083437528585 
2225	 1.04149493223879 
2226	 1.04195000861339 
2227	 1.04193266558033 
2228	 1.04130722178572 
2229	 1.04129474240463 
2230	 1.04118672205555 
2231	 1.04106392434138 
2232	 1.04152337133292 
2233	 1.04120415614983 
2234	 1.03986907019458 
2235	 1.03968198018862 
2236	 1.03991050989143 
2237	 1.0399810127151 
2238	 1.04082518826117 
2239	 1.04092475182843 
2240	 1.04032711375037 
2241	 1.04000947894779 
2242	 1.03972244871529 
2243	 1.03941061586653 
2244	 1.03857954862137 
2245	 1.03850741662982 
2246	 1.03894923584842 
2247	 1.03924783075653 
2248	 1.04026806568062 
2249	 1.04099142093719 
2250	 1.04176399065573 
2251	 1.04165041977732 
2252	 1.04198953635785 
2253	 1.04240895080197 
2254	 1.04211343086842 
2255	 1.04108269001916 
2256	 1.04004315264701 
2257	 1.0392302342796 
2258	 1.03913240039889 
2259	 1.03979959232065 
2260	 1.04034385567712 
2261	 1.0414761290854 
2262	 1.04189074366001 
2263	 1.04223908024188 
2264	 1.04231931123076 
2265	 1.04185328093483 
2266	 1.0416436450516 
2267	 1.04138909023962 
2268	 1.04123528907214 
2269	 1.04093996722028 
2270	 1.04114443819605 
2271	 1.04150565238953 
2272	 1.04208066851043 
2273	 1.04343101181054 
2274	 1.04403271738626 
2275	 1.04451322789294 
2276	 1.04479323627575 
2277	 1.04462279088502 
2278	 1.04455405941447 
2279	 1.04462576274325 
2280	 1.04428939410559 
2281	 1.04332959795438 
2282	 1.04271781154233 
2283	 1.04199899937716 
2284	 1.04147712085836 
2285	 1.04078668492642 
2286	 1.04068839380866 
2287	 1.04138087451528 
2288	 1.04195223728296 
2289	 1.04263031711756 
2290	 1.04271583430634 
2291	 1.04208389892782 
2292	 1.04190182445887 
2293	 1.04176281007209 
2294	 1.04201979709671 
2295	 1.0424399044875 
2296	 1.04254229142738 
2297	 1.04288787378604 
2298	 1.04374210774537 
2299	 1.04379446984252 
2300	 1.04315854810661 
2301	 1.04348215612488 
2302	 1.04384524343102 
2303	 1.04439973227669 
2304	 1.04590964241039 
2305	 1.04633183703183 
2306	 1.04618554825059 
2307	 1.04614446431622 
2308	 1.04582754136299 
2309	 1.04561794406459 
2310	 1.04552482955184 
2311	 1.0449952756909 
2312	 1.04364792954227 
2313	 1.04344066255597 
2314	 1.04342944025852 
2315	 1.04364958548313 
2316	 1.04536692125597 
2317	 1.04588279436114 
2318	 1.04570372132882 
2319	 1.04570114999159 
2320	 1.04494843651093 
2321	 1.04490411509955 
2322	 1.04564934274542 
2323	 1.04563334929193 
2324	 1.0453953370591 
2325	 1.0451936554348 
2326	 1.04472122514985 
2327	 1.04427817549589 
2328	 1.04345017396098 
2329	 1.04354956573758 
2330	 1.0447276390656 
2331	 1.04423684340669 
2332	 1.04417352825451 
2333	 1.04506899794603 
2334	 1.04393339824808 
2335	 1.04385651247185 
2336	 1.04582847821303 
2337	 1.04645763061695 
2338	 1.04724658164788 
2339	 1.04769610849404 
2340	 1.04671799155766 
2341	 1.04698349745347 
2342	 1.04776827366369 
2343	 1.04877047076585 
2344	 1.04909692195134 
2345	 1.04836260621765 
2346	 1.04822882258607 
2347	 1.04784323494031 
2348	 1.04784430129592 
2349	 1.0489545919165 
2350	 1.04902201167735 
2351	 1.0477387200758 
2352	 1.04712156634009 
2353	 1.04655993082035 
2354	 1.04616056308898 
2355	 1.04697353027052 
2356	 1.0478359465242 
2357	 1.04793842616817 
2358	 1.04863941460383 
2359	 1.04959237687348 
2360	 1.04877504847561 
2361	 1.0484642383811 
2362	 1.04791419529004 
2363	 1.04649875756209 
2364	 1.04659159150951 
2365	 1.04759657607292 
2366	 1.04987009658843 
2367	 1.05143277494777 
2368	 1.05249505834461 
2369	 1.0544821048465 
2370	 1.05437250316747 
2371	 1.05343873859921 
2372	 1.0541726018857 
2373	 1.05332763914706 
2374	 1.05187789035916 
2375	 1.05255879370881 
2376	 1.04978042955117 
2377	 1.04504024856204 
2378	 1.04272930349525 
2379	 1.03944661062769 
2380	 1.03865697914089 
2381	 1.04104456887056 
2382	 1.04134124778933 
2383	 1.04111857216385 
2384	 1.04156391255277 
2385	 1.04085583765207 
2386	 1.04145784653427 
2387	 1.04375850572034 
2388	 1.0446982112753 
2389	 1.04648786351838 
2390	 1.04581848074525 
2391	 1.0422104418017 
2392	 1.04100146202551 
2393	 1.03969410374107 
2394	 1.03868151658186 
2395	 1.03861350344452 
2396	 1.03964660101967 
2397	 1.04029406799831 
2398	 1.04166472047504 
2399	 1.04785241576744 
2400	 1.04850972806646 
2401	 1.04446499679777 
2402	 1.04585886055547 
2403	 1.04253805309306 
2404	 1.04268230724383 
2405	 1.04661015595501 
2406	 1.04615235733999 
2407	 1.04852282029426 
2408	 1.04749454018014 
2409	 1.04434455814003 
2410	 1.04722348120403 
2411	 1.04491029270721 
2412	 1.04483101399027 
2413	 1.04675809185548 
2414	 1.04044420298038 
2415	 1.0380938758808 
2416	 1.03836280925424 
2417	 1.03691969814534 
2418	 1.03924203597131 
2419	 1.04235064564977 
2420	 1.04279617141234 
2421	 1.03864466994449 
2422	 1.03615440707142 
2423	 1.03885873152656 
2424	 1.03883902124272 
2425	 1.04019927304678 
2426	 1.04248277631898 
2427	 1.03705374706137 
2428	 1.03533274746307 
2429	 1.04347747410158 
2430	 1.04917748231764 
2431	 1.05261352476145 
2432	 1.05052519673152 
2433	 1.04226293884739 
2434	 1.04104693678312 
2435	 1.03771882908502 
2436	 1.03069880995078 
2437	 1.03047330332194 
2438	 1.02930472375232 
2439	 1.02549463483075 
2440	 1.02681571828965 
2441	 1.02910728656974 
2442	 1.02909329388493 
2443	 1.03032609360486 
2444	 1.03583409745478 
2445	 1.04161477222282 
2446	 1.04478661603262 
2447	 1.04583805840158 
2448	 1.04177009228192 
2449	 1.04508352549424 
2450	 1.04432330978552 
2451	 1.03906508313583 
2452	 1.0414033165986 
2453	 1.03125486250174 
2454	 1.02673623284361 
2455	 1.02851248506824 
2456	 1.02339519871754 
2457	 1.02946914207643 
2458	 1.02915685799546 
2459	 1.01734693658831 
2460	 1.01178874077649 
2461	 1.00437598530001 
2462	 1.00120366422408 
2463	 1.00647009329102 
2464	 1.01360779368697 
2465	 1.0232968315536 
2466	 1.02502948104689 
2467	 1.02947332584515 
2468	 1.03648044549165 
2469	 1.0284296720993 
2470	 1.02191117474512 
2471	 1.02417892526842 
2472	 1.03178563666515 
2473	 1.04348144468066 
2474	 1.04787244277536 
2475	 1.04423002906841 
2476	 1.04034281986206 
2477	 1.0312886299121 
2478	 1.02390936801766 
2479	 1.02587043613164 
2480	 1.0174913419348 
2481	 1.01324567455862 
2482	 1.01560205174846 
2483	 1.00282418976107 
2484	 1.00350447639993 
2485	 1.02109839021351 
2486	 1.03309660943048 
2487	 1.05559753948034 
2488	 1.06768929274414 
2489	 1.04900487395547 
2490	 1.04057264297041 
2491	 1.03529391972907 
2492	 1.02632156398037 
2493	 1.02607658917619 
2494	 1.02700211868219 
2495	 1.01946956312038 
2496	 1.01660951364242 
2497	 1.02798790212943 
2498	 1.03742153452746 
2499	 1.03308728339071 
2500	 1.01794518284222 
