Wavelength	A00130.asd
350	 0.611048016698101 
351	 0.60562275362059 
352	 0.596321754093793 
353	 0.589426455501714 
354	 0.594143563657202 
355	 0.589154326353662 
356	 0.586283684542764 
357	 0.59246330821912 
358	 0.583007052467537 
359	 0.57292923173609 
360	 0.568498965709055 
361	 0.569635424406368 
362	 0.565387738079936 
363	 0.560765922741592 
364	 0.561744767059946 
365	 0.573118348046704 
366	 0.573447078662776 
367	 0.571748379862398 
368	 0.576684321379157 
369	 0.575823969587596 
370	 0.573073623404007 
371	 0.569335148939444 
372	 0.564663832212411 
373	 0.563718647007382 
374	 0.56446622613199 
375	 0.565972037224818 
376	 0.569709095357447 
377	 0.570015887555648 
378	 0.570056311461745 
379	 0.573013571420994 
380	 0.575249374909056 
381	 0.57788443310498 
382	 0.580689814680697 
383	 0.582633850736479 
384	 0.582645382590766 
385	 0.581212470161584 
386	 0.579986018276059 
387	 0.581946476431307 
388	 0.585041021970214 
389	 0.587911242249064 
390	 0.589481013889118 
391	 0.58908263507366 
392	 0.588985354732267 
393	 0.590674214861073 
394	 0.594298188756409 
395	 0.592641356915128 
396	 0.592069646172669 
397	 0.595483927931936 
398	 0.597949496833819 
399	 0.598269317543238 
400	 0.598382616515938 
401	 0.600447185102803 
402	 0.603482289026187 
403	 0.605202759205129 
404	 0.606048477218484 
405	 0.608237341920467 
406	 0.609054666181352 
407	 0.610009276728322 
408	 0.611883758873207 
409	 0.612922217641476 
410	 0.614809374266093 
411	 0.616079325964824 
412	 0.615387749790771 
413	 0.616859852233538 
414	 0.618985163670138 
415	 0.620826684541644 
416	 0.622261810049062 
417	 0.623124497548354 
418	 0.62376479270965 
419	 0.624648616977385 
420	 0.626477802238062 
421	 0.627482825630203 
422	 0.628111105517802 
423	 0.629509566455138 
424	 0.630861011880061 
425	 0.631694267196041 
426	 0.632339749814711 
427	 0.6339664112687 
428	 0.635781175675501 
429	 0.63682970193988 
430	 0.636940623903491 
431	 0.638275777695195 
432	 0.639790974579557 
433	 0.641055908512683 
434	 0.642044200393808 
435	 0.642893590286159 
436	 0.643935251026436 
437	 0.645212970397773 
438	 0.646304981860579 
439	 0.647666956530743 
440	 0.64889417396488 
441	 0.649616226467924 
442	 0.650630152054647 
443	 0.651474438421839 
444	 0.652405760736568 
445	 0.654155565118607 
446	 0.655170131159686 
447	 0.655960214997096 
448	 0.657026082018463 
449	 0.65806343974826 
450	 0.659136819756568 
451	 0.660054621067182 
452	 0.660704659584291 
453	 0.662008950456591 
454	 0.663042055456794 
455	 0.663693270481861 
456	 0.664876136079645 
457	 0.666075638832834 
458	 0.667166251614413 
459	 0.668168417339449 
460	 0.669332298203669 
461	 0.670148824676811 
462	 0.670929201110478 
463	 0.672280400694076 
464	 0.673001512030278 
465	 0.673890517493454 
466	 0.675155878910094 
467	 0.675729225938322 
468	 0.676857562708515 
469	 0.678115151049106 
470	 0.678881709750888 
471	 0.679871755463066 
472	 0.681081053876336 
473	 0.682311231087075 
474	 0.683251808288816 
475	 0.684148179650964 
476	 0.685092403714135 
477	 0.686151045624995 
478	 0.687390324135741 
479	 0.688754090564844 
480	 0.689916642438297 
481	 0.690601851934444 
482	 0.691473276600617 
483	 0.69265993982862 
484	 0.694079039838345 
485	 0.695466658462695 
486	 0.696570574433517 
487	 0.697412980944985 
488	 0.698223227076436 
489	 0.699616013648862 
490	 0.700986482163505 
491	 0.702169864768095 
492	 0.703300617368266 
493	 0.704586625436924 
494	 0.705754128385941 
495	 0.706765777765338 
496	 0.708106072693616 
497	 0.709179294415803 
498	 0.710042828491239 
499	 0.710988031102159 
500	 0.712358530670391 
501	 0.713762238796057 
502	 0.714848054083626 
503	 0.715414630625133 
504	 0.716705264550108 
505	 0.718233998641747 
506	 0.719444526780735 
507	 0.720409453199705 
508	 0.72143196383373 
509	 0.722597611905631 
510	 0.72384043576353 
511	 0.724938165676085 
512	 0.725860524183421 
513	 0.726696337305572 
514	 0.72765457729481 
515	 0.729202308337086 
516	 0.730572333811578 
517	 0.731202543512529 
518	 0.73248184997223 
519	 0.733519012260204 
520	 0.734364916127163 
521	 0.735683781529169 
522	 0.737001296934373 
523	 0.738115603292236 
524	 0.738992106725019 
525	 0.739818257589789 
526	 0.740820429441799 
527	 0.741988765325524 
528	 0.743214530871764 
529	 0.744429633854024 
530	 0.745742570691069 
531	 0.747034286109668 
532	 0.747938794276869 
533	 0.74897461340368 
534	 0.74995333981637 
535	 0.750750133626713 
536	 0.751925252213796 
537	 0.753097229613018 
538	 0.754256252633534 
539	 0.755551440577967 
540	 0.756495432654226 
541	 0.757598852082369 
542	 0.759007041777608 
543	 0.760054801981801 
544	 0.761319034077012 
545	 0.762392767346984 
546	 0.762902879589567 
547	 0.764007198700873 
548	 0.765432726876495 
549	 0.76676672314418 
550	 0.767578127363967 
551	 0.768656212884782 
552	 0.769975660003636 
553	 0.771345130876821 
554	 0.772543423291815 
555	 0.774332675455015 
556	 0.776039688318614 
557	 0.776660845758484 
558	 0.777587722606572 
559	 0.778713586954179 
560	 0.779909933745343 
561	 0.781207834490744 
562	 0.782196187178122 
563	 0.782848377388509 
564	 0.783442653031612 
565	 0.785040779130309 
566	 0.786053409916913 
567	 0.786159277795542 
568	 0.786235694328793 
569	 0.787112828215647 
570	 0.788125635313454 
571	 0.78873665910388 
572	 0.789549727852513 
573	 0.790668725313311 
574	 0.792027936492826 
575	 0.793506423712688 
576	 0.795447367033544 
577	 0.797201710769228 
578	 0.798499898026928 
579	 0.799386967159923 
580	 0.799581656442545 
581	 0.799858755537755 
582	 0.800695669112833 
583	 0.800948768461349 
584	 0.801273568887617 
585	 0.801693028603214 
586	 0.801983910266541 
587	 0.803484100798286 
588	 0.804693566613909 
589	 0.805068398846108 
590	 0.806329000030184 
591	 0.8069835073907 
592	 0.807745188796636 
593	 0.809369578283738 
594	 0.809808013490127 
595	 0.810555752945687 
596	 0.811951572128728 
597	 0.81322996408418 
598	 0.814180760175803 
599	 0.814872529551981 
600	 0.815424842734609 
601	 0.815799994639837 
602	 0.816889902626878 
603	 0.81809517406077 
604	 0.818453011682368 
605	 0.819581762091239 
606	 0.820697599998934 
607	 0.821297849796764 
608	 0.82148930410606 
609	 0.822455644869269 
610	 0.823951159938525 
611	 0.825269332892021 
612	 0.825494438157311 
613	 0.825991159808776 
614	 0.826896579166549 
615	 0.827502990304482 
616	 0.827435380500425 
617	 0.827945159492404 
618	 0.829426861829791 
619	 0.830401490819958 
620	 0.831338100933698 
621	 0.83223346222999 
622	 0.832929500229787 
623	 0.833053300246649 
624	 0.833498288895144 
625	 0.834476859667665 
626	 0.83550193993784 
627	 0.836350971357309 
628	 0.837030195150294 
629	 0.837628375768083 
630	 0.838242442550591 
631	 0.839241435440754 
632	 0.840061198171437 
633	 0.84003005111392 
634	 0.840883703246223 
635	 0.841947256466775 
636	 0.842967401793592 
637	 0.844467173432775 
638	 0.844821710529664 
639	 0.84470007063124 
640	 0.845089349084603 
641	 0.84599322281378 
642	 0.846860959126175 
643	 0.847559860021443 
644	 0.848318461842262 
645	 0.85003739670711 
646	 0.851068004603063 
647	 0.85084381080364 
648	 0.851011381229951 
649	 0.851984472970282 
650	 0.853086542998492 
651	 0.853632718994688 
652	 0.854748852777709 
653	 0.855712164430476 
654	 0.856467753057465 
655	 0.857464119329967 
656	 0.857401117348085 
657	 0.857907040086771 
658	 0.859638517210808 
659	 0.860227838332088 
660	 0.860556490253118 
661	 0.861528317056478 
662	 0.863482229823427 
663	 0.863349131125943 
664	 0.86361929868607 
665	 0.864729870687033 
666	 0.864804879994775 
667	 0.865389465898341 
668	 0.866983142553492 
669	 0.868969097802873 
670	 0.868349559391991 
671	 0.867782482853019 
672	 0.868663652170212 
673	 0.871155278022788 
674	 0.871579250014207 
675	 0.871752232624567 
676	 0.872687513766129 
677	 0.873820571203183 
678	 0.874106893192842 
679	 0.87460886689267 
680	 0.876004779329276 
681	 0.876133288911825 
682	 0.876667460050024 
683	 0.877557676123856 
684	 0.877962825293031 
685	 0.879006599284107 
686	 0.879706579165407 
687	 0.8797763447093 
688	 0.880183746453834 
689	 0.881117425906198 
690	 0.881991386110098 
691	 0.882289453416386 
692	 0.882514242596495 
693	 0.882860203179349 
694	 0.883589299951255 
695	 0.884867956361944 
696	 0.885790133936628 
697	 0.886374692435192 
698	 0.886632880097914 
699	 0.88630877137196 
700	 0.887092120459316 
701	 0.887865031530597 
702	 0.887760319268918 
703	 0.890441421994119 
704	 0.891497220187991 
705	 0.890496162293506 
706	 0.890004260300607 
707	 0.891563108402236 
708	 0.893001265233671 
709	 0.892933936107654 
710	 0.892042957652743 
711	 0.893324064844177 
712	 0.89508954205935 
713	 0.895087352984101 
714	 0.895112611341796 
715	 0.89579688552219 
716	 0.896588862275841 
717	 0.89630067639202 
718	 0.896508014436098 
719	 0.897674707508564 
720	 0.899321088863632 
721	 0.899711104232777 
722	 0.899475146888553 
723	 0.899550255524583 
724	 0.900426280213049 
725	 0.900301058799007 
726	 0.900487540912139 
727	 0.901227371515933 
728	 0.90199039291966 
729	 0.903346066261419 
730	 0.903730776496404 
731	 0.903029187910478 
732	 0.903889074585746 
733	 0.904716757253935 
734	 0.905028475169379 
735	 0.90493496975619 
736	 0.905596050894996 
737	 0.905797015112419 
738	 0.905699672578194 
739	 0.906396353606302 
740	 0.908509650237223 
741	 0.909633518748321 
742	 0.908773720047561 
743	 0.907560599104131 
744	 0.90796673211351 
745	 0.909574287589559 
746	 0.911014838959255 
747	 0.910339568426656 
748	 0.910542193759042 
749	 0.911547127776555 
750	 0.911619892274186 
751	 0.911514880386037 
752	 0.911517382758132 
753	 0.911726635954492 
754	 0.912052305516623 
755	 0.913441026414647 
756	 0.914693028045214 
757	 0.914812697650924 
758	 0.914849057273326 
759	 0.914653002704326 
760	 0.914370221247335 
761	 0.914317940262736 
762	 0.91496797079436 
763	 0.916510428866297 
764	 0.917672838819975 
765	 0.915977796816557 
766	 0.915697027604718 
767	 0.916247478027151 
768	 0.916736806399624 
769	 0.917996230669537 
770	 0.918789177895839 
771	 0.918887937653894 
772	 0.918679621685454 
773	 0.919290617939473 
774	 0.920254417678323 
775	 0.920767201987586 
776	 0.92003593155997 
777	 0.919514815981609 
778	 0.920069208846279 
779	 0.921522115919993 
780	 0.922214537967782 
781	 0.922041118524388 
782	 0.921711653578477 
783	 0.922011398285205 
784	 0.923110675773126 
785	 0.922998238495933 
786	 0.921906250707927 
787	 0.921476567178393 
788	 0.922906196459643 
789	 0.92357779915028 
790	 0.923323822788747 
791	 0.925130010556484 
792	 0.925484183910152 
793	 0.924972292983274 
794	 0.924847716587706 
795	 0.925967851563039 
796	 0.926023915249438 
797	 0.92524130709754 
798	 0.924853933247622 
799	 0.925653280041573 
800	 0.926799158847613 
801	 0.927454607731076 
802	 0.927031413989339 
803	 0.926483396361531 
804	 0.926930680672984 
805	 0.928231085110418 
806	 0.92839275000659 
807	 0.927835138237027 
808	 0.927616317811494 
809	 0.928313095951819 
810	 0.928580242245907 
811	 0.928638328095086 
812	 0.928640527494396 
813	 0.928830186545833 
814	 0.929994665841045 
815	 0.930580595076692 
816	 0.930315717594511 
817	 0.930179235462748 
818	 0.930012561035833 
819	 0.930177421287106 
820	 0.930705903929693 
821	 0.931010738703044 
822	 0.931669433779176 
823	 0.932276691037956 
824	 0.932405905577472 
825	 0.932370059797424 
826	 0.93239090865366 
827	 0.93210687086657 
828	 0.931322987568397 
829	 0.932451380821593 
830	 0.932855080510738 
831	 0.932269545998663 
832	 0.932611822315125 
833	 0.932508481659284 
834	 0.933268048760454 
835	 0.935027698201816 
836	 0.935643619858539 
837	 0.934985382554648 
838	 0.933608036797652 
839	 0.932536699879471 
840	 0.933457024148084 
841	 0.934266698236255 
842	 0.934870347800977 
843	 0.935618038556811 
844	 0.934669621993679 
845	 0.933535413387743 
846	 0.933509860417126 
847	 0.935172650442331 
848	 0.935941788132177 
849	 0.935788124806413 
850	 0.935238084215557 
851	 0.935051434401149 
852	 0.935375548694613 
853	 0.935459189165703 
854	 0.934983333363901 
855	 0.934909536781908 
856	 0.935941412533624 
857	 0.936511573955711 
858	 0.935518701413011 
859	 0.936308869069204 
860	 0.937195315487442 
861	 0.937371641652838 
862	 0.936796767648134 
863	 0.936766899014873 
864	 0.936089210263296 
865	 0.935772333720541 
866	 0.938248121317564 
867	 0.939356969582676 
868	 0.938743983397999 
869	 0.937342958326768 
870	 0.936947225082665 
871	 0.937181934114427 
872	 0.937216565037751 
873	 0.936926452392025 
874	 0.938064305187912 
875	 0.938566691738828 
876	 0.938572561862088 
877	 0.938672455823367 
878	 0.938309597041917 
879	 0.938143920900432 
880	 0.938418796034995 
881	 0.939120119778152 
882	 0.94041963895368 
883	 0.940043076298393 
884	 0.938949905862157 
885	 0.939995186779609 
886	 0.939022204339538 
887	 0.938339226812664 
888	 0.938906059384519 
889	 0.939251076597862 
890	 0.937984753951692 
891	 0.937432133482543 
892	 0.938899802585557 
893	 0.940803721596036 
894	 0.941132471703519 
895	 0.940996893873569 
896	 0.941401703229214 
897	 0.940606936944751 
898	 0.94037545258559 
899	 0.940924189911517 
900	 0.941668083815015 
901	 0.941347028672527 
902	 0.94090959802872 
903	 0.940476879202142 
904	 0.939892847330649 
905	 0.94000451271549 
906	 0.940173800719003 
907	 0.939850776167498 
908	 0.939007692195147 
909	 0.940293425348767 
910	 0.941439976674652 
911	 0.941360660740458 
912	 0.940816291897802 
913	 0.940747345644299 
914	 0.94074803181604 
915	 0.940832348750033 
916	 0.94180955698487 
917	 0.942168238551161 
918	 0.942097184378154 
919	 0.942330842265558 
920	 0.943884957129096 
921	 0.943727985948441 
922	 0.941971803688787 
923	 0.939927937843474 
924	 0.939329166287885 
925	 0.940264889931312 
926	 0.941081109625177 
927	 0.940668518232983 
928	 0.94195593521711 
929	 0.94255376749733 
930	 0.942761043097566 
931	 0.943413456272335 
932	 0.942186015530745 
933	 0.942235695489929 
934	 0.943260859581314 
935	 0.943051581621849 
936	 0.940625084550181 
937	 0.941129127733506 
938	 0.943653657621835 
939	 0.943513057935461 
940	 0.943135092923402 
941	 0.941895105320112 
942	 0.940523640114286 
943	 0.940848343469157 
944	 0.942602384964072 
945	 0.944063424098846 
946	 0.944341325278398 
947	 0.943764456307233 
948	 0.9430155581366 
949	 0.942255472271594 
950	 0.942010306229827 
951	 0.943162390599166 
952	 0.943846515065724 
953	 0.943627424973899 
954	 0.942875134806445 
955	 0.94262883217322 
956	 0.942009366714143 
957	 0.941860273455086 
958	 0.942389584162236 
959	 0.942204912566819 
960	 0.942580397645539 
961	 0.942957139558722 
962	 0.943042768220378 
963	 0.94390511082181 
964	 0.943653688218869 
965	 0.943229642281398 
966	 0.943541504355309 
967	 0.943665485385228 
968	 0.944003812961196 
969	 0.943960820761734 
970	 0.943333064717861 
971	 0.94350556170228 
972	 0.944243884677006 
973	 0.944221004902979 
974	 0.942804334891173 
975	 0.942180204731429 
976	 0.941912033777359 
977	 0.94179421446734 
978	 0.941733733311552 
979	 0.941748444051006 
980	 0.943795333414076 
981	 0.945677727031885 
982	 0.94506769189968 
983	 0.943805072310351 
984	 0.945125619183839 
985	 0.947062716713522 
986	 0.946690452826539 
987	 0.944928126005809 
988	 0.943627912526902 
989	 0.942499979973167 
990	 0.94128713008902 
991	 0.942845976906192 
992	 0.944278609788573 
993	 0.944627420798255 
994	 0.944168761490094 
995	 0.944416165030753 
996	 0.943767166153475 
997	 0.943827029953366 
998	 0.945864330035655 
999	 0.946314479116695 
1000	 0.945625091473316 
1001	 0.943517039323567 
1002	 0.943516364875888 
1003	 0.943577418110115 
1004	 0.943575359528115 
1005	 0.943558143166856 
1006	 0.943609541540686 
1007	 0.943709033112817 
1008	 0.943699088799914 
1009	 0.943636470288549 
1010	 0.943681412090361 
1011	 0.943691261723763 
1012	 0.943701711112368 
1013	 0.943867223317847 
1014	 0.943951367236067 
1015	 0.943897254986539 
1016	 0.943910975467661 
1017	 0.94405634355089 
1018	 0.944173814873398 
1019	 0.944364175099152 
1020	 0.944546293146954 
1021	 0.944712206091348 
1022	 0.944924849190771 
1023	 0.944998406676577 
1024	 0.944957975136249 
1025	 0.945001651460962 
1026	 0.945006609160358 
1027	 0.945001611321285 
1028	 0.944999901552971 
1029	 0.94511305462127 
1030	 0.945135166367279 
1031	 0.945046347252856 
1032	 0.945080131244843 
1033	 0.945092505264493 
1034	 0.944970535620348 
1035	 0.944843025514223 
1036	 0.944758846645178 
1037	 0.944632336526438 
1038	 0.944573368199963 
1039	 0.944556645549589 
1040	 0.944601216016461 
1041	 0.944713920326326 
1042	 0.944791347595949 
1043	 0.944893148132837 
1044	 0.945015467166936 
1045	 0.945137188839776 
1046	 0.945265944463353 
1047	 0.945344979844429 
1048	 0.945409238162206 
1049	 0.945484415607806 
1050	 0.945447144753762 
1051	 0.945451821771243 
1052	 0.945592786441643 
1053	 0.945671413136951 
1054	 0.945740818338177 
1055	 0.945782469966915 
1056	 0.945829382602459 
1057	 0.945826205976565 
1058	 0.945765861430907 
1059	 0.945710036005532 
1060	 0.94571333880408 
1061	 0.945731536506893 
1062	 0.945666889294617 
1063	 0.945606613025088 
1064	 0.945550969704717 
1065	 0.945503211603231 
1066	 0.945573878829018 
1067	 0.94569874001318 
1068	 0.945753188425539 
1069	 0.945702454722426 
1070	 0.945692973867789 
1071	 0.945623625301543 
1072	 0.945617130387971 
1073	 0.945698446068344 
1074	 0.945828295963227 
1075	 0.945941966479346 
1076	 0.94602455616558 
1077	 0.946114381396915 
1078	 0.946211708320184 
1079	 0.946229377925304 
1080	 0.946224828348599 
1081	 0.946247111966158 
1082	 0.946263178933177 
1083	 0.94628468247798 
1084	 0.946342001386133 
1085	 0.946376130408774 
1086	 0.946362669569255 
1087	 0.946276077760519 
1088	 0.946276264102578 
1089	 0.94630602876699 
1090	 0.946238279733975 
1091	 0.946274475074061 
1092	 0.94628452475519 
1093	 0.946164914426332 
1094	 0.946126474344089 
1095	 0.946122853494373 
1096	 0.946077982946378 
1097	 0.945997121526141 
1098	 0.945952636566065 
1099	 0.945943507181823 
1100	 0.945907240220514 
1101	 0.945959071355375 
1102	 0.946040698370604 
1103	 0.946063323611303 
1104	 0.946027671911562 
1105	 0.946018667927998 
1106	 0.946043242877983 
1107	 0.946059128226394 
1108	 0.946084991070622 
1109	 0.946073053572298 
1110	 0.946008335062984 
1111	 0.946006015451282 
1112	 0.946042710006228 
1113	 0.946072885896715 
1114	 0.946146998164646 
1115	 0.946129460376914 
1116	 0.946105257154925 
1117	 0.946176756570522 
1118	 0.946213965554955 
1119	 0.946270098664714 
1120	 0.946327696922245 
1121	 0.946405136782306 
1122	 0.946388073897259 
1123	 0.946409977969368 
1124	 0.946400102114117 
1125	 0.9462942312471 
1126	 0.946199264366358 
1127	 0.946100302619129 
1128	 0.945964817395273 
1129	 0.945860603081148 
1130	 0.945692930298586 
1131	 0.945449899697485 
1132	 0.945234888425903 
1133	 0.945009169375233 
1134	 0.944839308996771 
1135	 0.944740496483378 
1136	 0.944744246461203 
1137	 0.944705794915765 
1138	 0.944682345440408 
1139	 0.944695377818899 
1140	 0.944726222593371 
1141	 0.944748820566333 
1142	 0.944848787831201 
1143	 0.944971219877911 
1144	 0.944987250040394 
1145	 0.944956150607444 
1146	 0.944880824818406 
1147	 0.944762686122293 
1148	 0.944675845194143 
1149	 0.944558181994324 
1150	 0.944395908166982 
1151	 0.944261035903053 
1152	 0.9441740552898 
1153	 0.944093399414497 
1154	 0.944071327419748 
1155	 0.944143797801982 
1156	 0.944171571175661 
1157	 0.944234093166691 
1158	 0.944246887250276 
1159	 0.944254258804826 
1160	 0.944205324766958 
1161	 0.944125923613433 
1162	 0.943991268201869 
1163	 0.943895246943294 
1164	 0.943811772613525 
1165	 0.943687451377019 
1166	 0.943597128598597 
1167	 0.943488479666721 
1168	 0.943380608682235 
1169	 0.943316338934878 
1170	 0.943313384129201 
1171	 0.943271910416916 
1172	 0.943240390124623 
1173	 0.943198167112474 
1174	 0.943130524956564 
1175	 0.94307790074855 
1176	 0.943048833630747 
1177	 0.942998306546024 
1178	 0.942940919637457 
1179	 0.942859003162914 
1180	 0.942819125593061 
1181	 0.942793055005382 
1182	 0.94275972610275 
1183	 0.942848764645206 
1184	 0.942974325498205 
1185	 0.943091512146979 
1186	 0.943221631160742 
1187	 0.943410256562306 
1188	 0.943534459645488 
1189	 0.943647159160438 
1190	 0.943713439838302 
1191	 0.943751240795476 
1192	 0.943784138761473 
1193	 0.943803888183692 
1194	 0.943768398723966 
1195	 0.943716279215577 
1196	 0.943612086441408 
1197	 0.943411080954424 
1198	 0.943234850538754 
1199	 0.943093072607433 
1200	 0.942983126013292 
1201	 0.942939789146812 
1202	 0.942904042848621 
1203	 0.942861741510319 
1204	 0.942833873786198 
1205	 0.942790958488143 
1206	 0.942727533669654 
1207	 0.942689392320457 
1208	 0.942672653104217 
1209	 0.942627444706046 
1210	 0.942550859273874 
1211	 0.942549451414613 
1212	 0.942553563921488 
1213	 0.942591356093714 
1214	 0.942732921420227 
1215	 0.942798175926865 
1216	 0.94281499974417 
1217	 0.942864154315613 
1218	 0.942913328124652 
1219	 0.942981714332547 
1220	 0.942974816485343 
1221	 0.94296279009533 
1222	 0.942924714331956 
1223	 0.942840248033432 
1224	 0.942784046840449 
1225	 0.942770786105244 
1226	 0.942713609483513 
1227	 0.942591918992865 
1228	 0.942551820400326 
1229	 0.942514791464295 
1230	 0.94254147679739 
1231	 0.942659946474899 
1232	 0.942727114512136 
1233	 0.942859134204792 
1234	 0.942895493930613 
1235	 0.942863724301808 
1236	 0.942833832067354 
1237	 0.942777614268078 
1238	 0.942680609457608 
1239	 0.942549652942538 
1240	 0.942406790397542 
1241	 0.942215207946733 
1242	 0.94205784120933 
1243	 0.941973519569747 
1244	 0.941926961888725 
1245	 0.94193561380353 
1246	 0.942003642885705 
1247	 0.942109896867313 
1248	 0.942302578180398 
1249	 0.942447504077788 
1250	 0.942665806061332 
1251	 0.942761566573978 
1252	 0.942812099370158 
1253	 0.942801669925358 
1254	 0.942676137190677 
1255	 0.942594527606337 
1256	 0.942482731074321 
1257	 0.942378489644778 
1258	 0.942304315502929 
1259	 0.942193047358372 
1260	 0.942017245925532 
1261	 0.941888398869894 
1262	 0.941743662529066 
1263	 0.94163489673676 
1264	 0.941585743316156 
1265	 0.941591622972356 
1266	 0.941619815145089 
1267	 0.9417230332919 
1268	 0.941760417079865 
1269	 0.941821140028126 
1270	 0.941827479535752 
1271	 0.941808490829145 
1272	 0.941734644587124 
1273	 0.941566892899096 
1274	 0.941492393718842 
1275	 0.941378528467301 
1276	 0.941345064789346 
1277	 0.941467225667581 
1278	 0.94147228863887 
1279	 0.941432671707023 
1280	 0.941412776145386 
1281	 0.941342330324649 
1282	 0.941297750065934 
1283	 0.94130218737211 
1284	 0.941278927627208 
1285	 0.941245096980494 
1286	 0.941182262230724 
1287	 0.941174963396647 
1288	 0.941178128863532 
1289	 0.941189961029403 
1290	 0.941254902354945 
1291	 0.94125600290669 
1292	 0.941222560516857 
1293	 0.941209961118233 
1294	 0.941202390548527 
1295	 0.941157680948667 
1296	 0.941068356517818 
1297	 0.941048390567112 
1298	 0.941048513651015 
1299	 0.941020871940496 
1300	 0.941040301935835 
1301	 0.941029509078543 
1302	 0.94097930966212 
1303	 0.9409145387857 
1304	 0.940898340217004 
1305	 0.940793753170823 
1306	 0.940552058804658 
1307	 0.940393652395243 
1308	 0.940242273916221 
1309	 0.940068329613918 
1310	 0.939976314354907 
1311	 0.939958391514559 
1312	 0.939926342482315 
1313	 0.939918321554052 
1314	 0.939905388331228 
1315	 0.939909757183068 
1316	 0.939913255114727 
1317	 0.939892930398928 
1318	 0.939936090338132 
1319	 0.940055684280345 
1320	 0.940084806564554 
1321	 0.940141404617669 
1322	 0.940117285475125 
1323	 0.940000185304677 
1324	 0.939893268651513 
1325	 0.939756457746378 
1326	 0.939616976255262 
1327	 0.939444681402094 
1328	 0.939292267479375 
1329	 0.939120437878234 
1330	 0.938990086857655 
1331	 0.938895072480025 
1332	 0.938793098068462 
1333	 0.938726272725183 
1334	 0.938651336468032 
1335	 0.938525311334377 
1336	 0.938387996309791 
1337	 0.93819083749848 
1338	 0.937925224656312 
1339	 0.937708031264086 
1340	 0.937433962866389 
1341	 0.937271751129183 
1342	 0.937178406962454 
1343	 0.937067969086356 
1344	 0.937050183531317 
1345	 0.936907839068181 
1346	 0.936737226851755 
1347	 0.936503179465376 
1348	 0.936153606864263 
1349	 0.935872518811608 
1350	 0.935541238264501 
1351	 0.935290181333842 
1352	 0.935103314237006 
1353	 0.934907714655136 
1354	 0.934736582915406 
1355	 0.934584072973745 
1356	 0.934436106366465 
1357	 0.934311052461525 
1358	 0.934253157778537 
1359	 0.934146627647741 
1360	 0.934019403379026 
1361	 0.933902237837028 
1362	 0.933770922467197 
1363	 0.933586175929163 
1364	 0.933432056572397 
1365	 0.933308604845111 
1366	 0.933103918385338 
1367	 0.932878671335349 
1368	 0.932606235574154 
1369	 0.932272762058419 
1370	 0.931933214525673 
1371	 0.931574927421936 
1372	 0.931182013158117 
1373	 0.930786055385458 
1374	 0.930296978490808 
1375	 0.929750819607428 
1376	 0.929159055691238 
1377	 0.928484281962741 
1378	 0.927779591281123 
1379	 0.926975916466761 
1380	 0.926253911457596 
1381	 0.925542766967457 
1382	 0.924808010234106 
1383	 0.924123875642077 
1384	 0.923399521089195 
1385	 0.922649851638243 
1386	 0.921863498138322 
1387	 0.921102074094597 
1388	 0.92027629654661 
1389	 0.91939109492613 
1390	 0.918469411218367 
1391	 0.917579769799003 
1392	 0.916525578577492 
1393	 0.915404067619797 
1394	 0.914232543529107 
1395	 0.912968568962866 
1396	 0.911579336947848 
1397	 0.91022234361255 
1398	 0.908824489874603 
1399	 0.90741455050294 
1400	 0.90596007526054 
1401	 0.904552214915618 
1402	 0.903164275459789 
1403	 0.901713995872844 
1404	 0.900297882700146 
1405	 0.898794510179155 
1406	 0.897191680073812 
1407	 0.89562253493829 
1408	 0.893935813890096 
1409	 0.892449328854914 
1410	 0.890936665798093 
1411	 0.889681638092716 
1412	 0.888550357187981 
1413	 0.887679508388684 
1414	 0.887022222182313 
1415	 0.88652606385077 
1416	 0.886379009007016 
1417	 0.88614184897634 
1418	 0.886063567363846 
1419	 0.885885538725975 
1420	 0.885665970987094 
1421	 0.885431315887238 
1422	 0.885134360220541 
1423	 0.884870616535014 
1424	 0.88458488432479 
1425	 0.884334744351446 
1426	 0.884157789637179 
1427	 0.883989331939147 
1428	 0.883856691743783 
1429	 0.883737863801184 
1430	 0.88362933949358 
1431	 0.883511606993589 
1432	 0.88345092665504 
1433	 0.883422708842456 
1434	 0.883423272760935 
1435	 0.883472790487874 
1436	 0.883498321535265 
1437	 0.883560757997887 
1438	 0.883566382862872 
1439	 0.883593067869989 
1440	 0.88349516017769 
1441	 0.883279447851866 
1442	 0.88314419905397 
1443	 0.882920916843801 
1444	 0.882814109745656 
1445	 0.882822020314907 
1446	 0.882785668385801 
1447	 0.882774731580538 
1448	 0.882741517158307 
1449	 0.882702600914522 
1450	 0.882654745097838 
1451	 0.88258740743465 
1452	 0.882531670774803 
1453	 0.882502271692447 
1454	 0.882430308517256 
1455	 0.882332515168274 
1456	 0.882243510815948 
1457	 0.882139077073092 
1458	 0.882012005062513 
1459	 0.881891802934765 
1460	 0.881748537194219 
1461	 0.881525041597932 
1462	 0.881373894905125 
1463	 0.881213097217541 
1464	 0.881126199080304 
1465	 0.881131666837282 
1466	 0.881124653328307 
1467	 0.881152833915567 
1468	 0.881258840224303 
1469	 0.881378957473667 
1470	 0.881495685230465 
1471	 0.88155663499288 
1472	 0.881605671207249 
1473	 0.88165669763022 
1474	 0.881642507638592 
1475	 0.881701470256612 
1476	 0.881795849019876 
1477	 0.881918435321723 
1478	 0.882047216717589 
1479	 0.882237093590839 
1480	 0.882488174682513 
1481	 0.882736193133479 
1482	 0.883039508918058 
1483	 0.883296048356674 
1484	 0.883542830124471 
1485	 0.883798037173928 
1486	 0.884042355266053 
1487	 0.884279437639952 
1488	 0.884552819780487 
1489	 0.884753785778965 
1490	 0.884893586384907 
1491	 0.88506076381614 
1492	 0.885189832581224 
1493	 0.885353572876979 
1494	 0.885541007502721 
1495	 0.885728567393709 
1496	 0.885834276939382 
1497	 0.8861230568192 
1498	 0.886533083506789 
1499	 0.886924530612034 
1500	 0.887509417792935 
1501	 0.887926024821462 
1502	 0.888279126383235 
1503	 0.888555542098491 
1504	 0.888710536262598 
1505	 0.888889893469659 
1506	 0.889007741670702 
1507	 0.889134454752345 
1508	 0.889249977174038 
1509	 0.889391800402393 
1510	 0.889557597838788 
1511	 0.889683880177137 
1512	 0.88982098157942 
1513	 0.889937390973139 
1514	 0.889962244890979 
1515	 0.890058568069355 
1516	 0.890146704389517 
1517	 0.89032258223842 
1518	 0.890661865526355 
1519	 0.890891404458351 
1520	 0.891119280308482 
1521	 0.891346904935477 
1522	 0.89145930196535 
1523	 0.891525590554659 
1524	 0.891594717627 
1525	 0.891664097864768 
1526	 0.891680961352673 
1527	 0.891647451771064 
1528	 0.891633087194538 
1529	 0.891602227906325 
1530	 0.891564454209533 
1531	 0.891531080729218 
1532	 0.891463914492348 
1533	 0.891335334737221 
1534	 0.891314072928068 
1535	 0.891297006281544 
1536	 0.891360032304486 
1537	 0.891512287723519 
1538	 0.891663905286225 
1539	 0.891856888690519 
1540	 0.892042888177241 
1541	 0.892265777148136 
1542	 0.892464343754755 
1543	 0.892655649670148 
1544	 0.892845742042128 
1545	 0.893032321704591 
1546	 0.893221324638022 
1547	 0.893413027329248 
1548	 0.893594239269991 
1549	 0.89378531171301 
1550	 0.893941453084048 
1551	 0.894068657951966 
1552	 0.894205076350036 
1553	 0.894304125193051 
1554	 0.89445848519917 
1555	 0.894661249427837 
1556	 0.894816462447596 
1557	 0.894970236863483 
1558	 0.895130752873816 
1559	 0.895272531199962 
1560	 0.895409473289813 
1561	 0.895567029323766 
1562	 0.895703252143737 
1563	 0.895783716103201 
1564	 0.895923948229599 
1565	 0.896135818696077 
1566	 0.896258011354603 
1567	 0.896361732307457 
1568	 0.896451578444315 
1569	 0.896490863931028 
1570	 0.896516296004067 
1571	 0.896550190954459 
1572	 0.89654648101822 
1573	 0.896453364817093 
1574	 0.89643379551697 
1575	 0.896442547291121 
1576	 0.896444928137118 
1577	 0.896482130761157 
1578	 0.896497064862727 
1579	 0.89651366758491 
1580	 0.896495893741997 
1581	 0.896441779412025 
1582	 0.896416453849556 
1583	 0.89637432721586 
1584	 0.896344121290199 
1585	 0.896383630654744 
1586	 0.896335210985137 
1587	 0.896243306021895 
1588	 0.896128381478051 
1589	 0.895949605742322 
1590	 0.895782240180696 
1591	 0.895577944128324 
1592	 0.895415699614087 
1593	 0.895232965371446 
1594	 0.895121508151699 
1595	 0.895112050360249 
1596	 0.895035179877789 
1597	 0.894979512449744 
1598	 0.894892114441814 
1599	 0.894720040004899 
1600	 0.894609187136715 
1601	 0.894524048303284 
1602	 0.894444748187345 
1603	 0.894389177966714 
1604	 0.894339692984623 
1605	 0.89432495042898 
1606	 0.894266741290159 
1607	 0.894183088529981 
1608	 0.894115365443231 
1609	 0.894051035498344 
1610	 0.893947020107246 
1611	 0.893799019195699 
1612	 0.893715172800549 
1613	 0.893602958027965 
1614	 0.893545729556183 
1615	 0.893614573392616 
1616	 0.893609423604118 
1617	 0.893562990113229 
1618	 0.893544394577988 
1619	 0.893465538519395 
1620	 0.893484363184243 
1621	 0.89357617014578 
1622	 0.893677858684194 
1623	 0.89386340152702 
1624	 0.894016385653988 
1625	 0.894201318029914 
1626	 0.89431930169164 
1627	 0.894432679372629 
1628	 0.894465149787785 
1629	 0.894390345037536 
1630	 0.894333789340252 
1631	 0.894225809858173 
1632	 0.894138057794029 
1633	 0.894036576854701 
1634	 0.893975536406923 
1635	 0.893921349686414 
1636	 0.893891989287177 
1637	 0.89395572896233 
1638	 0.893933314609528 
1639	 0.893886545424372 
1640	 0.893814204737636 
1641	 0.8936869391354 
1642	 0.893547296637023 
1643	 0.89342578437305 
1644	 0.893231630602902 
1645	 0.892981796813223 
1646	 0.892695090012858 
1647	 0.892305438438846 
1648	 0.891972906204053 
1649	 0.891617109277406 
1650	 0.891309744794994 
1651	 0.891075472212506 
1652	 0.890805327628822 
1653	 0.890519394573637 
1654	 0.890266238649385 
1655	 0.890022809635632 
1656	 0.889773279969452 
1657	 0.889581568972374 
1658	 0.889319145295448 
1659	 0.88900504870954 
1660	 0.888692221874286 
1661	 0.88834164361956 
1662	 0.888004853220887 
1663	 0.88764548087141 
1664	 0.887322013792944 
1665	 0.887041366102044 
1666	 0.886715840523252 
1667	 0.88635326797397 
1668	 0.886076424662026 
1669	 0.88580248521395 
1670	 0.885550912823133 
1671	 0.885364713060586 
1672	 0.885195909340069 
1673	 0.885017457462592 
1674	 0.884892540442043 
1675	 0.884873788696102 
1676	 0.884787256933043 
1677	 0.884713917590046 
1678	 0.884584432010607 
1679	 0.884367407998871 
1680	 0.88422329070003 
1681	 0.884063888017495 
1682	 0.883935427098998 
1683	 0.883856661359585 
1684	 0.883806857893757 
1685	 0.883762938340316 
1686	 0.883761953672836 
1687	 0.883854669055305 
1688	 0.883856334169791 
1689	 0.883816793897168 
1690	 0.883824675079552 
1691	 0.883812943056201 
1692	 0.883809480604706 
1693	 0.88386747930971 
1694	 0.883868855430723 
1695	 0.883842791530397 
1696	 0.883798638698812 
1697	 0.883738307352779 
1698	 0.883631422945221 
1699	 0.88347040237628 
1700	 0.88334069346728 
1701	 0.883163666840519 
1702	 0.883096440174599 
1703	 0.883054222999378 
1704	 0.883089320346656 
1705	 0.883248571849322 
1706	 0.883323774685544 
1707	 0.883415479904737 
1708	 0.883428539294748 
1709	 0.883361235979806 
1710	 0.883198655845901 
1711	 0.882987044015774 
1712	 0.882729748939233 
1713	 0.882454803492746 
1714	 0.882229697714743 
1715	 0.882035769506829 
1716	 0.881866369811977 
1717	 0.881707366358666 
1718	 0.881575288524318 
1719	 0.881403437289013 
1720	 0.881193988764786 
1721	 0.880962938925807 
1722	 0.880677450380865 
1723	 0.880390022267631 
1724	 0.880045151962691 
1725	 0.87965199105287 
1726	 0.879257345057409 
1727	 0.87879200350147 
1728	 0.878334719595211 
1729	 0.877916896284231 
1730	 0.877484068858129 
1731	 0.877057741628982 
1732	 0.876616048611009 
1733	 0.876200081318058 
1734	 0.875816569327686 
1735	 0.875443615953299 
1736	 0.875088558741986 
1737	 0.874718617462366 
1738	 0.874259845287749 
1739	 0.873876580917146 
1740	 0.873529928447506 
1741	 0.873206765763164 
1742	 0.872982016338646 
1743	 0.872658122478276 
1744	 0.872277518720075 
1745	 0.871907821482558 
1746	 0.871470209316536 
1747	 0.871108666573651 
1748	 0.870807733152345 
1749	 0.870504124134989 
1750	 0.870203487245846 
1751	 0.869903437520522 
1752	 0.869639683709806 
1753	 0.86933716838797 
1754	 0.869006464841928 
1755	 0.868736170129526 
1756	 0.868489080613672 
1757	 0.868251304693079 
1758	 0.867954985414135 
1759	 0.867673698783315 
1760	 0.86736234124216 
1761	 0.867001889684122 
1762	 0.866709772856713 
1763	 0.866358866541084 
1764	 0.865992672724943 
1765	 0.865796887063794 
1766	 0.865684201918901 
1767	 0.865608760464001 
1768	 0.865574924934021 
1769	 0.865477660545741 
1770	 0.865291072408361 
1771	 0.86513915702022 
1772	 0.864960362632443 
1773	 0.864689952862164 
1774	 0.864480516516308 
1775	 0.864290264662269 
1776	 0.864050246185435 
1777	 0.863909306208015 
1778	 0.863842083541652 
1779	 0.863765490359859 
1780	 0.863744696495353 
1781	 0.863706049022523 
1782	 0.863575179784315 
1783	 0.863391169111888 
1784	 0.863227500503082 
1785	 0.863157289792407 
1786	 0.863106945339831 
1787	 0.863106051919963 
1788	 0.863129897473573 
1789	 0.863181144373247 
1790	 0.863237327865097 
1791	 0.863415253415268 
1792	 0.863408752228189 
1793	 0.863261338099562 
1794	 0.863093710297125 
1795	 0.862931756465579 
1796	 0.862849741845003 
1797	 0.862905364648296 
1798	 0.862956868151842 
1799	 0.862855009920783 
1800	 0.862674945009975 
1801	 0.860013287179076 
1802	 0.860083885464564 
1803	 0.860018443199616 
1804	 0.859916013361401 
1805	 0.859806048660127 
1806	 0.859680011622647 
1807	 0.859496331126212 
1808	 0.859296033650493 
1809	 0.859106470870983 
1810	 0.858891748188821 
1811	 0.858483384311596 
1812	 0.858281562040425 
1813	 0.858135057349945 
1814	 0.858143106248438 
1815	 0.858156863982829 
1816	 0.858198284716887 
1817	 0.85817823344956 
1818	 0.858113698928105 
1819	 0.858051365111831 
1820	 0.858061665910153 
1821	 0.857911657991648 
1822	 0.857713127907277 
1823	 0.857407524746131 
1824	 0.857022339936967 
1825	 0.856632286158 
1826	 0.856305049084012 
1827	 0.856041674208169 
1828	 0.855715461224992 
1829	 0.855358574639827 
1830	 0.855064192575205 
1831	 0.854800830624195 
1832	 0.854484812291963 
1833	 0.854217913833679 
1834	 0.853817998992543 
1835	 0.853344072222672 
1836	 0.853008393856059 
1837	 0.852755260321863 
1838	 0.852659753030292 
1839	 0.852430033502021 
1840	 0.852250993207371 
1841	 0.851984314248357 
1842	 0.85162948968539 
1843	 0.851291514357027 
1844	 0.850827886210029 
1845	 0.850346955366874 
1846	 0.849818193910242 
1847	 0.849221440855668 
1848	 0.848752778991405 
1849	 0.848432615964969 
1850	 0.847995955640954 
1851	 0.847575506299539 
1852	 0.847085625958868 
1853	 0.8465634759322 
1854	 0.846055126832436 
1855	 0.845499000895977 
1856	 0.845018393122228 
1857	 0.844451038098609 
1858	 0.84374865899617 
1859	 0.84308289610565 
1860	 0.842406114237001 
1861	 0.841640532466884 
1862	 0.840823030415741 
1863	 0.840044699784786 
1864	 0.839157211249152 
1865	 0.838282168824073 
1866	 0.837342652074413 
1867	 0.836335888268783 
1868	 0.835283583279545 
1869	 0.833959092050207 
1870	 0.832520442395938 
1871	 0.830960700162396 
1872	 0.829286014010841 
1873	 0.82740063251356 
1874	 0.825554459815999 
1875	 0.823598856503719 
1876	 0.821423641431758 
1877	 0.819286786772227 
1878	 0.817010945699394 
1879	 0.814606971110843 
1880	 0.812392835908047 
1881	 0.810242006776219 
1882	 0.808089113551519 
1883	 0.806022881183813 
1884	 0.804078011009574 
1885	 0.802000747989579 
1886	 0.799957716674257 
1887	 0.797744318029021 
1888	 0.795545149289562 
1889	 0.793584880546371 
1890	 0.79142589270093 
1891	 0.7893773059095 
1892	 0.787298336233485 
1893	 0.784942428469743 
1894	 0.782315804076797 
1895	 0.779809811004878 
1896	 0.777044981330963 
1897	 0.774072134950715 
1898	 0.771368322734742 
1899	 0.768389902557872 
1900	 0.765389135394254 
1901	 0.76248596754048 
1902	 0.759413414524989 
1903	 0.756459384873017 
1904	 0.753511525725093 
1905	 0.750561462813694 
1906	 0.747632987617031 
1907	 0.744942159594823 
1908	 0.742280668588527 
1909	 0.739725820521932 
1910	 0.737338365055832 
1911	 0.73481274981176 
1912	 0.732510600390128 
1913	 0.730352907607324 
1914	 0.728204600382846 
1915	 0.72630262302166 
1916	 0.724729981116811 
1917	 0.722941799234703 
1918	 0.721234930503262 
1919	 0.719838899553923 
1920	 0.718202090883966 
1921	 0.716797483363143 
1922	 0.715588682965685 
1923	 0.714459582177815 
1924	 0.713621644230268 
1925	 0.712893994564082 
1926	 0.712185233307001 
1927	 0.71156931780524 
1928	 0.710972288322375 
1929	 0.710399454577998 
1930	 0.70993673512371 
1931	 0.70948632197299 
1932	 0.708978595701785 
1933	 0.708543995066515 
1934	 0.708145772841537 
1935	 0.707776624995872 
1936	 0.707443269114848 
1937	 0.707103976790524 
1938	 0.706736092005555 
1939	 0.706466728041958 
1940	 0.706246569468441 
1941	 0.706015334312824 
1942	 0.705890251757717 
1943	 0.705713361411409 
1944	 0.705426513045241 
1945	 0.705347218756963 
1946	 0.705291593029237 
1947	 0.70524101745721 
1948	 0.705349753107237 
1949	 0.705382867650149 
1950	 0.705446214759595 
1951	 0.705504011175526 
1952	 0.705652879840352 
1953	 0.705803342108959 
1954	 0.706062055766455 
1955	 0.706444246099425 
1956	 0.706820161484906 
1957	 0.707096293029705 
1958	 0.707451345497554 
1959	 0.707803214618598 
1960	 0.707996708800098 
1961	 0.708258178053959 
1962	 0.708528921380164 
1963	 0.708838199926726 
1964	 0.709130035008654 
1965	 0.709511730059346 
1966	 0.71004019894472 
1967	 0.710413078725307 
1968	 0.71076165055193 
1969	 0.711140454622281 
1970	 0.71140517129552 
1971	 0.711796584387936 
1972	 0.712306377867869 
1973	 0.712772059548392 
1974	 0.713234275247954 
1975	 0.713765111005832 
1976	 0.714191156553325 
1977	 0.714543473201366 
1978	 0.714926859521671 
1979	 0.715279349959829 
1980	 0.715616286633103 
1981	 0.716020663919589 
1982	 0.716425560190401 
1983	 0.716939376977368 
1984	 0.717371560130879 
1985	 0.717750120447938 
1986	 0.718166981034618 
1987	 0.718568113422571 
1988	 0.71887212300389 
1989	 0.719349295078196 
1990	 0.719954424883867 
1991	 0.720479794586929 
1992	 0.721059984532676 
1993	 0.721577256358389 
1994	 0.722130200618867 
1995	 0.722660571226147 
1996	 0.723172093614538 
1997	 0.723797432777992 
1998	 0.724320812688125 
1999	 0.724775858283649 
2000	 0.725271524902173 
2001	 0.725764634886982 
2002	 0.726214335732175 
2003	 0.726697664197456 
2004	 0.727058765615451 
2005	 0.727196096090517 
2006	 0.727568354098167 
2007	 0.727948389206495 
2008	 0.72846483649618 
2009	 0.729034228221735 
2010	 0.729756241911005 
2011	 0.730349349983046 
2012	 0.730787752553998 
2013	 0.731296519345095 
2014	 0.731810142418704 
2015	 0.732276657977511 
2016	 0.732657721419261 
2017	 0.733161766466835 
2018	 0.733706992215999 
2019	 0.734276311859455 
2020	 0.734850639702875 
2021	 0.7356288372944 
2022	 0.736379353311155 
2023	 0.736944950037723 
2024	 0.737583998436892 
2025	 0.738002422440323 
2026	 0.738396328404865 
2027	 0.738596023272714 
2028	 0.738956869180081 
2029	 0.739335535029218 
2030	 0.739703380655757 
2031	 0.740097902946172 
2032	 0.740520321681191 
2033	 0.740868299633692 
2034	 0.741332944652286 
2035	 0.741923361965117 
2036	 0.742493262765121 
2037	 0.743024124902967 
2038	 0.74373983902336 
2039	 0.744356619417917 
2040	 0.744975570933903 
2041	 0.745526206729327 
2042	 0.746097440956929 
2043	 0.74650996503766 
2044	 0.746763510197706 
2045	 0.747111923992313 
2046	 0.747371015264488 
2047	 0.747708597664074 
2048	 0.748090526099824 
2049	 0.748516878636783 
2050	 0.748983355853582 
2051	 0.749458016179359 
2052	 0.750019530564999 
2053	 0.750549262025781 
2054	 0.751006153869176 
2055	 0.75142080453548 
2056	 0.751830540758476 
2057	 0.752207754807122 
2058	 0.752529185515486 
2059	 0.752818572428392 
2060	 0.753061798135033 
2061	 0.753186685360801 
2062	 0.753388260493519 
2063	 0.753608411202804 
2064	 0.753828262515667 
2065	 0.754060191244938 
2066	 0.754288561681691 
2067	 0.754539413087961 
2068	 0.754786167538915 
2069	 0.755181923307763 
2070	 0.755689338948478 
2071	 0.756173430356998 
2072	 0.756832783778585 
2073	 0.757304775825016 
2074	 0.757765531750374 
2075	 0.758093638836002 
2076	 0.758179494762281 
2077	 0.75840682571836 
2078	 0.758592682431095 
2079	 0.758801648641327 
2080	 0.759164873548885 
2081	 0.759442940223346 
2082	 0.759628909271837 
2083	 0.759804160570465 
2084	 0.760064246849525 
2085	 0.76038901283594 
2086	 0.760781492132679 
2087	 0.761318083863056 
2088	 0.761790699031556 
2089	 0.762272257152215 
2090	 0.762761421700374 
2091	 0.763304465973846 
2092	 0.763781977128352 
2093	 0.764304334450652 
2094	 0.764695260695684 
2095	 0.764960235255195 
2096	 0.765220867687822 
2097	 0.76533307864678 
2098	 0.765579704935735 
2099	 0.765838561532331 
2100	 0.766035291208049 
2101	 0.766269540867285 
2102	 0.766516524580272 
2103	 0.766788225346853 
2104	 0.767063648688785 
2105	 0.767368891923611 
2106	 0.767776072600119 
2107	 0.768036020288652 
2108	 0.768208417415626 
2109	 0.768438033566143 
2110	 0.76860767843866 
2111	 0.768807174242717 
2112	 0.769003120681724 
2113	 0.769296974519275 
2114	 0.769700742881647 
2115	 0.770006306515982 
2116	 0.770255606626289 
2117	 0.770639830190943 
2118	 0.7710492918919 
2119	 0.771416080327039 
2120	 0.771821865757831 
2121	 0.772450909847948 
2122	 0.772768855115479 
2123	 0.77289916991232 
2124	 0.773064601081258 
2125	 0.773125704838752 
2126	 0.773202773184369 
2127	 0.773287096568162 
2128	 0.773314531601384 
2129	 0.773213677193151 
2130	 0.773221753898888 
2131	 0.773209382934169 
2132	 0.773282774072239 
2133	 0.773439566108128 
2134	 0.773659209715057 
2135	 0.773990350866326 
2136	 0.774202910194617 
2137	 0.774343280577838 
2138	 0.774469606907234 
2139	 0.774504687124484 
2140	 0.774396708112831 
2141	 0.774331279210141 
2142	 0.774261269358268 
2143	 0.774131320092086 
2144	 0.773966322544156 
2145	 0.773726661340603 
2146	 0.773385359277263 
2147	 0.773068816907012 
2148	 0.772631682759221 
2149	 0.772361267377723 
2150	 0.772186816033722 
2151	 0.772009710333572 
2152	 0.771935759534515 
2153	 0.771808337294623 
2154	 0.771897035457281 
2155	 0.771765977993302 
2156	 0.771576022516516 
2157	 0.771406416790547 
2158	 0.771106161972588 
2159	 0.770543699399533 
2160	 0.770223508930037 
2161	 0.769997468069239 
2162	 0.769694851981302 
2163	 0.769478195128807 
2164	 0.769084577201481 
2165	 0.768612032934281 
2166	 0.76804883993373 
2167	 0.767329605326407 
2168	 0.766634267477602 
2169	 0.765748426638419 
2170	 0.765052827820638 
2171	 0.764261154963409 
2172	 0.763821047521484 
2173	 0.763601593603953 
2174	 0.763641041408052 
2175	 0.763822217470076 
2176	 0.763949103856209 
2177	 0.763951648478164 
2178	 0.763928641993204 
2179	 0.763633262752855 
2180	 0.763125677788242 
2181	 0.762692458920565 
2182	 0.761977975596682 
2183	 0.761579844556491 
2184	 0.761418278758824 
2185	 0.761105034476126 
2186	 0.760751701846063 
2187	 0.760517665754851 
2188	 0.760497954200657 
2189	 0.760084774101709 
2190	 0.759499561425914 
2191	 0.759005337300775 
2192	 0.758230485462977 
2193	 0.757546910761999 
2194	 0.757068571226625 
2195	 0.756500652897688 
2196	 0.755764340417684 
2197	 0.754950746479369 
2198	 0.754609817522753 
2199	 0.754454137431483 
2200	 0.754341648851484 
2201	 0.754556402710641 
2202	 0.754568312358054 
2203	 0.754539974082186 
2204	 0.754537036549585 
2205	 0.754654136357953 
2206	 0.754480921842999 
2207	 0.754052224857071 
2208	 0.753873761511352 
2209	 0.753711018809282 
2210	 0.753455446301945 
2211	 0.753361509515323 
2212	 0.753117395059257 
2213	 0.752572011997728 
2214	 0.75214542657566 
2215	 0.751574691592708 
2216	 0.751421675486923 
2217	 0.751719347409107 
2218	 0.751673082251164 
2219	 0.751830367658169 
2220	 0.751808773498518 
2221	 0.751697188832597 
2222	 0.751000599603469 
2223	 0.750193567599448 
2224	 0.749725620691239 
2225	 0.749269756978848 
2226	 0.748615598431265 
2227	 0.747849939163593 
2228	 0.747179328138049 
2229	 0.746450334711045 
2230	 0.745172221340038 
2231	 0.744776508935899 
2232	 0.745063934260094 
2233	 0.744869235619881 
2234	 0.745035879122433 
2235	 0.744591327931774 
2236	 0.743440676114515 
2237	 0.742929820968575 
2238	 0.742279400232243 
2239	 0.742021953710371 
2240	 0.742200327385112 
2241	 0.74248222546765 
2242	 0.743579080481768 
2243	 0.743640407151286 
2244	 0.743152510064083 
2245	 0.742896038945664 
2246	 0.74197433985315 
2247	 0.741289706819792 
2248	 0.741227970651879 
2249	 0.740917636131385 
2250	 0.740377412479654 
2251	 0.739604491128745 
2252	 0.739262484141053 
2253	 0.738561368682432 
2254	 0.738157850248726 
2255	 0.737452058044417 
2256	 0.736878884177375 
2257	 0.736407234094225 
2258	 0.735903515079767 
2259	 0.73546034948512 
2260	 0.734970168231527 
2261	 0.734318384343087 
2262	 0.733979624978606 
2263	 0.733811323363149 
2264	 0.733595903014953 
2265	 0.73384297034184 
2266	 0.733441368500665 
2267	 0.732477005538178 
2268	 0.731836411285987 
2269	 0.730969757134734 
2270	 0.730271305580948 
2271	 0.730132399722908 
2272	 0.729284219957411 
2273	 0.727761640981484 
2274	 0.726871994205203 
2275	 0.725746320301451 
2276	 0.725084716008536 
2277	 0.725247546153628 
2278	 0.72515971509287 
2279	 0.725395709952328 
2280	 0.724977291622005 
2281	 0.724021167764743 
2282	 0.723234160023821 
2283	 0.721870997477987 
2284	 0.721113565925028 
2285	 0.72076114502675 
2286	 0.72008932631577 
2287	 0.71903441314364 
2288	 0.717549984749648 
2289	 0.715783037193672 
2290	 0.715081824072277 
2291	 0.714604439522338 
2292	 0.714272251226514 
2293	 0.714104323527029 
2294	 0.712757780757892 
2295	 0.711896924186344 
2296	 0.710905684165385 
2297	 0.710009266166362 
2298	 0.709452465378883 
2299	 0.708713508495774 
2300	 0.707775478785449 
2301	 0.70700680773027 
2302	 0.706145939409798 
2303	 0.705597676117848 
2304	 0.705228466652193 
2305	 0.704854124898636 
2306	 0.704893770467932 
2307	 0.704625046196462 
2308	 0.704223491587819 
2309	 0.703569998203389 
2310	 0.702597441914995 
2311	 0.701995295586492 
2312	 0.701669516136461 
2313	 0.700744764414829 
2314	 0.69939324462222 
2315	 0.698570954773343 
2316	 0.697300780388034 
2317	 0.696549761358254 
2318	 0.697132925975979 
2319	 0.696755100848459 
2320	 0.695854106916105 
2321	 0.694939107187692 
2322	 0.693446743661749 
2323	 0.692396443982571 
2324	 0.691619344264819 
2325	 0.690691056985249 
2326	 0.689999064062457 
2327	 0.689202435853034 
2328	 0.688190201569417 
2329	 0.687047562405117 
2330	 0.686063463006512 
2331	 0.684622579443982 
2332	 0.682659647825851 
2333	 0.680867785842592 
2334	 0.679894232775571 
2335	 0.678477294915571 
2336	 0.677411434219472 
2337	 0.676402299794585 
2338	 0.67466264733924 
2339	 0.673785898264887 
2340	 0.673130991419228 
2341	 0.672845113325698 
2342	 0.672554530607682 
2343	 0.672126282714273 
2344	 0.671344021221402 
2345	 0.670291424142541 
2346	 0.67045491622551 
2347	 0.670468587720223 
2348	 0.669556264178579 
2349	 0.668501090238299 
2350	 0.667581548975559 
2351	 0.666532998656202 
2352	 0.665879659810896 
2353	 0.666956333633725 
2354	 0.668186470607192 
2355	 0.668243017748613 
2356	 0.668818458047831 
2357	 0.670471037478897 
2358	 0.671637185404826 
2359	 0.672830541284762 
2360	 0.674947750726233 
2361	 0.676011704943565 
2362	 0.67612248787382 
2363	 0.67602750121501 
2364	 0.675688845373472 
2365	 0.676529157639726 
2366	 0.67913899454249 
2367	 0.681062901254423 
2368	 0.681452148895124 
2369	 0.680628285711383 
2370	 0.677086293635888 
2371	 0.674798406501107 
2372	 0.674691716222982 
2373	 0.674697203970857 
2374	 0.675392282396486 
2375	 0.675020649917136 
2376	 0.675656028066606 
2377	 0.676439922893708 
2378	 0.675191439835752 
2379	 0.676223774275583 
2380	 0.676112086686462 
2381	 0.673206412213539 
2382	 0.671552335276927 
2383	 0.670270921238205 
2384	 0.668844699422422 
2385	 0.667238318550472 
2386	 0.666356769522124 
2387	 0.666273260084279 
2388	 0.666101860589112 
2389	 0.665539932827469 
2390	 0.666743117508073 
2391	 0.669919851054369 
2392	 0.671221190792019 
2393	 0.673342177363823 
2394	 0.673535324369552 
2395	 0.670994163486789 
2396	 0.668784314449402 
2397	 0.66549308387749 
2398	 0.663652585447824 
2399	 0.661828813130315 
2400	 0.661181376354528 
2401	 0.662819769053842 
2402	 0.662585566473605 
2403	 0.663338017726981 
2404	 0.66394769780016 
2405	 0.661716115140931 
2406	 0.659935963367742 
2407	 0.657336473894391 
2408	 0.653581422711886 
2409	 0.652766449608104 
2410	 0.652607415227334 
2411	 0.649270590073597 
2412	 0.64916631294662 
2413	 0.648759477027275 
2414	 0.646758631912278 
2415	 0.648258072574382 
2416	 0.647660122067988 
2417	 0.648544462577721 
2418	 0.649443237691459 
2419	 0.646214131659632 
2420	 0.644354815384227 
2421	 0.641396171299568 
2422	 0.640053442224656 
2423	 0.644053357257615 
2424	 0.647765872411809 
2425	 0.650136173028513 
2426	 0.652229549737516 
2427	 0.652621837912654 
2428	 0.652851095757391 
2429	 0.652933480650602 
2430	 0.646715921670327 
2431	 0.63868848235738 
2432	 0.63515062659627 
2433	 0.629056325907442 
2434	 0.628567284492198 
2435	 0.634248990685213 
2436	 0.630848112374435 
2437	 0.631179122871886 
2438	 0.635684342343363 
2439	 0.637439690986386 
2440	 0.643611483855754 
2441	 0.647486992838387 
2442	 0.64808913774199 
2443	 0.645278234245083 
2444	 0.637442803620802 
2445	 0.631909510138607 
2446	 0.63347551060222 
2447	 0.634890815680183 
2448	 0.635517732173465 
2449	 0.640605341598209 
2450	 0.639283467904438 
2451	 0.631404664255719 
2452	 0.629031202391627 
2453	 0.6264875321494 
2454	 0.625009952913395 
2455	 0.631328375360398 
2456	 0.63733249775967 
2457	 0.637939401668534 
2458	 0.630433036009396 
2459	 0.623606781228971 
2460	 0.625473578991098 
2461	 0.628127069073882 
2462	 0.631400990626448 
2463	 0.636504424559493 
2464	 0.633950855376026 
2465	 0.633706636909899 
2466	 0.631660188460923 
2467	 0.619704610832647 
2468	 0.61205587589677 
2469	 0.602129728671372 
2470	 0.605400670477492 
2471	 0.616922311057083 
2472	 0.61863545125948 
2473	 0.616555891405718 
2474	 0.601484303023368 
2475	 0.589409642361003 
2476	 0.588997877207052 
2477	 0.591184110345183 
2478	 0.598999885039918 
2479	 0.603960056656927 
2480	 0.589958744275045 
2481	 0.590973859877098 
2482	 0.607903645588975 
2483	 0.625628059233947 
2484	 0.631264255082768 
2485	 0.621673998868939 
2486	 0.617118754361776 
2487	 0.607184007194418 
2488	 0.598044814047324 
2489	 0.613084546959734 
2490	 0.600502628952483 
2491	 0.574302536930628 
2492	 0.570589117277224 
2493	 0.562899272610561 
2494	 0.558745109596151 
2495	 0.568879884988829 
2496	 0.579544857075923 
2497	 0.579144048320401 
2498	 0.573657022067061 
2499	 0.582965934267859 
2500	 0.582985186203535 
