Wavelength	A00130.asd.hr
350	 0.999999940395355 
351	 0.989789128303528 
352	 0.97327995300293 
353	 0.960736215114594 
354	 0.967128455638886 
355	 0.957724988460541 
356	 0.951785922050476 
357	 0.960535645484924 
358	 0.943946003913879 
359	 0.926395416259766 
360	 0.918011069297791 
361	 0.918626189231873 
362	 0.910568475723267 
363	 0.901930332183838 
364	 0.902311027050018 
365	 0.919365525245667 
366	 0.918680846691132 
367	 0.914754152297974 
368	 0.921438813209534 
369	 0.918856680393219 
370	 0.913269340991974 
371	 0.906123876571655 
372	 0.897514462471008 
373	 0.894842386245728 
374	 0.894860863685608 
375	 0.896079659461975 
376	 0.900823414325714 
377	 0.900137960910797 
378	 0.899034142494202 
379	 0.902527332305908 
380	 0.904876708984375 
381	 0.907847225666046 
382	 0.911077260971069 
383	 0.912949323654175 
384	 0.911792397499084 
385	 0.90838086605072 
386	 0.905300319194794 
387	 0.907195806503296 
388	 0.910852134227753 
389	 0.914150238037109 
390	 0.915420353412628 
391	 0.913634896278381 
392	 0.91232031583786 
393	 0.913772225379944 
394	 0.918210208415985 
395	 0.914488315582275 
396	 0.912448167800903 
397	 0.916548192501068 
398	 0.919179558753967 
399	 0.918510019779205 
400	 0.917525410652161 
401	 0.919531464576721 
402	 0.923016905784607 
403	 0.924485445022583 
404	 0.924615740776062 
405	 0.926792204380035 
406	 0.926876068115234 
407	 0.927168428897858 
408	 0.928856372833252 
409	 0.929272532463074 
410	 0.930972874164581 
411	 0.931735575199127 
412	 0.929533421993256 
413	 0.930600941181183 
414	 0.932650089263916 
415	 0.934267044067383 
416	 0.935269117355347 
417	 0.935409486293793 
418	 0.935216069221497 
419	 0.935387790203094 
420	 0.936972916126251 
421	 0.937323093414307 
422	 0.937110364437103 
423	 0.938045799732208 
424	 0.938908874988556 
425	 0.938999652862549 
426	 0.938811421394348 
427	 0.940078556537628 
428	 0.941621243953705 
429	 0.942026674747467 
430	 0.941045939922333 
431	 0.941874027252197 
432	 0.942965507507324 
433	 0.943686008453369 
434	 0.943997979164124 
435	 0.944105088710785 
436	 0.944494068622589 
437	 0.945227980613709 
438	 0.945688366889954 
439	 0.946542084217072 
440	 0.947197139263153 
441	 0.947114109992981 
442	 0.947456240653992 
443	 0.947550892829895 
444	 0.947771728038788 
445	 0.949179708957672 
446	 0.94951868057251 
447	 0.94953191280365 
448	 0.949943900108337 
449	 0.950313746929169 
450	 0.950734615325928 
451	 0.95093035697937 
452	 0.950740396976471 
453	 0.951491177082062 
454	 0.951850831508636 
455	 0.951662123203278 
456	 0.952235281467438 
457	 0.952830791473389 
458	 0.953269422054291 
459	 0.953580796718597 
460	 0.954121947288513 
461	 0.954167187213898 
462	 0.954160988330841 
463	 0.954965651035309 
464	 0.954874455928802 
465	 0.955021321773529 
466	 0.955700695514679 
467	 0.955400049686432 
468	 0.955883860588074 
469	 0.956548810005188 
470	 0.956520438194275 
471	 0.956806659698486 
472	 0.957400321960449 
473	 0.958022058010101 
474	 0.958236157894135 
475	 0.958387851715088 
476	 0.958606123924255 
477	 0.958983838558197 
478	 0.959612846374512 
479	 0.960414052009583 
480	 0.960933029651642 
481	 0.960786819458008 
482	 0.960899770259857 
483	 0.961449980735779 
484	 0.962321102619171 
485	 0.9631467461586 
486	 0.963578104972839 
487	 0.9636470079422 
488	 0.963671445846558 
489	 0.964498937129974 
490	 0.965293824672699 
491	 0.96582955121994 
492	 0.966291785240173 
493	 0.966966032981873 
494	 0.967476308345795 
495	 0.967771947383881 
496	 0.968516528606415 
497	 0.96889454126358 
498	 0.968985557556152 
499	 0.969187617301941 
500	 0.969968378543854 
501	 0.970792591571808 
502	 0.971183001995087 
503	 0.970867931842804 
504	 0.97153514623642 
505	 0.972523212432861 
506	 0.973078608512878 
507	 0.97330105304718 
508	 0.973600685596466 
509	 0.974092662334442 
510	 0.974687337875366 
511	 0.9750856757164 
512	 0.975247442722321 
513	 0.97529274225235 
514	 0.975501954555511 
515	 0.97650021314621 
516	 0.977258622646332 
517	 0.977026700973511 
518	 0.977661728858948 
519	 0.977972507476807 
520	 0.978027880191803 
521	 0.978712320327759 
522	 0.979393482208252 
523	 0.979803442955017 
524	 0.979897141456604 
525	 0.979923903942108 
526	 0.980183601379395 
527	 0.980662286281586 
528	 0.981215834617615 
529	 0.981753945350647 
530	 0.982419908046722 
531	 0.983056485652924 
532	 0.983182668685913 
533	 0.983481049537659 
534	 0.983703851699829 
535	 0.983687818050385 
536	 0.984166920185089 
537	 0.984641015529633 
538	 0.985097110271454 
539	 0.985729873180389 
540	 0.985903561115265 
541	 0.98628443479538 
542	 0.987060904502869 
543	 0.987367451190948 
544	 0.987954139709473 
545	 0.988292753696442 
546	 0.987900853157043 
547	 0.988278269767761 
548	 0.989070057868958 
549	 0.989741981029511 
550	 0.989738643169403 
551	 0.990078747272491 
552	 0.990728735923767 
553	 0.99144172668457 
554	 0.991933345794678 
555	 0.993181884288788 
556	 0.99432247877121 
557	 0.994070827960968 
558	 0.994210600852966 
559	 0.994604170322418 
560	 0.995086908340454 
561	 0.995698094367981 
562	 0.995913803577423 
563	 0.995701551437378 
564	 0.995416164398193 
565	 0.996405482292175 
566	 0.996650338172913 
567	 0.995746254920959 
568	 0.99480676651001 
569	 0.994881272315979 
570	 0.995126903057098 
571	 0.994865357875824 
572	 0.994858860969543 
573	 0.995237469673157 
574	 0.995917320251465 
575	 0.996745645999908 
576	 0.998152554035187 
577	 0.999322593212128 
578	 0.999919056892395 
579	 1 
580	 0.999232470989227 
581	 0.998569428920746 
582	 0.998605966567993 
583	 0.997914969921112 
584	 0.997314631938934 
585	 0.996833145618439 
586	 0.996192932128906 
587	 0.997054755687714 
588	 0.997554361820221 
589	 0.997019350528717 
590	 0.997581243515015 
591	 0.997392892837524 
592	 0.997337281703949 
593	 0.998346030712128 
594	 0.997891247272491 
595	 0.997818112373352 
596	 0.998542189598084 
597	 0.999120473861694 
598	 0.999295711517334 
599	 0.999152839183807 
600	 0.998839437961578 
601	 0.998309910297394 
602	 0.998655200004578 
603	 0.999140679836273 
604	 0.998591363430023 
605	 0.998982667922974 
606	 0.999357521533966 
607	 0.999104380607605 
608	 0.998354971408844 
609	 0.998547911643982 
610	 0.999382197856903 
611	 1 
612	 0.999360322952271 
613	 0.999050498008728 
614	 0.999234974384308 
615	 0.999058127403259 
616	 0.998068630695343 
617	 0.997776746749878 
618	 0.998655557632446 
619	 0.998922824859619 
620	 0.999144017696381 
621	 0.999315202236176 
622	 0.999246895313263 
623	 0.998492956161499 
624	 0.998124897480011 
625	 0.998395919799805 
626	 0.99872213602066 
627	 0.998837411403656 
628	 0.998749852180481 
629	 0.998565971851349 
630	 0.99840122461319 
631	 0.998694837093353 
632	 0.998774886131287 
633	 0.997843980789185 
634	 0.997964799404144 
635	 0.998334288597107 
636	 0.998651802539825 
637	 0.999536335468292 
638	 0.999065041542053 
639	 0.998031973838806 
640	 0.997603833675385 
641	 0.997783303260803 
642	 0.997920036315918 
643	 0.997857630252838 
644	 0.997865557670593 
645	 0.99900221824646 
646	 0.99932849407196 
647	 0.99818217754364 
648	 0.997497022151947 
649	 0.997756481170654 
650	 0.998166382312775 
651	 0.997925639152527 
652	 0.998351156711578 
653	 0.998597502708435 
654	 0.998601198196411 
655	 0.998885452747345 
656	 0.997936189174652 
657	 0.99765008687973 
658	 0.99878853559494 
659	 0.998599052429199 
660	 0.998107612133026 
661	 0.998362362384796 
662	 0.999753713607788 
663	 0.998728334903717 
664	 0.998170852661133 
665	 0.998584866523743 
666	 0.997803330421448 
667	 0.997610569000244 
668	 0.998580455780029 
669	 1 
670	 0.998547434806824 
671	 0.997157216072083 
672	 0.997432112693787 
673	 0.999554336071014 
674	 0.999302744865417 
675	 0.998763978481293 
676	 0.999098777770996 
677	 0.999659299850464 
678	 0.999251127243042 
679	 0.999089777469635 
680	 0.999949157238007 
681	 0.999361574649811 
682	 0.999237239360809 
683	 0.999518573284149 
684	 0.999247550964355 
685	 0.999703109264374 
686	 0.999767363071442 
687	 0.999115765094757 
688	 0.998848259449005 
689	 0.999177992343903 
690	 0.999439597129822 
691	 0.99904865026474 
692	 0.998575389385223 
693	 0.998239815235138 
694	 0.998337626457214 
695	 0.999055743217468 
696	 0.999370753765106 
697	 0.999304533004761 
698	 0.99887079000473 
699	 0.997782111167908 
700	 0.997940838336945 
701	 0.998087644577026 
702	 0.997248351573944 
703	 0.999537408351898 
704	 1 
705	 0.99832820892334 
706	 0.997228801250458 
707	 0.998427033424377 
708	 0.999488949775696 
709	 0.99886554479599 
710	 0.997322082519531 
711	 0.998207330703735 
712	 0.99963253736496 
713	 0.99908322095871 
714	 0.998565018177032 
715	 0.998782217502594 
716	 0.999119281768799 
717	 0.998252809047699 
718	 0.997938930988312 
719	 0.998692691326141 
720	 0.999979078769684 
721	 0.999867737293243 
722	 0.999061286449432 
723	 0.998601078987122 
724	 0.999029934406281 
725	 0.998347997665405 
726	 0.998012363910675 
727	 0.998290002346039 
728	 0.998592972755432 
729	 0.99955141544342 
730	 0.999435067176819 
731	 0.998118102550507 
732	 0.998527526855469 
733	 0.998901009559631 
734	 0.998704671859741 
735	 0.99806159734726 
736	 0.998251020908356 
737	 0.997933387756348 
738	 0.997287571430206 
739	 0.997516274452209 
740	 0.999302983283997 
741	 1 
742	 0.998671054840088 
743	 0.99695497751236 
744	 0.997018277645111 
745	 0.998400330543518 
746	 0.999598026275635 
747	 0.998474180698395 
748	 0.998313665390015 
749	 0.999032616615295 
750	 0.998729765415192 
751	 0.998232483863831 
752	 0.99785327911377 
753	 0.99770051240921 
754	 0.99767529964447 
755	 0.998812556266785 
756	 0.999799430370331 
757	 0.999548375606537 
758	 0.99920642375946 
759	 0.998611092567444 
760	 0.997921526432037 
761	 0.997483968734741 
762	 0.997812569141388 
763	 0.999113857746124 
764	 1 
765	 0.997844278812408 
766	 0.997229993343353 
767	 0.997521102428436 
768	 0.997745513916016 
769	 0.998807668685913 
770	 0.999361753463745 
771	 0.999160647392273 
772	 0.998625934123993 
773	 0.998981893062592 
774	 0.999720811843872 
775	 0.99996954202652 
776	 0.998867392539978 
777	 0.997994065284729 
778	 0.99828827381134 
779	 0.99955677986145 
780	 0.999999940395355 
781	 0.999516606330872 
782	 0.998864412307739 
783	 0.998894333839417 
784	 0.999790132045746 
785	 0.999373435974121 
786	 0.997896730899811 
787	 0.997137486934662 
788	 0.998390197753906 
789	 0.998822331428528 
790	 0.998253464698792 
791	 0.999911665916443 
792	 1 
793	 0.999197602272034 
794	 0.99881386756897 
795	 0.99977433681488 
796	 0.999585688114166 
797	 0.998492002487183 
798	 0.99782532453537 
799	 0.998439013957977 
800	 0.999426126480103 
801	 0.999883949756622 
802	 0.999179005622864 
803	 0.998339831829071 
804	 0.998573362827301 
805	 0.999725639820099 
806	 0.999651193618774 
807	 0.998802423477173 
808	 0.998318731784821 
809	 0.99882036447525 
810	 0.998859703540802 
811	 0.998674154281616 
812	 0.998428583145142 
813	 0.998384654521942 
814	 0.999388337135315 
815	 0.999769866466522 
816	 0.999237418174744 
817	 0.998843133449554 
818	 0.998416602611542 
819	 0.998346149921417 
820	 0.998665869235992 
821	 0.998745501041412 
822	 0.999204576015472 
823	 0.999608337879181 
824	 0.999499499797821 
825	 0.999213695526123 
826	 0.99898886680603 
827	 0.998437523841858 
828	 0.997351169586182 
829	 0.998312771320343 
830	 0.998498141765594 
831	 0.997624814510345 
832	 0.997744560241699 
833	 0.997387588024139 
834	 0.997953593730927 
835	 0.999588429927826 
836	 1 
837	 0.999168574810028 
838	 0.997569024562836 
839	 0.99629670381546 
840	 0.997152328491211 
841	 0.997889637947083 
842	 0.998406648635864 
843	 0.999077320098877 
844	 0.997936964035034 
845	 0.996598482131958 
846	 0.996443748474121 
847	 0.998091101646423 
848	 0.998784244060516 
849	 0.99849259853363 
850	 0.997778236865997 
851	 0.997451603412628 
852	 0.997669875621796 
853	 0.99763160943985 
854	 0.996996760368347 
855	 0.996790766716003 
856	 0.997763454914093 
857	 0.998243868350983 
858	 0.997058212757111 
859	 0.997772932052612 
860	 0.998590171337128 
861	 0.998650550842285 
862	 0.997910737991333 
863	 0.997751653194427 
864	 0.996902644634247 
865	 0.996438026428223 
866	 0.998946964740753 
867	 1 
868	 0.999256551265717 
869	 0.997674465179443 
870	 0.997162580490112 
871	 0.997321724891663 
872	 0.99726790189743 
873	 0.996868550777435 
874	 0.997988522052765 
875	 0.998432219028473 
876	 0.998347759246826 
877	 0.998363316059113 
878	 0.997886657714844 
879	 0.997619867324829 
880	 0.997821509838104 
881	 0.998476505279541 
882	 0.999767363071442 
883	 0.999276280403137 
884	 0.998023569583893 
885	 0.999043881893158 
886	 0.997919201850891 
887	 0.997102797031403 
888	 0.997614622116089 
889	 0.997890651226044 
890	 0.996454775333405 
891	 0.995777308940887 
892	 0.997245848178864 
893	 0.999177396297455 
894	 0.999435901641846 
895	 0.99920117855072 
896	 0.999540388584137 
897	 0.998605966567993 
898	 0.998269617557526 
899	 0.998761594295502 
900	 0.999460637569427 
901	 0.999029219150543 
902	 0.998474478721619 
903	 0.997924864292145 
904	 0.997214674949646 
905	 0.99724280834198 
906	 0.997332036495209 
907	 0.996898949146271 
908	 0.995914459228516 
909	 0.997187793254852 
910	 0.998313248157501 
911	 0.998138725757599 
912	 0.997471153736115 
913	 0.99730771780014 
914	 0.997218132019043 
915	 0.997217237949371 
916	 0.998162567615509 
917	 0.998452305793762 
918	 0.998286664485931 
919	 0.998443841934204 
920	 1 
921	 0.999781906604767 
922	 0.997869729995728 
923	 0.995652973651886 
924	 0.994967222213745 
925	 0.99590677022934 
926	 0.996719717979431 
927	 0.996231079101563 
928	 0.997542917728424 
929	 0.998124361038208 
930	 0.998292207717896 
931	 0.998931348323822 
932	 0.997579991817474 
933	 0.997580945491791 
934	 0.99861466884613 
935	 0.99834144115448 
936	 0.995721161365509 
937	 0.996203124523163 
938	 0.998823702335358 
939	 0.998623251914978 
940	 0.99817156791687 
941	 0.99680757522583 
942	 0.995304703712463 
943	 0.995596826076508 
944	 0.997401297092438 
945	 0.998895645141602 
946	 0.999137938022614 
947	 0.998475968837738 
948	 0.997632086277008 
949	 0.996776401996613 
950	 0.996465563774109 
951	 0.997632622718811 
952	 0.998304605484009 
953	 0.998021304607391 
954	 0.997174084186554 
955	 0.99686199426651 
956	 0.996155440807343 
957	 0.995946288108826 
958	 0.996454477310181 
959	 0.996207714080811 
960	 0.996553182601929 
961	 0.996899962425232 
962	 0.99693900346756 
963	 0.997799038887024 
964	 0.997481763362885 
965	 0.996981918811798 
966	 0.99726003408432 
967	 0.997339606285095 
968	 0.997645616531372 
969	 0.997548580169678 
970	 0.996833741664886 
971	 0.996964514255524 
972	 0.997693121433258 
973	 0.997617423534393 
974	 0.996069133281708 
975	 0.995358347892761 
976	 0.995023667812347 
977	 0.99484783411026 
978	 0.994732618331909 
979	 0.994696736335754 
980	 0.996807217597961 
981	 0.998743832111359 
982	 0.998048007488251 
983	 0.996663093566895 
984	 0.998006105422974 
985	 1 
986	 0.999611854553223 
987	 0.997756063938141 
988	 0.996388137340546 
989	 0.99520206451416 
990	 0.993926405906677 
991	 0.995577394962311 
992	 0.997095108032227 
993	 0.997468411922455 
994	 0.996989071369171 
995	 0.997255325317383 
996	 0.996574997901917 
997	 0.996643126010895 
998	 0.998799502849579 
999	 0.999279797077179 
1000	 0.998556792736053 
1001	 0.996335744857788 
1002	 0.996339976787567 
1003	 0.99640941619873 
1004	 0.99641227722168 
1005	 0.99639904499054 
1006	 0.996458292007446 
1007	 0.996568381786346 
1008	 0.996562778949738 
1009	 0.996501684188843 
1010	 0.996554136276245 
1011	 0.996569454669952 
1012	 0.996585547924042 
1013	 0.99676525592804 
1014	 0.996859073638916 
1015	 0.996806979179382 
1016	 0.996826410293579 
1017	 0.996984899044037 
1018	 0.997113943099976 
1019	 0.997319936752319 
1020	 0.997517228126526 
1021	 0.997697472572327 
1022	 0.997927010059357 
1023	 0.99800968170166 
1024	 0.997972011566162 
1025	 0.998023092746735 
1026	 0.998033344745636 
1027	 0.998033046722412 
1028	 0.998036205768585 
1029	 0.998160719871521 
1030	 0.998189032077789 
1031	 0.998100161552429 
1032	 0.998140871524811 
1033	 0.998158931732178 
1034	 0.998035073280334 
1035	 0.997905433177948 
1036	 0.997821509838104 
1037	 0.997692823410034 
1038	 0.99763560295105 
1039	 0.997622847557068 
1040	 0.997675001621246 
1041	 0.997798979282379 
1042	 0.997885704040527 
1043	 0.997998237609863 
1044	 0.998132407665253 
1045	 0.99826592206955 
1046	 0.998406946659088 
1047	 0.998495399951935 
1048	 0.99856823682785 
1049	 0.998652696609497 
1050	 0.998618304729462 
1051	 0.998628199100494 
1052	 0.998782098293304 
1053	 0.998870134353638 
1054	 0.998948395252228 
1055	 0.998997449874878 
1056	 0.999051988124847 
1057	 0.999053657054901 
1058	 0.998994886875153 
1059	 0.998940885066986 
1060	 0.998949408531189 
1061	 0.998973548412323 
1062	 0.998910248279572 
1063	 0.998851597309113 
1064	 0.998797833919525 
1065	 0.998752355575562 
1066	 0.998831987380981 
1067	 0.998968899250031 
1068	 0.999031364917755 
1069	 0.998982787132263 
1070	 0.998977720737457 
1071	 0.998909533023834 
1072	 0.998907625675201 
1073	 0.998998522758484 
1074	 0.999140679836273 
1075	 0.999265730381012 
1076	 0.999357938766479 
1077	 0.999457895755768 
1078	 0.999565660953522 
1079	 0.999589323997498 
1080	 0.999589562416077 
1081	 0.999618053436279 
1082	 0.999639987945557 
1083	 0.999667763710022 
1084	 0.99973326921463 
1085	 0.999774396419525 
1086	 0.99976509809494 
1087	 0.999678611755371 
1088	 0.999683856964111 
1089	 0.999720275402069 
1090	 0.999653697013855 
1091	 0.999696969985962 
1092	 0.999712526798248 
1093	 0.999591171741486 
1094	 0.999555587768555 
1095	 0.999556720256805 
1096	 0.999514281749725 
1097	 0.999433875083923 
1098	 0.999391853809357 
1099	 0.999387204647064 
1100	 0.999353885650635 
1101	 0.9994136095047 
1102	 0.999504923820496 
1103	 0.999533772468567 
1104	 0.99950110912323 
1105	 0.999496638774872 
1106	 0.99952757358551 
1107	 0.999549329280853 
1108	 0.999581694602966 
1109	 0.99957400560379 
1110	 0.999510645866394 
1111	 0.999513208866119 
1112	 0.999556958675385 
1113	 0.999593794345856 
1114	 0.999677181243896 
1115	 0.999663591384888 
1116	 0.999643087387085 
1117	 0.999723553657532 
1118	 0.9997678399086 
1119	 0.999832212924957 
1120	 0.999898076057434 
1121	 0.999984860420227 
1122	 0.999971866607666 
1123	 1 
1124	 1 
1125	 0.99991762638092 
1126	 0.999846696853638 
1127	 0.999771595001221 
1128	 0.999657928943634 
1129	 0.999577224254608 
1130	 0.999429523944855 
1131	 0.999202132225037 
1132	 0.999004364013672 
1133	 0.998795211315155 
1134	 0.998645126819611 
1135	 0.998570144176483 
1136	 0.998603582382202 
1137	 0.998592376708984 
1138	 0.998597025871277 
1139	 0.998640239238739 
1140	 0.99870228767395 
1141	 0.998755633831024 
1142	 0.99889075756073 
1143	 0.999049663543701 
1144	 0.999096095561981 
1145	 0.999092698097229 
1146	 0.999042510986328 
1147	 0.998947024345398 
1148	 0.998884677886963 
1149	 0.998789727687836 
1150	 0.998647630214691 
1151	 0.998534440994263 
1152	 0.998471915721893 
1153	 0.998416066169739 
1154	 0.998422205448151 
1155	 0.998528301715851 
1156	 0.998587131500244 
1157	 0.998682677745819 
1158	 0.998725712299347 
1159	 0.998762965202332 
1160	 0.998740673065186 
1161	 0.998686134815216 
1162	 0.998573184013367 
1163	 0.998501062393188 
1164	 0.998442232608795 
1165	 0.99834018945694 
1166	 0.998274087905884 
1167	 0.998188614845276 
1168	 0.99810391664505 
1169	 0.998065412044525 
1170	 0.998091697692871 
1171	 0.998077273368835 
1172	 0.998073399066925 
1173	 0.998058199882507 
1174	 0.998016059398651 
1175	 0.99798983335495 
1176	 0.997988522052765 
1177	 0.99796450138092 
1178	 0.997933268547058 
1179	 0.997875988483429 
1180	 0.997863292694092 
1181	 0.99786514043808 
1182	 0.997859299182892 
1183	 0.997983038425446 
1184	 0.998145401477814 
1185	 0.998298943042755 
1186	 0.99846613407135 
1187	 0.998695313930511 
1188	 0.99885630607605 
1189	 0.999005079269409 
1190	 0.999104797840118 
1191	 0.999174296855927 
1192	 0.999238610267639 
1193	 0.999289035797119 
1194	 0.999280989170074 
1195	 0.999255299568176 
1196	 0.999174535274506 
1197	 0.998991191387177 
1198	 0.998834073543549 
1199	 0.998713433742523 
1200	 0.998626530170441 
1201	 0.998610138893127 
1202	 0.998601734638214 
1203	 0.998586475849152 
1204	 0.998586416244507 
1205	 0.998570501804352 
1206	 0.998532831668854 
1207	 0.99852192401886 
1208	 0.998533666133881 
1209	 0.99851530790329 
1210	 0.998463690280914 
1211	 0.998491704463959 
1212	 0.998525559902191 
1213	 0.998595118522644 
1214	 0.998774588108063 
1215	 0.998873233795166 
1216	 0.998920619487762 
1217	 0.99900221824646 
1218	 0.999083817005157 
1219	 0.999185860157013 
1220	 0.999208033084869 
1221	 0.999224841594696 
1222	 0.999214053153992 
1223	 0.999154090881348 
1224	 0.999124050140381 
1225	 0.999139547348022 
1226	 0.999108493328094 
1227	 0.999009013175964 
1228	 0.998996078968048 
1229	 0.99898636341095 
1230	 0.999044179916382 
1231	 0.999199271202087 
1232	 0.999300062656403 
1233	 0.999469518661499 
1234	 0.999537646770477 
1235	 0.999533534049988 
1236	 0.999531388282776 
1237	 0.999501347541809 
1238	 0.999428033828735 
1239	 0.999318778514862 
1240	 0.999196827411652 
1241	 0.999023258686066 
1242	 0.998885989189148 
1243	 0.998826086521149 
1244	 0.998806297779083 
1245	 0.998844981193542 
1246	 0.998946666717529 
1247	 0.999088883399963 
1248	 0.999322831630707 
1249	 0.999506056308746 
1250	 0.999767184257507 
1251	 0.999898314476013 
1252	 0.999981462955475 
1253	 1 
1254	 0.999906003475189 
1255	 0.999858617782593 
1256	 0.999779164791107 
1257	 0.999707758426666 
1258	 0.99966824054718 
1259	 0.999589383602142 
1260	 0.999441981315613 
1261	 0.999344408512115 
1262	 0.999230027198792 
1263	 0.999153733253479 
1264	 0.999140739440918 
1265	 0.999186098575592 
1266	 0.999255120754242 
1267	 0.999403893947601 
1268	 0.999482691287994 
1269	 0.999586343765259 
1270	 0.999632179737091 
1271	 0.999651253223419 
1272	 0.999612033367157 
1273	 0.999473094940186 
1274	 0.999433219432831 
1275	 0.999351501464844 
1276	 0.999355137348175 
1277	 0.999523997306824 
1278	 0.999568521976471 
1279	 0.999565720558167 
1280	 0.999583721160889 
1281	 0.999548137187958 
1282	 0.999539971351624 
1283	 0.999583899974823 
1284	 0.999598383903503 
1285	 0.999601602554321 
1286	 0.99957412481308 
1287	 0.999605536460876 
1288	 0.999648094177246 
1289	 0.999699890613556 
1290	 0.999808013439178 
1291	 0.999848425388336 
1292	 0.999852120876312 
1293	 0.999877989292145 
1294	 0.999909102916718 
1295	 0.999900877475739 
1296	 0.999845147132874 
1297	 0.999863147735596 
1298	 0.999902546405792 
1299	 0.99991238117218 
1300	 0.999972283840179 
1301	 1 
1302	 0.999992847442627 
1303	 0.999970197677612 
1304	 0.999999105930328 
1305	 0.999934136867523 
1306	 0.999723374843597 
1307	 0.999601185321808 
1308	 0.99948638677597 
1309	 0.999347627162933 
1310	 0.999296009540558 
1311	 0.999323070049286 
1312	 0.999335110187531 
1313	 0.999372780323029 
1314	 0.999405205249786 
1315	 0.999455988407135 
1316	 0.999505817890167 
1317	 0.999530434608459 
1318	 0.999622523784637 
1319	 0.999795913696289 
1320	 0.999872982501984 
1321	 0.999979436397552 
1322	 1 
1323	 0.999994575977325 
1324	 1 
1325	 0.99998664855957 
1326	 0.999970316886902 
1327	 0.99991911649704 
1328	 0.999889016151428 
1329	 0.999838352203369 
1330	 0.999831795692444 
1331	 0.999862790107727 
1332	 0.999886453151703 
1333	 0.999947547912598 
1334	 1 
1335	 1 
1336	 1 
1337	 0.999945938587189 
1338	 0.999818921089172 
1339	 0.999743461608887 
1340	 0.999607384204865 
1341	 0.999590516090393 
1342	 0.99964714050293 
1343	 0.99968546628952 
1344	 0.999822735786438 
1345	 0.999827086925507 
1346	 0.999801218509674 
1347	 0.999707758426666 
1348	 0.999490857124329 
1349	 0.999347031116486 
1350	 0.9991495013237 
1351	 0.999037623405457 
1352	 0.998994290828705 
1353	 0.998941600322723 
1354	 0.998915076255798 
1355	 0.998908519744873 
1356	 0.99890673160553 
1357	 0.998929381370544 
1358	 0.999023914337158 
1359	 0.999066472053528 
1360	 0.999086916446686 
1361	 0.999118089675903 
1362	 0.999134182929993 
1363	 0.999093055725098 
1364	 0.999084711074829 
1365	 0.999109208583832 
1366	 0.999046683311462 
1367	 0.998962163925171 
1368	 0.99882709980011 
1369	 0.99862664937973 
1370	 0.998419523239136 
1371	 0.998192310333252 
1372	 0.997927904129028 
1373	 0.997660100460052 
1374	 0.997292459011078 
1375	 0.996863484382629 
1376	 0.996385455131531 
1377	 0.995818316936493 
1378	 0.995218813419342 
1379	 0.994512975215912 
1380	 0.993894517421722 
1381	 0.99328750371933 
1382	 0.992654979228973 
1383	 0.992076635360718 
1384	 0.99145495891571 
1385	 0.990805804729462 
1386	 0.990117073059082 
1387	 0.989454925060272 
1388	 0.988723397254944 
1389	 0.987927794456482 
1390	 0.987092733383179 
1391	 0.986291944980621 
1392	 0.985313892364502 
1393	 0.984263181686401 
1394	 0.983158349990845 
1395	 0.981953740119934 
1396	 0.980613946914673 
1397	 0.979308485984802 
1398	 0.977958619594574 
1399	 0.976595401763916 
1400	 0.975183725357056 
1401	 0.973821818828583 
1402	 0.972480893135071 
1403	 0.971072435379028 
1404	 0.969700336456299 
1405	 0.968233823776245 
1406	 0.966659724712372 
1407	 0.965121388435364 
1408	 0.96345579624176 
1409	 0.96200555562973 
1410	 0.960526645183563 
1411	 0.959325015544891 
1412	 0.958256542682648 
1413	 0.957468628883362 
1414	 0.956910848617554 
1415	 0.956526696681976 
1416	 0.956519186496735 
1417	 0.956414401531219 
1418	 0.956481099128723 
1419	 0.956440091133118 
1420	 0.956354260444641 
1421	 0.956252157688141 
1422	 0.956082701683044 
1423	 0.955949008464813 
1424	 0.955791532993317 
1425	 0.9556725025177 
1426	 0.955632507801056 
1427	 0.955601692199707 
1428	 0.955609679222107 
1429	 0.955632507801056 
1430	 0.955666482448578 
1431	 0.955690503120422 
1432	 0.955776274204254 
1433	 0.955897212028503 
1434	 0.95604932308197 
1435	 0.956254541873932 
1436	 0.956433773040771 
1437	 0.956652998924255 
1438	 0.956810832023621 
1439	 0.956991493701935 
1440	 0.957037270069122 
1441	 0.956955373287201 
1442	 0.956960678100586 
1443	 0.956870675086975 
1444	 0.956906795501709 
1445	 0.957067310810089 
1446	 0.957179844379425 
1447	 0.957319974899292 
1448	 0.95743602514267 
1449	 0.957545936107636 
1450	 0.957646191120148 
1451	 0.957725346088409 
1452	 0.957817077636719 
1453	 0.95793741941452 
1454	 0.958011567592621 
1455	 0.958057761192322 
1456	 0.958113431930542 
1457	 0.95815247297287 
1458	 0.958166897296906 
1459	 0.958188712596893 
1460	 0.95818555355072 
1461	 0.958095133304596 
1462	 0.958083391189575 
1463	 0.958061099052429 
1464	 0.958119213581085 
1465	 0.958277761936188 
1466	 0.958422780036926 
1467	 0.958606123924255 
1468	 0.958874225616455 
1469	 0.959157764911652 
1470	 0.959437727928162 
1471	 0.95965701341629 
1472	 0.959863483905792 
1473	 0.960072100162506 
1474	 0.960209786891937 
1475	 0.960427224636078 
1476	 0.960683286190033 
1477	 0.960970163345337 
1478	 0.961263835430145 
1479	 0.961624324321747 
1480	 0.962051570415497 
1481	 0.962475597858429 
1482	 0.962960064411163 
1483	 0.963393688201904 
1484	 0.963816821575165 
1485	 0.96424925327301 
1486	 0.96467000246048 
1487	 0.965082943439484 
1488	 0.965535640716553 
1489	 0.965909421443939 
1490	 0.966216504573822 
1491	 0.966553628444672 
1492	 0.966849207878113 
1493	 0.967182755470276 
1494	 0.967542350292206 
1495	 0.967902183532715 
1496	 0.968172609806061 
1497	 0.968643248081207 
1498	 0.969246625900269 
1499	 0.969829916954041 
1500	 0.970624923706055 
1501	 0.971236109733582 
1502	 0.971778035163879 
1503	 0.972236216068268 
1504	 0.972561657428741 
1505	 0.972913861274719 
1506	 0.97319883108139 
1507	 0.973493635654449 
1508	 0.973776280879974 
1509	 0.974087834358215 
1510	 0.974425673484802 
1511	 0.974720358848572 
1512	 0.975027024745941 
1513	 0.975311100482941 
1514	 0.975494921207428 
1515	 0.975757122039795 
1516	 0.976010501384735 
1517	 0.976360142230988 
1518	 0.976889073848724 
1519	 0.977297842502594 
1520	 0.977704882621765 
1521	 0.978111743927002 
1522	 0.978392362594604 
1523	 0.978622436523438 
1524	 0.978855669498444 
1525	 0.979089260101318 
1526	 0.97926527261734 
1527	 0.97938597202301 
1528	 0.979527771472931 
1529	 0.979651510715485 
1530	 0.979767680168152 
1531	 0.979888737201691 
1532	 0.979972660541534 
1533	 0.979989051818848 
1534	 0.980123519897461 
1535	 0.980262577533722 
1536	 0.98048985004425 
1537	 0.980815291404724 
1538	 0.98114025592804 
1539	 0.981510758399963 
1540	 0.981873750686646 
1541	 0.982277393341064 
1542	 0.982654452323914 
1543	 0.983023583889008 
1544	 0.983391523361206 
1545	 0.983755767345428 
1546	 0.984122693538666 
1547	 0.984492778778076 
1548	 0.98485141992569 
1549	 0.985221028327942 
1550	 0.985552191734314 
1551	 0.985851645469666 
1552	 0.986161351203918 
1553	 0.986429929733276 
1554	 0.986759603023529 
1555	 0.987142741680145 
1556	 0.987473547458649 
1557	 0.987802922725677 
1558	 0.988139808177948 
1559	 0.988456130027771 
1560	 0.988767266273499 
1561	 0.98910117149353 
1562	 0.989411652088165 
1563	 0.989660620689392 
1564	 0.98997575044632 
1565	 0.990370094776154 
1566	 0.99066549539566 
1567	 0.990940630435944 
1568	 0.99120044708252 
1569	 0.991404414176941 
1570	 0.9915931224823 
1571	 0.991791248321533 
1572	 0.991947829723358 
1573	 0.992005586624146 
1574	 0.992144763469696 
1575	 0.992315292358398 
1576	 0.992478787899017 
1577	 0.992680966854095 
1578	 0.992858469486237 
1579	 0.993037939071655 
1580	 0.993179380893707 
1581	 0.993280589580536 
1582	 0.993413746356964 
1583	 0.993528306484222 
1584	 0.993656158447266 
1585	 0.993861317634583 
1586	 0.993969023227692 
1587	 0.994028508663177 
1588	 0.994062483310699 
1589	 0.994025766849518 
1590	 0.994001567363739 
1591	 0.993936419487 
1592	 0.993917882442474 
1593	 0.993876576423645 
1594	 0.993914484977722 
1595	 0.994065582752228 
1596	 0.99414199590683 
1597	 0.994241893291473 
1598	 0.994306564331055 
1599	 0.99427717924118 
1600	 0.994315803050995 
1601	 0.994383037090302 
1602	 0.994456768035889 
1603	 0.994556963443756 
1604	 0.994663953781128 
1605	 0.994809567928314 
1606	 0.994906902313232 
1607	 0.994975924491882 
1608	 0.995062708854675 
1609	 0.995153307914734 
1610	 0.995199799537659 
1611	 0.995197355747223 
1612	 0.995266258716583 
1613	 0.995303630828857 
1614	 0.995402216911316 
1615	 0.995641350746155 
1616	 0.995798110961914 
1617	 0.995908915996552 
1618	 0.996050834655762 
1619	 0.996125519275665 
1620	 0.996309161186218 
1621	 0.996574282646179 
1622	 0.996850550174713 
1623	 0.997220396995544 
1624	 0.997554063796997 
1625	 0.99792355298996 
1626	 0.998218357563019 
1627	 0.998508095741272 
1628	 0.99870765209198 
1629	 0.998787462711334 
1630	 0.998887658119202 
1631	 0.99893045425415 
1632	 0.998995840549469 
1633	 0.999045968055725 
1634	 0.999141275882721 
1635	 0.999244272708893 
1636	 0.99937504529953 
1637	 0.999610006809235 
1638	 0.999748647212982 
1639	 0.999860107898712 
1640	 0.99994307756424 
1641	 0.999964535236359 
1642	 0.999972105026245 
1643	 1 
1644	 0.999953329563141 
1645	 0.999844372272491 
1646	 0.999694049358368 
1647	 0.999428391456604 
1648	 0.999226570129395 
1649	 0.998998641967773 
1650	 0.998824954032898 
1651	 0.998733043670654 
1652	 0.998601019382477 
1653	 0.998451113700867 
1654	 0.998338043689728 
1655	 0.998235702514648 
1656	 0.99812650680542 
1657	 0.998082220554352 
1658	 0.997958540916443 
1659	 0.997776865959167 
1660	 0.997596442699432 
1661	 0.997373640537262 
1662	 0.997166275978088 
1663	 0.996933400630951 
1664	 0.996740877628326 
1665	 0.996596276760101 
1666	 0.996401250362396 
1667	 0.996164560317993 
1668	 0.996024072170258 
1669	 0.995886921882629 
1670	 0.995774745941162 
1671	 0.995736122131348 
1672	 0.99571704864502 
1673	 0.995687067508698 
1674	 0.995717406272888 
1675	 0.995867192745209 
1676	 0.995940744876862 
1677	 0.996029138565063 
1678	 0.996054351329803 
1679	 0.99598103761673 
1680	 0.995989739894867 
1681	 0.995981335639954 
1682	 0.996007680892944 
1683	 0.996090054512024 
1684	 0.996205151081085 
1685	 0.996326863765717 
1686	 0.99649715423584 
1687	 0.996773064136505 
1688	 0.996946334838867 
1689	 0.997073292732239 
1690	 0.997253715991974 
1691	 0.997412145137787 
1692	 0.997579872608185 
1693	 0.997817039489746 
1694	 0.997990429401398 
1695	 0.998132884502411 
1696	 0.998254954814911 
1697	 0.998358726501465 
1698	 0.998410046100616 
1699	 0.998400092124939 
1700	 0.998425543308258 
1701	 0.998397588729858 
1702	 0.998493671417236 
1703	 0.998618185520172 
1704	 0.998830080032349 
1705	 0.999182522296906 
1706	 0.999440014362335 
1707	 0.999716281890869 
1708	 0.999903619289398 
1709	 1 
1710	 1 
1711	 0.999986231327057 
1712	 0.999920725822449 
1713	 0.999835193157196 
1714	 0.999806106090546 
1715	 0.999812364578247 
1716	 0.999846339225769 
1717	 0.999892234802246 
1718	 0.999968647956848 
1719	 1 
1720	 1 
1721	 0.999999046325684 
1722	 0.99993622303009 
1723	 0.99987131357193 
1724	 0.999740958213806 
1725	 0.999555706977844 
1726	 0.999368667602539 
1727	 0.999101161956787 
1728	 0.998842775821686 
1729	 0.998629033565521 
1730	 0.998398125171661 
1731	 0.998174488544464 
1732	 0.997933208942413 
1733	 0.997721195220947 
1734	 0.997546017169952 
1735	 0.997382700443268 
1736	 0.997239708900452 
1737	 0.997079730033875 
1738	 0.996818363666534 
1739	 0.99664294719696 
1740	 0.996509253978729 
1741	 0.996402263641357 
1742	 0.996407508850098 
1743	 0.996299624443054 
1744	 0.996126890182495 
1745	 0.995966553688049 
1746	 0.995728492736816 
1747	 0.995577216148376 
1748	 0.995495200157166 
1749	 0.995410144329071 
1750	 0.995328366756439 
1751	 0.995247185230255 
1752	 0.995207548141479 
1753	 0.995123505592346 
1754	 0.995007216930389 
1755	 0.994959950447083 
1756	 0.994939267635345 
1757	 0.994929254055023 
1758	 0.994852125644684 
1759	 0.994792222976685 
1760	 0.99469780921936 
1761	 0.994546949863434 
1762	 0.994474470615387 
1763	 0.99433445930481 
1764	 0.994176924228668 
1765	 0.99421489238739 
1766	 0.994348347187042 
1767	 0.994524657726288 
1768	 0.994748830795288 
1769	 0.994900345802307 
1770	 0.994949102401733 
1771	 0.995037794113159 
1772	 0.995095610618591 
1773	 0.995048046112061 
1774	 0.995070695877075 
1775	 0.995115399360657 
1776	 0.995102763175964 
1777	 0.995204269886017 
1778	 0.995390832424164 
1779	 0.995566666126251 
1780	 0.995806932449341 
1781	 0.996026694774628 
1782	 0.996140241622925 
1783	 0.996192455291748 
1784	 0.996268332004547 
1785	 0.996452033519745 
1786	 0.996658742427826 
1787	 0.996922731399536 
1788	 0.997215390205383 
1789	 0.99753999710083 
1790	 0.997870326042175 
1791	 0.998341679573059 
1792	 0.998599946498871 
1793	 0.998695373535156 
1794	 0.998767495155334 
1795	 0.998846113681793 
1796	 0.999017357826233 
1797	 0.999348163604736 
1798	 0.999674260616302 
1799	 0.999822914600372 
1800	 0.999881029129028 
1801	 0.997062087059021 
1802	 0.997410118579865 
1803	 0.997600495815277 
1804	 0.997748136520386 
1805	 0.997887134552002 
1806	 0.998007476329803 
1807	 0.998060941696167 
1808	 0.998095154762268 
1809	 0.998141825199127 
1810	 0.998159408569336 
1811	 0.997951805591583 
1812	 0.997984230518341 
1813	 0.998081028461456 
1814	 0.998357653617859 
1815	 0.998641192913055 
1816	 0.998956978321075 
1817	 0.999201416969299 
1818	 0.999394118785858 
1819	 0.999589502811432 
1820	 0.999869704246521 
1821	 0.999963104724884 
1822	 1 
1823	 0.999944031238556 
1824	 0.999795258045197 
1825	 0.999640643596649 
1826	 0.999559283256531 
1827	 0.999552488327026 
1828	 0.999472260475159 
1829	 0.999356091022491 
1830	 0.999312996864319 
1831	 0.999306082725525 
1832	 0.999237537384033 
1833	 0.99922651052475 
1834	 0.999059796333313 
1835	 0.998806357383728 
1836	 0.998714625835419 
1837	 0.998719453811646 
1838	 0.998909056186676 
1839	 0.998941421508789 
1840	 0.999033212661743 
1841	 0.999022364616394 
1842	 0.998908042907715 
1843	 0.998813390731812 
1844	 0.998571336269379 
1845	 0.998308718204498 
1846	 0.997989773750305 
1847	 0.997590839862823 
1848	 0.997342109680176 
1849	 0.997267782688141 
1850	 0.997056484222412 
1851	 0.996864080429077 
1852	 0.99658989906311 
1853	 0.996277570724487 
1854	 0.995981276035309 
1855	 0.995628535747528 
1856	 0.995364606380463 
1857	 0.994998276233673 
1858	 0.994472503662109 
1859	 0.993989706039429 
1860	 0.993493556976318 
1861	 0.992892384529114 
1862	 0.992229521274567 
1863	 0.991612434387207 
1864	 0.990866243839264 
1865	 0.990134179592133 
1866	 0.98932546377182 
1867	 0.988436937332153 
1868	 0.987493872642517 
1869	 0.986228406429291 
1870	 0.984827160835266 
1871	 0.98328173160553 
1872	 0.981599271297455 
1873	 0.979666411876678 
1874	 0.977778732776642 
1875	 0.975760221481323 
1876	 0.973480343818665 
1877	 0.97124445438385 
1878	 0.968842387199402 
1879	 0.966286897659302 
1880	 0.963955044746399 
1881	 0.961696922779083 
1882	 0.959435045719147 
1883	 0.957274615764618 
1884	 0.955257058143616 
1885	 0.953080952167511 
1886	 0.950944185256958 
1887	 0.948603570461273 
1888	 0.946278393268585 
1889	 0.944236040115356 
1890	 0.941956043243408 
1891	 0.939805924892426 
1892	 0.937618374824524 
1893	 0.935099601745605 
1894	 0.932256579399109 
1895	 0.929555654525757 
1896	 0.926544487476349 
1897	 0.923283278942108 
1898	 0.920341074466705 
1899	 0.917069375514984 
1900	 0.913768947124481 
1901	 0.910583019256592 
1902	 0.907192826271057 
1903	 0.903942108154297 
1904	 0.900696814060211 
1905	 0.897446930408478 
1906	 0.894220769405365 
1907	 0.891277015209198 
1908	 0.88836658000946 
1909	 0.885581910610199 
1910	 0.882996022701263 
1911	 0.880243122577667 
1912	 0.877756237983704 
1913	 0.875441014766693 
1914	 0.873135507106781 
1915	 0.871124088764191 
1916	 0.869506597518921 
1917	 0.86762934923172 
1918	 0.865848541259766 
1919	 0.864440023899078 
1920	 0.86274129152298 
1921	 0.861320555210114 
1922	 0.860134363174438 
1923	 0.859043180942535 
1924	 0.858301520347595 
1925	 0.857692182064056 
1926	 0.857105076313019 
1927	 0.856629431247711 
1928	 0.856176257133484 
1929	 0.855751931667328 
1930	 0.855459988117218 
1931	 0.855182766914368 
1932	 0.854836225509644 
1933	 0.854577660560608 
1934	 0.854362845420837 
1935	 0.854182958602905 
1936	 0.854046225547791 
1937	 0.853902220726013 
1938	 0.853723526000977 
1939	 0.853663861751556 
1940	 0.853663563728333 
1941	 0.853649854660034 
1942	 0.853764653205872 
1943	 0.853816747665405 
1944	 0.853735744953156 
1945	 0.853906095027924 
1946	 0.854105114936829 
1947	 0.854310393333435 
1948	 0.854708909988403 
1949	 0.855015933513641 
1950	 0.855359792709351 
1951	 0.855697214603424 
1952	 0.856145262718201 
1953	 0.856595575809479 
1954	 0.85717761516571 
1955	 0.857909917831421 
1956	 0.858635008335114 
1957	 0.859239459037781 
1958	 0.859940052032471 
1959	 0.860637307167053 
1960	 0.861142337322235 
1961	 0.861730396747589 
1962	 0.862330079078674 
1963	 0.862977147102356 
1964	 0.863603293895721 
1965	 0.864339351654053 
1966	 0.865254700183868 
1967	 0.865980923175812 
1968	 0.866678059101105 
1969	 0.867412447929382 
1970	 0.868008077144623 
1971	 0.868758797645569 
1972	 0.869654417037964 
1973	 0.87049674987793 
1974	 0.871335446834564 
1975	 0.872258484363556 
1976	 0.873053967952728 
1977	 0.873759865760803 
1978	 0.874504148960114 
1979	 0.875211119651794 
1980	 0.87589955329895 
1981	 0.876670956611633 
1982	 0.877443432807922 
1983	 0.878349900245667 
1984	 0.879156887531281 
1985	 0.879898607730865 
1986	 0.880687832832336 
1987	 0.881458222866058 
1988	 0.882109880447388 
1989	 0.882974565029144 
1990	 0.883996903896332 
1991	 0.884921908378601 
1992	 0.885914862155914 
1993	 0.886831104755402 
1994	 0.887791812419891 
1995	 0.888725340366364 
1996	 0.889636218547821 
1997	 0.890687823295593 
1998	 0.891614556312561 
1999	 0.892457723617554 
2000	 0.893351495265961 
2001	 0.894242644309998 
2002	 0.895080864429474 
2003	 0.895961105823517 
2004	 0.896691143512726 
2005	 0.897145509719849 
2006	 0.897890210151672 
2007	 0.898644924163818 
2008	 0.899568557739258 
2009	 0.900558233261108 
2010	 0.901737034320831 
2011	 0.902757287025452 
2012	 0.903586983680725 
2013	 0.904504179954529 
2014	 0.905427932739258 
2015	 0.906294047832489 
2016	 0.907054901123047 
2017	 0.907968521118164 
2018	 0.908933758735657 
2019	 0.90992945432663 
2020	 0.910932004451752 
2021	 0.912187993526459 
2022	 0.913410425186157 
2023	 0.914404213428497 
2024	 0.915489792823792 
2025	 0.916302144527435 
2026	 0.917084574699402 
2027	 0.917626202106476 
2028	 0.918368458747864 
2029	 0.919133424758911 
2030	 0.919885277748108 
2031	 0.920670866966248 
2032	 0.921491742134094 
2033	 0.922220408916473 
2034	 0.923094749450684 
2035	 0.924126446247101 
2036	 0.925133168697357 
2037	 0.926091849803925 
2038	 0.927281737327576 
2039	 0.928348898887634 
2040	 0.929419457912445 
2041	 0.930405497550964 
2042	 0.93141782283783 
2043	 0.932232677936554 
2044	 0.932849407196045 
2045	 0.933585107326508 
2046	 0.934209644794464 
2047	 0.934932708740234 
2048	 0.935711681842804 
2049	 0.936546802520752 
2050	 0.937432587146759 
2051	 0.938329219818115 
2052	 0.939335286617279 
2053	 0.940302133560181 
2054	 0.941178262233734 
2055	 0.94200211763382 
2056	 0.942820250988007 
2057	 0.943598091602325 
2058	 0.944306552410126 
2059	 0.944975197315216 
2060	 0.945586264133453 
2061	 0.946049153804779 
2062	 0.946608662605286 
2063	 0.947191834449768 
2064	 0.94777512550354 
2065	 0.948373913764954 
2066	 0.948968589305878 
2067	 0.949591994285584 
2068	 0.950210571289063 
2069	 0.951017320156097 
2070	 0.951965153217316 
2071	 0.952884197235107 
2072	 0.954024851322174 
2073	 0.954929947853088 
2074	 0.955821394920349 
2075	 0.956546187400818 
2076	 0.956965565681458 
2077	 0.957563817501068 
2078	 0.958110213279724 
2079	 0.958686053752899 
2080	 0.959457218647003 
2081	 0.960121333599091 
2082	 0.960669338703156 
2083	 0.96120411157608 
2084	 0.961846649646759 
2085	 0.962571442127228 
2086	 0.963382482528687 
2087	 0.964376628398895 
2088	 0.965290307998657 
2089	 0.966215848922729 
2090	 0.967151820659637 
2091	 0.968156576156616 
2092	 0.969078898429871 
2093	 0.970058798789978 
2094	 0.970872402191162 
2095	 0.971526682376862 
2096	 0.972175717353821 
2097	 0.972636640071869 
2098	 0.973268747329712 
2099	 0.973916828632355 
2100	 0.974486231803894 
2101	 0.975103855133057 
2102	 0.975737988948822 
2103	 0.976404070854187 
2104	 0.977075338363647 
2105	 0.977785050868988 
2106	 0.978625118732452 
2107	 0.979278087615967 
2108	 0.979819715023041 
2109	 0.980434715747833 
2110	 0.980973660945892 
2111	 0.981550991535187 
2112	 0.982124209403992 
2113	 0.982822895050049 
2114	 0.983662486076355 
2115	 0.984377086162567 
2116	 0.985020279884338 
2117	 0.985836386680603 
2118	 0.986685335636139 
2119	 0.987480282783508 
2120	 0.988325655460358 
2121	 0.989457666873932 
2122	 0.990191638469696 
2123	 0.990685641765594 
2124	 0.991225063800812 
2125	 0.991630971431732 
2126	 0.992057621479034 
2127	 0.99249392747879 
2128	 0.992857396602631 
2129	 0.993056356906891 
2130	 0.993395507335663 
2131	 0.993708491325378 
2132	 0.994131922721863 
2133	 0.994663000106812 
2134	 0.9952751994133 
2135	 0.996031284332275 
2136	 0.996635317802429 
2137	 0.997146666049957 
2138	 0.997640311717987 
2139	 0.998016774654388 
2140	 0.998208999633789 
2141	 0.998456180095673 
2142	 0.998697757720947 
2143	 0.998862028121948 
2144	 0.998981177806854 
2145	 0.999004125595093 
2146	 0.998895645141602 
2147	 0.998819231987 
2148	 0.99858683347702 
2149	 0.998569786548615 
2150	 0.998676955699921 
2151	 0.99878066778183 
2152	 0.999017953872681 
2153	 0.999186217784882 
2154	 0.999634444713593 
2155	 0.99979829788208 
2156	 0.999885976314545 
2157	 1 
2158	 1 
2159	 0.999669969081879 
2160	 0.999654054641724 
2161	 0.999760448932648 
2162	 0.999767482280731 
2163	 0.999886214733124 
2164	 0.999774932861328 
2165	 0.999560952186584 
2166	 0.999228894710541 
2167	 0.998693406581879 
2168	 0.998188674449921 
2169	 0.997435390949249 
2170	 0.996929466724396 
2171	 0.996297717094421 
2172	 0.996124088764191 
2173	 0.996238172054291 
2174	 0.996690213680267 
2175	 0.99732768535614 
2176	 0.997894823551178 
2177	 0.998299896717072 
2178	 0.99867182970047 
2179	 0.998687922954559 
2180	 0.998426377773285 
2181	 0.99826192855835 
2182	 0.997729122638702 
2183	 0.99761027097702 
2184	 0.997801303863525 
2185	 0.997793614864349 
2186	 0.997733354568481 
2187	 0.997829616069794 
2188	 0.998207211494446 
2189	 0.998068511486053 
2190	 0.997703671455383 
2191	 0.997458159923553 
2192	 0.99684339761734 
2193	 0.996348261833191 
2194	 0.996122777462006 
2195	 0.995779156684875 
2196	 0.995213508605957 
2197	 0.994545698165894 
2198	 0.994500160217285 
2199	 0.994698822498322 
2200	 0.994954645633698 
2201	 0.99564254283905 
2202	 0.996063113212585 
2203	 0.996430933475494 
2204	 0.996832609176636 
2205	 0.997393310070038 
2206	 0.997570514678955 
2207	 0.997409999370575 
2208	 0.997580468654633 
2209	 0.997771859169006 
2210	 0.997840464115143 
2211	 0.998123347759247 
2212	 0.99820739030838 
2213	 0.997891962528229 
2214	 0.997733891010284 
2215	 0.997384428977966 
2216	 0.99758917093277 
2217	 0.998392701148987 
2218	 0.998739957809448 
2219	 0.999358057975769 
2220	 0.999738693237305 
2221	 1 
2222	 0.999560296535492 
2223	 0.998973071575165 
2224	 0.998836994171143 
2225	 0.998716950416565 
2226	 0.998332321643829 
2227	 0.997798621654511 
2228	 0.997391223907471 
2229	 0.996905446052551 
2230	 0.995685458183289 
2231	 0.99564391374588 
2232	 0.996515989303589 
2233	 0.99674379825592 
2234	 0.997455596923828 
2235	 0.997349441051483 
2236	 0.996296882629395 
2237	 0.996101140975952 
2238	 0.995718061923981 
2239	 0.995861887931824 
2240	 0.996591091156006 
2241	 0.997460126876831 
2242	 0.99942535161972 
2243	 1 
2244	 0.999844253063202 
2245	 1 
2246	 0.999364972114563 
2247	 0.999048709869385 
2248	 0.999571979045868 
2249	 0.999760508537292 
2250	 0.999638795852661 
2251	 0.99920266866684 
2252	 0.999348402023315 
2253	 0.99900871515274 
2254	 0.99907124042511 
2255	 0.998724639415741 
2256	 0.998557209968567 
2257	 0.99852728843689 
2258	 0.998453795909882 
2259	 0.998462438583374 
2260	 0.998407185077667 
2261	 0.998132288455963 
2262	 0.998282730579376 
2263	 0.998665392398834 
2264	 0.998984277248383 
2265	 0.999933838844299 
2266	 1 
2267	 0.999322831630707 
2268	 0.999086797237396 
2269	 0.998541653156281 
2270	 0.998225748538971 
2271	 0.998674750328064 
2272	 0.998153626918793 
2273	 0.996708154678345 
2274	 0.99612820148468 
2275	 0.995223879814148 
2276	 0.9949551820755 
2277	 0.995818138122559 
2278	 0.99633777141571 
2279	 0.997303307056427 
2280	 0.997369825839996 
2281	 0.996696174144745 
2282	 0.996254682540894 
2283	 0.995018362998962 
2284	 0.994615972042084 
2285	 0.994772017002106 
2286	 0.994487226009369 
2287	 0.993672549724579 
2288	 0.992262959480286 
2289	 0.990460515022278 
2290	 0.990131437778473 
2291	 0.990112066268921 
2292	 0.990293979644775 
2293	 0.990703999996185 
2294	 0.989478349685669 
2295	 0.988925814628601 
2296	 0.988191306591034 
2297	 0.987587690353394 
2298	 0.987456023693085 
2299	 0.987070500850677 
2300	 0.986407041549683 
2301	 0.985978901386261 
2302	 0.985421478748322 
2303	 0.98529988527298 
2304	 0.985428333282471 
2305	 0.985549807548523 
2306	 0.986250638961792 
2307	 0.986520648002625 
2308	 0.986604928970337 
2309	 0.9863361120224 
2310	 0.985619366168976 
2311	 0.985421597957611 
2312	 0.985611855983734 
2313	 0.984960377216339 
2314	 0.983707845211029 
2315	 0.983198463916779 
2316	 0.982057631015778 
2317	 0.98164701461792 
2318	 0.983117282390594 
2319	 0.983233392238617 
2320	 0.982610940933228 
2321	 0.981967806816101 
2322	 0.980507493019104 
2323	 0.979670703411102 
2324	 0.979219615459442 
2325	 0.978553771972656 
2326	 0.978222012519836 
2327	 0.977741360664368 
2328	 0.976953983306885 
2329	 0.975980341434479 
2330	 0.975230753421783 
2331	 0.97383040189743 
2332	 0.971685111522675 
2333	 0.969780683517456 
2334	 0.969039976596832 
2335	 0.967665910720825 
2336	 0.966791093349457 
2337	 0.965996086597443 
2338	 0.964156091213226 
2339	 0.963547587394714 
2340	 0.963255703449249 
2341	 0.963491916656494 
2342	 0.963721692562103 
2343	 0.96375435590744 
2344	 0.963279128074646 
2345	 0.962415099143982 
2346	 0.963297128677368 
2347	 0.963964998722076 
2348	 0.963301479816437 
2349	 0.96243143081665 
2350	 0.961755633354187 
2351	 0.960892915725708 
2352	 0.960599184036255 
2353	 0.962802410125732 
2354	 0.965230345726013 
2355	 0.965965092182159 
2356	 0.967451393604279 
2357	 0.970498919487 
2358	 0.972845911979675 
2359	 0.97523558139801 
2360	 0.978968501091003 
2361	 0.981177747249603 
2362	 0.982005596160889 
2363	 0.982535541057587 
2364	 0.982711791992188 
2365	 0.984604120254517 
2366	 0.98907607793808 
2367	 0.992554545402527 
2368	 0.99379962682724 
2369	 0.993276119232178 
2370	 0.988782405853271 
2371	 0.986115276813507 
2372	 0.986634194850922 
2373	 0.98731791973114 
2374	 0.98901242017746 
2375	 0.989146113395691 
2376	 0.990756630897522 
2377	 0.992587327957153 
2378	 0.991436183452606 
2379	 0.993634879589081 
2380	 0.994154453277588 
2381	 0.990563631057739 
2382	 0.98881071805954 
2383	 0.987604558467865 
2384	 0.986183166503906 
2385	 0.984493970870972 
2386	 0.983872652053833 
2387	 0.984429657459259 
2388	 0.984857439994812 
2389	 0.98470801115036 
2390	 0.987171769142151 
2391	 0.99256294965744 
2392	 0.995181143283844 
2393	 0.999019026756287 
2394	 0.999999940395355 
2395	 0.996922314167023 
2396	 0.994332909584045 
2397	 0.990131020545959 
2398	 0.988083183765411 
2399	 0.986057281494141 
2400	 0.985782504081726 
2401	 0.988917768001556 
2402	 0.989261567592621 
2403	 0.991079986095428 
2404	 0.992687523365021 
2405	 0.990046262741089 
2406	 0.988077223300934 
2407	 0.98487776517868 
2408	 0.979941248893738 
2409	 0.979408919811249 
2410	 0.979860842227936 
2411	 0.975538730621338 
2412	 0.976070821285248 
2413	 0.97614848613739 
2414	 0.973826169967651 
2415	 0.976774632930756 
2416	 0.976564824581146 
2417	 0.97859126329422 
2418	 0.980642437934875 
2419	 0.97645902633667 
2420	 0.974340975284576 
2421	 0.970556497573853 
2422	 0.969213485717773 
2423	 0.975964605808258 
2424	 0.982289493083954 
2425	 0.986586570739746 
2426	 0.990469217300415 
2427	 0.991772353649139 
2428	 0.992829382419586 
2429	 0.9936643242836 
2430	 0.984906136989594 
2431	 0.973377168178558 
2432	 0.968678772449493 
2433	 0.960071980953217 
2434	 0.960013747215271 
2435	 0.969386875629425 
2436	 0.964881598949432 
2437	 0.966081917285919 
2438	 0.973677575588226 
2439	 0.977069079875946 
2440	 0.987239956855774 
2441	 0.993900656700134 
2442	 0.995542705059052 
2443	 0.991940498352051 
2444	 0.980603694915771 
2445	 0.972794473171234 
2446	 0.975910902023315 
2447	 0.978799521923065 
2448	 0.980475962162018 
2449	 0.989041745662689 
2450	 0.987717092037201 
2451	 0.976252496242523 
2452	 0.973289549350739 
2453	 0.970058739185333 
2454	 0.968475222587585 
2455	 0.978978335857391 
2456	 0.989009022712708 
2457	 0.990672826766968 
2458	 0.979730606079102 
2459	 0.96983003616333 
2460	 0.973444283008575 
2461	 0.978289127349854 
2462	 0.984108090400696 
2463	 0.992789089679718 
2464	 0.989531099796295 
2465	 0.989875614643097 
2466	 0.987403392791748 
2467	 0.969426333904266 
2468	 0.958165168762207 
2469	 0.943319439888 
2470	 0.949142217636108 
2471	 0.967918455600739 
2472	 0.971322059631348 
2473	 0.968771398067474 
2474	 0.945787966251373 
2475	 0.927486479282379 
2476	 0.927524030208588 
2477	 0.931655883789063 
2478	 0.944672107696533 
2479	 0.953200697898865 
2480	 0.931793808937073 
2481	 0.934090077877045 
2482	 0.961563050746918 
2483	 0.990334689617157 
2484	 1 
2485	 0.98953777551651 
2486	 0.987027764320374 
2487	 0.975847601890564 
2488	 0.965843200683594 
2489	 0.994981169700623 
2490	 0.979357779026031 
2491	 0.9412602186203 
2492	 0.93982195854187 
2493	 0.931786954402924 
2494	 0.929553389549255 
2495	 0.951188981533051 
2496	 0.973935067653656 
2497	 0.978221893310547 
2498	 0.973917603492737 
2499	 0.994818031787872 
2500	 1 
