Wavelength	A00134.asd
350	 0.528321731007001 
351	 0.540375362730867 
352	 0.538426110627253 
353	 0.515675046584591 
354	 0.504776503589412 
355	 0.499605847180908 
356	 0.502683687925729 
357	 0.510610556001526 
358	 0.501380856157498 
359	 0.497449347742953 
360	 0.496085837644248 
361	 0.486043608023077 
362	 0.478233863567125 
363	 0.479496758735092 
364	 0.485933955439705 
365	 0.481538438572317 
366	 0.483001472564799 
367	 0.487803045680506 
368	 0.491043312277281 
369	 0.494950331172489 
370	 0.490117843787126 
371	 0.484011149872353 
372	 0.489296586027432 
373	 0.488765856362341 
374	 0.486431683045815 
375	 0.486145117770044 
376	 0.48863026826789 
377	 0.491743023496021 
378	 0.495041691922075 
379	 0.498300065587857 
380	 0.500044060266492 
381	 0.504555075279332 
382	 0.509369352568125 
383	 0.509381579721078 
384	 0.51105242909875 
385	 0.51082258702403 
386	 0.509686385582504 
387	 0.516590210372882 
388	 0.520598046450786 
389	 0.522170881938571 
390	 0.524191782395582 
391	 0.526831413223304 
392	 0.529492851908335 
393	 0.53112740970258 
394	 0.531033228177977 
395	 0.53526428171708 
396	 0.539648986512263 
397	 0.541506124262784 
398	 0.54265672978232 
399	 0.544010477745039 
400	 0.545631597555958 
401	 0.547364477278578 
402	 0.549585606373529 
403	 0.55171096458783 
404	 0.553407424132749 
405	 0.554680467555949 
406	 0.557197149900177 
407	 0.561185269168872 
408	 0.566218607426872 
409	 0.571268670342082 
410	 0.575950543089926 
411	 0.580201413000641 
412	 0.584258108340121 
413	 0.589017452637731 
414	 0.594556573870831 
415	 0.600081628770968 
416	 0.604237358009457 
417	 0.608141871181611 
418	 0.611404572286764 
419	 0.614001319829176 
420	 0.617462846177014 
421	 0.620864635661328 
422	 0.624148145285542 
423	 0.627374343248764 
424	 0.628889932375419 
425	 0.630222211908409 
426	 0.63232328268466 
427	 0.635176926898987 
428	 0.637526811738381 
429	 0.639506135518823 
430	 0.641339082875574 
431	 0.642343754748171 
432	 0.64389537331592 
433	 0.645606556734683 
434	 0.646278481511681 
435	 0.647120901565133 
436	 0.647820462848103 
437	 0.648187914077638 
438	 0.6484881342907 
439	 0.648635035962944 
440	 0.648660209606568 
441	 0.648525122187861 
442	 0.647764038794019 
443	 0.646880493701309 
444	 0.646088864855512 
445	 0.645330481693161 
446	 0.644415907007995 
447	 0.643340143373274 
448	 0.642222949507942 
449	 0.641425604060401 
450	 0.640399923945675 
451	 0.639024523162671 
452	 0.637556131228573 
453	 0.637334379994678 
454	 0.637089478629303 
455	 0.636318857679662 
456	 0.635578130248014 
457	 0.635293823083668 
458	 0.634837315726727 
459	 0.633694698530784 
460	 0.632376814184201 
461	 0.63135334604552 
462	 0.62992134835483 
463	 0.627083921141666 
464	 0.625552100715108 
465	 0.623413880153006 
466	 0.619883109904419 
467	 0.616667355973255 
468	 0.613197549033715 
469	 0.609053732913185 
470	 0.604124203125552 
471	 0.599513918939812 
472	 0.594125904032521 
473	 0.58785194430155 
474	 0.581430559039067 
475	 0.575216590752582 
476	 0.569001400990624 
477	 0.563054225246912 
478	 0.558923084568872 
479	 0.556520630389528 
480	 0.556039087048327 
481	 0.557586016455823 
482	 0.560609682168412 
483	 0.564868657135317 
484	 0.56995225832725 
485	 0.575267037988431 
486	 0.580215836365349 
487	 0.584591750742066 
488	 0.588215355709124 
489	 0.590652820079161 
490	 0.591570713734724 
491	 0.591141011520108 
492	 0.589821009857346 
493	 0.587512184692718 
494	 0.583989827876796 
495	 0.579155500687783 
496	 0.573096781706915 
497	 0.566101120338955 
498	 0.558327428744495 
499	 0.549779085579721 
500	 0.539943248109326 
501	 0.529556409715834 
502	 0.51892070938102 
503	 0.507885787085741 
504	 0.496514572962474 
505	 0.484851034358496 
506	 0.472991180851571 
507	 0.46113061358262 
508	 0.449386195722139 
509	 0.437636007225751 
510	 0.425708832399294 
511	 0.413497646325485 
512	 0.401306669509794 
513	 0.389313014529186 
514	 0.377338580109928 
515	 0.365728980557653 
516	 0.354456457326894 
517	 0.34337470311326 
518	 0.332184366414976 
519	 0.321304697916714 
520	 0.310927290298794 
521	 0.301075600168347 
522	 0.29165451533302 
523	 0.282532466744003 
524	 0.273665825623143 
525	 0.265064987709381 
526	 0.257039258643693 
527	 0.249289298449616 
528	 0.241425669217923 
529	 0.233976910982523 
530	 0.226832705771285 
531	 0.219874933269043 
532	 0.213052640954297 
533	 0.206527533288982 
534	 0.200263335263701 
535	 0.194223628631813 
536	 0.188478232197369 
537	 0.182925197259242 
538	 0.177646417401673 
539	 0.172828340788191 
540	 0.168517968202072 
541	 0.16477310242173 
542	 0.161596144116028 
543	 0.158917132785789 
544	 0.156781685302976 
545	 0.155013360388858 
546	 0.153457408626368 
547	 0.152410948773232 
548	 0.151436204656859 
549	 0.150586804545701 
550	 0.150348054364563 
551	 0.150226728553067 
552	 0.150044063061893 
553	 0.149644606710898 
554	 0.148813034527972 
555	 0.147290742470707 
556	 0.145164246994578 
557	 0.142700853754021 
558	 0.140117222775189 
559	 0.137785072895267 
560	 0.135741009767167 
561	 0.133592901069902 
562	 0.131616507691421 
563	 0.129828237104806 
564	 0.128164887535745 
565	 0.126560199361095 
566	 0.125010503240131 
567	 0.123512740475338 
568	 0.122067651314957 
569	 0.120635538453942 
570	 0.119262861519809 
571	 0.118019420070209 
572	 0.117038568638795 
573	 0.116054288708251 
574	 0.115011547509163 
575	 0.113979717371226 
576	 0.113101078577048 
577	 0.112401838220789 
578	 0.111801572131575 
579	 0.111167443008534 
580	 0.110626229415643 
581	 0.110142469527738 
582	 0.109715353727875 
583	 0.10957886334852 
584	 0.109400535033927 
585	 0.109229772588362 
586	 0.109306266965747 
587	 0.10925867246996 
588	 0.109220806804248 
589	 0.109299497463551 
590	 0.109444463606542 
591	 0.109641571342647 
592	 0.109860264843359 
593	 0.110075442589999 
594	 0.110286673688815 
595	 0.110571333377765 
596	 0.110889230554094 
597	 0.111111230706645 
598	 0.111451935830337 
599	 0.111952575747498 
600	 0.11256416377797 
601	 0.113102093740977 
602	 0.113763359850508 
603	 0.114505213816966 
604	 0.115201397724118 
605	 0.115950578674484 
606	 0.116672261376317 
607	 0.117331190775525 
608	 0.117963647527508 
609	 0.118620131476497 
610	 0.119153474328847 
611	 0.119439178764345 
612	 0.119593449474791 
613	 0.119594686364955 
614	 0.119410534858275 
615	 0.119024777533088 
616	 0.118637663222604 
617	 0.118223724050701 
618	 0.117761720059537 
619	 0.117287782641262 
620	 0.116880019129807 
621	 0.11655634512471 
622	 0.116319083886603 
623	 0.116209249258768 
624	 0.116308092980211 
625	 0.11660447894457 
626	 0.117000088310569 
627	 0.117460630229402 
628	 0.118133978326089 
629	 0.119081473186458 
630	 0.120073746231041 
631	 0.121097598349093 
632	 0.122280404146199 
633	 0.123765502254943 
634	 0.12524816179394 
635	 0.126961550494598 
636	 0.128969849078 
637	 0.131046254453607 
638	 0.133420165199467 
639	 0.136131947800685 
640	 0.139198352923874 
641	 0.142664430900765 
642	 0.146418035256404 
643	 0.15048533089724 
644	 0.154989884297521 
645	 0.159890863269944 
646	 0.165172628521128 
647	 0.170864949161566 
648	 0.177103743055224 
649	 0.18376680763988 
650	 0.190768769546702 
651	 0.198077487214543 
652	 0.205713532071244 
653	 0.21378394181874 
654	 0.222360506523235 
655	 0.231437447044988 
656	 0.240854268389374 
657	 0.250828788484213 
658	 0.261357221906499 
659	 0.271965674864671 
660	 0.283040067590361 
661	 0.294601039803402 
662	 0.306554044947988 
663	 0.318898870426313 
664	 0.331572260317094 
665	 0.344593108975518 
666	 0.358050900753799 
667	 0.371649604448549 
668	 0.385575664736155 
669	 0.399840525066641 
670	 0.413800060736051 
671	 0.428279768847046 
672	 0.443186567724408 
673	 0.458050146781789 
674	 0.472523564576526 
675	 0.487335492789508 
676	 0.502596395627464 
677	 0.517298834265284 
678	 0.532347948813241 
679	 0.547476010845931 
680	 0.562325767999612 
681	 0.577084413388265 
682	 0.592060304906468 
683	 0.607013547677131 
684	 0.621555365704313 
685	 0.636065195375273 
686	 0.650652432837963 
687	 0.665304625508982 
688	 0.679863141354584 
689	 0.693077170326631 
690	 0.705909235115251 
691	 0.719260279773813 
692	 0.731426595721246 
693	 0.743556938363599 
694	 0.755857069691483 
695	 0.767852934977297 
696	 0.778624416719568 
697	 0.788984950047606 
698	 0.799161958245949 
699	 0.808038550225883 
700	 0.8164546073557 
701	 0.824695264742118 
702	 0.83293031655569 
703	 0.841479207949824 
704	 0.849033645976705 
705	 0.855618260522959 
706	 0.862057871942993 
707	 0.867565643895979 
708	 0.872623404208156 
709	 0.877686965750691 
710	 0.882861290476563 
711	 0.887879215184214 
712	 0.892400910302472 
713	 0.896259254038506 
714	 0.899953482096347 
715	 0.903585982496579 
716	 0.906725854152094 
717	 0.908794212441895 
718	 0.912024272343033 
719	 0.915013564753813 
720	 0.917312856429003 
721	 0.921020581688532 
722	 0.923592223079382 
723	 0.925096450004817 
724	 0.926456679813342 
725	 0.928476755377138 
726	 0.930181513524472 
727	 0.931644433082183 
728	 0.933623782893171 
729	 0.935473541998579 
730	 0.937424291761783 
731	 0.939214704495563 
732	 0.939518979980212 
733	 0.940752426368232 
734	 0.942429656392078 
735	 0.94349284422073 
736	 0.944185824330594 
737	 0.94548063300102 
738	 0.946994372916061 
739	 0.947688323065829 
740	 0.949691828646429 
741	 0.950748122963819 
742	 0.950317931910373 
743	 0.951181289486104 
744	 0.952280660876301 
745	 0.953290039779453 
746	 0.954173090086597 
747	 0.955442943291993 
748	 0.955773056247631 
749	 0.956020161805529 
750	 0.957831960965797 
751	 0.958325422591323 
752	 0.958810373268167 
753	 0.959743655371051 
754	 0.959956674602597 
755	 0.960485684736164 
756	 0.960957223281251 
757	 0.961166098351124 
758	 0.962421868845478 
759	 0.963252322143669 
760	 0.963425095024822 
761	 0.963517169956131 
762	 0.964969034129276 
763	 0.965889083410491 
764	 0.965921170058277 
765	 0.966548331799227 
766	 0.966438427321372 
767	 0.966559719157311 
768	 0.967468390636879 
769	 0.967831781961611 
770	 0.967679888886461 
771	 0.967767618034661 
772	 0.968733958351709 
773	 0.96902514747521 
774	 0.969763494954769 
775	 0.970768898549761 
776	 0.970851545904635 
777	 0.971026719857844 
778	 0.97087948465832 
779	 0.970773551122891 
780	 0.972767716026315 
781	 0.972849582215331 
782	 0.972408931377427 
783	 0.973250884224587 
784	 0.97265826842291 
785	 0.97307073239634 
786	 0.973973012485137 
787	 0.973400688207045 
788	 0.972369283980884 
789	 0.972667215756037 
790	 0.974148469547316 
791	 0.974400366946137 
792	 0.974448805033411 
793	 0.975049680840736 
794	 0.976127947952802 
795	 0.975619128229511 
796	 0.975603688781018 
797	 0.976116769927694 
798	 0.976399389493599 
799	 0.975820411332911 
800	 0.975575317511227 
801	 0.975796087321937 
802	 0.975824817588551 
803	 0.976741465916026 
804	 0.976983262353525 
805	 0.976401048663178 
806	 0.977427732752117 
807	 0.977692562985579 
808	 0.977566982130055 
809	 0.977664742845696 
810	 0.977093398599952 
811	 0.977141908511726 
812	 0.977610100095923 
813	 0.977715892822535 
814	 0.977591340330448 
815	 0.978242710705518 
816	 0.979262063772713 
817	 0.979081446909342 
818	 0.978378467017505 
819	 0.978114058037293 
820	 0.978291479240396 
821	 0.977286811414412 
822	 0.977173592842201 
823	 0.977896261719954 
824	 0.978755898966946 
825	 0.979070756109675 
826	 0.97908664016969 
827	 0.979005832529546 
828	 0.97897755589249 
829	 0.978877727960539 
830	 0.978872006290621 
831	 0.979001759032178 
832	 0.97914258123473 
833	 0.978733443349378 
834	 0.978454999308594 
835	 0.978507796743361 
836	 0.978077643714072 
837	 0.979326701735857 
838	 0.979993002752038 
839	 0.978644262320453 
840	 0.979436086175738 
841	 0.979521403304246 
842	 0.978833370524008 
843	 0.97850448860431 
844	 0.979763568351894 
845	 0.979527140687729 
846	 0.978292436330609 
847	 0.978895155927055 
848	 0.978434167702695 
849	 0.97868833935558 
850	 0.97973996826782 
851	 0.979048012929843 
852	 0.978337209393475 
853	 0.978583194652866 
854	 0.979683106814654 
855	 0.979652687321642 
856	 0.979273123138073 
857	 0.978874477146648 
858	 0.978696736095536 
859	 0.979094742751127 
860	 0.979127105006286 
861	 0.97919156881807 
862	 0.979947575092835 
863	 0.979069881463016 
864	 0.978633089506421 
865	 0.978897729696053 
866	 0.978476383253919 
867	 0.978925882193605 
868	 0.979271830199156 
869	 0.978903171108258 
870	 0.978218816869606 
871	 0.977891552247805 
872	 0.978194943624042 
873	 0.978891734705241 
874	 0.978923076277985 
875	 0.97918506845965 
876	 0.97897351069266 
877	 0.977928047311644 
878	 0.978695101806101 
879	 0.978702314213913 
880	 0.978064770142756 
881	 0.978079668673775 
882	 0.978423210396582 
883	 0.978562309250475 
884	 0.978337317826168 
885	 0.977942290882268 
886	 0.977705063671969 
887	 0.977147310993224 
888	 0.976785980573901 
889	 0.978108920503235 
890	 0.977933162208755 
891	 0.977254344777793 
892	 0.977073546271578 
893	 0.977021821228867 
894	 0.976450842441577 
895	 0.976272346393745 
896	 0.977041642819259 
897	 0.977486084659358 
898	 0.976499790103887 
899	 0.975512416480622 
900	 0.975960011602569 
901	 0.975505210107371 
902	 0.975885568137402 
903	 0.976297488200703 
904	 0.975243583441238 
905	 0.974876626824727 
906	 0.974563669828465 
907	 0.974226101807954 
908	 0.974236810939203 
909	 0.974463822584916 
910	 0.974114785869855 
911	 0.973397258826575 
912	 0.973489270937212 
913	 0.974283934288781 
914	 0.973513115287427 
915	 0.971365871496266 
916	 0.971541973668777 
917	 0.971341092460459 
918	 0.970459272370586 
919	 0.969314996473569 
920	 0.968691590292357 
921	 0.969101807009296 
922	 0.969479854931517 
923	 0.968963101749853 
924	 0.968259271380332 
925	 0.968697631951575 
926	 0.968867237084373 
927	 0.967447313320995 
928	 0.966666147446189 
929	 0.96605809687348 
930	 0.965588081140976 
931	 0.965222401081603 
932	 0.964275327345229 
933	 0.963575971782879 
934	 0.963347035777317 
935	 0.963213184436916 
936	 0.961855672031529 
937	 0.960714317019267 
938	 0.960594536841304 
939	 0.961265750031729 
940	 0.959960608503171 
941	 0.95865848039952 
942	 0.95810519139351 
943	 0.957588187905016 
944	 0.957152089117507 
945	 0.956058661672041 
946	 0.954352038230887 
947	 0.953030940020729 
948	 0.953624936571737 
949	 0.953433456052794 
950	 0.951789594685478 
951	 0.951223496186367 
952	 0.950360702299381 
953	 0.949139272901785 
954	 0.947715757334425 
955	 0.946236452551306 
956	 0.944578230139163 
957	 0.943121945253223 
958	 0.942158793289403 
959	 0.941640836711741 
960	 0.940313443997305 
961	 0.938613645649192 
962	 0.937327619627294 
963	 0.937013428226806 
964	 0.935534321741867 
965	 0.934183987943547 
966	 0.933939775510486 
967	 0.93301977775308 
968	 0.931010384915773 
969	 0.929089640393188 
970	 0.928094192419192 
971	 0.926747707962185 
972	 0.924225806542076 
973	 0.922079717907139 
974	 0.921417582530681 
975	 0.920025066456097 
976	 0.91820335450583 
977	 0.915988663451328 
978	 0.913783661506145 
979	 0.913130571581078 
980	 0.911849644537297 
981	 0.910364967752741 
982	 0.909277002013543 
983	 0.906636105507575 
984	 0.904898147986489 
985	 0.903530389930414 
986	 0.901246705714536 
987	 0.898003206348618 
988	 0.8955983256231 
989	 0.893691536481671 
990	 0.891596004949581 
991	 0.890512811882021 
992	 0.888609926476969 
993	 0.886436845840628 
994	 0.884893835487096 
995	 0.882928004679915 
996	 0.880573000041701 
997	 0.878030964643204 
998	 0.875524716477155 
999	 0.873090948698888 
1000	 0.870457230247101 
1001	 0.867188970014484 
1002	 0.86482184388546 
1003	 0.86231254372887 
1004	 0.859927390749579 
1005	 0.857636407063811 
1006	 0.855235205810132 
1007	 0.852945325065363 
1008	 0.850361443272429 
1009	 0.84757192049531 
1010	 0.844900738011727 
1011	 0.842046918288222 
1012	 0.839272839885411 
1013	 0.836699883253788 
1014	 0.833950625826797 
1015	 0.831081137476756 
1016	 0.828264543607004 
1017	 0.825317078057255 
1018	 0.822387292954039 
1019	 0.819366477837168 
1020	 0.816369063273299 
1021	 0.813440369793442 
1022	 0.810610040568268 
1023	 0.807558767400426 
1024	 0.804464882561544 
1025	 0.801356609953118 
1026	 0.798113944140047 
1027	 0.794936543245219 
1028	 0.791823912330614 
1029	 0.788604949117942 
1030	 0.78545835041533 
1031	 0.782099044426755 
1032	 0.778850773373663 
1033	 0.775708778203788 
1034	 0.772304339672307 
1035	 0.769062111811661 
1036	 0.765741014257342 
1037	 0.762262525837681 
1038	 0.758955035065936 
1039	 0.75572769411979 
1040	 0.752418929221581 
1041	 0.749267212687806 
1042	 0.745874510287562 
1043	 0.742225465909978 
1044	 0.738842068822167 
1045	 0.735372903849025 
1046	 0.731828450931419 
1047	 0.728644091017544 
1048	 0.725308477419588 
1049	 0.721952620369975 
1050	 0.718671247945078 
1051	 0.715049978723553 
1052	 0.711510890273921 
1053	 0.708013565975821 
1054	 0.704424654469329 
1055	 0.700894213838744 
1056	 0.697501983896592 
1057	 0.694013342170415 
1058	 0.690493826857687 
1059	 0.686986611579856 
1060	 0.683278339822942 
1061	 0.679740816196589 
1062	 0.67607912484232 
1063	 0.672328741840827 
1064	 0.668989046240418 
1065	 0.665454908729082 
1066	 0.661908958866059 
1067	 0.658473676275816 
1068	 0.654657914912013 
1069	 0.650958597032386 
1070	 0.647180777409835 
1071	 0.643316611517946 
1072	 0.639365615130836 
1073	 0.635701600145588 
1074	 0.631857946945152 
1075	 0.628092456138444 
1076	 0.624408142256307 
1077	 0.620484040096814 
1078	 0.616746982915496 
1079	 0.612890940001145 
1080	 0.608937407913931 
1081	 0.605274218606281 
1082	 0.601439059137519 
1083	 0.597653746811423 
1084	 0.593943307910397 
1085	 0.589977567273851 
1086	 0.586089499869286 
1087	 0.582229161609266 
1088	 0.578232845158824 
1089	 0.574203289098767 
1090	 0.570433289390598 
1091	 0.566493261211272 
1092	 0.56269526065518 
1093	 0.558970158411716 
1094	 0.554941599585289 
1095	 0.551136975118442 
1096	 0.547184102168991 
1097	 0.543029776136649 
1098	 0.539206457610299 
1099	 0.535243441656102 
1100	 0.531342515765954 
1101	 0.527589294299334 
1102	 0.523555980768207 
1103	 0.519640315046915 
1104	 0.515747581501831 
1105	 0.511749134364494 
1106	 0.507725650395942 
1107	 0.504076331342499 
1108	 0.500269952660797 
1109	 0.4965726275506 
1110	 0.492994295590649 
1111	 0.489116979670699 
1112	 0.485473120851817 
1113	 0.481786311205366 
1114	 0.478043268037175 
1115	 0.474719462462936 
1116	 0.471278220111982 
1117	 0.467871179409006 
1118	 0.464504568145584 
1119	 0.46112657893519 
1120	 0.457802066603327 
1121	 0.454537804306119 
1122	 0.451267968723934 
1123	 0.448023186279613 
1124	 0.445071220140467 
1125	 0.442019263850019 
1126	 0.43908263221088 
1127	 0.436194080498485 
1128	 0.433101544535772 
1129	 0.430201417978086 
1130	 0.427197259232056 
1131	 0.424126306652642 
1132	 0.421359879632714 
1133	 0.418465950607984 
1134	 0.415616949872885 
1135	 0.41279339475843 
1136	 0.409979384510391 
1137	 0.4071719221275 
1138	 0.404374072329928 
1139	 0.401609194840517 
1140	 0.398801975567026 
1141	 0.396292622335548 
1142	 0.393697532994216 
1143	 0.391164582706696 
1144	 0.388726047170463 
1145	 0.386062058105114 
1146	 0.383460688306906 
1147	 0.38077509679224 
1148	 0.378013334256878 
1149	 0.375480559906825 
1150	 0.372874091442586 
1151	 0.370309187729453 
1152	 0.367743925792876 
1153	 0.365167828888838 
1154	 0.362595596000297 
1155	 0.360047324821244 
1156	 0.357468941066149 
1157	 0.354907872033234 
1158	 0.352380966663858 
1159	 0.3498328241858 
1160	 0.347316061138719 
1161	 0.344827817520725 
1162	 0.342146420095021 
1163	 0.339583509329806 
1164	 0.336960304254105 
1165	 0.334270670842454 
1166	 0.331808063891536 
1167	 0.329214701328903 
1168	 0.326622326286682 
1169	 0.324018139116328 
1170	 0.321394230451991 
1171	 0.318764596585191 
1172	 0.316114511092866 
1173	 0.313459432821085 
1174	 0.310815455320866 
1175	 0.308232108734196 
1176	 0.305665312281338 
1177	 0.3031012480154 
1178	 0.300643680013945 
1179	 0.297988932947674 
1180	 0.295463359933098 
1181	 0.29288903101824 
1182	 0.290258814947438 
1183	 0.287872355383422 
1184	 0.285363788093707 
1185	 0.282862750072412 
1186	 0.280354061576011 
1187	 0.277819058241271 
1188	 0.275314178331791 
1189	 0.272812757254503 
1190	 0.270312954538228 
1191	 0.267841638729095 
1192	 0.265423873895517 
1193	 0.263010703074183 
1194	 0.260615036102191 
1195	 0.258235895872977 
1196	 0.255883182005985 
1197	 0.253558344107461 
1198	 0.251218560634878 
1199	 0.248854137149822 
1200	 0.246724356027928 
1201	 0.244525469070575 
1202	 0.242371244835731 
1203	 0.240336826972182 
1204	 0.238146365977762 
1205	 0.23606769647962 
1206	 0.233986317030991 
1207	 0.231988686901675 
1208	 0.230055227235829 
1209	 0.228182506121831 
1210	 0.226354014548421 
1211	 0.224593222191381 
1212	 0.222866903694299 
1213	 0.221219339961924 
1214	 0.219660014366257 
1215	 0.21813381369042 
1216	 0.216648355665335 
1217	 0.215270421813553 
1218	 0.213940528896796 
1219	 0.212713189753826 
1220	 0.211608974748626 
1221	 0.210470736677413 
1222	 0.209444593940498 
1223	 0.208452160347829 
1224	 0.207556165063523 
1225	 0.206755872758767 
1226	 0.206002027603756 
1227	 0.205306040599247 
1228	 0.204688239745609 
1229	 0.204140160580478 
1230	 0.203640347453488 
1231	 0.203235901063672 
1232	 0.202837188891823 
1233	 0.202464024803733 
1234	 0.202150670387342 
1235	 0.201888174247071 
1236	 0.201655320184031 
1237	 0.201500734591926 
1238	 0.201330023531314 
1239	 0.201166653697589 
1240	 0.201026961610365 
1241	 0.200891343667671 
1242	 0.200778697836065 
1243	 0.200668984748836 
1244	 0.200573676656541 
1245	 0.200489576634037 
1246	 0.200418232992361 
1247	 0.20034102621602 
1248	 0.200273662968388 
1249	 0.200214100743038 
1250	 0.200155377167173 
1251	 0.200098249928272 
1252	 0.200056606988988 
1253	 0.200007458636248 
1254	 0.199939770280448 
1255	 0.199894197917656 
1256	 0.199855329762373 
1257	 0.199831816810828 
1258	 0.199836198507878 
1259	 0.199825791581285 
1260	 0.199818164943895 
1261	 0.199813104623903 
1262	 0.199804682610867 
1263	 0.199792978420881 
1264	 0.199783511681257 
1265	 0.199797757578577 
1266	 0.19975326846385 
1267	 0.199688861248406 
1268	 0.19960169520076 
1269	 0.199485855376944 
1270	 0.199343448095184 
1271	 0.199177994853058 
1272	 0.198993437868269 
1273	 0.198758988889137 
1274	 0.19854501160271 
1275	 0.198347049742799 
1276	 0.198108675051484 
1277	 0.197860946303789 
1278	 0.197587731420408 
1279	 0.197287971858149 
1280	 0.196960750139293 
1281	 0.196627611037964 
1282	 0.196247908941824 
1283	 0.195796092982735 
1284	 0.195365878826906 
1285	 0.19492833767936 
1286	 0.194474309077072 
1287	 0.194009996748991 
1288	 0.193538502478512 
1289	 0.193088979317583 
1290	 0.192623105220421 
1291	 0.192180256562963 
1292	 0.191781177292651 
1293	 0.191348177544955 
1294	 0.190876755984672 
1295	 0.190462158253407 
1296	 0.190068924065168 
1297	 0.189681220131735 
1298	 0.189318324888852 
1299	 0.188968378537616 
1300	 0.188622425401927 
1301	 0.188291242033638 
1302	 0.187962213576978 
1303	 0.187681638386168 
1304	 0.187421768090843 
1305	 0.187188348277114 
1306	 0.187013938777085 
1307	 0.186838105349312 
1308	 0.186676819952365 
1309	 0.18650792826694 
1310	 0.186389390117937 
1311	 0.18629290554552 
1312	 0.186222147159892 
1313	 0.186189062159949 
1314	 0.186157068179956 
1315	 0.186125940059476 
1316	 0.186147048280864 
1317	 0.186206308954295 
1318	 0.186263498649407 
1319	 0.186345804237314 
1320	 0.186446533171813 
1321	 0.186545046541561 
1322	 0.186677837786319 
1323	 0.186848946776721 
1324	 0.187030408253893 
1325	 0.187236793203682 
1326	 0.187439749982321 
1327	 0.18766910091667 
1328	 0.187882365840806 
1329	 0.18810779819184 
1330	 0.188296839079036 
1331	 0.188463844443921 
1332	 0.188624868374787 
1333	 0.188767744901599 
1334	 0.188888691345511 
1335	 0.189005707837709 
1336	 0.189119083978422 
1337	 0.189222828825193 
1338	 0.189313537360788 
1339	 0.18939157430326 
1340	 0.189472032205465 
1341	 0.189518767575818 
1342	 0.189529730187786 
1343	 0.189557890981356 
1344	 0.189591763786496 
1345	 0.189588364254036 
1346	 0.189591103386927 
1347	 0.189542658644709 
1348	 0.189426528366083 
1349	 0.189342248276351 
1350	 0.189263797175383 
1351	 0.189150018630274 
1352	 0.189026864385125 
1353	 0.188894281356225 
1354	 0.188719614084873 
1355	 0.188559096021535 
1356	 0.188415453602792 
1357	 0.188253398629338 
1358	 0.188070481797242 
1359	 0.187896062632249 
1360	 0.187739477661057 
1361	 0.187546205891179 
1362	 0.187341357577823 
1363	 0.187149015976549 
1364	 0.186923502507364 
1365	 0.186666564943543 
1366	 0.186423244579719 
1367	 0.186172599642421 
1368	 0.18592250337371 
1369	 0.185657312911284 
1370	 0.185423372237389 
1371	 0.185212912687896 
1372	 0.184973099311827 
1373	 0.184744504016774 
1374	 0.184495458007237 
1375	 0.184206821213987 
1376	 0.183938799117577 
1377	 0.183679461455918 
1378	 0.183409693578775 
1379	 0.183140566997376 
1380	 0.18286000218223 
1381	 0.182575621143702 
1382	 0.182276052272651 
1383	 0.181955549100515 
1384	 0.18164263154906 
1385	 0.181314788337769 
1386	 0.181009256875061 
1387	 0.180724823389318 
1388	 0.180437403077438 
1389	 0.180152825434428 
1390	 0.179880833590958 
1391	 0.179617305474848 
1392	 0.179355868097331 
1393	 0.179105839205455 
1394	 0.178853354702925 
1395	 0.17857641268905 
1396	 0.178271754287794 
1397	 0.178001489822621 
1398	 0.177724641031867 
1399	 0.177476350905732 
1400	 0.177261650764652 
1401	 0.177027691063528 
1402	 0.176789008652745 
1403	 0.176565702208283 
1404	 0.176331969190209 
1405	 0.176145260938282 
1406	 0.17599391016299 
1407	 0.175837447199154 
1408	 0.175696349334192 
1409	 0.175567247715404 
1410	 0.175462537749729 
1411	 0.175327043684448 
1412	 0.175200707037044 
1413	 0.175061407485322 
1414	 0.174888711622822 
1415	 0.174728001905679 
1416	 0.174562123060273 
1417	 0.174412870782644 
1418	 0.174275056583699 
1419	 0.174128389423921 
1420	 0.173988752891304 
1421	 0.17385439671577 
1422	 0.173717587471759 
1423	 0.173573997989631 
1424	 0.173447169220218 
1425	 0.173302938282754 
1426	 0.173140126683394 
1427	 0.172940359500536 
1428	 0.172723644152456 
1429	 0.172550781334261 
1430	 0.172370989481714 
1431	 0.172193602138137 
1432	 0.17203522703192 
1433	 0.171883907190994 
1434	 0.171748460252283 
1435	 0.171631997600609 
1436	 0.171517058219397 
1437	 0.171415985696392 
1438	 0.171313915484126 
1439	 0.171201765218748 
1440	 0.171125048123288 
1441	 0.171058660629777 
1442	 0.171020327072718 
1443	 0.171017436347938 
1444	 0.171015696073396 
1445	 0.171024407023599 
1446	 0.171048165397346 
1447	 0.171083452426302 
1448	 0.171135919128372 
1449	 0.17121520490748 
1450	 0.171289353580778 
1451	 0.171366004965302 
1452	 0.171458917602894 
1453	 0.171560841332128 
1454	 0.1716682382701 
1455	 0.171779082495623 
1456	 0.171914975606398 
1457	 0.172080455437143 
1458	 0.172227397987723 
1459	 0.172390623757995 
1460	 0.172545968687433 
1461	 0.17268015383848 
1462	 0.172817099733797 
1463	 0.17296957915452 
1464	 0.17310601018312 
1465	 0.173229373994284 
1466	 0.17334764722796 
1467	 0.173462431857911 
1468	 0.173576296373348 
1469	 0.173660348686271 
1470	 0.17373178736768 
1471	 0.173800355481733 
1472	 0.173849188127283 
1473	 0.173895273063489 
1474	 0.173948862326776 
1475	 0.173972984026191 
1476	 0.173979871360079 
1477	 0.173964217283624 
1478	 0.173934096811932 
1479	 0.173878629460213 
1480	 0.173802713937746 
1481	 0.173697051378481 
1482	 0.17357113890899 
1483	 0.173408990110818 
1484	 0.173220698985332 
1485	 0.172986447285985 
1486	 0.17271853422905 
1487	 0.172413269351953 
1488	 0.172059387359373 
1489	 0.171687991424387 
1490	 0.171301916053726 
1491	 0.170851385334988 
1492	 0.170357131343377 
1493	 0.169825725625228 
1494	 0.169225977947077 
1495	 0.168628623160594 
1496	 0.168021506783175 
1497	 0.167370427921261 
1498	 0.166662827802969 
1499	 0.16597820251071 
1500	 0.165269269328812 
1501	 0.164564377389391 
1502	 0.163863387255398 
1503	 0.163181160458178 
1504	 0.162471672646876 
1505	 0.161814243813877 
1506	 0.16116255838925 
1507	 0.160589324297498 
1508	 0.160068225395001 
1509	 0.159593227329276 
1510	 0.159161242142882 
1511	 0.158817606818234 
1512	 0.158507779500827 
1513	 0.158301407487453 
1514	 0.158197900843766 
1515	 0.158174443847349 
1516	 0.158218147457661 
1517	 0.158372678783948 
1518	 0.158632768607259 
1519	 0.15897625953375 
1520	 0.159429973838045 
1521	 0.159952446063755 
1522	 0.160540291946184 
1523	 0.161262843970747 
1524	 0.162059381344169 
1525	 0.162950912518434 
1526	 0.163925984011224 
1527	 0.16500365137207 
1528	 0.166125645200008 
1529	 0.16731622578748 
1530	 0.168597199172815 
1531	 0.169959885546493 
1532	 0.171368402670366 
1533	 0.172859366609431 
1534	 0.174405776166755 
1535	 0.175996255941482 
1536	 0.177655056519776 
1537	 0.179414024055843 
1538	 0.18116378976729 
1539	 0.182938549083385 
1540	 0.184774128594591 
1541	 0.186639564097327 
1542	 0.188573406748525 
1543	 0.190593062248153 
1544	 0.192589923906082 
1545	 0.194604505338326 
1546	 0.196670025090208 
1547	 0.19876368515932 
1548	 0.200871892581858 
1549	 0.20302940087121 
1550	 0.205195094403867 
1551	 0.207369986807388 
1552	 0.209549636469193 
1553	 0.211740285246818 
1554	 0.213979115758143 
1555	 0.216239183502681 
1556	 0.218505875286395 
1557	 0.220815487596775 
1558	 0.223138461037511 
1559	 0.22545729845154 
1560	 0.22779689709306 
1561	 0.23016158154587 
1562	 0.232566287596022 
1563	 0.234983710215514 
1564	 0.237427756042625 
1565	 0.239905532037898 
1566	 0.242434954516653 
1567	 0.244999679642611 
1568	 0.24757734267409 
1569	 0.250214793227568 
1570	 0.252856092557863 
1571	 0.255504549194614 
1572	 0.258155279589914 
1573	 0.260808742742904 
1574	 0.263516430367252 
1575	 0.266235439434887 
1576	 0.268988311378503 
1577	 0.271795683811533 
1578	 0.274627460024868 
1579	 0.277485919904236 
1580	 0.280341839799031 
1581	 0.283223018686211 
1582	 0.286128907723641 
1583	 0.289056156405604 
1584	 0.29197304851794 
1585	 0.29489575443482 
1586	 0.297861985435019 
1587	 0.300833835000703 
1588	 0.30380826572243 
1589	 0.30682246638557 
1590	 0.30984839999892 
1591	 0.312874712620986 
1592	 0.31590933987645 
1593	 0.318963241946956 
1594	 0.322041649410553 
1595	 0.32511947283228 
1596	 0.328199410016595 
1597	 0.331304395955677 
1598	 0.334426398773151 
1599	 0.337565649264499 
1600	 0.340696830727811 
1601	 0.343824295368838 
1602	 0.346996418473387 
1603	 0.350187428477691 
1604	 0.353352505193719 
1605	 0.356531957710973 
1606	 0.359735157344319 
1607	 0.362928365348479 
1608	 0.36614057075793 
1609	 0.369384839934657 
1610	 0.372657182166929 
1611	 0.375938451194836 
1612	 0.379210637178218 
1613	 0.382511044995053 
1614	 0.385827253640867 
1615	 0.38917106272689 
1616	 0.392485455363038 
1617	 0.395770570774235 
1618	 0.399120363473957 
1619	 0.402461349375885 
1620	 0.405806962475391 
1621	 0.409212780582612 
1622	 0.41262540204904 
1623	 0.416058357137392 
1624	 0.419471932753183 
1625	 0.42291787480422 
1626	 0.426337229510236 
1627	 0.429706290939093 
1628	 0.433051445516025 
1629	 0.436371265755083 
1630	 0.43971366459457 
1631	 0.443058054153938 
1632	 0.446401645984207 
1633	 0.449748651256631 
1634	 0.453119908899702 
1635	 0.456500738028119 
1636	 0.459829301327515 
1637	 0.463136099495696 
1638	 0.466474379342322 
1639	 0.469813661254871 
1640	 0.473142894831146 
1641	 0.476495828533378 
1642	 0.479857350543103 
1643	 0.483195014468034 
1644	 0.486483792669222 
1645	 0.489772166119297 
1646	 0.493056867096596 
1647	 0.496299312407417 
1648	 0.49957050952956 
1649	 0.502867853949629 
1650	 0.506173352782076 
1651	 0.509480483066492 
1652	 0.512733547097765 
1653	 0.515973977166809 
1654	 0.519215552348179 
1655	 0.522466850897262 
1656	 0.525673703320933 
1657	 0.528870044680609 
1658	 0.532049489913318 
1659	 0.535160890602399 
1660	 0.538235461627294 
1661	 0.541302899249044 
1662	 0.54436130424916 
1663	 0.547402738859577 
1664	 0.550427591033881 
1665	 0.553439024227349 
1666	 0.556452523549434 
1667	 0.559427167326753 
1668	 0.562353451112064 
1669	 0.565231178829072 
1670	 0.568166722243253 
1671	 0.571130174956155 
1672	 0.574049945163039 
1673	 0.577008909838324 
1674	 0.57991566274189 
1675	 0.582717618719272 
1676	 0.585508913932042 
1677	 0.588293048800407 
1678	 0.591067680124351 
1679	 0.59383215338098 
1680	 0.596576840625391 
1681	 0.599311144215827 
1682	 0.602066942539733 
1683	 0.604808912732914 
1684	 0.607480627996926 
1685	 0.610152881153463 
1686	 0.612788647934358 
1687	 0.615374700691676 
1688	 0.617960028819354 
1689	 0.620522177145353 
1690	 0.623125770457198 
1691	 0.625693299971199 
1692	 0.628245345931301 
1693	 0.630863564089633 
1694	 0.633388596750831 
1695	 0.635880379890778 
1696	 0.638332163346024 
1697	 0.640730936740309 
1698	 0.643128692183652 
1699	 0.645456081897545 
1700	 0.647764007990958 
1701	 0.650066338878361 
1702	 0.65234161913448 
1703	 0.654618318447421 
1704	 0.656841698959606 
1705	 0.659044113594457 
1706	 0.661289532511052 
1707	 0.663275808061518 
1708	 0.665268081960908 
1709	 0.66726388822116 
1710	 0.669159123842221 
1711	 0.671198289594756 
1712	 0.673187763628679 
1713	 0.675151050496356 
1714	 0.677132474358701 
1715	 0.678898605881501 
1716	 0.68070702347866 
1717	 0.682513026931464 
1718	 0.684253295325473 
1719	 0.686147006833734 
1720	 0.687959215705129 
1721	 0.68976087734585 
1722	 0.691608094492784 
1723	 0.693315853753548 
1724	 0.695111121295546 
1725	 0.696836749961226 
1726	 0.698421055066257 
1727	 0.700123940743107 
1728	 0.701689761453629 
1729	 0.703226345584221 
1730	 0.704861455473357 
1731	 0.706282558081564 
1732	 0.707680395887755 
1733	 0.70912649005696 
1734	 0.710483233743561 
1735	 0.711868415571756 
1736	 0.713236131272651 
1737	 0.714597657755196 
1738	 0.715877122972144 
1739	 0.717133570239598 
1740	 0.718352191790611 
1741	 0.719578202663275 
1742	 0.720810352040668 
1743	 0.722041095761143 
1744	 0.72328518115299 
1745	 0.724484822681038 
1746	 0.725647564605297 
1747	 0.726749787403445 
1748	 0.727811156338111 
1749	 0.728863740878622 
1750	 0.729856141751126 
1751	 0.730904584542692 
1752	 0.731996750680184 
1753	 0.733008433900316 
1754	 0.734007284941524 
1755	 0.734971925489186 
1756	 0.735843034359918 
1757	 0.736734494066585 
1758	 0.737709725308219 
1759	 0.738678001628477 
1760	 0.739702286631259 
1761	 0.740757421980764 
1762	 0.741664092418781 
1763	 0.742573372443632 
1764	 0.743468522509817 
1765	 0.744258231221903 
1766	 0.745104956523459 
1767	 0.745842038748945 
1768	 0.746510222648328 
1769	 0.747278384821993 
1770	 0.748020305219107 
1771	 0.748783598571389 
1772	 0.749529945823411 
1773	 0.750240680962563 
1774	 0.750958506916357 
1775	 0.751566740974759 
1776	 0.752169591962447 
1777	 0.752733744901002 
1778	 0.753162990610058 
1779	 0.753599849670925 
1780	 0.754040115381954 
1781	 0.754457804953381 
1782	 0.754822566747637 
1783	 0.755210276303716 
1784	 0.755671584493211 
1785	 0.756076654874496 
1786	 0.756458333627314 
1787	 0.756772394289327 
1788	 0.757174935637177 
1789	 0.757612869853181 
1790	 0.758074602685953 
1791	 0.758668162356188 
1792	 0.759151882932994 
1793	 0.759548697623209 
1794	 0.760009751814413 
1795	 0.760374774097429 
1796	 0.760630690316606 
1797	 0.760863611475524 
1798	 0.760993414034628 
1799	 0.761134385526741 
1800	 0.761357498176122 
1801	 0.762622673739026 
1802	 0.762722387800459 
1803	 0.762922836491002 
1804	 0.763135402117722 
1805	 0.763252058204637 
1806	 0.763495420313235 
1807	 0.763852269616015 
1808	 0.764113427891096 
1809	 0.76441490761894 
1810	 0.764622486670909 
1811	 0.76472033925691 
1812	 0.764841208310085 
1813	 0.764876416308533 
1814	 0.765067846315064 
1815	 0.765195229860436 
1816	 0.765368410304404 
1817	 0.76546240190804 
1818	 0.765440502870023 
1819	 0.76557280985569 
1820	 0.765729398634662 
1821	 0.765925471384277 
1822	 0.766286250490027 
1823	 0.766570714118364 
1824	 0.766742698658291 
1825	 0.766793551097522 
1826	 0.766833308215805 
1827	 0.766744615040146 
1828	 0.766779561808497 
1829	 0.766880062667856 
1830	 0.766883549641181 
1831	 0.766893070355902 
1832	 0.766848169105431 
1833	 0.766710198672707 
1834	 0.766586268932556 
1835	 0.766532610702538 
1836	 0.766509212645735 
1837	 0.766502279306472 
1838	 0.766552527902503 
1839	 0.766579548801214 
1840	 0.766587018941698 
1841	 0.766621135720948 
1842	 0.766705419171267 
1843	 0.766740487190657 
1844	 0.766710652061472 
1845	 0.76672837904042 
1846	 0.766690194864793 
1847	 0.766676064979695 
1848	 0.76664377648484 
1849	 0.766635840606378 
1850	 0.766599180971336 
1851	 0.766555407017763 
1852	 0.766408961485026 
1853	 0.766405132148652 
1854	 0.766453406418613 
1855	 0.766433239049618 
1856	 0.766395986484716 
1857	 0.766300680242326 
1858	 0.766147123545971 
1859	 0.766056443531997 
1860	 0.766002964113023 
1861	 0.765986315697119 
1862	 0.766021917585603 
1863	 0.76601812659143 
1864	 0.766035589300011 
1865	 0.765953126894302 
1866	 0.765755440040735 
1867	 0.765537284750139 
1868	 0.765316999857925 
1869	 0.765135883954204 
1870	 0.764876461922842 
1871	 0.764544006367504 
1872	 0.764307799062949 
1873	 0.764112064788678 
1874	 0.763776587373606 
1875	 0.763505949362914 
1876	 0.763251114718557 
1877	 0.76280583763381 
1878	 0.762461015896585 
1879	 0.762238951869589 
1880	 0.762003214890411 
1881	 0.761671906895968 
1882	 0.761322759875558 
1883	 0.760882597103575 
1884	 0.760435209090702 
1885	 0.760049150085271 
1886	 0.759815805384236 
1887	 0.759591730364513 
1888	 0.759348785966081 
1889	 0.759144731236424 
1890	 0.758883610626201 
1891	 0.758647814677665 
1892	 0.758384754063992 
1893	 0.758106727046622 
1894	 0.757765193191759 
1895	 0.757466867291083 
1896	 0.757212486775367 
1897	 0.757001194295722 
1898	 0.756836806178345 
1899	 0.756662401962948 
1900	 0.756406811223475 
1901	 0.756114604795671 
1902	 0.75585700878257 
1903	 0.755570320836974 
1904	 0.755224005788953 
1905	 0.754847812612546 
1906	 0.754506232216452 
1907	 0.754084515759755 
1908	 0.753561304981602 
1909	 0.753178179463448 
1910	 0.752813389100947 
1911	 0.752385475753326 
1912	 0.752030532009902 
1913	 0.751705632169991 
1914	 0.751445682567757 
1915	 0.75116980946516 
1916	 0.750926625372822 
1917	 0.7506872112899 
1918	 0.75054924115981 
1919	 0.750367489477155 
1920	 0.750142404129711 
1921	 0.750043918261577 
1922	 0.749797992247237 
1923	 0.749419996936556 
1924	 0.749132596314697 
1925	 0.748802506067925 
1926	 0.748492821609966 
1927	 0.748193635422493 
1928	 0.747881178142926 
1929	 0.747563908439091 
1930	 0.747274134334966 
1931	 0.74693118936541 
1932	 0.7466147805906 
1933	 0.74635586407472 
1934	 0.746031481194948 
1935	 0.745712374693083 
1936	 0.745403503669287 
1937	 0.745062530371259 
1938	 0.744658748307105 
1939	 0.744329724847588 
1940	 0.744005740627823 
1941	 0.743694706400722 
1942	 0.743529652599035 
1943	 0.743412440679754 
1944	 0.743241467107727 
1945	 0.743083824000231 
1946	 0.742752400585668 
1947	 0.742347398215714 
1948	 0.741983078759646 
1949	 0.741437625130683 
1950	 0.740933477490709 
1951	 0.740412421915993 
1952	 0.739878488717012 
1953	 0.739239519293697 
1954	 0.738777503645186 
1955	 0.738360918015066 
1956	 0.737980087587556 
1957	 0.737745592788508 
1958	 0.737601166165235 
1959	 0.737489217173054 
1960	 0.737417213299257 
1961	 0.737247564974445 
1962	 0.737035143224341 
1963	 0.736808550060612 
1964	 0.736504375279545 
1965	 0.736212314086336 
1966	 0.73590236585485 
1967	 0.735663240923063 
1968	 0.735406453892756 
1969	 0.735032162766833 
1970	 0.734675155502117 
1971	 0.734374438874518 
1972	 0.733865595657685 
1973	 0.733460335068198 
1974	 0.733097879759046 
1975	 0.732715736251626 
1976	 0.732357914979409 
1977	 0.732123886099929 
1978	 0.731815111469238 
1979	 0.731469047892356 
1980	 0.731150784012641 
1981	 0.730805983543939 
1982	 0.730417591983332 
1983	 0.729983408268995 
1984	 0.729525722838609 
1985	 0.729209565696321 
1986	 0.728929462645788 
1987	 0.72856791026934 
1988	 0.728217813000114 
1989	 0.727891335627588 
1990	 0.727449856553442 
1991	 0.727094281594401 
1992	 0.72678576939985 
1993	 0.72661811971013 
1994	 0.726368704498608 
1995	 0.726075541268289 
1996	 0.725877137797181 
1997	 0.725583351051893 
1998	 0.725239487293745 
1999	 0.724876519063457 
2000	 0.724488785063796 
2001	 0.724018358543649 
2002	 0.723538294694694 
2003	 0.722952552669388 
2004	 0.722486224246738 
2005	 0.722059631113669 
2006	 0.721643241159001 
2007	 0.72133033727061 
2008	 0.720992760005855 
2009	 0.720477957051628 
2010	 0.720070244496018 
2011	 0.719784815528896 
2012	 0.719592524876165 
2013	 0.71937779805046 
2014	 0.719302592625516 
2015	 0.719125303476197 
2016	 0.718882124601738 
2017	 0.718663669225627 
2018	 0.718456523167876 
2019	 0.718235775728898 
2020	 0.718041761880618 
2021	 0.717737939904148 
2022	 0.717407381939863 
2023	 0.717224732172754 
2024	 0.71691133759172 
2025	 0.716626943077723 
2026	 0.71633995664328 
2027	 0.716089899312154 
2028	 0.715741469529061 
2029	 0.715348666438291 
2030	 0.714936780066695 
2031	 0.714432780383126 
2032	 0.713957837846992 
2033	 0.713425911581717 
2034	 0.713016511793004 
2035	 0.712632186909505 
2036	 0.712326416914049 
2037	 0.712050270816346 
2038	 0.711901929715271 
2039	 0.711670008834232 
2040	 0.711388716510772 
2041	 0.711161494796937 
2042	 0.71100633667222 
2043	 0.710737376722654 
2044	 0.710434323035141 
2045	 0.710139291080648 
2046	 0.709788672143565 
2047	 0.709420895550687 
2048	 0.709048288359975 
2049	 0.708678634656576 
2050	 0.708246358211529 
2051	 0.707859137645659 
2052	 0.707462071440742 
2053	 0.707201918823352 
2054	 0.706959580694407 
2055	 0.706820857632773 
2056	 0.706548766860431 
2057	 0.706261468676237 
2058	 0.705985842552249 
2059	 0.705615760730975 
2060	 0.705291919844799 
2061	 0.705117887306058 
2062	 0.704789552954934 
2063	 0.704327066906633 
2064	 0.703939954559554 
2065	 0.703588047784047 
2066	 0.703074617957525 
2067	 0.702614270480229 
2068	 0.702254831650387 
2069	 0.701891514065205 
2070	 0.701520917698476 
2071	 0.701169896528136 
2072	 0.700892638822053 
2073	 0.700560360168682 
2074	 0.700214642645264 
2075	 0.69985429067202 
2076	 0.699507545195859 
2077	 0.699093345140317 
2078	 0.698567980667249 
2079	 0.698135344815277 
2080	 0.697655316414497 
2081	 0.69728841028291 
2082	 0.697068253329873 
2083	 0.696810940199808 
2084	 0.696554555523737 
2085	 0.696305876609946 
2086	 0.696027522143403 
2087	 0.695702463405067 
2088	 0.695410818968577 
2089	 0.695100015322765 
2090	 0.694842264658696 
2091	 0.694625810030588 
2092	 0.694363776455505 
2093	 0.694128147513475 
2094	 0.693879355006285 
2095	 0.693542115899423 
2096	 0.693292192757297 
2097	 0.693047041684859 
2098	 0.692947947911132 
2099	 0.692781810059677 
2100	 0.692572668383347 
2101	 0.692395027626232 
2102	 0.692244958287406 
2103	 0.691962334409315 
2104	 0.691633368594348 
2105	 0.691318746582607 
2106	 0.690851537034234 
2107	 0.690533079421079 
2108	 0.690265234266284 
2109	 0.690090133214984 
2110	 0.690051021653341 
2111	 0.689916343207643 
2112	 0.68985029309144 
2113	 0.689739237191771 
2114	 0.689461041140963 
2115	 0.68933116309623 
2116	 0.689283719339298 
2117	 0.689242184626924 
2118	 0.68929222209545 
2119	 0.689555637510055 
2120	 0.689484820497416 
2121	 0.689311703528116 
2122	 0.689183009633203 
2123	 0.688812371864808 
2124	 0.688635912555782 
2125	 0.688741783825261 
2126	 0.688528513446325 
2127	 0.68807370652911 
2128	 0.687848303323129 
2129	 0.687489430550103 
2130	 0.687322234865255 
2131	 0.687562883565406 
2132	 0.687530592507642 
2133	 0.68728644755036 
2134	 0.687290144376899 
2135	 0.687213433274281 
2136	 0.687018336486426 
2137	 0.686910945177678 
2138	 0.686949527535714 
2139	 0.686775866392967 
2140	 0.686484331042766 
2141	 0.686235136005487 
2142	 0.685884585821335 
2143	 0.685636529076156 
2144	 0.685474765824096 
2145	 0.685194266831821 
2146	 0.684971118015342 
2147	 0.684617047104181 
2148	 0.683996342223023 
2149	 0.683612182535364 
2150	 0.683327885181818 
2151	 0.682943110997875 
2152	 0.682706772066566 
2153	 0.682322028248017 
2154	 0.681640880014462 
2155	 0.68121217854426 
2156	 0.680772903000771 
2157	 0.680369097812174 
2158	 0.679939087998962 
2159	 0.679574777082659 
2160	 0.679162207164218 
2161	 0.678617656048674 
2162	 0.678305873380414 
2163	 0.67818762403543 
2164	 0.677894059842715 
2165	 0.677679365781695 
2166	 0.677337723247932 
2167	 0.676924577753023 
2168	 0.676372825734311 
2169	 0.675563147131449 
2170	 0.674980067841607 
2171	 0.674230475175671 
2172	 0.673725246167501 
2173	 0.673542899807097 
2174	 0.673420686655272 
2175	 0.673180135950654 
2176	 0.672865105041422 
2177	 0.672408802343222 
2178	 0.671724052696055 
2179	 0.671250337267571 
2180	 0.670774093804009 
2181	 0.670296721822148 
2182	 0.669911748935755 
2183	 0.669432870567606 
2184	 0.668774180052546 
2185	 0.668342421975011 
2186	 0.668059226227325 
2187	 0.66770257715486 
2188	 0.66738429986839 
2189	 0.66716773401954 
2190	 0.666885288684161 
2191	 0.66676173381087 
2192	 0.667017224619171 
2193	 0.666970488778652 
2194	 0.666859757689581 
2195	 0.666679853319266 
2196	 0.666261795895268 
2197	 0.665930289219668 
2198	 0.665562492330522 
2199	 0.665134717901347 
2200	 0.664543051093263 
2201	 0.66366498695612 
2202	 0.663228596133899 
2203	 0.662792747367272 
2204	 0.662552348444088 
2205	 0.662744729383264 
2206	 0.662708668102595 
2207	 0.662796828447475 
2208	 0.662524407024887 
2209	 0.661914135155647 
2210	 0.661665165798688 
2211	 0.661368530516643 
2212	 0.661061447972422 
2213	 0.661021841566985 
2214	 0.660909405981524 
2215	 0.660564742002903 
2216	 0.660340304082179 
2217	 0.660346610978985 
2218	 0.660270858889828 
2219	 0.659963512246744 
2220	 0.659922653769487 
2221	 0.659843183807104 
2222	 0.660191043914226 
2223	 0.660976818914529 
2224	 0.661756753282572 
2225	 0.662629032049779 
2226	 0.663110297432514 
2227	 0.66319618553674 
2228	 0.662621969958517 
2229	 0.662500463383802 
2230	 0.662219846453279 
2231	 0.662097911331453 
2232	 0.662377637043891 
2233	 0.662020792942253 
2234	 0.660962110977434 
2235	 0.660895478722209 
2236	 0.661037108972611 
2237	 0.66122622671969 
2238	 0.662428008220469 
2239	 0.662637400731438 
2240	 0.661931956329118 
2241	 0.661846431050277 
2242	 0.661929115865856 
2243	 0.661789550512409 
2244	 0.661656148478652 
2245	 0.661602266431083 
2246	 0.661107599338516 
2247	 0.661184451648634 
2248	 0.661976939753171 
2249	 0.662535191084171 
2250	 0.663460427026166 
2251	 0.663755200827871 
2252	 0.66421105213405 
2253	 0.66435376508373 
2254	 0.664095888938899 
2255	 0.664095322389389 
2256	 0.66416679486638 
2257	 0.664193897079376 
2258	 0.664253245487056 
2259	 0.664481427460618 
2260	 0.664782008761333 
2261	 0.66492643158483 
2262	 0.665410495579341 
2263	 0.666494248782249 
2264	 0.666876924081341 
2265	 0.667105381951539 
2266	 0.66701418944641 
2267	 0.666316039952715 
2268	 0.666029170954201 
2269	 0.665654672922514 
2270	 0.665650918894862 
2271	 0.665795525615673 
2272	 0.666263399942098 
2273	 0.667364846700622 
2274	 0.667796123318022 
2275	 0.668198381677112 
2276	 0.668464331959967 
2277	 0.667908477826324 
2278	 0.668155420134792 
2279	 0.66918776636486 
2280	 0.66966892864831 
2281	 0.670272074671763 
2282	 0.670599509580815 
2283	 0.67042504507058 
2284	 0.670241902592709 
2285	 0.67036141800083 
2286	 0.670917418593614 
2287	 0.671869168894718 
2288	 0.672539571966668 
2289	 0.672634204346537 
2290	 0.672487970469054 
2291	 0.671933771530419 
2292	 0.671527837368864 
2293	 0.671205031151963 
2294	 0.670877686149487 
2295	 0.670817304788292 
2296	 0.670856572744886 
2297	 0.670969053213258 
2298	 0.671510311416932 
2299	 0.671535715113262 
2300	 0.671242861322529 
2301	 0.671206308411546 
2302	 0.671104738575143 
2303	 0.671373646445107 
2304	 0.671674464686501 
2305	 0.672308014669899 
2306	 0.673494066967023 
2307	 0.674114350345195 
2308	 0.674901553113079 
2309	 0.675381690541228 
2310	 0.675561142682925 
2311	 0.675426782281274 
2312	 0.674945884001562 
2313	 0.674541880938482 
2314	 0.673423702370481 
2315	 0.673285299242948 
2316	 0.673753685833284 
2317	 0.674160643963169 
2318	 0.675379755280567 
2319	 0.675725053672156 
2320	 0.67543113273014 
2321	 0.675618574914296 
2322	 0.675527201474989 
2323	 0.6757484881012 
2324	 0.67682894151917 
2325	 0.677016853353474 
2326	 0.676694714801886 
2327	 0.676622061609013 
2328	 0.675797395894081 
2329	 0.675590947611431 
2330	 0.67613049144284 
2331	 0.676326966529046 
2332	 0.675940679065646 
2333	 0.676499988253486 
2334	 0.676898587225738 
2335	 0.67769999686115 
2336	 0.679533122207081 
2337	 0.680492145660214 
2338	 0.681069264389408 
2339	 0.680660912372548 
2340	 0.67916641614409 
2341	 0.679219269574944 
2342	 0.679693383318403 
2343	 0.680145814358852 
2344	 0.681337807046596 
2345	 0.68156446959898 
2346	 0.680547284840158 
2347	 0.680297335588763 
2348	 0.680581468962767 
2349	 0.680503850383225 
2350	 0.681050155676032 
2351	 0.680920005672593 
2352	 0.679338608825139 
2353	 0.678231901655175 
2354	 0.678179029163852 
2355	 0.678605034149604 
2356	 0.679545401511926 
2357	 0.680582083721474 
2358	 0.681939675275366 
2359	 0.683395434220795 
2360	 0.683518011709579 
2361	 0.683474583453074 
2362	 0.682979682341771 
2363	 0.681196164386764 
2364	 0.680445795157571 
2365	 0.680805907602998 
2366	 0.681349653597531 
2367	 0.682044827464198 
2368	 0.682795359971319 
2369	 0.683731292634044 
2370	 0.683244640245069 
2371	 0.682669425566057 
2372	 0.68299594683184 
2373	 0.682154258346053 
2374	 0.682863111936453 
2375	 0.684280345500903 
2376	 0.683620998141026 
2377	 0.68270691717616 
2378	 0.68240951776369 
2379	 0.680454820638328 
2380	 0.677705329375854 
2381	 0.678405127882166 
2382	 0.678454730174018 
2383	 0.677926558467123 
2384	 0.678087180556111 
2385	 0.679469608225389 
2386	 0.679901503455402 
2387	 0.679634338032238 
2388	 0.679965667681869 
2389	 0.681407109819843 
2390	 0.68136309857448 
2391	 0.680845221079792 
2392	 0.679660820693138 
2393	 0.676547038168325 
2394	 0.675520159570123 
2395	 0.674347129198547 
2396	 0.675295285345566 
2397	 0.679764129084114 
2398	 0.680886648135422 
2399	 0.681418937164299 
2400	 0.680561742682362 
2401	 0.67670519114152 
2402	 0.675789628047123 
2403	 0.67598252558551 
2404	 0.678123858527894 
2405	 0.681477190788701 
2406	 0.682915425798097 
2407	 0.684863909394355 
2408	 0.684112669757461 
2409	 0.68022873561105 
2410	 0.682391598918282 
2411	 0.68321484441692 
2412	 0.684101578260179 
2413	 0.68853929763637 
2414	 0.686721050575575 
2415	 0.6840745834866 
2416	 0.685219531069826 
2417	 0.683364565096789 
2418	 0.68152593490368 
2419	 0.682476261761682 
2420	 0.679515240705436 
2421	 0.677788104579321 
2422	 0.677016843567386 
2423	 0.674661871207757 
2424	 0.676163663328581 
2425	 0.677974035567421 
2426	 0.679210856054524 
2427	 0.680675526195058 
2428	 0.683650235934538 
2429	 0.686071878970785 
2430	 0.68720446377832 
2431	 0.690377178682428 
2432	 0.687086881966498 
2433	 0.684014487181002 
2434	 0.687538194189069 
2435	 0.686316925595755 
2436	 0.684681726652158 
2437	 0.684501560874443 
2438	 0.684830381859275 
2439	 0.681769456241363 
2440	 0.674471794507249 
2441	 0.678338409445154 
2442	 0.680290154987245 
2443	 0.675002302921881 
2444	 0.680327909152471 
2445	 0.682142108718818 
2446	 0.68240062725748 
2447	 0.689319259845219 
2448	 0.690804149005176 
2449	 0.691762444825171 
2450	 0.685550536834468 
2451	 0.681664151488872 
2452	 0.686245837112283 
2453	 0.684938322960677 
2454	 0.688862213126159 
2455	 0.689555345737566 
2456	 0.681620947942328 
2457	 0.679120090233219 
2458	 0.672429016719184 
2459	 0.66476079139197 
2460	 0.666264634831879 
2461	 0.66455242210384 
2462	 0.663076047273056 
2463	 0.666853857128324 
2464	 0.669924370934306 
2465	 0.672999121851252 
2466	 0.671841350125842 
2467	 0.666027141760482 
2468	 0.664673759376392 
2469	 0.665373200315749 
2470	 0.667160617920434 
2471	 0.671301783562151 
2472	 0.668513614428156 
2473	 0.667308188848811 
2474	 0.665385375756038 
2475	 0.658000627433041 
2476	 0.655744828655821 
2477	 0.653537560636459 
2478	 0.656445666854425 
2479	 0.671627350098904 
2480	 0.687174266315986 
2481	 0.691497071653824 
2482	 0.681573512282059 
2483	 0.687208535512905 
2484	 0.68853090506192 
2485	 0.682519222722102 
2486	 0.690614707116623 
2487	 0.701086522307394 
2488	 0.685305955909213 
2489	 0.674160112396789 
2490	 0.677769556061706 
2491	 0.672094540984943 
2492	 0.686213966431959 
2493	 0.702049952012418 
2494	 0.698987508106534 
2495	 0.694156693109192 
2496	 0.689125669530762 
2497	 0.692143010943702 
2498	 0.702815171108075 
2499	 0.704047474174972 
2500	 0.702698117738791 
