Wavelength	A00135.asd
350	 0.202359013549005 
351	 0.198705362409814 
352	 0.195423333576185 
353	 0.187378852739627 
354	 0.184656199287169 
355	 0.185666604637453 
356	 0.189218509511748 
357	 0.18963098640055 
358	 0.167635959270569 
359	 0.162743136639339 
360	 0.168328023439051 
361	 0.16072206247896 
362	 0.155740343886446 
363	 0.157073493228437 
364	 0.160526651760125 
365	 0.154051098503296 
366	 0.146935031972006 
367	 0.145785765730089 
368	 0.151504872140416 
369	 0.150417109826458 
370	 0.146788912396853 
371	 0.144534385045091 
372	 0.145915065532539 
373	 0.142606167599082 
374	 0.138188949827896 
375	 0.135681462852459 
376	 0.135681928684854 
377	 0.138754910072329 
378	 0.141241925412323 
379	 0.140348268370623 
380	 0.138618945753592 
381	 0.137663643760573 
382	 0.13662725906864 
383	 0.13385982369658 
384	 0.134687321868637 
385	 0.131987528179346 
386	 0.12642517779064 
387	 0.131414510723758 
388	 0.13170782963885 
389	 0.129606422874014 
390	 0.130164078491913 
391	 0.131109334913519 
392	 0.131389643541745 
393	 0.130871856324391 
394	 0.13007616053164 
395	 0.129555550755067 
396	 0.130088562731982 
397	 0.131098993337069 
398	 0.129911587534972 
399	 0.128086983325354 
400	 0.127377045821379 
401	 0.128601423803049 
402	 0.128919210262654 
403	 0.129197054585625 
404	 0.129635856660253 
405	 0.129866817418477 
406	 0.129989633329168 
407	 0.129377084725327 
408	 0.128410181831415 
409	 0.129599013810628 
410	 0.13094004943657 
411	 0.131610816201327 
412	 0.131425275753672 
413	 0.131195724392056 
414	 0.131280892544688 
415	 0.131875015683664 
416	 0.132992889798633 
417	 0.133316454489884 
418	 0.133996955612075 
419	 0.135345223778522 
420	 0.134556247659506 
421	 0.134906030051909 
422	 0.136538471539604 
423	 0.138179255744445 
424	 0.138721588781821 
425	 0.139020647807409 
426	 0.139676213943787 
427	 0.140780185172748 
428	 0.14212696267797 
429	 0.143454957211581 
430	 0.144513238865775 
431	 0.144989163557599 
432	 0.146020371208958 
433	 0.147437182763618 
434	 0.14846245553387 
435	 0.150168025893431 
436	 0.151748597785726 
437	 0.152948777181782 
438	 0.154679473603097 
439	 0.156312225313103 
440	 0.157937102475025 
441	 0.159710135551475 
442	 0.161093737412841 
443	 0.163032984786916 
444	 0.165414409404377 
445	 0.167289761352777 
446	 0.169257776733238 
447	 0.171451575262684 
448	 0.173817382821549 
449	 0.176056143751072 
450	 0.178208813661318 
451	 0.180465035885451 
452	 0.183016241604696 
453	 0.185633195023952 
454	 0.188257030089242 
455	 0.190705042801826 
456	 0.192700011466058 
457	 0.19525562367279 
458	 0.198243658505811 
459	 0.20126667874249 
460	 0.20402820503846 
461	 0.207010733370399 
462	 0.209980282745685 
463	 0.212494050925488 
464	 0.216100033747244 
465	 0.219518793610183 
466	 0.222218460273045 
467	 0.225312383293715 
468	 0.228843451091807 
469	 0.232243656046716 
470	 0.235151030197402 
471	 0.238986691398171 
472	 0.242615894156155 
473	 0.245932340022117 
474	 0.249676067322761 
475	 0.253500300504517 
476	 0.257085226157191 
477	 0.26048636649341 
478	 0.264608187378329 
479	 0.268264934205981 
480	 0.271814026081852 
481	 0.275985023413369 
482	 0.279757041580258 
483	 0.283457916260655 
484	 0.287251814528679 
485	 0.291020759021359 
486	 0.294730894238081 
487	 0.298400389108703 
488	 0.302107854009973 
489	 0.306158524146864 
490	 0.309724126914447 
491	 0.313046671071872 
492	 0.316909757093968 
493	 0.320588685132249 
494	 0.324000633127702 
495	 0.327255695796146 
496	 0.330681729834258 
497	 0.334023757850792 
498	 0.337284456444887 
499	 0.340473563334037 
500	 0.343297318329717 
501	 0.34596396584157 
502	 0.348628932126985 
503	 0.351361322944692 
504	 0.353783740606469 
505	 0.356009314040816 
506	 0.358313348373562 
507	 0.361182712022948 
508	 0.363861902415825 
509	 0.366327965622573 
510	 0.368884458817592 
511	 0.371689125333619 
512	 0.374382398154393 
513	 0.37688652071547 
514	 0.379577723350542 
515	 0.382000353834519 
516	 0.384481680503289 
517	 0.387234919982711 
518	 0.389374330240978 
519	 0.391395327985281 
520	 0.39343273713068 
521	 0.395338768717533 
522	 0.397049305694729 
523	 0.398428361154418 
524	 0.39942176870672 
525	 0.400136034795075 
526	 0.400680710290948 
527	 0.400963317826995 
528	 0.400847100000962 
529	 0.400409307036281 
530	 0.399737233725881 
531	 0.398955552562018 
532	 0.39821738339971 
533	 0.397155034770949 
534	 0.39571261410965 
535	 0.393983410360725 
536	 0.392251336753574 
537	 0.390335587223512 
538	 0.388137314784083 
539	 0.385647084807443 
540	 0.38318428182093 
541	 0.380627375433404 
542	 0.377831967122135 
543	 0.374724976626457 
544	 0.371250403665838 
545	 0.367440636773931 
546	 0.363371206383925 
547	 0.359124432697257 
548	 0.354719049131016 
549	 0.350161725342687 
550	 0.345441893960825 
551	 0.340248476457553 
552	 0.334537269169921 
553	 0.32845787060937 
554	 0.322330244509447 
555	 0.316385285375987 
556	 0.310546850542447 
557	 0.304636501689738 
558	 0.298997000325709 
559	 0.293751048032584 
560	 0.288672492615423 
561	 0.283124865446677 
562	 0.278055157255329 
563	 0.273303087723407 
564	 0.268547264884107 
565	 0.264180587942826 
566	 0.259796289388342 
567	 0.255415047867691 
568	 0.251410480586798 
569	 0.247118264876687 
570	 0.243005268919849 
571	 0.239369112489679 
572	 0.235605509336993 
573	 0.231895650008852 
574	 0.228185762500724 
575	 0.224438941614281 
576	 0.221229339561922 
577	 0.218552375385513 
578	 0.216283144834546 
579	 0.214352777853547 
580	 0.212573598067235 
581	 0.210810898395324 
582	 0.209075691344419 
583	 0.207809000956102 
584	 0.206374272399728 
585	 0.204729436666858 
586	 0.203180749142371 
587	 0.201496764050737 
588	 0.199923253118147 
589	 0.198583083314149 
590	 0.197298327742425 
591	 0.196245248005023 
592	 0.195375515657239 
593	 0.194603301853252 
594	 0.194018959912419 
595	 0.193487055686332 
596	 0.192900926994418 
597	 0.192197929461751 
598	 0.191449947986957 
599	 0.190720868435246 
600	 0.189994352287149 
601	 0.189060371853544 
602	 0.188071039546484 
603	 0.18698434822634 
604	 0.185692927445551 
605	 0.184237204102165 
606	 0.182670710079234 
607	 0.181057229207992 
608	 0.17947308673933 
609	 0.177886298652239 
610	 0.176204046324759 
611	 0.174371003984571 
612	 0.172506088322911 
613	 0.170728951835313 
614	 0.169060226060147 
615	 0.16746209385532 
616	 0.1660603306711 
617	 0.164727000921209 
618	 0.163429209715148 
619	 0.162348878394692 
620	 0.161395752970136 
621	 0.160592693133844 
622	 0.159966485568935 
623	 0.159400730157765 
624	 0.159043906765045 
625	 0.15884613032731 
626	 0.158570727341939 
627	 0.158250234209704 
628	 0.158151676497037 
629	 0.158362680253194 
630	 0.158429253147965 
631	 0.158438313893755 
632	 0.158507637081493 
633	 0.158744879394963 
634	 0.158972060712836 
635	 0.15930756554074 
636	 0.159740555440945 
637	 0.160068508168606 
638	 0.160395810451493 
639	 0.160817932892121 
640	 0.161351173251144 
641	 0.161748599577292 
642	 0.162182867453027 
643	 0.16266685201227 
644	 0.163118697353007 
645	 0.163562210803953 
646	 0.163967445679505 
647	 0.164353397126285 
648	 0.164837994724066 
649	 0.165153605022559 
650	 0.165375113714873 
651	 0.165621769589795 
652	 0.165694843378024 
653	 0.165728037911527 
654	 0.165772874789961 
655	 0.165801912225421 
656	 0.165779395385741 
657	 0.165747748418093 
658	 0.165681545193877 
659	 0.165373850446839 
660	 0.1650185111673 
661	 0.164699220049383 
662	 0.164430165387992 
663	 0.164099519980453 
664	 0.163676963843376 
665	 0.163192978328444 
666	 0.162728713808859 
667	 0.162212347783318 
668	 0.161693126654695 
669	 0.161190823682232 
670	 0.160567573747867 
671	 0.160059004014356 
672	 0.159625811287053 
673	 0.159105598637815 
674	 0.158465424018537 
675	 0.157943471786754 
676	 0.157562691226468 
677	 0.15707502814802 
678	 0.156748276127897 
679	 0.156445937547734 
680	 0.156050365481618 
681	 0.155784798810773 
682	 0.155605173909514 
683	 0.155434941147818 
684	 0.155217184416019 
685	 0.15522027225727 
686	 0.155324385971988 
687	 0.155481510987113 
688	 0.155807117791927 
689	 0.156104801165457 
690	 0.156470907090729 
691	 0.156996884074541 
692	 0.157464785942686 
693	 0.158042125782288 
694	 0.158892611484424 
695	 0.160095853387512 
696	 0.161024342983533 
697	 0.162186727070845 
698	 0.163721564928579 
699	 0.16495870732486 
700	 0.166459031342511 
701	 0.168264699940331 
702	 0.170268297186037 
703	 0.172373272915963 
704	 0.17463043643809 
705	 0.17708527952707 
706	 0.179732145287764 
707	 0.182325339195713 
708	 0.18511692632023 
709	 0.188255460906504 
710	 0.191580520897938 
711	 0.195246375506551 
712	 0.198994355299771 
713	 0.202612685666609 
714	 0.206533895856675 
715	 0.210810805995479 
716	 0.215251448450759 
717	 0.219557073299103 
718	 0.22438632549735 
719	 0.229284784042815 
720	 0.234121846308747 
721	 0.239609707819737 
722	 0.245021208040913 
723	 0.250354611761004 
724	 0.255798753174993 
725	 0.261413538847145 
726	 0.267133481873916 
727	 0.272921356506505 
728	 0.278767719780342 
729	 0.284806887366156 
730	 0.290955381710945 
731	 0.297107533648706 
732	 0.303073906388695 
733	 0.308980129930563 
734	 0.314925170196235 
735	 0.320874568371847 
736	 0.326461255241297 
737	 0.332247901333905 
738	 0.338012565801873 
739	 0.343138878770228 
740	 0.348769567376924 
741	 0.353949831700809 
742	 0.358298995886728 
743	 0.362759938887947 
744	 0.36743243922824 
745	 0.371979869256801 
746	 0.376184119234264 
747	 0.380733462087557 
748	 0.385010986267124 
749	 0.389317261602891 
750	 0.39426256411959 
751	 0.398501169972124 
752	 0.402761169554235 
753	 0.40727068482982 
754	 0.411411474568563 
755	 0.415371112605981 
756	 0.41938900721303 
757	 0.423688783912584 
758	 0.428408183343201 
759	 0.433161769414398 
760	 0.437747517040677 
761	 0.442198515518043 
762	 0.447105745104051 
763	 0.451802000216924 
764	 0.456147621570641 
765	 0.460687250760161 
766	 0.464926744847784 
767	 0.469000006213089 
768	 0.473036088910788 
769	 0.476883981148027 
770	 0.480116917979584 
771	 0.483293982000265 
772	 0.487028245428415 
773	 0.490219356540971 
774	 0.49326980322084 
775	 0.496183141465547 
776	 0.498639529453979 
777	 0.500685012770802 
778	 0.502476359539427 
779	 0.504389758451619 
780	 0.507140093826067 
781	 0.508871966220809 
782	 0.51002664961895 
783	 0.511399266827779 
784	 0.512275725371019 
785	 0.513959410215808 
786	 0.515898990210405 
787	 0.516640451792638 
788	 0.516765496913506 
789	 0.5177939171946 
790	 0.519624128566644 
791	 0.520234187374709 
792	 0.521228731653177 
793	 0.522398504513804 
794	 0.523220932147324 
795	 0.523235813285658 
796	 0.523907810493011 
797	 0.525024239158767 
798	 0.525785069829123 
799	 0.526045684953293 
800	 0.526241064096216 
801	 0.526510357951282 
802	 0.526766804467173 
803	 0.52748461153201 
804	 0.527983562854231 
805	 0.528154671100079 
806	 0.528958259507913 
807	 0.529527372109431 
808	 0.529827309173129 
809	 0.530049501343257 
810	 0.530392511067797 
811	 0.530606628166684 
812	 0.530861694183476 
813	 0.531397526540007 
814	 0.531676574834901 
815	 0.532326306271381 
816	 0.533140963094374 
817	 0.533250165736783 
818	 0.533757212162263 
819	 0.534299733079265 
820	 0.534626707412302 
821	 0.535041705109365 
822	 0.535250388606762 
823	 0.535744773819456 
824	 0.536827388880033 
825	 0.53761011444981 
826	 0.538284139295624 
827	 0.539033265137009 
828	 0.53991826209065 
829	 0.540201232582132 
830	 0.540935218293625 
831	 0.542247958713716 
832	 0.543340316624857 
833	 0.543607909299155 
834	 0.544252175636951 
835	 0.545592832356187 
836	 0.546200498095719 
837	 0.547565335873957 
838	 0.548886379257591 
839	 0.549577394783011 
840	 0.551398203544695 
841	 0.552440520030406 
842	 0.55299532806708 
843	 0.554148285888994 
844	 0.556094537558063 
845	 0.557309138877847 
846	 0.558206985088639 
847	 0.560377459633722 
848	 0.561775535217408 
849	 0.563469317409325 
850	 0.565588354610962 
851	 0.566724352935681 
852	 0.568576602295915 
853	 0.570767975940325 
854	 0.572848470313944 
855	 0.575189978878945 
856	 0.576683897637712 
857	 0.578073133976751 
858	 0.58030035731183 
859	 0.582709643922657 
860	 0.584884314964182 
861	 0.58702248340524 
862	 0.589432780600314 
863	 0.590934069432455 
864	 0.592556652627938 
865	 0.594671244050368 
866	 0.596966526116307 
867	 0.599631014930092 
868	 0.60187749540969 
869	 0.603661136251052 
870	 0.606076599436248 
871	 0.607969309833431 
872	 0.609721251407725 
873	 0.61184380512449 
874	 0.614432745756778 
875	 0.61643410549915 
876	 0.618043337075235 
877	 0.61987397380612 
878	 0.622420863308706 
879	 0.624626805796631 
880	 0.626400555233184 
881	 0.62819670459663 
882	 0.63042299811591 
883	 0.63248138593416 
884	 0.634492439279826 
885	 0.636990621852481 
886	 0.638715312292754 
887	 0.640006133569863 
888	 0.641666114671072 
889	 0.644572786383678 
890	 0.646032688147748 
891	 0.647286604207038 
892	 0.649305006448555 
893	 0.651327186284959 
894	 0.652419543184167 
895	 0.65401918476379 
896	 0.656882741927516 
897	 0.658389357944996 
898	 0.659423474021958 
899	 0.660920261874069 
900	 0.663291629422337 
901	 0.664771723663695 
902	 0.666237616695178 
903	 0.667972020511399 
904	 0.669795487257486 
905	 0.670866743878288 
906	 0.672154793640463 
907	 0.673850471481515 
908	 0.675494724194891 
909	 0.677177018620361 
910	 0.678542612432213 
911	 0.67964840504753 
912	 0.680999505459888 
913	 0.68285364085905 
914	 0.683920912042486 
915	 0.684262364703908 
916	 0.685941614440776 
917	 0.687171418110811 
918	 0.688154204373525 
919	 0.689295994035486 
920	 0.690607784943362 
921	 0.69221642283994 
922	 0.693641406241207 
923	 0.694597146678249 
924	 0.695649003615011 
925	 0.697110047582385 
926	 0.698685319189759 
927	 0.69984915979127 
928	 0.700036530942542 
929	 0.700722419459202 
930	 0.70201859716915 
931	 0.703332555549311 
932	 0.70408594946148 
933	 0.704269901507793 
934	 0.704793106851373 
935	 0.706455748352596 
936	 0.706886770918548 
937	 0.707226066530292 
938	 0.708159238851356 
939	 0.709657355435761 
940	 0.710398479013124 
941	 0.710788814123713 
942	 0.711161868959744 
943	 0.711630577709624 
944	 0.712326880803755 
945	 0.712599208770768 
946	 0.71241227336195 
947	 0.712473394828298 
948	 0.713251226631847 
949	 0.713820376896636 
950	 0.714044486831302 
951	 0.714934725206762 
952	 0.715205108958202 
953	 0.714835280098139 
954	 0.71439231883668 
955	 0.714827010843441 
956	 0.714738453262247 
957	 0.714495995586922 
958	 0.71454190997413 
959	 0.714768837466151 
960	 0.714514481052822 
961	 0.713801603360837 
962	 0.713098684538225 
963	 0.713310142838662 
964	 0.713525029338039 
965	 0.713362512022735 
966	 0.712812225927925 
967	 0.712328120633741 
968	 0.711745160927789 
969	 0.71116616492086 
970	 0.710748654467906 
971	 0.710669934024946 
972	 0.709404298494422 
973	 0.708212778778789 
974	 0.708301796677735 
975	 0.708267498685929 
976	 0.707394572993559 
977	 0.70602842828284 
978	 0.704880798597896 
979	 0.704377887731197 
980	 0.70401236290909 
981	 0.70319529588114 
982	 0.701760599792533 
983	 0.700828640418353 
984	 0.700028665545169 
985	 0.699248116094988 
986	 0.698233000998568 
987	 0.695895318738674 
988	 0.695018089915594 
989	 0.694715905296389 
990	 0.693478054860773 
991	 0.69268291326336 
992	 0.691800576526606 
993	 0.69077349748019 
994	 0.689636629248688 
995	 0.688146164832167 
996	 0.686949443336722 
997	 0.685948766964128 
998	 0.684783302753327 
999	 0.683203836555812 
1000	 0.682569201726205 
1001	 0.677234011200729 
1002	 0.676030481915303 
1003	 0.674805336116637 
1004	 0.673603981180763 
1005	 0.672423130404226 
1006	 0.671228667624144 
1007	 0.670092055327665 
1008	 0.668842834134687 
1009	 0.66758771810088 
1010	 0.666260626567968 
1011	 0.664748573437197 
1012	 0.663390672027363 
1013	 0.662030627087697 
1014	 0.660718257812182 
1015	 0.659497141149997 
1016	 0.658347801295714 
1017	 0.657047481619722 
1018	 0.655788471114164 
1019	 0.654424649857086 
1020	 0.653019299301839 
1021	 0.651656509873242 
1022	 0.650318350763017 
1023	 0.64891974550823 
1024	 0.647477421069893 
1025	 0.646079922667686 
1026	 0.644658408600174 
1027	 0.64327003169973 
1028	 0.641912084856198 
1029	 0.640589665902195 
1030	 0.639243822143894 
1031	 0.637833947874301 
1032	 0.636565655416342 
1033	 0.635289358571339 
1034	 0.633894788794647 
1035	 0.632566899860281 
1036	 0.631169563730151 
1037	 0.629621806313679 
1038	 0.628242681281959 
1039	 0.626941959427789 
1040	 0.62557540723501 
1041	 0.624229841034671 
1042	 0.622845548117247 
1043	 0.621358735308468 
1044	 0.620060531057129 
1045	 0.618716843717359 
1046	 0.617416288532645 
1047	 0.616233331503288 
1048	 0.614910183071365 
1049	 0.613636131353793 
1050	 0.612446887742098 
1051	 0.611170346515378 
1052	 0.609981168019125 
1053	 0.608783727471793 
1054	 0.607616997245045 
1055	 0.606387249429112 
1056	 0.605067938609797 
1057	 0.603884214671078 
1058	 0.602736577252307 
1059	 0.60164367165782 
1060	 0.600526376279326 
1061	 0.599420954704704 
1062	 0.598245913969243 
1063	 0.597037495899311 
1064	 0.595953207577975 
1065	 0.594917826294601 
1066	 0.593908621786262 
1067	 0.5928907288802 
1068	 0.591817445842428 
1069	 0.590848006594416 
1070	 0.589842038443551 
1071	 0.588815122274487 
1072	 0.587759040887867 
1073	 0.586809707030695 
1074	 0.585777511352945 
1075	 0.584781359443321 
1076	 0.583864365598307 
1077	 0.582872138606284 
1078	 0.582005600742813 
1079	 0.581163685241165 
1080	 0.580260670347325 
1081	 0.579511168199485 
1082	 0.578728248252959 
1083	 0.577896970681463 
1084	 0.577151714295613 
1085	 0.576317991687312 
1086	 0.575482760276558 
1087	 0.574612335211943 
1088	 0.573794436585038 
1089	 0.572995607862728 
1090	 0.572244106152024 
1091	 0.571511882718191 
1092	 0.570813248200659 
1093	 0.57006782800295 
1094	 0.569320048080448 
1095	 0.568645727177916 
1096	 0.567889940211977 
1097	 0.567158114832901 
1098	 0.566492535373726 
1099	 0.56572074678412 
1100	 0.564989478709734 
1101	 0.564295848082365 
1102	 0.563501461777329 
1103	 0.562761895996808 
1104	 0.562069028421633 
1105	 0.561364642058553 
1106	 0.560579700114984 
1107	 0.559848570006716 
1108	 0.55914116144643 
1109	 0.558488049018646 
1110	 0.557852239256069 
1111	 0.55722164612407 
1112	 0.55664143654925 
1113	 0.555982918380417 
1114	 0.555297082873045 
1115	 0.55466413523202 
1116	 0.553981926431838 
1117	 0.553298900864589 
1118	 0.552623214494744 
1119	 0.55195370113776 
1120	 0.55129350392255 
1121	 0.550638852972633 
1122	 0.549966938111165 
1123	 0.549319666498281 
1124	 0.548786664235226 
1125	 0.548267839956319 
1126	 0.54775198297344 
1127	 0.54722100935314 
1128	 0.546586359821313 
1129	 0.545919077311808 
1130	 0.54524135291664 
1131	 0.544558474610707 
1132	 0.543921775022546 
1133	 0.543241963948508 
1134	 0.542516792331256 
1135	 0.541830212013212 
1136	 0.541146344062797 
1137	 0.540473666907149 
1138	 0.539838174010332 
1139	 0.539173830696551 
1140	 0.538496338488359 
1141	 0.537813824744869 
1142	 0.537136296461492 
1143	 0.536530936431702 
1144	 0.535952113547752 
1145	 0.535327193135773 
1146	 0.534735980318715 
1147	 0.534090731900597 
1148	 0.533410816283314 
1149	 0.532799771200099 
1150	 0.532136568407056 
1151	 0.531444254958558 
1152	 0.530756178466696 
1153	 0.53003793211719 
1154	 0.529351378574285 
1155	 0.528673844956389 
1156	 0.528000368609131 
1157	 0.527377600132844 
1158	 0.526698922347783 
1159	 0.525992655063148 
1160	 0.52526465681 
1161	 0.524560994254881 
1162	 0.523859116270091 
1163	 0.523151316464529 
1164	 0.52245559920828 
1165	 0.521731432356019 
1166	 0.520962609926979 
1167	 0.52020210959003 
1168	 0.519504327008977 
1169	 0.518740715256462 
1170	 0.51791187181757 
1171	 0.517159207760823 
1172	 0.516434967031633 
1173	 0.515656645776237 
1174	 0.514904006299258 
1175	 0.514155770340904 
1176	 0.513370290093274 
1177	 0.51258052866635 
1178	 0.511839060789941 
1179	 0.511010264446837 
1180	 0.510207708181701 
1181	 0.509398754564877 
1182	 0.508557613187279 
1183	 0.507814218057239 
1184	 0.50701952904651 
1185	 0.506178856310063 
1186	 0.505330512617119 
1187	 0.504487301129759 
1188	 0.503591424279083 
1189	 0.502634889858436 
1190	 0.501699282989407 
1191	 0.500742832355642 
1192	 0.499819830075313 
1193	 0.498930273665176 
1194	 0.498004179441799 
1195	 0.497074106059544 
1196	 0.496112989414341 
1197	 0.49514203364222 
1198	 0.494113392083565 
1199	 0.493041355286071 
1200	 0.492061984588261 
1201	 0.491008977708424 
1202	 0.489974259057251 
1203	 0.488994315588916 
1204	 0.487881854433059 
1205	 0.486783441983405 
1206	 0.485640590279181 
1207	 0.484536840346274 
1208	 0.483413587827536 
1209	 0.48233150137547 
1210	 0.481325684565948 
1211	 0.480231902508357 
1212	 0.479096094984359 
1213	 0.477956451714075 
1214	 0.476798177577757 
1215	 0.475595378942356 
1216	 0.474381592895983 
1217	 0.473148113695826 
1218	 0.471845142140058 
1219	 0.470565435818635 
1220	 0.469295468139444 
1221	 0.467935192849168 
1222	 0.466646831203676 
1223	 0.465263600947501 
1224	 0.463917934309369 
1225	 0.462584972675441 
1226	 0.461253623831032 
1227	 0.459917185109645 
1228	 0.458576125438448 
1229	 0.457222711980525 
1230	 0.455882466120399 
1231	 0.454562321916901 
1232	 0.453189587150953 
1233	 0.451799838605181 
1234	 0.45042797242696 
1235	 0.449020894389502 
1236	 0.447627402836027 
1237	 0.446260654887671 
1238	 0.444876719488275 
1239	 0.443496058532505 
1240	 0.442065868703216 
1241	 0.440617591099587 
1242	 0.43930317471981 
1243	 0.437948622281558 
1244	 0.436610797831353 
1245	 0.435254651806648 
1246	 0.433920461257241 
1247	 0.43253704083574 
1248	 0.431118696514939 
1249	 0.429699566169221 
1250	 0.428241423801544 
1251	 0.426832747207597 
1252	 0.425443899911605 
1253	 0.424039654613022 
1254	 0.422660131224298 
1255	 0.421248141349747 
1256	 0.419799780751654 
1257	 0.418356191984854 
1258	 0.416870367955034 
1259	 0.415452994643933 
1260	 0.414064034464567 
1261	 0.41268125437772 
1262	 0.411392529579378 
1263	 0.410009860651308 
1264	 0.408664770221282 
1265	 0.407311879363644 
1266	 0.405963467851481 
1267	 0.404639792421518 
1268	 0.403269960164409 
1269	 0.401868442493669 
1270	 0.400490480672372 
1271	 0.399059457858909 
1272	 0.397723525574851 
1273	 0.39646068025846 
1274	 0.395168702008243 
1275	 0.393927542166438 
1276	 0.392663357168349 
1277	 0.391387654113164 
1278	 0.390104451621979 
1279	 0.388821667756872 
1280	 0.38753896851266 
1281	 0.386271347336968 
1282	 0.384962369910107 
1283	 0.383629807144899 
1284	 0.382311559230443 
1285	 0.380985753950425 
1286	 0.379617392048616 
1287	 0.378311176515033 
1288	 0.377038313588158 
1289	 0.375770236321632 
1290	 0.374524774298222 
1291	 0.373275221821371 
1292	 0.372047400940342 
1293	 0.370807285359247 
1294	 0.369575089224443 
1295	 0.368322035993306 
1296	 0.367066631645897 
1297	 0.365794831072666 
1298	 0.364518413369545 
1299	 0.363211402314771 
1300	 0.361875187613716 
1301	 0.360546087302958 
1302	 0.359216715389613 
1303	 0.357851547725568 
1304	 0.356479409888568 
1305	 0.355089047355527 
1306	 0.353636641754537 
1307	 0.352216479243715 
1308	 0.350874474232868 
1309	 0.349415695635626 
1310	 0.347978678181472 
1311	 0.346531995336339 
1312	 0.345092251598308 
1313	 0.343629682267628 
1314	 0.34217513767679 
1315	 0.340748996271604 
1316	 0.339283850020048 
1317	 0.337769209891077 
1318	 0.336306316451277 
1319	 0.334875942192671 
1320	 0.333402031939355 
1321	 0.331901059212216 
1322	 0.3304579034906 
1323	 0.329019336972368 
1324	 0.327581859822364 
1325	 0.326197420258133 
1326	 0.324792683085091 
1327	 0.323385866759768 
1328	 0.321940578636472 
1329	 0.320485826154289 
1330	 0.319031054883982 
1331	 0.31753249848645 
1332	 0.316046073706341 
1333	 0.31461693497248 
1334	 0.313094573002164 
1335	 0.311642469808296 
1336	 0.310185466370303 
1337	 0.308748673409014 
1338	 0.307349150295517 
1339	 0.305934573464628 
1340	 0.304501390440162 
1341	 0.303118777980382 
1342	 0.301743311879196 
1343	 0.300412832179695 
1344	 0.299134375147557 
1345	 0.29784000063178 
1346	 0.296561201984753 
1347	 0.295301412371836 
1348	 0.294048674166142 
1349	 0.292802296474473 
1350	 0.291563622860625 
1351	 0.290348332371908 
1352	 0.289130279364783 
1353	 0.287942313318981 
1354	 0.286758546464945 
1355	 0.285643336377197 
1356	 0.284592904533174 
1357	 0.283528061029939 
1358	 0.282478420849577 
1359	 0.28147348630637 
1360	 0.280496341423968 
1361	 0.279495066740212 
1362	 0.278543109025072 
1363	 0.277727668955203 
1364	 0.276892816951291 
1365	 0.276087197569774 
1366	 0.275296383425973 
1367	 0.274538192033148 
1368	 0.273798303930597 
1369	 0.273055237896853 
1370	 0.272375871030078 
1371	 0.271743965112393 
1372	 0.271132820950238 
1373	 0.270537807051963 
1374	 0.270005740571333 
1375	 0.269517243733198 
1376	 0.269048584909825 
1377	 0.268630535318496 
1378	 0.268224856618751 
1379	 0.267821644541965 
1380	 0.26746686309787 
1381	 0.267156083346691 
1382	 0.266865590914724 
1383	 0.266606624404454 
1384	 0.266375042152424 
1385	 0.266156950105383 
1386	 0.265993516256829 
1387	 0.265895363773532 
1388	 0.265795947160105 
1389	 0.265716746159165 
1390	 0.265676372479659 
1391	 0.265667654113013 
1392	 0.265660472896371 
1393	 0.265683625812469 
1394	 0.265713215652553 
1395	 0.265732038838622 
1396	 0.265713827857898 
1397	 0.265776321863576 
1398	 0.265869348204276 
1399	 0.265979514059061 
1400	 0.266150075807749 
1401	 0.266276989709124 
1402	 0.266395422997871 
1403	 0.266523798692288 
1404	 0.266633678048653 
1405	 0.266777962063609 
1406	 0.266951977824353 
1407	 0.267111711791146 
1408	 0.267286465604504 
1409	 0.267447238186717 
1410	 0.267581025135867 
1411	 0.267747049043208 
1412	 0.267926419406631 
1413	 0.268109038694021 
1414	 0.268321859699645 
1415	 0.268512454015132 
1416	 0.268701570770669 
1417	 0.268873371863019 
1418	 0.269015741685594 
1419	 0.269177924172715 
1420	 0.269343675133852 
1421	 0.269504642428825 
1422	 0.269690151309294 
1423	 0.269848248410637 
1424	 0.269997278146981 
1425	 0.270118572710941 
1426	 0.270219059284457 
1427	 0.270309534163048 
1428	 0.270373939889583 
1429	 0.270422505210586 
1430	 0.270456249825072 
1431	 0.27047228213348 
1432	 0.27048457445409 
1433	 0.270477468610437 
1434	 0.270479077298059 
1435	 0.270475333484756 
1436	 0.270478990299879 
1437	 0.270506833691013 
1438	 0.270477191799478 
1439	 0.270428824974065 
1440	 0.270366765802747 
1441	 0.270269796431698 
1442	 0.270161853130668 
1443	 0.270042037595158 
1444	 0.269921868464763 
1445	 0.26977508273054 
1446	 0.269633789679128 
1447	 0.26950027381281 
1448	 0.269360539716042 
1449	 0.269209809337369 
1450	 0.269056555925358 
1451	 0.268910125779461 
1452	 0.268749039037914 
1453	 0.268581951654173 
1454	 0.268398196021076 
1455	 0.268200130073874 
1456	 0.26799809761485 
1457	 0.267770507128618 
1458	 0.267555580582215 
1459	 0.267366005695514 
1460	 0.267137646086626 
1461	 0.266886089642496 
1462	 0.266639509352712 
1463	 0.266358116662564 
1464	 0.266095166482973 
1465	 0.265862915222443 
1466	 0.265595824763483 
1467	 0.265359758929661 
1468	 0.265138078378328 
1469	 0.264912719240154 
1470	 0.264712820293723 
1471	 0.26449060954663 
1472	 0.264263202207701 
1473	 0.264027855533929 
1474	 0.263775991198503 
1475	 0.263551313961919 
1476	 0.263328374994377 
1477	 0.263111783305931 
1478	 0.262919783043234 
1479	 0.262711586289705 
1480	 0.262504901938167 
1481	 0.262274546596485 
1482	 0.262029190826905 
1483	 0.261789405073743 
1484	 0.261527422699871 
1485	 0.261284797795155 
1486	 0.261048988141122 
1487	 0.260832003391876 
1488	 0.260626152224476 
1489	 0.26042177232012 
1490	 0.260231849536993 
1491	 0.260045686899504 
1492	 0.259854718259969 
1493	 0.259682018116879 
1494	 0.25952419364481 
1495	 0.25937901215153 
1496	 0.259239619143178 
1497	 0.259118384585272 
1498	 0.259024605126107 
1499	 0.258923719963818 
1500	 0.258830466705456 
1501	 0.258741792938723 
1502	 0.258656943843793 
1503	 0.258572104311273 
1504	 0.25847364245921 
1505	 0.258411816358388 
1506	 0.258370829364296 
1507	 0.258331850346054 
1508	 0.258325225089387 
1509	 0.258312127575531 
1510	 0.258287609040352 
1511	 0.258275476136649 
1512	 0.258270362264371 
1513	 0.258276996865728 
1514	 0.258296707561537 
1515	 0.258317416619149 
1516	 0.258346668033324 
1517	 0.258381600578386 
1518	 0.258427800787011 
1519	 0.258464043838065 
1520	 0.258493094478846 
1521	 0.258537773863469 
1522	 0.258577076579818 
1523	 0.258605110532704 
1524	 0.258645706224079 
1525	 0.25869220055798 
1526	 0.258751883219321 
1527	 0.258821658461516 
1528	 0.258877874050558 
1529	 0.258946198997748 
1530	 0.258993256360764 
1531	 0.259021647359204 
1532	 0.259053856630281 
1533	 0.259087728841173 
1534	 0.259106630249384 
1535	 0.259114665353819 
1536	 0.259117558427839 
1537	 0.25910696601645 
1538	 0.259106570082601 
1539	 0.259099195245494 
1540	 0.25910760045266 
1541	 0.259132050608659 
1542	 0.259139711204968 
1543	 0.259144267327134 
1544	 0.259155537277753 
1545	 0.259166160036586 
1546	 0.259167394965606 
1547	 0.259174719934239 
1548	 0.259171767918047 
1549	 0.259145729105311 
1550	 0.259140274215158 
1551	 0.259152435153752 
1552	 0.259142545950648 
1553	 0.259125286039198 
1554	 0.259111720905074 
1555	 0.259086288798402 
1556	 0.25906826366088 
1557	 0.259064492617125 
1558	 0.259044395080316 
1559	 0.259009463651086 
1560	 0.258986629995937 
1561	 0.258970868818619 
1562	 0.258939946406188 
1563	 0.258901325759018 
1564	 0.258873076631083 
1565	 0.25884005910424 
1566	 0.258805922445321 
1567	 0.258773478888869 
1568	 0.25875530056225 
1569	 0.258732009741795 
1570	 0.258722497131149 
1571	 0.258743595349092 
1572	 0.258747364400487 
1573	 0.258745012210338 
1574	 0.25874339162706 
1575	 0.258737429016086 
1576	 0.258736915727595 
1577	 0.258745665654385 
1578	 0.258738734521138 
1579	 0.25872841742165 
1580	 0.258713284433823 
1581	 0.258664131882019 
1582	 0.25865785546296 
1583	 0.258673308429577 
1584	 0.258689993444692 
1585	 0.258724500838122 
1586	 0.258769653638631 
1587	 0.258837506489246 
1588	 0.258878804131617 
1589	 0.258929917089053 
1590	 0.258961625158503 
1591	 0.258948148845525 
1592	 0.258962798787302 
1593	 0.258992796806802 
1594	 0.259014037919832 
1595	 0.259039853994975 
1596	 0.259062443430502 
1597	 0.259078419105242 
1598	 0.259094023845363 
1599	 0.259100611829637 
1600	 0.259126364016536 
1601	 0.259164936972839 
1602	 0.259196281079222 
1603	 0.259241080170427 
1604	 0.259276349796223 
1605	 0.259283940256124 
1606	 0.259321326522966 
1607	 0.259374863709823 
1608	 0.259431952523214 
1609	 0.259508288139702 
1610	 0.259581492091757 
1611	 0.259665514261232 
1612	 0.259734831191481 
1613	 0.259807698438718 
1614	 0.259862285494662 
1615	 0.259892744363405 
1616	 0.259925954076973 
1617	 0.259952147872132 
1618	 0.259974469926972 
1619	 0.259979230436907 
1620	 0.260010460044256 
1621	 0.260044456169855 
1622	 0.260091294775527 
1623	 0.260171048332056 
1624	 0.260238028132906 
1625	 0.260313383894419 
1626	 0.260371858707624 
1627	 0.260435755039646 
1628	 0.260466855658054 
1629	 0.26046004424243 
1630	 0.260465427219408 
1631	 0.26044667594002 
1632	 0.260445482410148 
1633	 0.260451668917815 
1634	 0.260467801582985 
1635	 0.260511324992789 
1636	 0.260528073372497 
1637	 0.260542413351978 
1638	 0.260550159345365 
1639	 0.260531936256307 
1640	 0.260522097422735 
1641	 0.260541271792991 
1642	 0.260510486994416 
1643	 0.260434602237797 
1644	 0.260382269288738 
1645	 0.260310522259391 
1646	 0.260245155303709 
1647	 0.260196856833049 
1648	 0.26014947230539 
1649	 0.260095647602374 
1650	 0.260045637504724 
1651	 0.260015538809135 
1652	 0.259972404641341 
1653	 0.259899104666086 
1654	 0.259850158948192 
1655	 0.259830308240224 
1656	 0.25978015823506 
1657	 0.259719090995753 
1658	 0.259679726099196 
1659	 0.259624472557946 
1660	 0.259583103384417 
1661	 0.259592241774535 
1662	 0.259545474601495 
1663	 0.259462006964228 
1664	 0.259393136102038 
1665	 0.259297214236148 
1666	 0.259222299632532 
1667	 0.259166961336262 
1668	 0.25910534029805 
1669	 0.259057276793994 
1670	 0.258986183134566 
1671	 0.258904220293277 
1672	 0.258816295910963 
1673	 0.258720028186963 
1674	 0.258602988675749 
1675	 0.258461628823328 
1676	 0.258344820763412 
1677	 0.258203460503085 
1678	 0.258101862407666 
1679	 0.258040513213302 
1680	 0.257968782407243 
1681	 0.257917095019633 
1682	 0.257844550506904 
1683	 0.257759557437199 
1684	 0.257691757506812 
1685	 0.257645615459154 
1686	 0.257549775829707 
1687	 0.257430370657229 
1688	 0.257332845280811 
1689	 0.257183427592071 
1690	 0.257096036038998 
1691	 0.257067093273487 
1692	 0.257014203325825 
1693	 0.256988825144557 
1694	 0.256923100842642 
1695	 0.256843759436073 
1696	 0.256746547747128 
1697	 0.256619248361023 
1698	 0.256488692265212 
1699	 0.256349104242727 
1700	 0.256206104889771 
1701	 0.256032917332835 
1702	 0.255910029869415 
1703	 0.255817137424694 
1704	 0.255697959689378 
1705	 0.255589889576745 
1706	 0.255470607292777 
1707	 0.255344997406562 
1708	 0.255201584052161 
1709	 0.255053777787111 
1710	 0.254894549132294 
1711	 0.254716922952402 
1712	 0.254589992379078 
1713	 0.254474079345025 
1714	 0.254331738661227 
1715	 0.254199533776597 
1716	 0.254032178808889 
1717	 0.25386059634248 
1718	 0.253687583931794 
1719	 0.253537052118493 
1720	 0.253418063916962 
1721	 0.253284494662633 
1722	 0.253167325591028 
1723	 0.253029355592496 
1724	 0.252901173218548 
1725	 0.252814720747368 
1726	 0.252737744394056 
1727	 0.252699891574503 
1728	 0.252665079266295 
1729	 0.252595870367048 
1730	 0.252547472890674 
1731	 0.252507213109974 
1732	 0.252439423343306 
1733	 0.252401959011688 
1734	 0.252402137686786 
1735	 0.252405276494883 
1736	 0.252414911057695 
1737	 0.252441039580414 
1738	 0.252402349083514 
1739	 0.252412481184216 
1740	 0.252411449123149 
1741	 0.252492374912051 
1742	 0.252677077708463 
1743	 0.252817849165986 
1744	 0.252967061457039 
1745	 0.253160096262094 
1746	 0.253351645232876 
1747	 0.253569098600216 
1748	 0.253841931551034 
1749	 0.254099655820929 
1750	 0.25432159460117 
1751	 0.254622175926865 
1752	 0.254969528980205 
1753	 0.255372137917339 
1754	 0.255848170453795 
1755	 0.256308695254159 
1756	 0.256765735619719 
1757	 0.257279531911366 
1758	 0.257862655719008 
1759	 0.258436201441403 
1760	 0.259121564354756 
1761	 0.259878597522369 
1762	 0.260562169805154 
1763	 0.261321803461057 
1764	 0.262083445022417 
1765	 0.262781379536582 
1766	 0.263583260282281 
1767	 0.264389329470549 
1768	 0.265257724041487 
1769	 0.266236374561443 
1770	 0.267205892456956 
1771	 0.268260973871582 
1772	 0.269323427246879 
1773	 0.270413636002893 
1774	 0.271592881731568 
1775	 0.272735135911604 
1776	 0.273981421000281 
1777	 0.275235173418155 
1778	 0.276408559255662 
1779	 0.277743633165343 
1780	 0.279077199412543 
1781	 0.280426209963703 
1782	 0.281933377039083 
1783	 0.283363137810167 
1784	 0.284910266837467 
1785	 0.286599804404669 
1786	 0.288200508887969 
1787	 0.289851477337705 
1788	 0.291504619005892 
1789	 0.293120726164903 
1790	 0.294826618794518 
1791	 0.296599070695264 
1792	 0.298413098520628 
1793	 0.300221699956608 
1794	 0.302063627218084 
1795	 0.303933626490805 
1796	 0.305747520060042 
1797	 0.30771199349608 
1798	 0.309619806111609 
1799	 0.31160736641694 
1800	 0.313705505876383 
1801	 0.312459816075672 
1802	 0.314429591632365 
1803	 0.316505203116147 
1804	 0.318537192464795 
1805	 0.320669605581229 
1806	 0.322780786680407 
1807	 0.324970305848022 
1808	 0.327188510495939 
1809	 0.329387718115542 
1810	 0.331599265003502 
1811	 0.333930706908735 
1812	 0.336175064439522 
1813	 0.338297586877839 
1814	 0.340627942871521 
1815	 0.342763571313973 
1816	 0.345038902326638 
1817	 0.347296882973238 
1818	 0.349481689987522 
1819	 0.351787060356704 
1820	 0.354196006652204 
1821	 0.356605114200983 
1822	 0.359025790721521 
1823	 0.361612214950822 
1824	 0.364109831738608 
1825	 0.366564829224102 
1826	 0.369097307201759 
1827	 0.371630214341523 
1828	 0.37419868479855 
1829	 0.376867431410698 
1830	 0.379476958969709 
1831	 0.382065428040937 
1832	 0.384712381913408 
1833	 0.38723938375871 
1834	 0.389794955360641 
1835	 0.392458432136603 
1836	 0.394936113525616 
1837	 0.397477167303517 
1838	 0.400052185897564 
1839	 0.402627936657217 
1840	 0.405178783715147 
1841	 0.407789453270817 
1842	 0.410417584468255 
1843	 0.413078503340771 
1844	 0.415873279124781 
1845	 0.418458789073075 
1846	 0.421115376372162 
1847	 0.423807910646266 
1848	 0.426509631736705 
1849	 0.429235351614561 
1850	 0.431964799761466 
1851	 0.434684496708909 
1852	 0.437477503042991 
1853	 0.440378681873822 
1854	 0.443036637936694 
1855	 0.44586203222678 
1856	 0.448655409707345 
1857	 0.451289720914529 
1858	 0.454162308371035 
1859	 0.456969814484594 
1860	 0.459814496146758 
1861	 0.462641377980426 
1862	 0.465505169052952 
1863	 0.4682162079705 
1864	 0.471075313382121 
1865	 0.473814299016963 
1866	 0.476548415897825 
1867	 0.479439720075611 
1868	 0.482069513099678 
1869	 0.484858613690411 
1870	 0.487623795875486 
1871	 0.490322984689811 
1872	 0.49298943773277 
1873	 0.495727031249572 
1874	 0.498350658545185 
1875	 0.500809936804113 
1876	 0.503424481110178 
1877	 0.505919215992373 
1878	 0.508521410561766 
1879	 0.511261871726625 
1880	 0.513864268456065 
1881	 0.51653023275762 
1882	 0.519314524437338 
1883	 0.521925665878631 
1884	 0.524477981151482 
1885	 0.52725833950123 
1886	 0.529852592876649 
1887	 0.53248344211041 
1888	 0.535221189804386 
1889	 0.537738528632988 
1890	 0.540278289039788 
1891	 0.542833946731429 
1892	 0.545260350845153 
1893	 0.547773997473126 
1894	 0.550347011288922 
1895	 0.552875310322251 
1896	 0.55536890700368 
1897	 0.557867645268987 
1898	 0.56019935141105 
1899	 0.562731181872777 
1900	 0.565227494054282 
1901	 0.567710296039267 
1902	 0.57041342208174 
1903	 0.57288833647431 
1904	 0.575373120001722 
1905	 0.577894389059067 
1906	 0.580390954956422 
1907	 0.582546822499235 
1908	 0.584729629705471 
1909	 0.586866182599995 
1910	 0.589020486181919 
1911	 0.591390303803729 
1912	 0.593673248517262 
1913	 0.596040375139418 
1914	 0.59852456523351 
1915	 0.600810163533337 
1916	 0.602943758756459 
1917	 0.605231471680714 
1918	 0.607516326101125 
1919	 0.60960658030872 
1920	 0.611871046701213 
1921	 0.614160876109426 
1922	 0.616412857547326 
1923	 0.618658021227024 
1924	 0.620732082709764 
1925	 0.62279881626108 
1926	 0.624865506335839 
1927	 0.62677453634169 
1928	 0.628794444545912 
1929	 0.630935852644697 
1930	 0.632988399366446 
1931	 0.634918952887754 
1932	 0.63697328975281 
1933	 0.638893641226661 
1934	 0.640880417447456 
1935	 0.642928120984894 
1936	 0.644814939383142 
1937	 0.646730661558646 
1938	 0.648597800478325 
1939	 0.650493063417725 
1940	 0.65239182748916 
1941	 0.654320519103842 
1942	 0.656182639068684 
1943	 0.658046561366207 
1944	 0.659784053117018 
1945	 0.661519461821177 
1946	 0.66335640095121 
1947	 0.665105207286162 
1948	 0.666846295563431 
1949	 0.668539720268023 
1950	 0.670098588884947 
1951	 0.671494818986003 
1952	 0.672899642913409 
1953	 0.674211877073703 
1954	 0.675488974410123 
1955	 0.676895742587256 
1956	 0.678246885830834 
1957	 0.679661343447845 
1958	 0.68120000554041 
1959	 0.682610702170488 
1960	 0.684130746953906 
1961	 0.685605897030282 
1962	 0.687036068400857 
1963	 0.688507198861244 
1964	 0.68999940681415 
1965	 0.691464015559008 
1966	 0.692927780203715 
1967	 0.694510832300296 
1968	 0.695939787416985 
1969	 0.697230120207229 
1970	 0.69839474725306 
1971	 0.699478521263809 
1972	 0.700573750973178 
1973	 0.701667010592492 
1974	 0.702798838972512 
1975	 0.703996474798267 
1976	 0.705147064030457 
1977	 0.706336867711411 
1978	 0.707467818620869 
1979	 0.70858952984811 
1980	 0.709632334571494 
1981	 0.710633119293852 
1982	 0.711537461655954 
1983	 0.712503024073604 
1984	 0.713457581186617 
1985	 0.714522743763385 
1986	 0.715621946192449 
1987	 0.716569131975454 
1988	 0.717397243952299 
1989	 0.718353050507958 
1990	 0.719237393679554 
1991	 0.720158409749258 
1992	 0.721191574176618 
1993	 0.722204429368683 
1994	 0.723119415241387 
1995	 0.724045810138806 
1996	 0.724896806702469 
1997	 0.725838121120287 
1998	 0.72668036213703 
1999	 0.727430740036878 
2000	 0.728206894570454 
2001	 0.729037155448126 
2002	 0.729677311354632 
2003	 0.730197295099985 
2004	 0.730750055609495 
2005	 0.731142757477051 
2006	 0.731628934896353 
2007	 0.732163158776609 
2008	 0.732772324924085 
2009	 0.73322588787792 
2010	 0.733776221665047 
2011	 0.734309373542576 
2012	 0.73481554915781 
2013	 0.735411062722326 
2014	 0.7360807697684 
2015	 0.736739016020754 
2016	 0.737441907693659 
2017	 0.738158234342517 
2018	 0.738975930827939 
2019	 0.739650694197405 
2020	 0.740264119933647 
2021	 0.740879945183059 
2022	 0.741427870624539 
2023	 0.741981387729157 
2024	 0.742578100227422 
2025	 0.743136479269747 
2026	 0.743615102087576 
2027	 0.74400177623554 
2028	 0.74439788071397 
2029	 0.744754966036783 
2030	 0.745079699933575 
2031	 0.745345096505709 
2032	 0.745625730768662 
2033	 0.745865808626718 
2034	 0.746138398060558 
2035	 0.746394391822427 
2036	 0.746738595478139 
2037	 0.747046404062898 
2038	 0.747385704414579 
2039	 0.747742548351848 
2040	 0.748122120883452 
2041	 0.748511075642405 
2042	 0.748955303550599 
2043	 0.749316464181543 
2044	 0.749673935590348 
2045	 0.749964403016261 
2046	 0.750216650603459 
2047	 0.750429210094224 
2048	 0.75061257181782 
2049	 0.750716740880712 
2050	 0.750766266514219 
2051	 0.750660486649004 
2052	 0.750623013002353 
2053	 0.750745393635675 
2054	 0.750905207416967 
2055	 0.751214295940138 
2056	 0.751477258127323 
2057	 0.751764589439202 
2058	 0.752037875757759 
2059	 0.752346746137831 
2060	 0.7526031736271 
2061	 0.752885123901469 
2062	 0.753084597715557 
2063	 0.753201489830937 
2064	 0.753346784389765 
2065	 0.753523744010217 
2066	 0.753571782659375 
2067	 0.753523360307743 
2068	 0.753399658232376 
2069	 0.753273661724234 
2070	 0.752948476832931 
2071	 0.75279879513455 
2072	 0.752774470230677 
2073	 0.752669209464168 
2074	 0.752482441825559 
2075	 0.752464404151656 
2076	 0.752530880531375 
2077	 0.752565244071526 
2078	 0.752700421267385 
2079	 0.752811173949985 
2080	 0.75283467071486 
2081	 0.752966427692799 
2082	 0.753261020832694 
2083	 0.753447354522696 
2084	 0.753585994987598 
2085	 0.753675039857615 
2086	 0.753757335711748 
2087	 0.753749729769382 
2088	 0.753769411514979 
2089	 0.753819405517073 
2090	 0.753800881045649 
2091	 0.753670257383485 
2092	 0.753640490952673 
2093	 0.753677413490676 
2094	 0.753676191678159 
2095	 0.753684407095148 
2096	 0.753674300610725 
2097	 0.753636790885945 
2098	 0.753590064470635 
2099	 0.753503564819077 
2100	 0.753464213647536 
2101	 0.753415921758267 
2102	 0.753325661675951 
2103	 0.753297100677963 
2104	 0.753336326951505 
2105	 0.753317202980188 
2106	 0.753335596738095 
2107	 0.753256277033994 
2108	 0.753069845075414 
2109	 0.75296921681229 
2110	 0.752777804373313 
2111	 0.752715461943665 
2112	 0.752844371344076 
2113	 0.752848832680125 
2114	 0.752818376897386 
2115	 0.752851926648559 
2116	 0.752933304829184 
2117	 0.752875122877534 
2118	 0.752845951174961 
2119	 0.752850690379988 
2120	 0.752883000105081 
2121	 0.752873784949038 
2122	 0.75287054669882 
2123	 0.753033337097638 
2124	 0.752910349927699 
2125	 0.752591204058933 
2126	 0.752309204614359 
2127	 0.751795737083039 
2128	 0.751531163948281 
2129	 0.751297903398641 
2130	 0.75121292258372 
2131	 0.751513265171894 
2132	 0.751500460051617 
2133	 0.751377190217838 
2134	 0.75133730225921 
2135	 0.75094372858756 
2136	 0.750668942830953 
2137	 0.750456095899762 
2138	 0.750295438176237 
2139	 0.750129855967286 
2140	 0.750029959740377 
2141	 0.749887161604879 
2142	 0.749723752457517 
2143	 0.749617780209312 
2144	 0.749612416169994 
2145	 0.749428195191108 
2146	 0.749330285823867 
2147	 0.748963277355886 
2148	 0.748106455651664 
2149	 0.747640381705495 
2150	 0.747294318036504 
2151	 0.74684280698893 
2152	 0.746551355077797 
2153	 0.746286546331692 
2154	 0.745599847277754 
2155	 0.744872665225631 
2156	 0.744280004158073 
2157	 0.743751036375974 
2158	 0.743066381806804 
2159	 0.74237984122384 
2160	 0.741642308954386 
2161	 0.740621567596988 
2162	 0.739988454182896 
2163	 0.739569476102657 
2164	 0.73911701980387 
2165	 0.738952573611511 
2166	 0.738481263514747 
2167	 0.737860408810194 
2168	 0.737249989637098 
2169	 0.736423070423528 
2170	 0.735765411614129 
2171	 0.735255879326292 
2172	 0.734621000886525 
2173	 0.733891312775047 
2174	 0.733334900123338 
2175	 0.73279019650431 
2176	 0.732022096808326 
2177	 0.7313017893194 
2178	 0.730571382681342 
2179	 0.729967506535729 
2180	 0.729284299419728 
2181	 0.728803219025426 
2182	 0.728726678917216 
2183	 0.728206334287679 
2184	 0.727397983950207 
2185	 0.726860478770213 
2186	 0.726243016375535 
2187	 0.725686859596135 
2188	 0.725392675788242 
2189	 0.72498356257288 
2190	 0.724521142979358 
2191	 0.72399568195957 
2192	 0.723534881558651 
2193	 0.722903938218935 
2194	 0.721904252033331 
2195	 0.721157506650172 
2196	 0.720405930063586 
2197	 0.719776982937453 
2198	 0.719433743675163 
2199	 0.719094845920305 
2200	 0.71860427318003 
2201	 0.718105250204269 
2202	 0.717515638675587 
2203	 0.71669297451646 
2204	 0.716147041432672 
2205	 0.715631383775456 
2206	 0.715318191049698 
2207	 0.715387692088157 
2208	 0.715067591496879 
2209	 0.714713914075217 
2210	 0.71426394539994 
2211	 0.713444159210122 
2212	 0.712973472077441 
2213	 0.712767876801651 
2214	 0.712372490993809 
2215	 0.712044910678749 
2216	 0.711604045184218 
2217	 0.710816174727583 
2218	 0.710358611417436 
2219	 0.710054762865379 
2220	 0.709774940052634 
2221	 0.709603801218814 
2222	 0.709610952431494 
2223	 0.709517113022646 
2224	 0.709812362129273 
2225	 0.710172492857524 
2226	 0.710303672523461 
2227	 0.710208266102961 
2228	 0.709977871078851 
2229	 0.709517948465524 
2230	 0.708730334154378 
2231	 0.707974035889054 
2232	 0.706843748911322 
2233	 0.706161377854147 
2234	 0.705313265173667 
2235	 0.705292013589025 
2236	 0.706396716111483 
2237	 0.706449522006481 
2238	 0.706462351536496 
2239	 0.706362934417785 
2240	 0.705462754928803 
2241	 0.704976579220175 
2242	 0.705064398447717 
2243	 0.704784995215362 
2244	 0.704111177309037 
2245	 0.70366115516353 
2246	 0.70304545448663 
2247	 0.702748351487169 
2248	 0.702886164814008 
2249	 0.702847325725277 
2250	 0.702937683216488 
2251	 0.702863521198446 
2252	 0.703232954401259 
2253	 0.703169352523633 
2254	 0.703298408864608 
2255	 0.703471823240213 
2256	 0.703138577616346 
2257	 0.703256780139457 
2258	 0.703330120233409 
2259	 0.703571647767124 
2260	 0.703869267489001 
2261	 0.704181134230466 
2262	 0.704419878926704 
2263	 0.704966788797815 
2264	 0.704854215434934 
2265	 0.70436584889543 
2266	 0.703977398235276 
2267	 0.7033749526781 
2268	 0.702652293356157 
2269	 0.701529570319915 
2270	 0.701226775793686 
2271	 0.701012206610341 
2272	 0.701001068499009 
2273	 0.701893430323802 
2274	 0.702152563548707 
2275	 0.702114092521205 
2276	 0.702088445479215 
2277	 0.702104215998313 
2278	 0.702025450376951 
2279	 0.701791117066955 
2280	 0.701440876926415 
2281	 0.700733159530488 
2282	 0.700346838559563 
2283	 0.700011159438876 
2284	 0.699801576096832 
2285	 0.699878510774913 
2286	 0.699684954493354 
2287	 0.699646445065577 
2288	 0.700432052185971 
2289	 0.700943452271302 
2290	 0.700989780513528 
2291	 0.700672419228571 
2292	 0.699872627831438 
2293	 0.699249456350381 
2294	 0.699077653844101 
2295	 0.699111882811439 
2296	 0.699360993800953 
2297	 0.69934948504041 
2298	 0.699425364352814 
2299	 0.699107359173023 
2300	 0.698413960692501 
2301	 0.697904724364574 
2302	 0.697087946937638 
2303	 0.696893196268643 
2304	 0.696916467974336 
2305	 0.697165512431622 
2306	 0.697998543724454 
2307	 0.698612799118216 
2308	 0.699370558044591 
2309	 0.69985865003966 
2310	 0.700444383192421 
2311	 0.700478681429145 
2312	 0.699963202193387 
2313	 0.699771888911268 
2314	 0.699234477160023 
2315	 0.698948077114568 
2316	 0.698959640751758 
2317	 0.699065010978325 
2318	 0.699416938822513 
2319	 0.699499615804579 
2320	 0.699160574306702 
2321	 0.699350423479494 
2322	 0.699779893174701 
2323	 0.700177733399104 
2324	 0.701379200573004 
2325	 0.701944433020937 
2326	 0.702147222664542 
2327	 0.701932129788395 
2328	 0.700862819483844 
2329	 0.700383313848783 
2330	 0.700032865983141 
2331	 0.699405951429823 
2332	 0.69880936149101 
2333	 0.699318339356971 
2334	 0.698700366114372 
2335	 0.6986147242369 
2336	 0.700561578701669 
2337	 0.70105885219115 
2338	 0.7016976958553 
2339	 0.70136262563604 
2340	 0.699409635494364 
2341	 0.699152274228735 
2342	 0.699835975118677 
2343	 0.701244914273548 
2344	 0.702496726974633 
2345	 0.702769628758688 
2346	 0.702829165319893 
2347	 0.703138100792119 
2348	 0.702619531078209 
2349	 0.701346476605324 
2350	 0.700452503496557 
2351	 0.698685948300605 
2352	 0.698091406717985 
2353	 0.698573335635004 
2354	 0.698116612829258 
2355	 0.697707811348393 
2356	 0.697910908418703 
2357	 0.698612422480616 
2358	 0.699557543727279 
2359	 0.700742057307826 
2360	 0.700588479808032 
2361	 0.700252894989478 
2362	 0.698873403274915 
2363	 0.697334007660845 
2364	 0.697371014219461 
2365	 0.697324125829197 
2366	 0.69993226118269 
2367	 0.702005910384775 
2368	 0.702473320517885 
2369	 0.703028876704559 
2370	 0.702422035437862 
2371	 0.702319827596911 
2372	 0.701432600939823 
2373	 0.700570493652176 
2374	 0.700774841811381 
2375	 0.700482536411838 
2376	 0.69992621931027 
2377	 0.699449610001229 
2378	 0.698252134105953 
2379	 0.695138549722475 
2380	 0.693573769090228 
2381	 0.694604882075923 
2382	 0.69535054280449 
2383	 0.697717415997229 
2384	 0.698346481455754 
2385	 0.698534791387037 
2386	 0.697661913941455 
2387	 0.693686671175044 
2388	 0.693566070709085 
2389	 0.696499533837069 
2390	 0.696193842335901 
2391	 0.696394751073617 
2392	 0.694619967854841 
2393	 0.688511233619866 
2394	 0.686471252739737 
2395	 0.68608656999154 
2396	 0.686163375022113 
2397	 0.688883232603463 
2398	 0.689618343760144 
2399	 0.689792524532765 
2400	 0.689760321058776 
2401	 0.687671594829284 
2402	 0.686956878706589 
2403	 0.687922875807318 
2404	 0.688610095566791 
2405	 0.691706147244778 
2406	 0.69556387925617 
2407	 0.697030879470942 
2408	 0.694482292475391 
2409	 0.691502549439989 
2410	 0.690554726920679 
2411	 0.689633608712276 
2412	 0.693859503355602 
2413	 0.697933637381171 
2414	 0.69542952969999 
2415	 0.695649006502781 
2416	 0.693689434257765 
2417	 0.688217046234339 
2418	 0.687365247944149 
2419	 0.687010787391978 
2420	 0.687191871269276 
2421	 0.687295715081952 
2422	 0.685148594110031 
2423	 0.68592150039099 
2424	 0.686201611409298 
2425	 0.685207109025889 
2426	 0.687690478682689 
2427	 0.686381617489072 
2428	 0.683556604257276 
2429	 0.688990399952679 
2430	 0.693596235167384 
2431	 0.693087081698038 
2432	 0.693556357474413 
2433	 0.693797422233376 
2434	 0.693675663891563 
2435	 0.690541951574273 
2436	 0.687257199847989 
2437	 0.684894425993102 
2438	 0.681712794069507 
2439	 0.678550125609247 
2440	 0.674483875828765 
2441	 0.671935998659602 
2442	 0.668551601970852 
2443	 0.671670127760041 
2444	 0.675732622052723 
2445	 0.671845290560574 
2446	 0.673680419841198 
2447	 0.673632863249435 
2448	 0.673905745074391 
2449	 0.684253844669191 
2450	 0.684037083810855 
2451	 0.682855190131793 
2452	 0.690092447174134 
2453	 0.685799709330665 
2454	 0.684328095271536 
2455	 0.683623452703775 
2456	 0.677804508036413 
2457	 0.679538662232694 
2458	 0.6757391377783 
2459	 0.677116424479232 
2460	 0.674701458028354 
2461	 0.663106392269384 
2462	 0.666045763946376 
2463	 0.664070771109513 
2464	 0.660804741653234 
2465	 0.666920434412083 
2466	 0.670508656873747 
2467	 0.6749256038443 
2468	 0.678518347484282 
2469	 0.676564195831624 
2470	 0.671021668563445 
2471	 0.663169122251944 
2472	 0.660931102161529 
2473	 0.671734329339699 
2474	 0.672219971844038 
2475	 0.666764425181973 
2476	 0.669932810469309 
2477	 0.660729599261949 
2478	 0.66088464339047 
2479	 0.671177612237644 
2480	 0.668662138802587 
2481	 0.667993603879509 
2482	 0.663859900671099 
2483	 0.661544547583059 
2484	 0.652283550936909 
2485	 0.644939002938739 
2486	 0.653651648517995 
2487	 0.66916511018767 
2488	 0.680674355798528 
2489	 0.685942306057214 
2490	 0.682450598824431 
2491	 0.679321778700592 
2492	 0.676639272290299 
2493	 0.673098684951523 
2494	 0.677005972597406 
2495	 0.672254531115387 
2496	 0.665488531981755 
2497	 0.664548685538185 
2498	 0.66104342933339 
2499	 0.672258051417345 
2500	 0.693270118843545 
