Wavelength	A00131.asd
350	 1.03601977777977 
351	 1.0529459598244 
352	 1.03953671107334 
353	 1.01240331477793 
354	 1.01711648486013 
355	 1.03147739677158 
356	 1.03836613765051 
357	 1.02998603801837 
358	 1.01905704150354 
359	 1.02689408675581 
360	 1.03796512272302 
361	 1.02618931027046 
362	 1.02300657428042 
363	 1.02898398358246 
364	 1.03427848614059 
365	 1.02049962017795 
366	 1.01968460884017 
367	 1.0276084848361 
368	 1.03369454365651 
369	 1.03450056272782 
370	 1.02976410968544 
371	 1.02474428866537 
372	 1.02580327564316 
373	 1.02538279520361 
374	 1.02835830277997 
375	 1.03251828383601 
376	 1.02499749110854 
377	 1.02698726953992 
378	 1.03176132528213 
379	 1.03083867798802 
380	 1.03262578124033 
381	 1.0301868201964 
382	 1.02641568690634 
383	 1.02854531293609 
384	 1.03090015038956 
385	 1.03195686546278 
386	 1.03150177872654 
387	 1.03029392704579 
388	 1.03057239791128 
389	 1.02981621920877 
390	 1.02634886955306 
391	 1.0258390786172 
392	 1.02657688809074 
393	 1.02775026715409 
394	 1.02921063793588 
395	 1.0311119794866 
396	 1.03098538132788 
397	 1.02898772819481 
398	 1.02982013196664 
399	 1.03074213476757 
400	 1.03105183160628 
401	 1.03081352612215 
402	 1.03079272258688 
403	 1.03066708330309 
404	 1.03040836045756 
405	 1.03018223826002 
406	 1.0290480236603 
407	 1.02938023375336 
408	 1.03147283552159 
409	 1.03079672112084 
410	 1.03126176189032 
411	 1.03125289626424 
412	 1.02891143560129 
413	 1.02997798243946 
414	 1.03128246930446 
415	 1.03143015724063 
416	 1.03107763040656 
417	 1.03056717385222 
418	 1.03056343645062 
419	 1.03111048500962 
420	 1.03072405471052 
421	 1.03106969179686 
422	 1.03183838164791 
423	 1.03194413162968 
424	 1.03096067369589 
425	 1.02995424899896 
426	 1.02964649310583 
427	 1.03021010052564 
428	 1.03079966902334 
429	 1.03114331521952 
430	 1.03130527469635 
431	 1.031965775362 
432	 1.03174396078472 
433	 1.03115911562173 
434	 1.03158700617322 
435	 1.03162856602989 
436	 1.03159096701486 
437	 1.03165170157199 
438	 1.03147093739055 
439	 1.03154759458825 
440	 1.03169764580157 
441	 1.0315862086771 
442	 1.03105698453216 
443	 1.03102806962847 
444	 1.03143263252674 
445	 1.03143119925616 
446	 1.03151270171654 
447	 1.03158838136831 
448	 1.0316036036217 
449	 1.03182015756585 
450	 1.03164095189375 
451	 1.03129913711723 
452	 1.03127187802945 
453	 1.03133807048453 
454	 1.03141109815845 
455	 1.03151056113856 
456	 1.03175820839556 
457	 1.03176883869505 
458	 1.03158106726473 
459	 1.03131998698256 
460	 1.03096690705358 
461	 1.03117442350463 
462	 1.03154093485113 
463	 1.03124249645229 
464	 1.03148718752812 
465	 1.03156625370854 
466	 1.03118734038432 
467	 1.03099802785178 
468	 1.03127639064336 
469	 1.03146898949046 
470	 1.03113542058524 
471	 1.03148721749433 
472	 1.03153246629807 
473	 1.03117629612762 
474	 1.03109615775014 
475	 1.03166909527682 
476	 1.03186555908133 
477	 1.03132426449161 
478	 1.03174315668858 
479	 1.03142781287354 
480	 1.03103870398623 
481	 1.03168865296066 
482	 1.03123820457949 
483	 1.03072622236614 
484	 1.03072376919996 
485	 1.0309928167207 
486	 1.03099343230718 
487	 1.0309390220298 
488	 1.0310945066012 
489	 1.03130719074585 
490	 1.03131111070591 
491	 1.0311124735482 
492	 1.03090638419709 
493	 1.0309184951928 
494	 1.03093853327453 
495	 1.03093696947561 
496	 1.03129748457359 
497	 1.0315509245137 
498	 1.03144516862742 
499	 1.03102014296415 
500	 1.03121883772309 
501	 1.03148575709674 
502	 1.03145895112657 
503	 1.03105505828117 
504	 1.03099159512336 
505	 1.03104405433784 
506	 1.03104161518439 
507	 1.03145949580407 
508	 1.03151750739914 
509	 1.03127270129691 
510	 1.03115106578912 
511	 1.03121912158172 
512	 1.03126877712767 
513	 1.03120904143306 
514	 1.03113316097514 
515	 1.03115275554751 
516	 1.03130540913807 
517	 1.03154602236432 
518	 1.03172408566393 
519	 1.03127596073724 
520	 1.03068805287171 
521	 1.03105793175404 
522	 1.03155424252871 
523	 1.0315594037511 
524	 1.03103769385366 
525	 1.03096347120426 
526	 1.03127344105122 
527	 1.03150906257975 
528	 1.03122533772823 
529	 1.03107058167397 
530	 1.03102921975147 
531	 1.0310725308259 
532	 1.03120019415346 
533	 1.03120419311352 
534	 1.03111646202015 
535	 1.03101605147656 
536	 1.03090636042883 
537	 1.03105892722911 
538	 1.03121369650031 
539	 1.03094661078632 
540	 1.03140642782911 
541	 1.03157864508378 
542	 1.03107342779889 
543	 1.03090365622137 
544	 1.03111630633971 
545	 1.03129815069186 
546	 1.03106854567121 
547	 1.0310100822961 
548	 1.03117212187343 
549	 1.03132201763301 
550	 1.03103924163633 
551	 1.03099959447792 
552	 1.03103776795591 
553	 1.03092561792502 
554	 1.03063832915011 
555	 1.03060268215527 
556	 1.03074092059924 
557	 1.03075521936707 
558	 1.03049785657255 
559	 1.03065845667046 
560	 1.03119714016782 
561	 1.03102431795817 
562	 1.03087668273526 
563	 1.03099681976352 
564	 1.03137346647711 
565	 1.03151679595169 
566	 1.03174678497408 
567	 1.03208297423825 
568	 1.03226672330411 
569	 1.03212148024979 
570	 1.03212173197723 
571	 1.03254387006819 
572	 1.03290251604813 
573	 1.03215263065301 
574	 1.03104085454923 
575	 1.03075313435422 
576	 1.03002980824116 
577	 1.02940221004524 
578	 1.02925228400024 
579	 1.02976379497745 
580	 1.03031278884767 
581	 1.03057957494699 
582	 1.03053871341123 
583	 1.03080120334033 
584	 1.03105357056423 
585	 1.03126599108715 
586	 1.03152205461636 
587	 1.03124727179073 
588	 1.0311834568404 
589	 1.03162013298784 
590	 1.03184249480473 
591	 1.03130236155516 
592	 1.03084508713135 
593	 1.03127521289614 
594	 1.03120004082055 
595	 1.0311844581178 
596	 1.03117279107133 
597	 1.0305976924423 
598	 1.03055481943198 
599	 1.03064782619553 
600	 1.03048189796768 
601	 1.03026977045967 
602	 1.03074534419154 
603	 1.03134127918964 
604	 1.03109819110005 
605	 1.03081208008123 
606	 1.03072920914061 
607	 1.0308495026691 
608	 1.03092539856809 
609	 1.03079333814253 
610	 1.03069478854851 
611	 1.03083036421192 
612	 1.03088371829454 
613	 1.03096363307734 
614	 1.03111536693784 
615	 1.03129976966345 
616	 1.031070887571 
617	 1.03082317318265 
618	 1.03079225619148 
619	 1.03071456413996 
620	 1.0309282001736 
621	 1.0309912834544 
622	 1.03047282813278 
623	 1.03021295712936 
624	 1.03045094704033 
625	 1.03091219386243 
626	 1.03089164131812 
627	 1.03037142458639 
628	 1.03021710359271 
629	 1.0308042520209 
630	 1.03091487824606 
631	 1.03066732745199 
632	 1.03046455278161 
633	 1.03071641882019 
634	 1.03061303551871 
635	 1.03075107308806 
636	 1.03111289603681 
637	 1.03078922710983 
638	 1.03041413821638 
639	 1.03026721882618 
640	 1.03044622588572 
641	 1.03081620319049 
642	 1.03092871204465 
643	 1.03064677856687 
644	 1.03018208851485 
645	 1.03095985720025 
646	 1.03114641630592 
647	 1.03024591672418 
648	 1.0306094578224 
649	 1.03064325388298 
650	 1.03056548615073 
651	 1.03082444072028 
652	 1.03046184983798 
653	 1.03019347757224 
654	 1.0302857041298 
655	 1.03055286324241 
656	 1.03045005702072 
657	 1.03037188903954 
658	 1.03054026348093 
659	 1.03046572017468 
660	 1.03039631037902 
661	 1.03029787546811 
662	 1.0301404640267 
663	 1.0304887896955 
664	 1.03057867109573 
665	 1.0303342083996 
666	 1.03041847943312 
667	 1.03019549726257 
668	 1.03018442162077 
669	 1.0305702323357 
670	 1.03002111139928 
671	 1.03000799462433 
672	 1.0302675594755 
673	 1.02994728242435 
674	 1.03004268553688 
675	 1.03044220706457 
676	 1.03068291635058 
677	 1.0300226854953 
678	 1.02993399329461 
679	 1.03011067441836 
680	 1.03008033712366 
681	 1.03030404097216 
682	 1.03001264415463 
683	 1.02963243676288 
684	 1.03006833516365 
685	 1.03034672210371 
686	 1.03023133969768 
687	 1.02987277482503 
688	 1.02982693097056 
689	 1.02995160694378 
690	 1.03006697224091 
691	 1.03004892405842 
692	 1.0300286140115 
693	 1.03008734339604 
694	 1.03009543903149 
695	 1.02983632552322 
696	 1.02954546945033 
697	 1.02981667997543 
698	 1.03045237120808 
699	 1.0299730064973 
700	 1.02956255182951 
701	 1.0297016850439 
702	 1.03038078020877 
703	 1.03069160086725 
704	 1.03040797313645 
705	 1.02977472157445 
706	 1.02940581933273 
707	 1.03020530077919 
708	 1.03006342565923 
709	 1.02875065213604 
710	 1.02983139669032 
711	 1.03021697221453 
712	 1.03019305081131 
713	 1.0305629557473 
714	 1.02993072847666 
715	 1.02964358380593 
716	 1.02968897633623 
717	 1.02917408841509 
718	 1.02945536754968 
719	 1.02948478964243 
720	 1.02911857523009 
721	 1.03033851300879 
722	 1.03074426036308 
723	 1.03018062307583 
724	 1.02937430823734 
725	 1.02949686043821 
726	 1.02927367316109 
727	 1.02887092919668 
728	 1.0293793955938 
729	 1.0298222006594 
730	 1.0301149671735 
731	 1.03020589230345 
732	 1.02988051051026 
733	 1.02963659110184 
734	 1.02942426628603 
735	 1.02911489172661 
736	 1.02893356946736 
737	 1.02881065951205 
738	 1.02891464438031 
739	 1.02949478098557 
740	 1.0301789079567 
741	 1.03013419070954 
742	 1.02941684677702 
743	 1.02943795465732 
744	 1.02960790005535 
745	 1.02981666568753 
746	 1.02998056609044 
747	 1.02975557985301 
748	 1.02935627491622 
749	 1.02911761892266 
750	 1.02936005868292 
751	 1.0298189797661 
752	 1.03006420116741 
753	 1.02997965758694 
754	 1.02987106658916 
755	 1.02967384272804 
756	 1.02936713703851 
757	 1.02906931666559 
758	 1.0293154651948 
759	 1.02941865715839 
760	 1.0292450385337 
761	 1.02906412569277 
762	 1.02983036167014 
763	 1.03008203036973 
764	 1.02978144707098 
765	 1.03046272232319 
766	 1.02966297254632 
767	 1.02878623260279 
768	 1.02902581613819 
769	 1.02943437328046 
770	 1.02914585582129 
771	 1.02879887839466 
772	 1.02924954752557 
773	 1.02914632260034 
774	 1.02955015919209 
775	 1.03031435970215 
776	 1.03026608402832 
777	 1.02910603721824 
778	 1.02835522049849 
779	 1.02877724996904 
780	 1.02947218750449 
781	 1.02905509038117 
782	 1.02858550334083 
783	 1.02917020234865 
784	 1.02932912812084 
785	 1.02967217868667 
786	 1.0298609051114 
787	 1.029190965445 
788	 1.0283543488954 
789	 1.02859189167587 
790	 1.02950379236886 
791	 1.02883787569191 
792	 1.02817052972326 
793	 1.02827973263045 
794	 1.02918306730405 
795	 1.02957136530569 
796	 1.0292105317415 
797	 1.02888071420263 
798	 1.02932309457881 
799	 1.02888359753577 
800	 1.02841047559378 
801	 1.02837676991004 
802	 1.02877379724297 
803	 1.02865757693834 
804	 1.0287870445464 
805	 1.02941255491103 
806	 1.02968422143811 
807	 1.02940233556056 
808	 1.02907360962117 
809	 1.02906553988294 
810	 1.02867620953063 
811	 1.02866954027086 
812	 1.02896732255665 
813	 1.02905251454406 
814	 1.02827301178388 
815	 1.02823614789689 
816	 1.02902842835773 
817	 1.02932252640972 
818	 1.02937959965908 
819	 1.02941682139451 
820	 1.02933339925346 
821	 1.02848937279594 
822	 1.02815074610028 
823	 1.02845398542223 
824	 1.02902608452396 
825	 1.02904288578804 
826	 1.02906855172181 
827	 1.02885735970971 
828	 1.02810859166822 
829	 1.028323046556 
830	 1.02886859058223 
831	 1.02917360600128 
832	 1.02894409422708 
833	 1.02884197075568 
834	 1.02892852896145 
835	 1.02900400627764 
836	 1.0286347531102 
837	 1.02879539031826 
838	 1.02858543169493 
839	 1.02765421706953 
840	 1.02863953535618 
841	 1.02878935304938 
842	 1.0281671463184 
843	 1.02796776196917 
844	 1.02876692528791 
845	 1.02885445192551 
846	 1.02828437005126 
847	 1.02834242635989 
848	 1.02801034104173 
849	 1.02797477996465 
850	 1.02845241415467 
851	 1.0288305308935 
852	 1.02835858847128 
853	 1.02796595634481 
854	 1.02826755036095 
855	 1.02844789852605 
856	 1.02823953382404 
857	 1.02801208100379 
858	 1.02819161097724 
859	 1.02857287674784 
860	 1.02858923802013 
861	 1.02836871703909 
862	 1.02834490209433 
863	 1.02826767774342 
864	 1.02825312734481 
865	 1.02827932927311 
866	 1.02822075397074 
867	 1.02842174948449 
868	 1.0282072133796 
869	 1.02757738897439 
870	 1.02759488484143 
871	 1.02775016766733 
872	 1.028019656106 
873	 1.02827095621075 
874	 1.02790502325357 
875	 1.02799134869035 
876	 1.02790112943962 
877	 1.02716970398423 
878	 1.02792402347116 
879	 1.02833726722191 
880	 1.02819154675611 
881	 1.02802657872407 
882	 1.02753838908387 
883	 1.02750106198378 
884	 1.02794837299256 
885	 1.02825012666084 
886	 1.02776384864189 
887	 1.02714507468143 
888	 1.02697179264952 
889	 1.02743863317825 
890	 1.0274168437865 
891	 1.02761212015859 
892	 1.0280788450016 
893	 1.02723313631033 
894	 1.02682885737097 
895	 1.0270556816283 
896	 1.02754926686085 
897	 1.02768351130028 
898	 1.02747688650302 
899	 1.02775605702289 
900	 1.02888063726603 
901	 1.02838438197392 
902	 1.02800535602846 
903	 1.02786830332352 
904	 1.02737051221327 
905	 1.02679686992224 
906	 1.02730873048501 
907	 1.0281656175026 
908	 1.02766642943002 
909	 1.02828598161792 
910	 1.02846585141321 
911	 1.0276485751053 
912	 1.02681798644012 
913	 1.02788252182106 
914	 1.02839928674106 
915	 1.02744312397819 
916	 1.02707530104979 
917	 1.02731863030023 
918	 1.02741959036274 
919	 1.02702394394093 
920	 1.02686736737318 
921	 1.02678206434268 
922	 1.02650398725028 
923	 1.02610259597401 
924	 1.02654917964814 
925	 1.02723578647199 
926	 1.02755737974658 
927	 1.02735710454167 
928	 1.02800511166326 
929	 1.0277135956362 
930	 1.02709736996475 
931	 1.02738826928425 
932	 1.02772374448028 
933	 1.02752366338674 
934	 1.02718937037843 
935	 1.0273574574734 
936	 1.02665846996734 
937	 1.02687771766999 
938	 1.02770464676386 
939	 1.02753454771292 
940	 1.02739094494785 
941	 1.02724031274736 
942	 1.02713851523372 
943	 1.02720117872732 
944	 1.02688237198523 
945	 1.02641247132488 
946	 1.02619758554008 
947	 1.02662138725541 
948	 1.02721771463692 
949	 1.02707661738314 
950	 1.02640738186508 
951	 1.02673085452693 
952	 1.02700017041375 
953	 1.02704549663391 
954	 1.02701586261476 
955	 1.02726291590847 
956	 1.02697399257404 
957	 1.02634661460475 
958	 1.02590116419945 
959	 1.02625097991397 
960	 1.02618498024844 
961	 1.02579919288791 
962	 1.0255148747097 
963	 1.02570075276293 
964	 1.02562577388589 
965	 1.02626863694769 
966	 1.02778941113094 
967	 1.0276214538908 
968	 1.02700135245939 
969	 1.02665110696262 
970	 1.02678828391801 
971	 1.0267667569597 
972	 1.025482322855 
973	 1.02497135237819 
974	 1.02657586216133 
975	 1.02700066594055 
976	 1.02675493108972 
977	 1.02625473495933 
978	 1.02592245146945 
979	 1.02599886774586 
980	 1.02602787448626 
981	 1.02634854469162 
982	 1.02706073090429 
983	 1.0266187789063 
984	 1.02680804949451 
985	 1.02691492620386 
986	 1.02603426364719 
987	 1.02565066805786 
988	 1.02559120056874 
989	 1.02565256022334 
990	 1.02575823554406 
991	 1.02650539471909 
992	 1.02620447920879 
993	 1.02596151652684 
994	 1.02685156170813 
995	 1.02614144790331 
996	 1.02611276352278 
997	 1.02589412063506 
998	 1.02473534543153 
999	 1.02626040585181 
1000	 1.0265735127228 
1001	 1.0292764425677 
1002	 1.02910820384817 
1003	 1.02899825029972 
1004	 1.0289685978633 
1005	 1.02887916811178 
1006	 1.02890572928225 
1007	 1.02916101753243 
1008	 1.02919271419114 
1009	 1.02910346193104 
1010	 1.02912486325659 
1011	 1.02913940799154 
1012	 1.02912978375522 
1013	 1.0291842538018 
1014	 1.02918495045581 
1015	 1.02911872733821 
1016	 1.02905622083689 
1017	 1.02905959582604 
1018	 1.02900279156395 
1019	 1.02893336347356 
1020	 1.028971167412 
1021	 1.02893915518501 
1022	 1.02889534193013 
1023	 1.02882832033444 
1024	 1.02867635886373 
1025	 1.02863079516558 
1026	 1.02863732374203 
1027	 1.02864179334094 
1028	 1.02870400746592 
1029	 1.02876845409359 
1030	 1.02876834609996 
1031	 1.02868685339924 
1032	 1.0287554520441 
1033	 1.02886403736473 
1034	 1.02885214965072 
1035	 1.0288162345762 
1036	 1.02881432971926 
1037	 1.02875291027486 
1038	 1.02872505061689 
1039	 1.0287585776132 
1040	 1.02877734264936 
1041	 1.02873134125369 
1042	 1.02870414543162 
1043	 1.02867555977013 
1044	 1.02877815898107 
1045	 1.02882182390764 
1046	 1.02877164684891 
1047	 1.02871673435516 
1048	 1.02869145422707 
1049	 1.02867277986802 
1050	 1.02865344258618 
1051	 1.02862827311001 
1052	 1.02856582698615 
1053	 1.02851747729291 
1054	 1.02845566006546 
1055	 1.02838736836369 
1056	 1.02829986601025 
1057	 1.02827564044142 
1058	 1.02828748886826 
1059	 1.02820498374034 
1060	 1.02815102829408 
1061	 1.02815415692084 
1062	 1.02808900962836 
1063	 1.02809119935575 
1064	 1.02823066406526 
1065	 1.02829424520539 
1066	 1.02833516768176 
1067	 1.02836721989129 
1068	 1.02829164748059 
1069	 1.02821023750538 
1070	 1.02816218689138 
1071	 1.0280969904154 
1072	 1.02806617061759 
1073	 1.02805210020792 
1074	 1.02801612045095 
1075	 1.02801445203938 
1076	 1.02789367356021 
1077	 1.02770480591215 
1078	 1.02770375870495 
1079	 1.02763727408767 
1080	 1.02752740957055 
1081	 1.02760147501446 
1082	 1.02755648240819 
1083	 1.0274823326993 
1084	 1.02757550776618 
1085	 1.02764230175252 
1086	 1.02763525963182 
1087	 1.02759974980693 
1088	 1.02760227763999 
1089	 1.02755804517856 
1090	 1.02740422559461 
1091	 1.02737573890599 
1092	 1.02740562401484 
1093	 1.02736314683922 
1094	 1.02745374770378 
1095	 1.02758257151894 
1096	 1.02758819643276 
1097	 1.02756099739066 
1098	 1.02749091353158 
1099	 1.02739440379247 
1100	 1.02736718659569 
1101	 1.02737977945008 
1102	 1.02738912762921 
1103	 1.02736817635602 
1104	 1.02732998581943 
1105	 1.02726602310406 
1106	 1.02725440093137 
1107	 1.02726950716817 
1108	 1.02730132871965 
1109	 1.02733970072304 
1110	 1.02725411742187 
1111	 1.02713917387925 
1112	 1.02712856513346 
1113	 1.02710847323451 
1114	 1.02711038987833 
1115	 1.02717804695428 
1116	 1.02722688677402 
1117	 1.02723140808584 
1118	 1.02721668478101 
1119	 1.02719773296227 
1120	 1.02717569811393 
1121	 1.02710031442543 
1122	 1.02706710955539 
1123	 1.02711640819847 
1124	 1.02717553095431 
1125	 1.02724954325579 
1126	 1.02734940587954 
1127	 1.02743108636239 
1128	 1.02745153896267 
1129	 1.02742325758457 
1130	 1.02742480186742 
1131	 1.02742497827777 
1132	 1.02738253683682 
1133	 1.02738217643324 
1134	 1.02732757904713 
1135	 1.02727173687995 
1136	 1.02718971771964 
1137	 1.02712896759271 
1138	 1.02706315259967 
1139	 1.02702381964722 
1140	 1.02698843590775 
1141	 1.02694045950167 
1142	 1.02696830034346 
1143	 1.02704715716483 
1144	 1.02711575142104 
1145	 1.02718983662512 
1146	 1.0272825447689 
1147	 1.02724420658313 
1148	 1.02714572457642 
1149	 1.02708018555231 
1150	 1.02698079236902 
1151	 1.02690587437448 
1152	 1.02688527234775 
1153	 1.02693239173353 
1154	 1.02697543303732 
1155	 1.02707713257651 
1156	 1.02712115136681 
1157	 1.0271548091425 
1158	 1.0271770115282 
1159	 1.02717350407481 
1160	 1.02714293819151 
1161	 1.02716360341424 
1162	 1.02720715034845 
1163	 1.02722594789617 
1164	 1.02729598427059 
1165	 1.02731134803444 
1166	 1.02728766208972 
1167	 1.02728011866659 
1168	 1.02726566032204 
1169	 1.0272485495162 
1170	 1.02723662100465 
1171	 1.02722990715187 
1172	 1.02719555112438 
1173	 1.02718503436718 
1174	 1.02720585159704 
1175	 1.02721694839385 
1176	 1.02724278639443 
1177	 1.02726434706477 
1178	 1.02730044461831 
1179	 1.02728395821995 
1180	 1.02728362567449 
1181	 1.02727695837607 
1182	 1.02728231695713 
1183	 1.02728932163787 
1184	 1.02724153991194 
1185	 1.02718951468742 
1186	 1.02714015718789 
1187	 1.02703279114978 
1188	 1.02701950271608 
1189	 1.02708877098035 
1190	 1.02707456908869 
1191	 1.0270660274829 
1192	 1.02704648038905 
1193	 1.02694399972243 
1194	 1.02691593924766 
1195	 1.02698137147286 
1196	 1.02695528717184 
1197	 1.02687207267664 
1198	 1.02685055828772 
1199	 1.02680183225017 
1200	 1.02675896200416 
1201	 1.02676262472597 
1202	 1.02676609885344 
1203	 1.0267575681196 
1204	 1.02672092612329 
1205	 1.02667826173047 
1206	 1.02661240991924 
1207	 1.02659460026992 
1208	 1.02654938612605 
1209	 1.02658626975959 
1210	 1.02673851977709 
1211	 1.02679880528542 
1212	 1.02689059887978 
1213	 1.02690128532469 
1214	 1.02680335912195 
1215	 1.02675659148212 
1216	 1.02669703838351 
1217	 1.02663925963971 
1218	 1.02657668960017 
1219	 1.02655201907057 
1220	 1.0265352930852 
1221	 1.02648723864958 
1222	 1.02647927878996 
1223	 1.02649232375559 
1224	 1.02647428834552 
1225	 1.02643211135959 
1226	 1.02642170419198 
1227	 1.02641016108789 
1228	 1.02641187660015 
1229	 1.02644510327936 
1230	 1.02645048541233 
1231	 1.02645971856459 
1232	 1.02643960251412 
1233	 1.02636999434292 
1234	 1.02635647583579 
1235	 1.02634937849812 
1236	 1.02635055163262 
1237	 1.02638334310897 
1238	 1.02642566406821 
1239	 1.02647018337407 
1240	 1.02651900410146 
1241	 1.02661607085901 
1242	 1.0266735971343 
1243	 1.02672777802926 
1244	 1.02678065186034 
1245	 1.02680623301377 
1246	 1.02682701240019 
1247	 1.02679450521853 
1248	 1.0267031883432 
1249	 1.02664695420263 
1250	 1.02657643627043 
1251	 1.02650307585937 
1252	 1.02645566172055 
1253	 1.0263680160323 
1254	 1.0261862615285 
1255	 1.02611676364243 
1256	 1.02609603606239 
1257	 1.02607537188044 
1258	 1.02609963690173 
1259	 1.02614768285654 
1260	 1.02624604868322 
1261	 1.02629040725475 
1262	 1.02634821109069 
1263	 1.02640347987556 
1264	 1.02640442728512 
1265	 1.02633273311081 
1266	 1.02627842230645 
1267	 1.02620818166545 
1268	 1.02614958499632 
1269	 1.026053162189 
1270	 1.02601449721411 
1271	 1.02600282374485 
1272	 1.02601423862712 
1273	 1.02605165383076 
1274	 1.02610688649426 
1275	 1.0262136537791 
1276	 1.02628255472177 
1277	 1.0263656897086 
1278	 1.02642098543548 
1279	 1.02645972283024 
1280	 1.0264722853862 
1281	 1.02647528496338 
1282	 1.02644390145122 
1283	 1.0263600575765 
1284	 1.02628349913106 
1285	 1.02619641316103 
1286	 1.02608078342216 
1287	 1.02600087462785 
1288	 1.02591874088133 
1289	 1.02587603315624 
1290	 1.02586080481994 
1291	 1.02584644414701 
1292	 1.02586640982466 
1293	 1.02586004760825 
1294	 1.02584451769902 
1295	 1.02583747853549 
1296	 1.02581788956141 
1297	 1.02582278797402 
1298	 1.02585317123087 
1299	 1.02586550510278 
1300	 1.02593679562534 
1301	 1.02590174297204 
1302	 1.0257960795503 
1303	 1.02569540745435 
1304	 1.02549856989745 
1305	 1.02536288476991 
1306	 1.02524669888702 
1307	 1.02515658265015 
1308	 1.02510674756037 
1309	 1.02504932259848 
1310	 1.02500845939133 
1311	 1.02499323031377 
1312	 1.02496554566821 
1313	 1.02493345227931 
1314	 1.02491688658641 
1315	 1.0248907102077 
1316	 1.02491536273922 
1317	 1.0249604560603 
1318	 1.02503117845931 
1319	 1.02519784133519 
1320	 1.02524266154536 
1321	 1.02522434214381 
1322	 1.02525189642902 
1323	 1.02522424184343 
1324	 1.02524136114139 
1325	 1.02531425612522 
1326	 1.02538062944133 
1327	 1.0254781245323 
1328	 1.02551694660705 
1329	 1.02555620350198 
1330	 1.02556680436726 
1331	 1.02552452966675 
1332	 1.02546542167073 
1333	 1.0254021229953 
1334	 1.02530360420752 
1335	 1.0252080785904 
1336	 1.02505148199838 
1337	 1.02500494124122 
1338	 1.02500851565247 
1339	 1.02499189753194 
1340	 1.02503135021544 
1341	 1.02502005391745 
1342	 1.02495980494677 
1343	 1.02494986889058 
1344	 1.02494732251456 
1345	 1.02496680159799 
1346	 1.02502938352346 
1347	 1.02505585104843 
1348	 1.02508085144073 
1349	 1.02510052328622 
1350	 1.02511865990658 
1351	 1.02510774138741 
1352	 1.0250704964017 
1353	 1.02505553129009 
1354	 1.0249992490726 
1355	 1.02499438621242 
1356	 1.02505062821931 
1357	 1.02508107509581 
1358	 1.02513120623999 
1359	 1.02515867997715 
1360	 1.02514857168444 
1361	 1.02516802622135 
1362	 1.02517482463525 
1363	 1.02519539582568 
1364	 1.02522272060218 
1365	 1.02526770094903 
1366	 1.02529562328146 
1367	 1.02530492569184 
1368	 1.02536650248773 
1369	 1.02545615593964 
1370	 1.02552311166128 
1371	 1.02563914425643 
1372	 1.02567810163331 
1373	 1.02565891997265 
1374	 1.02565613756928 
1375	 1.02560990332314 
1376	 1.02561395734092 
1377	 1.02563283571338 
1378	 1.02566746800381 
1379	 1.02576203206665 
1380	 1.0257965826539 
1381	 1.02581638261886 
1382	 1.02582265177138 
1383	 1.0258020812303 
1384	 1.02576392754618 
1385	 1.02567400750817 
1386	 1.02564293672067 
1387	 1.02563743051069 
1388	 1.02560992906284 
1389	 1.02562032432416 
1390	 1.02561403438335 
1391	 1.02558131548162 
1392	 1.02552031028569 
1393	 1.02552143223253 
1394	 1.02550195241664 
1395	 1.02546595168312 
1396	 1.02541117138094 
1397	 1.02539054089193 
1398	 1.02534611728879 
1399	 1.02536614308538 
1400	 1.02546573037305 
1401	 1.02547611592321 
1402	 1.0254748000188 
1403	 1.02547523664443 
1404	 1.02541435907248 
1405	 1.02541171348336 
1406	 1.02547646822603 
1407	 1.02547464550357 
1408	 1.02542658061004 
1409	 1.02543181218006 
1410	 1.02541731236868 
1411	 1.02544315701861 
1412	 1.02556669725793 
1413	 1.02560733374978 
1414	 1.02562112931794 
1415	 1.02562759454746 
1416	 1.0256016201181 
1417	 1.02556146274756 
1418	 1.02548113183655 
1419	 1.02544662622383 
1420	 1.02538722625883 
1421	 1.02538108996477 
1422	 1.02547158631208 
1423	 1.02551145216673 
1424	 1.02555002816883 
1425	 1.02559020713157 
1426	 1.02558247248896 
1427	 1.02554448236951 
1428	 1.02547135538775 
1429	 1.02541308743163 
1430	 1.02533447408189 
1431	 1.02521853635703 
1432	 1.0251558164729 
1433	 1.02509451386343 
1434	 1.02507197011346 
1435	 1.02509201869914 
1436	 1.02510780614444 
1437	 1.02516875307228 
1438	 1.02516161484427 
1439	 1.0251223749027 
1440	 1.02510384417418 
1441	 1.02505574699815 
1442	 1.02502385828719 
1443	 1.02501441552307 
1444	 1.02500554706784 
1445	 1.02500505521499 
1446	 1.02497008280544 
1447	 1.02493749255093 
1448	 1.02488833553824 
1449	 1.02479423833595 
1450	 1.0247200454867 
1451	 1.0246492929787 
1452	 1.02458153824776 
1453	 1.02448319826419 
1454	 1.02444115596495 
1455	 1.02440928087496 
1456	 1.02443924683107 
1457	 1.02457020051571 
1458	 1.02464182768831 
1459	 1.02474183475745 
1460	 1.02480670111407 
1461	 1.02481662341049 
1462	 1.02483620383113 
1463	 1.02487091092024 
1464	 1.02486908312534 
1465	 1.02483165277438 
1466	 1.02478394103183 
1467	 1.02477136906079 
1468	 1.02482109902209 
1469	 1.02486618989198 
1470	 1.02494442667462 
1471	 1.02501943073967 
1472	 1.02506750572175 
1473	 1.02516854167318 
1474	 1.02534524387508 
1475	 1.02541995900877 
1476	 1.02547043885206 
1477	 1.02550879234984 
1478	 1.0254990996325 
1479	 1.02549350305337 
1480	 1.02550286645014 
1481	 1.02546388845836 
1482	 1.02536338981584 
1483	 1.02531129854089 
1484	 1.02525330122 
1485	 1.02521234953542 
1486	 1.02519920261444 
1487	 1.02517511861789 
1488	 1.02514177642504 
1489	 1.02512743545041 
1490	 1.02515156420192 
1491	 1.02511970104598 
1492	 1.02506867797553 
1493	 1.02501756437858 
1494	 1.02491058596568 
1495	 1.0248551036248 
1496	 1.02482792966448 
1497	 1.02480468850082 
1498	 1.02481332277554 
1499	 1.02479434661451 
1500	 1.02477633378858 
1501	 1.02474794649427 
1502	 1.02471177499358 
1503	 1.0246546543989 
1504	 1.02457173351899 
1505	 1.02450356018993 
1506	 1.02439878457562 
1507	 1.02434081550218 
1508	 1.0243348864353 
1509	 1.02430526773325 
1510	 1.02426701759506 
1511	 1.02426017768524 
1512	 1.02424481285305 
1513	 1.02426159062981 
1514	 1.02431284665321 
1515	 1.02438902902397 
1516	 1.02452359403054 
1517	 1.02461956426557 
1518	 1.02472630799633 
1519	 1.02481670957063 
1520	 1.02488535205839 
1521	 1.02493104319885 
1522	 1.02492198328424 
1523	 1.02495654709043 
1524	 1.02496721417932 
1525	 1.02493823980302 
1526	 1.02494903693895 
1527	 1.02499525522807 
1528	 1.02500305000031 
1529	 1.02499504746341 
1530	 1.02499798191958 
1531	 1.02498295919209 
1532	 1.02500771512039 
1533	 1.02506353092915 
1534	 1.0250895036055 
1535	 1.02513406362574 
1536	 1.02513498767761 
1537	 1.02511077117573 
1538	 1.0250656713961 
1539	 1.02497963228032 
1540	 1.02493367334939 
1541	 1.02488909651991 
1542	 1.02483135316658 
1543	 1.02478000858357 
1544	 1.02474436573631 
1545	 1.02468246484563 
1546	 1.02466495032782 
1547	 1.02470227047269 
1548	 1.02470839489589 
1549	 1.02472120538952 
1550	 1.02471137287529 
1551	 1.02471417273624 
1552	 1.02465426877643 
1553	 1.02454645365706 
1554	 1.02444597284503 
1555	 1.0242698177309 
1556	 1.02419108195324 
1557	 1.02417833674887 
1558	 1.02412042464219 
1559	 1.02408768369219 
1560	 1.02404150066804 
1561	 1.02393851362197 
1562	 1.02390131708277 
1563	 1.02390248128841 
1564	 1.02391448673915 
1565	 1.02396827733943 
1566	 1.02399547578363 
1567	 1.02404114253349 
1568	 1.0240546868068 
1569	 1.02402632189334 
1570	 1.02402998414896 
1571	 1.02403903247107 
1572	 1.0240426378895 
1573	 1.02405217208195 
1574	 1.02407048507311 
1575	 1.02408337045862 
1576	 1.02410414451506 
1577	 1.02414495693086 
1578	 1.024179021067 
1579	 1.02422862505293 
1580	 1.02423712864022 
1581	 1.02420011454718 
1582	 1.02421447768468 
1583	 1.02423931435864 
1584	 1.02424523597075 
1585	 1.02429869714214 
1586	 1.02430354555423 
1587	 1.02421595318379 
1588	 1.0242083562425 
1589	 1.02423530949318 
1590	 1.02425838589011 
1591	 1.02435392494735 
1592	 1.02437260584161 
1593	 1.02432824728735 
1594	 1.0243180898445 
1595	 1.02428545692312 
1596	 1.02426273148804 
1597	 1.0242724269207 
1598	 1.02426221628698 
1599	 1.02422565634955 
1600	 1.02420821363845 
1601	 1.02420783332881 
1602	 1.02419145202193 
1603	 1.02418764686798 
1604	 1.02415387912881 
1605	 1.02407908969427 
1606	 1.02402946970587 
1607	 1.02394482499374 
1608	 1.0239188667619 
1609	 1.0239496601844 
1610	 1.02396696232264 
1611	 1.02400947584499 
1612	 1.02405523715099 
1613	 1.02410172056008 
1614	 1.0241464811872 
1615	 1.02422038794538 
1616	 1.02425819447177 
1617	 1.02424977023785 
1618	 1.02427468111042 
1619	 1.02428423438828 
1620	 1.02433077213551 
1621	 1.02442350811223 
1622	 1.0245057659599 
1623	 1.02462960313637 
1624	 1.02469892407302 
1625	 1.02477472664612 
1626	 1.02478378492472 
1627	 1.02469427179403 
1628	 1.02464659480914 
1629	 1.02455995699125 
1630	 1.02450644300546 
1631	 1.02449136303401 
1632	 1.0244781042129 
1633	 1.02444735854415 
1634	 1.02446613253176 
1635	 1.02456446034176 
1636	 1.02458817222506 
1637	 1.02460716833342 
1638	 1.02461192401689 
1639	 1.02453288177987 
1640	 1.02451943876769 
1641	 1.0245913180796 
1642	 1.02457955060055 
1643	 1.02453070979359 
1644	 1.02448887475158 
1645	 1.02436608141929 
1646	 1.02431483690031 
1647	 1.02429075929138 
1648	 1.02432085367342 
1649	 1.02442264537462 
1650	 1.02451104869261 
1651	 1.02466443482369 
1652	 1.02476560121361 
1653	 1.02482626025539 
1654	 1.02488898344414 
1655	 1.02494200914476 
1656	 1.02498587033279 
1657	 1.02502532942081 
1658	 1.02505150725434 
1659	 1.02504025781222 
1660	 1.02506646029237 
1661	 1.02512816847535 
1662	 1.02514949778648 
1663	 1.02518952223354 
1664	 1.02518323491577 
1665	 1.02509463594053 
1666	 1.02505603036095 
1667	 1.02504103688568 
1668	 1.02498885166138 
1669	 1.02494917427158 
1670	 1.02488986646984 
1671	 1.02477639965139 
1672	 1.02469119793332 
1673	 1.02459954622801 
1674	 1.02453900509846 
1675	 1.02451244935231 
1676	 1.02446499589381 
1677	 1.02442876573004 
1678	 1.0243884036222 
1679	 1.02432652609113 
1680	 1.02428422837852 
1681	 1.02424743902095 
1682	 1.02422764014613 
1683	 1.02423261600995 
1684	 1.02421273154778 
1685	 1.02421379120038 
1686	 1.02418665778381 
1687	 1.02411801163481 
1688	 1.02407093077841 
1689	 1.02401294049928 
1690	 1.02397510209873 
1691	 1.02391969575848 
1692	 1.02394387474667 
1693	 1.02403688217103 
1694	 1.02409130924487 
1695	 1.02421964016097 
1696	 1.02423816103199 
1697	 1.02415906529958 
1698	 1.02414527309962 
1699	 1.02412721010238 
1700	 1.0240816631048 
1701	 1.02402221227731 
1702	 1.02400750133499 
1703	 1.02397736478025 
1704	 1.02400980171714 
1705	 1.0241390463303 
1706	 1.02423589541308 
1707	 1.02422998763032 
1708	 1.02417174356124 
1709	 1.02408481958541 
1710	 1.02386434877083 
1711	 1.02367213029567 
1712	 1.02360101693916 
1713	 1.02351351440986 
1714	 1.02355834400563 
1715	 1.02361927507894 
1716	 1.02354942385646 
1717	 1.02349449431535 
1718	 1.02342687935119 
1719	 1.02339897145488 
1720	 1.02339263059448 
1721	 1.02336921285792 
1722	 1.02335636076715 
1723	 1.02332899085931 
1724	 1.02339058585741 
1725	 1.0234923516545 
1726	 1.02359269641885 
1727	 1.02368141687332 
1728	 1.02361967521659 
1729	 1.02352176221943 
1730	 1.02346028741816 
1731	 1.02335754774996 
1732	 1.02330739230663 
1733	 1.02335593150869 
1734	 1.02341399100802 
1735	 1.02344334763756 
1736	 1.02351331501332 
1737	 1.02360202637847 
1738	 1.02357877217817 
1739	 1.02361926053407 
1740	 1.0237043944787 
1741	 1.02373761998871 
1742	 1.02376539905572 
1743	 1.02382646827165 
1744	 1.02386333092946 
1745	 1.0239013298426 
1746	 1.02398455903008 
1747	 1.02404043064141 
1748	 1.02409940926011 
1749	 1.02409371503052 
1750	 1.02404478108725 
1751	 1.02399541502197 
1752	 1.0238934425541 
1753	 1.02381232230004 
1754	 1.02375755512224 
1755	 1.02368494457347 
1756	 1.0235209919268 
1757	 1.02344254332182 
1758	 1.02351726897122 
1759	 1.02364948039847 
1760	 1.02380582258425 
1761	 1.02398297148951 
1762	 1.02407277221791 
1763	 1.02415331297262 
1764	 1.02429758893821 
1765	 1.02438693153187 
1766	 1.02447450990268 
1767	 1.02444097583393 
1768	 1.02431547698522 
1769	 1.02431340296756 
1770	 1.02424423481665 
1771	 1.02418167372097 
1772	 1.02426348692489 
1773	 1.02427179773167 
1774	 1.02429496860642 
1775	 1.02435039894487 
1776	 1.02434732088014 
1777	 1.02430952257601 
1778	 1.0242003729171 
1779	 1.02407457780018 
1780	 1.02396345167266 
1781	 1.02385284507495 
1782	 1.02375390147161 
1783	 1.02370343950169 
1784	 1.02364592224462 
1785	 1.02354499487318 
1786	 1.02348837325917 
1787	 1.02342903187531 
1788	 1.02342176526433 
1789	 1.02349862739565 
1790	 1.0235014628691 
1791	 1.02351485989591 
1792	 1.0234889896155 
1793	 1.02336649434557 
1794	 1.02328589468468 
1795	 1.0232917220464 
1796	 1.02324583904263 
1797	 1.02318764526668 
1798	 1.0231328245146 
1799	 1.02301192345538 
1800	 1.02296742542029 
1801	 1.02288058925369 
1802	 1.02301627316944 
1803	 1.02303983703654 
1804	 1.02313485996225 
1805	 1.0230676602639 
1806	 1.023118206762 
1807	 1.02314028389775 
1808	 1.02315204754739 
1809	 1.02330141747573 
1810	 1.02328690589431 
1811	 1.02301642815595 
1812	 1.02292899930734 
1813	 1.0228505344398 
1814	 1.02291343140091 
1815	 1.02292344713495 
1816	 1.02292306270101 
1817	 1.02287287455383 
1818	 1.02268647885572 
1819	 1.02263207784294 
1820	 1.02259771830539 
1821	 1.02262445141661 
1822	 1.02276427178707 
1823	 1.02283764724086 
1824	 1.02290117353718 
1825	 1.02296046528416 
1826	 1.0230287523994 
1827	 1.02306358513621 
1828	 1.02314415884355 
1829	 1.02335994615909 
1830	 1.0233947994295 
1831	 1.02336053422944 
1832	 1.02329510327825 
1833	 1.02322559475433 
1834	 1.02307273719044 
1835	 1.02296131620017 
1836	 1.02288186274138 
1837	 1.02285487795739 
1838	 1.02284256030992 
1839	 1.02284029901956 
1840	 1.02294691112428 
1841	 1.02295101953631 
1842	 1.02290299882038 
1843	 1.02279319993135 
1844	 1.02272652387308 
1845	 1.02279760205771 
1846	 1.02288480050106 
1847	 1.02293801000097 
1848	 1.02295568282584 
1849	 1.02289210004431 
1850	 1.02291480759976 
1851	 1.02295358630586 
1852	 1.02298567968314 
1853	 1.0231021152734 
1854	 1.02327006900647 
1855	 1.02332099526976 
1856	 1.02333440323579 
1857	 1.02335474586973 
1858	 1.02331925279916 
1859	 1.02332439714254 
1860	 1.02338341767645 
1861	 1.02341469356231 
1862	 1.02342506372512 
1863	 1.02345919315387 
1864	 1.02351423195683 
1865	 1.02351940228189 
1866	 1.02356428549673 
1867	 1.02356385673349 
1868	 1.02342738107757 
1869	 1.02329198913853 
1870	 1.02321586958654 
1871	 1.02307387975018 
1872	 1.02307305891625 
1873	 1.02321048003605 
1874	 1.02332280844501 
1875	 1.0233980483098 
1876	 1.02337900841272 
1877	 1.02335297686899 
1878	 1.02341997490681 
1879	 1.02353388544338 
1880	 1.02371046699451 
1881	 1.02374687586318 
1882	 1.02373471394248 
1883	 1.02359955215909 
1884	 1.02348950360158 
1885	 1.02337470115035 
1886	 1.02328884950252 
1887	 1.02329261083272 
1888	 1.02321342681557 
1889	 1.02312401405009 
1890	 1.02317402971169 
1891	 1.02325378360816 
1892	 1.02331798164213 
1893	 1.0233774863033 
1894	 1.02345583929275 
1895	 1.0235240688978 
1896	 1.02354390762916 
1897	 1.02357273962375 
1898	 1.02362617631108 
1899	 1.02361768357915 
1900	 1.023570198777 
1901	 1.02361537926262 
1902	 1.02379582664258 
1903	 1.02399545104518 
1904	 1.02408219734615 
1905	 1.02419356963047 
1906	 1.02416678698805 
1907	 1.0239727125434 
1908	 1.02377070531388 
1909	 1.02368861803408 
1910	 1.02358483266957 
1911	 1.02350887005639 
1912	 1.02343452264454 
1913	 1.02323884576654 
1914	 1.02322639679487 
1915	 1.02319485128718 
1916	 1.02319255938125 
1917	 1.02317684010911 
1918	 1.02331975188752 
1919	 1.02331326795291 
1920	 1.0233368718876 
1921	 1.02348916855745 
1922	 1.02351263335031 
1923	 1.02353874934875 
1924	 1.02361113718107 
1925	 1.02357500076082 
1926	 1.02361260547833 
1927	 1.02369127845642 
1928	 1.02375728665402 
1929	 1.02381292321798 
1930	 1.02396965512405 
1931	 1.02409862376568 
1932	 1.02415990385155 
1933	 1.0241883332497 
1934	 1.02413664070172 
1935	 1.02413719038815 
1936	 1.02409214095752 
1937	 1.02402366253747 
1938	 1.0239643925748 
1939	 1.02395934902191 
1940	 1.02392319697902 
1941	 1.02386136226081 
1942	 1.02402201687478 
1943	 1.02417636609374 
1944	 1.02415836531046 
1945	 1.02418469814489 
1946	 1.02420586732662 
1947	 1.02411153782546 
1948	 1.02405097540673 
1949	 1.02393666371695 
1950	 1.02378130335313 
1951	 1.02345879430368 
1952	 1.02330458284904 
1953	 1.02316078317166 
1954	 1.02312247474188 
1955	 1.02317755947804 
1956	 1.02329038808712 
1957	 1.02332626148066 
1958	 1.02340627361381 
1959	 1.02351354599679 
1960	 1.02353194576284 
1961	 1.02353049300772 
1962	 1.02348398893975 
1963	 1.02345248035572 
1964	 1.02342191933909 
1965	 1.02334751330495 
1966	 1.02320334008939 
1967	 1.02320655310321 
1968	 1.0232212816011 
1969	 1.02314196792244 
1970	 1.02313642466485 
1971	 1.02310740271905 
1972	 1.02287500766792 
1973	 1.02261617038694 
1974	 1.02246443656949 
1975	 1.02230987922857 
1976	 1.02221698853756 
1977	 1.02225175461262 
1978	 1.02224688600758 
1979	 1.02223724117594 
1980	 1.0222330066582 
1981	 1.0222942369166 
1982	 1.0223867436973 
1983	 1.02250404563171 
1984	 1.02270855022288 
1985	 1.02291209459991 
1986	 1.02299732275266 
1987	 1.0229973703975 
1988	 1.02289496279359 
1989	 1.02276956871676 
1990	 1.02244090829116 
1991	 1.0223042477332 
1992	 1.02221211738751 
1993	 1.02220095785496 
1994	 1.0221748976977 
1995	 1.02221456596405 
1996	 1.02221563353864 
1997	 1.02223072968195 
1998	 1.02226272893851 
1999	 1.02237073885449 
2000	 1.02243139771633 
2001	 1.02248575905724 
2002	 1.02246246591678 
2003	 1.02240173931311 
2004	 1.02230299340879 
2005	 1.02209145614435 
2006	 1.02196540546661 
2007	 1.02181416918248 
2008	 1.02180680971199 
2009	 1.02171004563759 
2010	 1.02169329602803 
2011	 1.02171800302038 
2012	 1.02174559384716 
2013	 1.02178213763696 
2014	 1.02190354779945 
2015	 1.02190663943965 
2016	 1.02179401938086 
2017	 1.02179511327616 
2018	 1.0217733230029 
2019	 1.0218227389175 
2020	 1.02197035942733 
2021	 1.02215026928362 
2022	 1.02219782711856 
2023	 1.02243304108337 
2024	 1.02262590333988 
2025	 1.02270409157524 
2026	 1.02274780917786 
2027	 1.02278242980141 
2028	 1.02268671189649 
2029	 1.02241328647976 
2030	 1.02224637993404 
2031	 1.02196827854108 
2032	 1.02184843292473 
2033	 1.02183459030298 
2034	 1.02185303776193 
2035	 1.02194608133252 
2036	 1.02212844373918 
2037	 1.02213971965548 
2038	 1.02228115290338 
2039	 1.02239887619815 
2040	 1.0225027748416 
2041	 1.02253669311124 
2042	 1.02260785695314 
2043	 1.02257664616375 
2044	 1.02243341799779 
2045	 1.02232727469032 
2046	 1.02212173236748 
2047	 1.02207115362173 
2048	 1.02205876119957 
2049	 1.02205146554232 
2050	 1.02212476557188 
2051	 1.02228568994788 
2052	 1.02228757516371 
2053	 1.02246741466105 
2054	 1.02260798533778 
2055	 1.02284302020474 
2056	 1.02292378825982 
2057	 1.02292694746623 
2058	 1.02296313801218 
2059	 1.02287734599425 
2060	 1.02287345313704 
2061	 1.02302633177355 
2062	 1.02304183327727 
2063	 1.02300824419061 
2064	 1.02298667618783 
2065	 1.02296616798975 
2066	 1.02276567982513 
2067	 1.02268902482368 
2068	 1.02256850519472 
2069	 1.0224572220811 
2070	 1.02228771242897 
2071	 1.022233858607 
2072	 1.02224801595762 
2073	 1.02223109864897 
2074	 1.0223113378797 
2075	 1.022312993649 
2076	 1.02223760682975 
2077	 1.02217675243021 
2078	 1.02203047575784 
2079	 1.02201668029635 
2080	 1.02203452591084 
2081	 1.02213444757545 
2082	 1.02246497910557 
2083	 1.02268534626666 
2084	 1.02265173624665 
2085	 1.02264365332381 
2086	 1.02270119090214 
2087	 1.02269516590517 
2088	 1.02265172817994 
2089	 1.022657526504 
2090	 1.0226856865459 
2091	 1.0226310007326 
2092	 1.02257323559282 
2093	 1.022652793126 
2094	 1.02265250982922 
2095	 1.0224380694295 
2096	 1.02235294399072 
2097	 1.02237436439601 
2098	 1.02239959089261 
2099	 1.02233631362916 
2100	 1.02229073726059 
2101	 1.02225018314387 
2102	 1.022180991695 
2103	 1.02210349394364 
2104	 1.02200714065062 
2105	 1.02201401180674 
2106	 1.02204965546303 
2107	 1.02208558321182 
2108	 1.02220570747341 
2109	 1.02231227920593 
2110	 1.02241556237458 
2111	 1.02246583695454 
2112	 1.02257418651919 
2113	 1.02258213110224 
2114	 1.02244980794242 
2115	 1.02236950296481 
2116	 1.0222402720008 
2117	 1.02220201148117 
2118	 1.02210103795599 
2119	 1.02196159873498 
2120	 1.0219300374773 
2121	 1.02190391670271 
2122	 1.02196279954957 
2123	 1.02220572949015 
2124	 1.0222199714693 
2125	 1.02219023221718 
2126	 1.02210408532705 
2127	 1.02168528609105 
2128	 1.02171848474394 
2129	 1.02204255415421 
2130	 1.02220244434723 
2131	 1.02266856910746 
2132	 1.02286388435259 
2133	 1.02272165503379 
2134	 1.02268607068425 
2135	 1.02270921709641 
2136	 1.02272947302249 
2137	 1.02285554499339 
2138	 1.02311583504577 
2139	 1.02327528661757 
2140	 1.02350587159658 
2141	 1.02359479603599 
2142	 1.02353085653189 
2143	 1.02360821784599 
2144	 1.02372645868662 
2145	 1.02374167789412 
2146	 1.02390650305894 
2147	 1.02383671520771 
2148	 1.02335705648511 
2149	 1.02319606764013 
2150	 1.02313963924723 
2151	 1.02299966637685 
2152	 1.02292407669825 
2153	 1.02298941337004 
2154	 1.02278050298101 
2155	 1.02257882909272 
2156	 1.02237288377498 
2157	 1.02216507514875 
2158	 1.02197738880792 
2159	 1.02174898382594 
2160	 1.02156616392378 
2161	 1.02131454109847 
2162	 1.0213518721746 
2163	 1.02152948765442 
2164	 1.02176904000517 
2165	 1.02244819790504 
2166	 1.02269452898017 
2167	 1.02283284192675 
2168	 1.02280301749911 
2169	 1.02227552557912 
2170	 1.02213869881329 
2171	 1.02212023659048 
2172	 1.02206624202733 
2173	 1.02219273736561 
2174	 1.02233234173796 
2175	 1.0223198765487 
2176	 1.02221734050529 
2177	 1.02225463860622 
2178	 1.02245707077879 
2179	 1.02235160028885 
2180	 1.02210430236383 
2181	 1.02202806326664 
2182	 1.02180989971368 
2183	 1.02173359689066 
2184	 1.02186276106656 
2185	 1.02189111813494 
2186	 1.02182566399748 
2187	 1.02182128162078 
2188	 1.02190191034556 
2189	 1.02202496766611 
2190	 1.02208848216284 
2191	 1.02232946446847 
2192	 1.02296625116997 
2193	 1.02317390454489 
2194	 1.02334580471227 
2195	 1.02329062981412 
2196	 1.02280322172662 
2197	 1.02221284341101 
2198	 1.02185127653523 
2199	 1.02167874179544 
2200	 1.02158283985348 
2201	 1.02176532220531 
2202	 1.02177160759161 
2203	 1.02179994167773 
2204	 1.02178335243306 
2205	 1.02162895832966 
2206	 1.02175419743428 
2207	 1.02214737072004 
2208	 1.02209878863238 
2209	 1.02198613308646 
2210	 1.02193860206392 
2211	 1.02143601381467 
2212	 1.02139898289238 
2213	 1.02186461580705 
2214	 1.02202318113929 
2215	 1.02224365538901 
2216	 1.02229405148067 
2217	 1.02206983777346 
2218	 1.02203137883785 
2219	 1.02196129964953 
2220	 1.02191648641858 
2221	 1.02191405775041 
2222	 1.022015756991 
2223	 1.02225932464057 
2224	 1.02276203180324 
2225	 1.0232266486144 
2226	 1.02353019433108 
2227	 1.02320092586592 
2228	 1.0221027914066 
2229	 1.02162548512288 
2230	 1.02084656778098 
2231	 1.02055430273629 
2232	 1.02083776768255 
2233	 1.02071930401766 
2234	 1.02052912667118 
2235	 1.02037656028666 
2236	 1.02035286475474 
2237	 1.02008127733842 
2238	 1.01939395783958 
2239	 1.01930675889592 
2240	 1.01945682512057 
2241	 1.01931794315129 
2242	 1.01953584163495 
2243	 1.01961960174148 
2244	 1.01910903926672 
2245	 1.01896764405339 
2246	 1.01930477495446 
2247	 1.01939646090776 
2248	 1.0194773234728 
2249	 1.01964565376206 
2250	 1.01990021211474 
2251	 1.01962224291519 
2252	 1.02055096870697 
2253	 1.02115658312987 
2254	 1.02107509488863 
2255	 1.02096047531136 
2256	 1.02074522533224 
2257	 1.01999681446757 
2258	 1.01998367319152 
2259	 1.0207704166928 
2260	 1.02127442629987 
2261	 1.02195212589211 
2262	 1.02214156760004 
2263	 1.02217399636709 
2264	 1.02225154935871 
2265	 1.02192402940241 
2266	 1.02176265461643 
2267	 1.02197716744564 
2268	 1.02190467021869 
2269	 1.02136860994127 
2270	 1.02140556079469 
2271	 1.0217277291336 
2272	 1.0217789453761 
2273	 1.02198482635545 
2274	 1.0219977670032 
2275	 1.02169435086931 
2276	 1.02168985375394 
2277	 1.02199486984284 
2278	 1.02207081211286 
2279	 1.02211598248716 
2280	 1.02201203181702 
2281	 1.02180430576054 
2282	 1.02144120644122 
2283	 1.02094540886905 
2284	 1.02023875710615 
2285	 1.01958433805113 
2286	 1.01921103208534 
2287	 1.01978067077309 
2288	 1.02093718848103 
2289	 1.02152131838186 
2290	 1.02171248489561 
2291	 1.02095840660391 
2292	 1.02050280080879 
2293	 1.02051204988686 
2294	 1.02025786035025 
2295	 1.02119421319196 
2296	 1.02182007752044 
2297	 1.02209446525448 
2298	 1.02270315032775 
2299	 1.02270266112693 
2300	 1.02170456276621 
2301	 1.02132740322224 
2302	 1.02099074716248 
2303	 1.02099836115901 
2304	 1.02120081976508 
2305	 1.02129955725809 
2306	 1.0219225328796 
2307	 1.02200679368325 
2308	 1.02143402189334 
2309	 1.02173966387886 
2310	 1.02244807926112 
2311	 1.02253245181622 
2312	 1.02273403272163 
2313	 1.0229638762176 
2314	 1.02292203766003 
2315	 1.02270534440722 
2316	 1.02255460160033 
2317	 1.02249376247807 
2318	 1.02217033580839 
2319	 1.02175485050126 
2320	 1.02149026714049 
2321	 1.02122742819991 
2322	 1.02052449427677 
2323	 1.02009113173879 
2324	 1.01974974823901 
2325	 1.01978887156069 
2326	 1.02052639074674 
2327	 1.02063765009926 
2328	 1.02050430620034 
2329	 1.02090332983952 
2330	 1.02187481395189 
2331	 1.02108950987063 
2332	 1.02052741433573 
2333	 1.02121309220023 
2334	 1.01975009535446 
2335	 1.01890485363034 
2336	 1.02035520076951 
2337	 1.01999144691301 
2338	 1.02044240385402 
2339	 1.02091675944275 
2340	 1.01963622822161 
2341	 1.02034524371838 
2342	 1.0209161907335 
2343	 1.02207604703439 
2344	 1.0243095580301 
2345	 1.02410887570083 
2346	 1.02345473960242 
2347	 1.02262374369933 
2348	 1.02143225052815 
2349	 1.02127985338064 
2350	 1.0214613550235 
2351	 1.02194543494677 
2352	 1.02200596857751 
2353	 1.02187658795588 
2354	 1.02251938221173 
2355	 1.02269257254475 
2356	 1.02297485958361 
2357	 1.02397675417997 
2358	 1.02526429153932 
2359	 1.02599595438957 
2360	 1.02589667598655 
2361	 1.02640103863677 
2362	 1.02533110436262 
2363	 1.02318485078601 
2364	 1.0221605686626 
2365	 1.02138702250349 
2366	 1.02237580217228 
2367	 1.0245186098388 
2368	 1.0257406954623 
2369	 1.02631335675181 
2370	 1.02582796476282 
2371	 1.02506876114313 
2372	 1.02497523324522 
2373	 1.02418056311528 
2374	 1.02385825684298 
2375	 1.02394637407892 
2376	 1.0226181685449 
2377	 1.02236713012895 
2378	 1.022264215474 
2379	 1.0188476477823 
2380	 1.01678532155108 
2381	 1.01852755431414 
2382	 1.01938592692099 
2383	 1.02147655075834 
2384	 1.02234285333971 
2385	 1.02225789893347 
2386	 1.0216290133261 
2387	 1.01997400462142 
2388	 1.02043972617857 
2389	 1.02321489770329 
2390	 1.02337659681352 
2391	 1.02255693735207 
2392	 1.02126758993599 
2393	 1.01736167972204 
2394	 1.01626941027407 
2395	 1.01684298812229 
2396	 1.01667355356581 
2397	 1.017052143401 
2398	 1.01799102557044 
2399	 1.01991170526395 
2400	 1.0202446724503 
2401	 1.01957642711685 
2402	 1.0198511312995 
2403	 1.01937121808255 
2404	 1.0204454683339 
2405	 1.02507932501731 
2406	 1.02763243764755 
2407	 1.0288367793023 
2408	 1.02743600215689 
2409	 1.025499927115 
2410	 1.02501043661117 
2411	 1.02276464722637 
2412	 1.02521024076823 
2413	 1.02453647467492 
2414	 1.01987378570595 
2415	 1.02025005723989 
2416	 1.02091829962271 
2417	 1.02003701353188 
2418	 1.02007287816175 
2419	 1.02060316766853 
2420	 1.01469135559898 
2421	 1.01029205675576 
2422	 1.01128232470823 
2423	 1.01118224008353 
2424	 1.01273255913545 
2425	 1.01528020238162 
2426	 1.0156265534454 
2427	 1.01057908063049 
2428	 1.01048966724184 
2429	 1.0214110529043 
2430	 1.02817232310982 
2431	 1.034812155916 
2432	 1.03811265660892 
2433	 1.02834561754472 
2434	 1.02808806064281 
2435	 1.02754413273683 
2436	 1.02129572231432 
2437	 1.02234688596717 
2438	 1.01935958284977 
2439	 1.01598903181901 
2440	 1.01477550671446 
2441	 1.01102224155593 
2442	 1.0083122656143 
2443	 1.00835043265675 
2444	 1.01153479446806 
2445	 1.02489614836792 
2446	 1.03719788894701 
2447	 1.03943368593229 
2448	 1.0429352565706 
2449	 1.04166117415049 
2450	 1.03324302195001 
2451	 1.03071141500162 
2452	 1.02988966128477 
2453	 1.02366096799432 
2454	 1.02256579459591 
2455	 1.01799685609281 
2456	 1.01269457025049 
2457	 1.01800183353774 
2458	 1.01539009538275 
2459	 1.01444079537493 
2460	 1.01802829763387 
2461	 1.01380443268416 
2462	 1.02014640450456 
2463	 1.03179131282631 
2464	 1.03383335434293 
2465	 1.03327093353533 
2466	 1.02731042767401 
2467	 1.01467931610324 
2468	 1.00853225796094 
2469	 1.009906722672 
2470	 1.00989908268466 
2471	 1.01306221641 
2472	 1.01430197331998 
2473	 1.01469460916281 
2474	 1.02154902160846 
2475	 1.02029607888284 
2476	 1.02312317827274 
2477	 1.03346931870534 
2478	 1.03128144196191 
2479	 1.03132893713305 
2480	 1.03851432780522 
2481	 1.03541490236304 
2482	 1.02164732918625 
2483	 1.01742243604239 
2484	 1.01722025514326 
2485	 1.02083508839123 
2486	 1.02755451036075 
2487	 1.03850248979094 
2488	 1.04212466571237 
2489	 1.03545219989608 
2490	 1.04037917862092 
2491	 1.03995757452062 
2492	 1.03411119588617 
2493	 1.04790752847034 
2494	 1.04434718787233 
2495	 1.01474890847763 
2496	 1.00113375296471 
2497	 0.992348188635926 
2498	 1.00538037610468 
2499	 1.03430350298987 
2500	 1.03891048415298 
