Wavelength	spectrum00007.asd
350	 3.85704650854139E-02 
351	 3.61540083292681E-02 
352	 3.29529518985434E-02 
353	 3.22026660684811E-02 
354	 3.54343593340426E-02 
355	 3.55835241508303E-02 
356	 3.46666595313974E-02 
357	 0.034888046421474 
358	 0.032097203470863 
359	 3.09683998289709E-02 
360	 3.18672407353547E-02 
361	 3.26908038738878E-02 
362	 3.16968963682238E-02 
363	 3.10283366843845E-02 
364	 3.13635334202234E-02 
365	 3.09525310576352E-02 
366	 3.22038314446973E-02 
367	 3.20988128871363E-02 
368	 2.91586931042145E-02 
369	 0.031087102435316 
370	 3.22435899032872E-02 
371	 3.14876922256381E-02 
372	 3.05353793814602E-02 
373	 3.08857826480863E-02 
374	 3.16037036463658E-02 
375	 3.18735556601202E-02 
376	 3.14707426796687E-02 
377	 3.20611948156684E-02 
378	 3.25548764067988E-02 
379	 0.031918951101606 
380	 3.18981910039409E-02 
381	 3.22079691038751E-02 
382	 3.22697792373047E-02 
383	 3.15520365574338E-02 
384	 3.14739840447776E-02 
385	 3.22885400366866E-02 
386	 3.28328362872975E-02 
387	 2.99475761361844E-02 
388	 3.00030519940656E-02 
389	 3.16018847184045E-02 
390	 3.19341012570248E-02 
391	 3.16676338679258E-02 
392	 3.10601871151699E-02 
393	 3.07776147050056E-02 
394	 3.14993034781867E-02 
395	 0.031364060223294 
396	 3.12698407278191E-02 
397	 3.17869563629842E-02 
398	 3.24484265039781E-02 
399	 3.18127930583523E-02 
400	 3.10373089268904E-02 
401	 3.14025713971175E-02 
402	 3.11989582460959E-02 
403	 3.13569031985911E-02 
404	 3.17668141521221E-02 
405	 3.15757273220467E-02 
406	 3.16989982392245E-02 
407	 0.031477675257965 
408	 3.08861717016539E-02 
409	 3.16682634974864E-02 
410	 3.16053151598226E-02 
411	 3.13267148238748E-02 
412	 0.031924689657439 
413	 3.18497906487104E-02 
414	 3.14950335311072E-02 
415	 3.12101150048277E-02 
416	 3.11873327210841E-02 
417	 3.12123425165276E-02 
418	 3.13829826499272E-02 
419	 3.16693723595357E-02 
420	 3.16305303014384E-02 
421	 3.14180302809112E-02 
422	 0.031334918872285 
423	 3.15997952940302E-02 
424	 0.031482938804302 
425	 0.031247631726577 
426	 3.11085155448153E-02 
427	 0.031125214960603 
428	 3.11528217856434E-02 
429	 3.12583302342104E-02 
430	 3.14265555127023E-02 
431	 0.031210051840223 
432	 3.12275455158167E-02 
433	 3.14230166503196E-02 
434	 3.13959978886703E-02 
435	 0.031427619743397 
436	 3.15074625493811E-02 
437	 3.15573613793729E-02 
438	 3.14353128158868E-02 
439	 3.14234562371162E-02 
440	 3.14735911061104E-02 
441	 3.14827428935129E-02 
442	 3.15698978282217E-02 
443	 3.16590142628018E-02 
444	 0.031684280984043 
445	 3.16069824673638E-02 
446	 3.15630602823939E-02 
447	 3.16159561408437E-02 
448	 3.17531958622892E-02 
449	 3.18433561006223E-02 
450	 3.18662297695652E-02 
451	 3.18316659215863E-02 
452	 3.17797488405582E-02 
453	 3.17885864265441E-02 
454	 3.18916397659977E-02 
455	 0.031991179962363 
456	 3.18628127549435E-02 
457	 3.19086652690774E-02 
458	 3.20109220947987E-02 
459	 3.20076249413646E-02 
460	 3.19566315815474E-02 
461	 3.20391087142137E-02 
462	 3.21526129872792E-02 
463	 3.20776499966075E-02 
464	 3.21017137899532E-02 
465	 3.22254606538505E-02 
466	 3.23334208190706E-02 
467	 3.21758978542859E-02 
468	 3.21775841924343E-02 
469	 3.22425369582684E-02 
470	 3.22072528289374E-02 
471	 3.23283832146651E-02 
472	 0.032410600745437 
473	 3.24384097878043E-02 
474	 3.25294993051139E-02 
475	 3.23473940999546E-02 
476	 3.22551411562623E-02 
477	 3.24380952494222E-02 
478	 0.032445649737637 
479	 3.24505681022234E-02 
480	 3.25153566944412E-02 
481	 3.26323205127462E-02 
482	 3.25845316855159E-02 
483	 3.25777187452692E-02 
484	 3.26688560146748E-02 
485	 0.032711245350293 
486	 3.27628006281635E-02 
487	 3.27642240438196E-02 
488	 3.26999793367093E-02 
489	 3.27498143444192E-02 
490	 3.29093682299017E-02 
491	 3.30630640033016E-02 
492	 3.30554623861257E-02 
493	 3.30350262715691E-02 
494	 3.30094342422271E-02 
495	 3.30060588766073E-02 
496	 3.31211099665387E-02 
497	 3.31879697490588E-02 
498	 3.32096709352372E-02 
499	 3.32450382015206E-02 
500	 0.033334058487152 
501	 3.34379490309051E-02 
502	 3.34820437983234E-02 
503	 3.33814677683465E-02 
504	 3.34119580816228E-02 
505	 3.34422774351487E-02 
506	 3.33859501346947E-02 
507	 3.34531714907593E-02 
508	 3.35410057308828E-02 
509	 3.36003855650016E-02 
510	 3.36176299871985E-02 
511	 3.36606137249284E-02 
512	 3.37145135554037E-02 
513	 3.37738078568038E-02 
514	 3.38571541279403E-02 
515	 3.38582382297175E-02 
516	 3.38224720038892E-02 
517	 3.38310891671653E-02 
518	 3.39397260773677E-02 
519	 3.40615353233304E-02 
520	 3.41502497960914E-02 
521	 3.41955247744506E-02 
522	 3.42192993120554E-02 
523	 3.42531944855269E-02 
524	 3.43061722658326E-02 
525	 3.43423732334827E-02 
526	 0.034372385724151 
527	 3.44340309998955E-02 
528	 3.45524104154089E-02 
529	 3.46340830228572E-02 
530	 3.46513730367735E-02 
531	 3.46667494763785E-02 
532	 3.48243480295514E-02 
533	 0.034899290604231 
534	 0.034937864340754 
535	 3.50080150492222E-02 
536	 3.50523441504385E-02 
537	 3.51332333735619E-02 
538	 3.52464923568711E-02 
539	 3.53479987847953E-02 
540	 3.53995408585647E-02 
541	 3.54831411675692E-02 
542	 3.56142722737367E-02 
543	 0.035679471376642 
544	 3.57373075568884E-02 
545	 3.57955174669111E-02 
546	 3.58572605991565E-02 
547	 3.59722133828353E-02 
548	 3.60801956537965E-02 
549	 3.61625409909194E-02 
550	 3.62428624432327E-02 
551	 3.63450829722649E-02 
552	 3.64480731764529E-02 
553	 3.65415708665078E-02 
554	 3.66668947682025E-02 
555	 3.67961404324683E-02 
556	 3.69259171938249E-02 
557	 0.037064435239352 
558	 3.72160418049351E-02 
559	 3.73807853900726E-02 
560	 3.75467390662466E-02 
561	 3.76870703332597E-02 
562	 3.78102798892851E-02 
563	 3.79281967592436E-02 
564	 3.80484668843908E-02 
565	 3.81590381853671E-02 
566	 3.82512256276905E-02 
567	 3.83366009876827E-02 
568	 3.84383447027844E-02 
569	 3.85178321769698E-02 
570	 0.038599614240781 
571	 3.86907958179124E-02 
572	 3.87353576338806E-02 
573	 3.88032400466571E-02 
574	 3.89157986559116E-02 
575	 3.90665379929157E-02 
576	 3.92194440480067E-02 
577	 3.93290391067125E-02 
578	 3.93936842741471E-02 
579	 0.039460850960219 
580	 3.95293721175417E-02 
581	 3.96230932719514E-02 
582	 3.97523194949545E-02 
583	 3.98735945054114E-02 
584	 4.00145243476532E-02 
585	 4.01619251895537E-02 
586	 4.02832301221823E-02 
587	 4.04086065969944E-02 
588	 0.040499699081516 
589	 4.05581318396985E-02 
590	 4.06634774514744E-02 
591	 4.07383958770793E-02 
592	 4.08122284130135E-02 
593	 4.09219782974121E-02 
594	 4.09905978836888E-02 
595	 4.10459974718877E-02 
596	 4.11139102554544E-02 
597	 4.12103887153328E-02 
598	 4.12710687375618E-02 
599	 4.13463649649593E-02 
600	 4.14637785523685E-02 
601	 4.15416759312942E-02 
602	 4.16440350985905E-02 
603	 4.17536116996497E-02 
604	 4.18272689363948E-02 
605	 0.041900478701764 
606	 4.19815509329486E-02 
607	 4.20739404929285E-02 
608	 4.21777837805542E-02 
609	 4.22509243575686E-02 
610	 4.23283016595243E-02 
611	 4.24361510989139E-02 
612	 4.25039464845475E-02 
613	 4.25534965740636E-02 
614	 0.042611490665693 
615	 0.042698252803125 
616	 4.27289470399639E-02 
617	 4.27817082177724E-02 
618	 4.28913656327327E-02 
619	 4.29812065426632E-02 
620	 0.043038055189182 
621	 4.30861641702655E-02 
622	 4.31493050943144E-02 
623	 4.31629478896543E-02 
624	 4.32097270334565E-02 
625	 4.32996451393213E-02 
626	 4.33712424807649E-02 
627	 4.34500151830036E-02 
628	 0.043525498994967 
629	 4.35838770354803E-02 
630	 4.36116561369103E-02 
631	 4.36687170454215E-02 
632	 4.37401154826524E-02 
633	 4.37866026658536E-02 
634	 4.38641170424836E-02 
635	 4.39431777010584E-02 
636	 0.044003262890183 
637	 4.40439913209397E-02 
638	 4.40849767628662E-02 
639	 4.41354767167226E-02 
640	 4.41946180368684E-02 
641	 4.42396811115911E-02 
642	 4.42917917145869E-02 
643	 4.43520663501821E-02 
644	 4.44087360080615E-02 
645	 4.44534176311077E-02 
646	 4.45154076514773E-02 
647	 4.46008694970722E-02 
648	 4.46718603796744E-02 
649	 4.47316584883845E-02 
650	 4.47871881468992E-02 
651	 4.48423468179139E-02 
652	 4.48756889611418E-02 
653	 4.49209843883809E-02 
654	 4.49775799070296E-02 
655	 0.045018631577709 
656	 4.50799344832335E-02 
657	 4.51548073603497E-02 
658	 0.045222905570435 
659	 4.52471820283146E-02 
660	 4.52769375226862E-02 
661	 4.53290977220374E-02 
662	 4.54041218084331E-02 
663	 0.045495893984624 
664	 4.55284927737246E-02 
665	 4.55297458720283E-02 
666	 4.56268547123414E-02 
667	 4.56812789284947E-02 
668	 0.045724134187998 
669	 4.57953407843902E-02 
670	 4.58747764368277E-02 
671	 4.59099681518175E-02 
672	 4.59139935442023E-02 
673	 4.59356345577163E-02 
674	 4.60236949884861E-02 
675	 4.60936556848764E-02 
676	 4.61218151829451E-02 
677	 4.61709081150355E-02 
678	 4.62341457513625E-02 
679	 4.63056973498408E-02 
680	 4.63748421709987E-02 
681	 4.64180003165102E-02 
682	 4.64781965993348E-02 
683	 4.65436216706696E-02 
684	 4.65776525697112E-02 
685	 4.66082409872191E-02 
686	 4.66619954149706E-02 
687	 4.67354916156309E-02 
688	 4.67850494151932E-02 
689	 4.68227006152806E-02 
690	 4.68574096404661E-02 
691	 4.69010575804688E-02 
692	 4.69774861237704E-02 
693	 4.70383515244037E-02 
694	 4.70880956438732E-02 
695	 4.71594701011329E-02 
696	 4.72060466506669E-02 
697	 4.72468203809245E-02 
698	 4.72927521779365E-02 
699	 4.73287403248231E-02 
700	 4.73872533641148E-02 
701	 4.74446739166489E-02 
702	 4.74792367498706E-02 
703	 4.75394290614632E-02 
704	 4.76138200794534E-02 
705	 4.76723393269751E-02 
706	 4.76852520882569E-02 
707	 4.77559260355861E-02 
708	 4.78243488637275E-02 
709	 4.78562449568301E-02 
710	 4.78956695672072E-02 
711	 4.79561197772101E-02 
712	 4.80281275059251E-02 
713	 4.80941466347599E-02 
714	 0.048142959833479 
715	 4.81882394143428E-02 
716	 4.82286850711749E-02 
717	 0.048257555317967 
718	 4.83386832972889E-02 
719	 4.84181151760685E-02 
720	 4.84630805722628E-02 
721	 4.85035951893895E-02 
722	 4.85430068116982E-02 
723	 4.85972087039586E-02 
724	 4.86706147733212E-02 
725	 4.87125550963103E-02 
726	 0.048769952023602 
727	 0.048841103375256 
728	 4.88902835297886E-02 
729	 4.89249397544194E-02 
730	 4.89763142428239E-02 
731	 0.049052104725098 
732	 4.91179345552025E-02 
733	 4.91635937580496E-02 
734	 4.92016179735094E-02 
735	 4.92504225109341E-02 
736	 0.049318524735431 
737	 4.93842167550513E-02 
738	 4.94375584856169E-02 
739	 4.94811877364102E-02 
740	 4.95489949982158E-02 
741	 4.96145846270629E-02 
742	 4.96646221947274E-02 
743	 4.97162261325736E-02 
744	 4.97952516951687E-02 
745	 4.98751353656763E-02 
746	 0.049929589239334 
747	 4.99840047718465E-02 
748	 5.00480801027166E-02 
749	 5.01147293516009E-02 
750	 5.01697629630523E-02 
751	 5.02292654009787E-02 
752	 5.02984239254859E-02 
753	 5.03679904112288E-02 
754	 5.04129127354736E-02 
755	 0.050479237960869 
756	 5.05463170532369E-02 
757	 5.05917927196732E-02 
758	 5.06330545545074E-02 
759	 5.06868738137663E-02 
760	 5.07510961624299E-02 
761	 5.08139766383383E-02 
762	 5.08744646828637E-02 
763	 5.09282862782184E-02 
764	 5.09800147854457E-02 
765	 5.10426362361693E-02 
766	 5.11039739685745E-02 
767	 5.11493788769162E-02 
768	 5.11868993654486E-02 
769	 5.12803708360549E-02 
770	 5.13580007905752E-02 
771	 5.14097847684281E-02 
772	 0.051450114933952 
773	 5.14863032294235E-02 
774	 0.051540442751307 
775	 5.16081494121818E-02 
776	 5.16650918271452E-02 
777	 0.051727294808768 
778	 5.17880603796382E-02 
779	 5.18385972551561E-02 
780	 5.18705702474333E-02 
781	 5.19305095096449E-02 
782	 5.20001308946425E-02 
783	 5.20518209112673E-02 
784	 5.20953859506205E-02 
785	 5.21591673195355E-02 
786	 5.22349151540182E-02 
787	 5.22931694663329E-02 
788	 5.23223505204082E-02 
789	 5.23684092619401E-02 
790	 5.24383878821538E-02 
791	 5.24885966715481E-02 
792	 5.25455470175351E-02 
793	 0.052599218354911 
794	 5.26458434274152E-02 
795	 0.052717496443076 
796	 5.27569728511774E-02 
797	 0.052793556251255 
798	 5.28656190689458E-02 
799	 5.28852631848895E-02 
800	 5.29239503689737E-02 
801	 5.29883213380818E-02 
802	 5.30323167834159E-02 
803	 5.30695454695638E-02 
804	 5.31107783544956E-02 
805	 5.31650467626101E-02 
806	 5.32383122036333E-02 
807	 5.32949375979955E-02 
808	 5.33330588989445E-02 
809	 5.33638306622023E-02 
810	 5.34036763766911E-02 
811	 5.34644343132036E-02 
812	 5.35298268207569E-02 
813	 5.35768380362526E-02 
814	 5.36267809150445E-02 
815	 0.053676903177782 
816	 5.37238219892443E-02 
817	 5.37669009999059E-02 
818	 5.38375252725649E-02 
819	 5.38803526057292E-02 
820	 5.38844976535323E-02 
821	 5.39305958296335E-02 
822	 5.40037327245107E-02 
823	 5.40769778591084E-02 
824	 5.41284679387584E-02 
825	 5.41670739814201E-02 
826	 5.41993194032075E-02 
827	 0.054242765901096 
828	 5.43098712304367E-02 
829	 5.43617592762625E-02 
830	 0.054404536178559 
831	 5.44470916005664E-02 
832	 5.44977969670378E-02 
833	 5.45631198925057E-02 
834	 5.46025541207887E-02 
835	 5.46179921993892E-02 
836	 5.46840575672382E-02 
837	 0.054751701526047 
838	 5.48053671472208E-02 
839	 5.48447055982183E-02 
840	 5.48884760391513E-02 
841	 5.49232507057597E-02 
842	 5.49529163158968E-02 
843	 5.49874102940839E-02 
844	 5.50283411355966E-02 
845	 5.50758024042404E-02 
846	 5.51221332617193E-02 
847	 5.51559488618828E-02 
848	 0.055183694414312 
849	 5.52041021685235E-02 
850	 5.52237714640206E-02 
851	 0.055259008973067 
852	 5.53141915668457E-02 
853	 5.53699962905684E-02 
854	 5.54144631542088E-02 
855	 5.54635829205299E-02 
856	 5.54886443703726E-02 
857	 5.55104628305446E-02 
858	 5.55541455244445E-02 
859	 5.56009975903615E-02 
860	 5.56388934803085E-02 
861	 5.56805573562739E-02 
862	 5.57415994431202E-02 
863	 5.57696135893831E-02 
864	 5.58217117894797E-02 
865	 5.58944491767231E-02 
866	 5.59319821532474E-02 
867	 5.59662712158476E-02 
868	 5.60189227306165E-02 
869	 5.60802514808829E-02 
870	 5.61029810936385E-02 
871	 5.61479263683735E-02 
872	 5.61790205155559E-02 
873	 5.61855929230124E-02 
874	 5.62593920895885E-02 
875	 5.63290494014403E-02 
876	 0.056375861319904 
877	 5.64071078150112E-02 
878	 5.64573019602299E-02 
879	 5.64974544066982E-02 
880	 5.65447070069928E-02 
881	 0.056621936067445 
882	 5.66550684230056E-02 
883	 5.66966873318593E-02 
884	 5.67544659795059E-02 
885	 5.68004599927543E-02 
886	 5.68651470044072E-02 
887	 0.056913354556593 
888	 5.69469762815745E-02 
889	 5.70133930544918E-02 
890	 5.70602518675668E-02 
891	 5.70938150715486E-02 
892	 5.71325249537113E-02 
893	 5.71956864539378E-02 
894	 5.72434568591319E-02 
895	 5.72982074645734E-02 
896	 0.057371172392716 
897	 5.74000982048148E-02 
898	 5.74610018144597E-02 
899	 5.75225039958271E-02 
900	 5.75443197572624E-02 
901	 5.76000423629993E-02 
902	 5.76450894279882E-02 
903	 5.76974908389306E-02 
904	 5.77857231024585E-02 
905	 5.78171915449228E-02 
906	 5.78506145894476E-02 
907	 5.79198884610786E-02 
908	 5.80149735554005E-02 
909	 5.79984111820656E-02 
910	 5.79978127051924E-02 
911	 5.80674912032382E-02 
912	 5.81548972619137E-02 
913	 5.82153970683884E-02 
914	 5.82586824182445E-02 
915	 5.83171622841083E-02 
916	 5.84320383034735E-02 
917	 5.84650213863211E-02 
918	 5.84871240768179E-02 
919	 5.85673017914752E-02 
920	 5.86871242320269E-02 
921	 5.87071643135755E-02 
922	 5.86974012296761E-02 
923	 5.87517703018028E-02 
924	 5.88747928128286E-02 
925	 5.89421173644296E-02 
926	 5.89976515879959E-02 
927	 5.90949419577683E-02 
928	 0.059107217179529 
929	 5.91875305601125E-02 
930	 5.92933340610537E-02 
931	 5.93311630732542E-02 
932	 5.93781847039433E-02 
933	 5.94326035029523E-02 
934	 5.94966298416323E-02 
935	 0.059571406013885 
936	 5.96399193336421E-02 
937	 0.059738417071398 
938	 5.98494781104864E-02 
939	 5.99286042849165E-02 
940	 6.00344315922966E-02 
941	 6.00925626491095E-02 
942	 6.01140972913848E-02 
943	 6.01869893330474E-02 
944	 6.03172994112014E-02 
945	 6.04091073832208E-02 
946	 6.04588327226441E-02 
947	 6.05610262856965E-02 
948	 6.06325255521903E-02 
949	 6.06761873834067E-02 
950	 6.07291045170687E-02 
951	 6.08452187525177E-02 
952	 6.09446596437217E-02 
953	 6.10244834285535E-02 
954	 6.10999695769966E-02 
955	 0.06119026949499 
956	 0.061301465631445 
957	 6.13903769908676E-02 
958	 0.061433810052196 
959	 6.14610398261441E-02 
960	 6.15263141290997E-02 
961	 6.15886175444107E-02 
962	 6.16446136703328E-02 
963	 6.18108263471246E-02 
964	 6.18426944764968E-02 
965	 6.18538036597092E-02 
966	 6.19666051264627E-02 
967	 6.21000862898565E-02 
968	 6.21997760262224E-02 
969	 6.22723556406328E-02 
970	 6.23278996360499E-02 
971	 6.23208169209369E-02 
972	 6.24388536848518E-02 
973	 6.25436079769174E-02 
974	 6.25282372993904E-02 
975	 6.26654485072825E-02 
976	 6.28084058536983E-02 
977	 0.062926607208661 
978	 6.30103013485257E-02 
979	 0.062988233369063 
980	 6.30878436851919E-02 
981	 0.063208361620812 
982	 6.32256761563855E-02 
983	 6.33288983099868E-02 
984	 6.34389259087144E-02 
985	 6.35406845698349E-02 
986	 6.36504487062389E-02 
987	 6.38208579465396E-02 
988	 6.39264489156273E-02 
989	 6.39795435060764E-02 
990	 6.40330858786202E-02 
991	 6.40794676238286E-02 
992	 6.41282546594708E-02 
993	 6.42262034037899E-02 
994	 6.43853209490687E-02 
995	 6.44683859892065E-02 
996	 0.064563562892335 
997	 6.46219239116398E-02 
998	 6.46342716366913E-02 
999	 6.48804391156867E-02 
1000	 6.51044476435863E-02 
1001	 6.62287602870911E-02 
1002	 6.62927519543511E-02 
1003	 6.63733825902612E-02 
1004	 6.64644819090407E-02 
1005	 6.65612178975692E-02 
1006	 6.66657323581633E-02 
1007	 6.67837756185009E-02 
1008	 6.69069546582762E-02 
1009	 6.70559655984672E-02 
1010	 6.71666533359027E-02 
1011	 6.72695040403202E-02 
1012	 6.73665748069218E-02 
1013	 6.74240560850484E-02 
1014	 6.75095186523609E-02 
1015	 6.75936714188424E-02 
1016	 6.77103007663392E-02 
1017	 6.78609537179141E-02 
1018	 6.79879952298888E-02 
1019	 6.80908061951174E-02 
1020	 6.81885761723823E-02 
1021	 6.82821196329264E-02 
1022	 6.83388434266548E-02 
1023	 6.84183482399525E-02 
1024	 6.85150323457508E-02 
1025	 6.85992429060239E-02 
1026	 6.86612224401797E-02 
1027	 6.87580834575275E-02 
1028	 6.88707275833941E-02 
1029	 6.90017112462825E-02 
1030	 6.91123316181863E-02 
1031	 6.91938417373465E-02 
1032	 6.92674829697055E-02 
1033	 6.93296378239269E-02 
1034	 6.93915194466054E-02 
1035	 6.94786690670576E-02 
1036	 6.95735789027781E-02 
1037	 6.96845192393654E-02 
1038	 6.97654039483529E-02 
1039	 6.98448059508531E-02 
1040	 6.99227514593474E-02 
1041	 6.99642607758412E-02 
1042	 0.070039908185609 
1043	 7.01366589499435E-02 
1044	 7.02526622914738E-02 
1045	 7.03460810423807E-02 
1046	 7.04323035699142E-02 
1047	 7.05251495746149E-02 
1048	 7.06261242764637E-02 
1049	 7.07595674214804E-02 
1050	 7.08792255692921E-02 
1051	 0.070968880808448 
1052	 0.071058826962416 
1053	 7.11693537696463E-02 
1054	 7.12893060895323E-02 
1055	 7.13877716768428E-02 
1056	 7.15000097476518E-02 
1057	 7.16047999061864E-02 
1058	 7.16772097640071E-02 
1059	 7.17620494073357E-02 
1060	 7.18912127926255E-02 
1061	 7.19950157658953E-02 
1062	 7.20980014540756E-02 
1063	 7.22233671033039E-02 
1064	 7.23293949516627E-02 
1065	 7.24331475993448E-02 
1066	 7.25396710898538E-02 
1067	 7.26324714625792E-02 
1068	 7.27528855897294E-02 
1069	 0.072892617645313 
1070	 7.30259132520089E-02 
1071	 7.31738318096043E-02 
1072	 7.33162679299907E-02 
1073	 7.34245599127334E-02 
1074	 7.35218241107702E-02 
1075	 7.36358544040833E-02 
1076	 7.37520537049137E-02 
1077	 7.38560658095944E-02 
1078	 7.39702405644504E-02 
1079	 7.40975002038795E-02 
1080	 7.42168386805727E-02 
1081	 7.43129683402052E-02 
1082	 7.44114192267505E-02 
1083	 7.45316759333016E-02 
1084	 7.46192542108722E-02 
1085	 7.47199022438739E-02 
1086	 7.48402954005522E-02 
1087	 7.49873349092264E-02 
1088	 7.50943031631511E-02 
1089	 7.52093609817108E-02 
1090	 7.53287400977411E-02 
1091	 7.54189928962735E-02 
1092	 0.075520728925776 
1093	 7.56203558971782E-02 
1094	 7.57228004439918E-02 
1095	 7.58468479116769E-02 
1096	 7.59518625560333E-02 
1097	 7.60642957127401E-02 
1098	 7.61975086216561E-02 
1099	 7.63104520704773E-02 
1100	 7.63999356169978E-02 
1101	 7.64978383467161E-02 
1102	 7.66104558396243E-02 
1103	 7.67162539799089E-02 
1104	 7.68183075270188E-02 
1105	 7.69449689010367E-02 
1106	 0.077073736331904 
1107	 7.71689657503552E-02 
1108	 7.72679490290866E-02 
1109	 0.077368376946012 
1110	 7.74572346245894E-02 
1111	 0.077552552451737 
1112	 7.76440515821213E-02 
1113	 7.77386961707738E-02 
1114	 7.78442772474735E-02 
1115	 7.79340406336978E-02 
1116	 7.80211028112635E-02 
1117	 7.81122845419473E-02 
1118	 7.81977266249764E-02 
1119	 7.82623485809761E-02 
1120	 7.83538988299184E-02 
1121	 7.84582230715889E-02 
1122	 7.85642840620229E-02 
1123	 7.86661920541393E-02 
1124	 7.87561732782618E-02 
1125	 7.88442702395899E-02 
1126	 7.89277093378432E-02 
1127	 7.90279025919127E-02 
1128	 7.91400460504919E-02 
1129	 7.92326000913109E-02 
1130	 7.93269495348177E-02 
1131	 7.94063875058205E-02 
1132	 7.94893441858113E-02 
1133	 7.95979952491476E-02 
1134	 7.96959116895178E-02 
1135	 7.97903618912143E-02 
1136	 7.98892819242826E-02 
1137	 7.99839961358489E-02 
1138	 8.00647777314614E-02 
1139	 8.01584707491468E-02 
1140	 8.02646266201065E-02 
1141	 0.080356212078154 
1142	 8.04516148572096E-02 
1143	 8.05436573711308E-02 
1144	 0.080637221631641 
1145	 8.07396554980149E-02 
1146	 8.08089577098983E-02 
1147	 8.08892134002703E-02 
1148	 8.09887057697431E-02 
1149	 8.10688181613674E-02 
1150	 8.11750243360577E-02 
1151	 8.12921303961937E-02 
1152	 8.13937821089014E-02 
1153	 8.14849359757092E-02 
1154	 8.15764474855253E-02 
1155	 8.16551848560188E-02 
1156	 8.17478884980404E-02 
1157	 8.18450617819617E-02 
1158	 8.19388828519617E-02 
1159	 8.20366847901661E-02 
1160	 8.21443581653405E-02 
1161	 8.22406192349671E-02 
1162	 8.23322624355175E-02 
1163	 8.24243954512392E-02 
1164	 8.25258454878036E-02 
1165	 8.26357098694342E-02 
1166	 8.27347905815138E-02 
1167	 8.28365577244665E-02 
1168	 8.29351125757439E-02 
1169	 0.083035088397382 
1170	 8.31332303941585E-02 
1171	 8.32284426044687E-02 
1172	 8.33217734802457E-02 
1173	 8.34186173790263E-02 
1174	 8.35060462787849E-02 
1175	 8.36007369031714E-02 
1176	 8.37108354382231E-02 
1177	 8.38126639324674E-02 
1178	 8.39073573228046E-02 
1179	 8.40108208553719E-02 
1180	 8.41092733110443E-02 
1181	 8.42053394505266E-02 
1182	 8.43108907178242E-02 
1183	 8.44106349751654E-02 
1184	 8.45238976697915E-02 
1185	 8.46359368787962E-02 
1186	 8.47382978104548E-02 
1187	 8.48364504590101E-02 
1188	 8.49392623450377E-02 
1189	 8.50364982589191E-02 
1190	 8.51343407321118E-02 
1191	 8.52354213428808E-02 
1192	 8.53355554638471E-02 
1193	 8.54248675308903E-02 
1194	 8.55290922495511E-02 
1195	 8.56558277446782E-02 
1196	 8.57633701219207E-02 
1197	 8.58639783313525E-02 
1198	 8.59670226370435E-02 
1199	 8.60700185882565E-02 
1200	 8.61587484748511E-02 
1201	 8.62788913563114E-02 
1202	 8.64079654686994E-02 
1203	 8.65099270960424E-02 
1204	 8.66258855281778E-02 
1205	 8.67352522733454E-02 
1206	 8.68294336034822E-02 
1207	 8.69379600084181E-02 
1208	 8.70565941132747E-02 
1209	 8.71697490871129E-02 
1210	 8.72863154910136E-02 
1211	 8.73993109840215E-02 
1212	 8.75102865290361E-02 
1213	 8.76245735127253E-02 
1214	 8.77362804282225E-02 
1215	 8.78504295259177E-02 
1216	 8.79675955439907E-02 
1217	 8.80834775472576E-02 
1218	 8.81997940945703E-02 
1219	 8.83185989012405E-02 
1220	 8.84235287222778E-02 
1221	 8.85479679057139E-02 
1222	 8.86743301748773E-02 
1223	 8.87984219603702E-02 
1224	 8.89286050363544E-02 
1225	 0.089071609772533 
1226	 8.91987043541398E-02 
1227	 8.93196880342423E-02 
1228	 8.94436204762957E-02 
1229	 8.95699123225289E-02 
1230	 8.96840535736129E-02 
1231	 8.97896656034571E-02 
1232	 8.99008365248081E-02 
1233	 9.00000368723375E-02 
1234	 9.01075830707735E-02 
1235	 0.090225028696711 
1236	 0.090342609739011 
1237	 9.04572017823396E-02 
1238	 9.05785260041886E-02 
1239	 9.07124988843671E-02 
1240	 9.08378180873107E-02 
1241	 0.090963455270019 
1242	 9.10829506835229E-02 
1243	 0.091197640826881 
1244	 9.13044662324767E-02 
1245	 9.14115241914534E-02 
1246	 0.091510575330816 
1247	 9.16239087006988E-02 
1248	 9.17431774237022E-02 
1249	 9.18572714314845E-02 
1250	 0.091979794721671 
1251	 9.20922547501149E-02 
1252	 9.21977284708989E-02 
1253	 9.23007097985359E-02 
1254	 9.23972929213003E-02 
1255	 0.092501115862627 
1256	 0.092602972212017 
1257	 9.27061061665683E-02 
1258	 9.28182063275428E-02 
1259	 9.29238317041698E-02 
1260	 9.30207979990608E-02 
1261	 9.31243358846219E-02 
1262	 9.32262276198024E-02 
1263	 9.33369252601728E-02 
1264	 9.34458623411219E-02 
1265	 9.35624433526482E-02 
1266	 9.36667114244955E-02 
1267	 9.37625612436581E-02 
1268	 9.38687785974609E-02 
1269	 9.39719152831311E-02 
1270	 9.40814862336548E-02 
1271	 9.42075317952962E-02 
1272	 9.43150928031932E-02 
1273	 9.44042708605082E-02 
1274	 9.45157853933393E-02 
1275	 9.46296316283794E-02 
1276	 9.47471752631404E-02 
1277	 0.094887559367431 
1278	 9.50114502750913E-02 
1279	 9.51213520910447E-02 
1280	 9.52390585120767E-02 
1281	 9.53529804755483E-02 
1282	 9.54735113407808E-02 
1283	 0.095596166650291 
1284	 9.57248178393355E-02 
1285	 9.58583395542798E-02 
1286	 9.59959160088248E-02 
1287	 9.61378626722417E-02 
1288	 9.62929664211739E-02 
1289	 9.64288933811542E-02 
1290	 9.65593133617232E-02 
1291	 0.09669143657172 
1292	 9.68059412230217E-02 
1293	 0.0969442136563 
1294	 9.71005620704511E-02 
1295	 9.72441403388292E-02 
1296	 9.73958111700459E-02 
1297	 9.75356639706728E-02 
1298	 9.76548517638917E-02 
1299	 9.77941007520883E-02 
1300	 9.79490868316446E-02 
1301	 9.80864461398493E-02 
1302	 9.82228362326592E-02 
1303	 9.83588025483114E-02 
1304	 0.098475904430718 
1305	 9.86050850836904E-02 
1306	 9.87515234255395E-02 
1307	 9.88872058461369E-02 
1308	 9.90135966896708E-02 
1309	 9.91483906700704E-02 
1310	 0.099280841657263 
1311	 9.94080545220117E-02 
1312	 9.95435427634363E-02 
1313	 9.96906804388814E-02 
1314	 9.98191715513859E-02 
1315	 9.99382180452656E-02 
1316	 0.100066886515889 
1317	 0.100189297582223 
1318	 0.100317496479396 
1319	 0.100458663902387 
1320	 0.10058901760755 
1321	 0.100715306615068 
1322	 0.100837025347712 
1323	 0.100959468264993 
1324	 0.101071413597223 
1325	 0.101165733279254 
1326	 0.10127347541322 
1327	 0.101386212493879 
1328	 0.101491747071435 
1329	 0.101599554040037 
1330	 0.101706483567915 
1331	 0.101802826582846 
1332	 0.101904928703348 
1333	 0.102003920966299 
1334	 0.102120940443959 
1335	 0.102233534772749 
1336	 0.102348518185477 
1337	 0.102461317911063 
1338	 0.102581877318211 
1339	 0.102685999127397 
1340	 0.102781165977714 
1341	 0.102877923505852 
1342	 0.10296481284608 
1343	 0.103061360091658 
1344	 0.103162301338588 
1345	 0.103261430929337 
1346	 0.103367862820247 
1347	 0.103461744398619 
1348	 0.103540946803008 
1349	 0.103637254668478 
1350	 0.103739086226305 
1351	 0.103835861669964 
1352	 0.103942369232879 
1353	 0.104044082231574 
1354	 0.10413484865264 
1355	 0.104230021386879 
1356	 0.104335355408683 
1357	 0.104431141822815 
1358	 0.104513268510631 
1359	 0.104607053709051 
1360	 0.104699616627438 
1361	 0.104800739214458 
1362	 0.10490975968127 
1363	 0.105011781645751 
1364	 0.105112534881245 
1365	 0.105207490846717 
1366	 0.105308649095094 
1367	 0.105411459901601 
1368	 0.10551424363004 
1369	 0.105622022294212 
1370	 0.105721198488931 
1371	 0.105815505479503 
1372	 0.105910615482191 
1373	 0.106007009621684 
1374	 0.106093271544158 
1375	 0.106173465157572 
1376	 0.106256859974635 
1377	 0.106331346465585 
1378	 0.106413281135657 
1379	 0.106505892951407 
1380	 0.106589615658691 
1381	 0.106664056168403 
1382	 0.106749827975138 
1383	 0.106835961524327 
1384	 0.106926961230539 
1385	 0.107033671759065 
1386	 0.10712830050634 
1387	 0.107213975826436 
1388	 0.107306139468594 
1389	 0.107398669158769 
1390	 0.107488464614956 
1391	 0.107578638265273 
1392	 0.107672043878963 
1393	 0.107763860933541 
1394	 0.107863050378108 
1395	 0.107956888879201 
1396	 0.108055446513641 
1397	 0.108149767116729 
1398	 0.108241324910028 
1399	 0.108326090617568 
1400	 0.108408539974797 
1401	 0.108493060590667 
1402	 0.108573056751995 
1403	 0.108648721488718 
1404	 0.108730599018142 
1405	 0.108798093128542 
1406	 0.108842817009584 
1407	 0.108909803547752 
1408	 0.108984441815015 
1409	 0.109054822894855 
1410	 0.109138484079804 
1411	 0.109207996399803 
1412	 0.109260838284047 
1413	 0.109325563964998 
1414	 0.109387442560047 
1415	 0.109457674849995 
1416	 0.109538375429126 
1417	 0.109617572669755 
1418	 0.10969723816354 
1419	 0.10978382317703 
1420	 0.109877486071616 
1421	 0.10996714587129 
1422	 0.110058081652526 
1423	 0.11015255563044 
1424	 0.110242665386185 
1425	 0.110339266167103 
1426	 0.110443199814884 
1427	 0.110556519666451 
1428	 0.110669538605244 
1429	 0.110779603813843 
1430	 0.110889288039007 
1431	 0.110999297809885 
1432	 0.111103394434105 
1433	 0.111204201332145 
1434	 0.111307723425184 
1435	 0.111405651249389 
1436	 0.111513872372805 
1437	 0.111626035478756 
1438	 0.111741791437733 
1439	 0.111867057151539 
1440	 0.11198295766373 
1441	 0.11209982628156 
1442	 0.112214232794869 
1443	 0.112315607271504 
1444	 0.112435366014026 
1445	 0.112563328684863 
1446	 0.112691905231845 
1447	 0.112824697851385 
1448	 0.112967893636498 
1449	 0.113121575602606 
1450	 0.113270206660255 
1451	 0.113424961887929 
1452	 0.113581717212225 
1453	 0.113736835396545 
1454	 0.113889405647844 
1455	 0.114043866501814 
1456	 0.114203335580453 
1457	 0.114358346147773 
1458	 0.114519855646806 
1459	 0.114698646211041 
1460	 0.114865499346096 
1461	 0.115026933512003 
1462	 0.115186889909113 
1463	 0.115338689554931 
1464	 0.115494068178808 
1465	 0.115648471225862 
1466	 0.115809611038492 
1467	 0.115956398680268 
1468	 0.11610763681095 
1469	 0.116269881940823 
1470	 0.116421453416012 
1471	 0.116587173921389 
1472	 0.116770033917459 
1473	 0.116936221323947 
1474	 0.117096761353978 
1475	 0.117262419094388 
1476	 0.117425963757146 
1477	 0.117590100131203 
1478	 0.117758674404447 
1479	 0.117921190306644 
1480	 0.11808242981592 
1481	 0.118234700452754 
1482	 0.118383080513176 
1483	 0.118529479179612 
1484	 0.11866120915143 
1485	 0.11880849825649 
1486	 0.118962691742912 
1487	 0.119114128031105 
1488	 0.119273813413724 
1489	 0.119425369694253 
1490	 0.119569760779307 
1491	 0.119719750805144 
1492	 0.119871422065719 
1493	 0.120020866278739 
1494	 0.120172128451443 
1495	 0.120320034145992 
1496	 0.120455557218365 
1497	 0.120608480362196 
1498	 0.120772513483664 
1499	 0.120933023307857 
1500	 0.121108850421192 
1501	 0.12126995610087 
1502	 0.121418776712952 
1503	 0.12156984857582 
1504	 0.121711894037152 
1505	 0.121862704915776 
1506	 0.122020587227013 
1507	 0.122174918705835 
1508	 0.122334611545302 
1509	 0.122488216946511 
1510	 0.122636340253456 
1511	 0.122782204694963 
1512	 0.122923354163378 
1513	 0.12306625571846 
1514	 0.123202984042157 
1515	 0.123347852470976 
1516	 0.123506232197445 
1517	 0.12365189662056 
1518	 0.123794969952891 
1519	 0.123935841369459 
1520	 0.124061526610869 
1521	 0.124197772518549 
1522	 0.124330521916947 
1523	 0.124458462249048 
1524	 0.124585994661547 
1525	 0.124705754937266 
1526	 0.124838844941311 
1527	 0.124978409991702 
1528	 0.125112243390494 
1529	 0.125249366989463 
1530	 0.125385779360781 
1531	 0.125521247001518 
1532	 0.125649749443194 
1533	 0.125776101084037 
1534	 0.1259081070113 
1535	 0.12603090065692 
1536	 0.126168351796254 
1537	 0.126320707778901 
1538	 0.126465369215936 
1539	 0.126611133618282 
1540	 0.126755081766517 
1541	 0.126898473386944 
1542	 0.127042558710042 
1543	 0.127187228018612 
1544	 0.1273284404342 
1545	 0.127469780315725 
1546	 0.127607872487267 
1547	 0.127739598103265 
1548	 0.127877305720543 
1549	 0.128013165194995 
1550	 0.128157618263467 
1551	 0.128311347273575 
1552	 0.128457258802661 
1553	 0.128604895973098 
1554	 0.128751505075476 
1555	 0.128890370967104 
1556	 0.129038162758235 
1557	 0.12919453369278 
1558	 0.129344614470565 
1559	 0.129496115979636 
1560	 0.129643568141667 
1561	 0.129786923693725 
1562	 0.129930164172281 
1563	 0.130068687318461 
1564	 0.130213435484305 
1565	 0.130360296318612 
1566	 0.130506966456067 
1567	 0.1306577905339 
1568	 0.130806994760119 
1569	 0.130955399662713 
1570	 0.131102868048887 
1571	 0.131251375010385 
1572	 0.131397843242733 
1573	 0.131541819178662 
1574	 0.131685365113226 
1575	 0.131822258838619 
1576	 0.131971360001164 
1577	 0.132133456932255 
1578	 0.132281145354541 
1579	 0.132432469776459 
1580	 0.13257462176098 
1581	 0.132692286605348 
1582	 0.132829696156618 
1583	 0.132977468078662 
1584	 0.133122731487866 
1585	 0.133271346495147 
1586	 0.133424616026576 
1587	 0.133576956003105 
1588	 0.133735152816219 
1589	 0.133911843208547 
1590	 0.134070852830749 
1591	 0.134223326147767 
1592	 0.134373193599184 
1593	 0.134505473786437 
1594	 0.134651542349687 
1595	 0.134809190201766 
1596	 0.134957181682189 
1597	 0.135100440241464 
1598	 0.135251664788805 
1599	 0.13541260941651 
1600	 0.135554205206543 
1601	 0.135685871554558 
1602	 0.135827926018277 
1603	 0.13595975939036 
1604	 0.136092057735686 
1605	 0.136232521315243 
1606	 0.136377628942428 
1607	 0.136518800574656 
1608	 0.136661016662502 
1609	 0.136819689970592 
1610	 0.136966682794477 
1611	 0.137099216117596 
1612	 0.137236163490967 
1613	 0.13736984916798 
1614	 0.137510168944877 
1615	 0.137660824048403 
1616	 0.137801527412455 
1617	 0.137942057058997 
1618	 0.138077893981074 
1619	 0.138198442627567 
1620	 0.138328312943547 
1621	 0.138459251142638 
1622	 0.138597029904404 
1623	 0.138743703063739 
1624	 0.138887977656221 
1625	 0.139041853068485 
1626	 0.139185781118237 
1627	 0.139326870803909 
1628	 0.139459229667646 
1629	 0.139575617091932 
1630	 0.139700790776925 
1631	 0.13982299176245 
1632	 0.139950955963391 
1633	 0.140081404065523 
1634	 0.140221710315406 
1635	 0.140374893848691 
1636	 0.140516288378418 
1637	 0.140667560121787 
1638	 0.140804187462377 
1639	 0.140921515436094 
1640	 0.141046402029123 
1641	 0.141164008020246 
1642	 0.141289425313692 
1643	 0.141423333530689 
1644	 0.141550864274086 
1645	 0.14167529082641 
1646	 0.141806171919712 
1647	 0.141946166107037 
1648	 0.142072769102218 
1649	 0.142202270214203 
1650	 0.142318684219305 
1651	 0.142410403843498 
1652	 0.142511700755422 
1653	 0.142608003375849 
1654	 0.142717112219872 
1655	 0.142845696800835 
1656	 0.142954146640971 
1657	 0.143067096771782 
1658	 0.143159784690541 
1659	 0.143222152378096 
1660	 0.143295616789765 
1661	 0.143368932228922 
1662	 0.143437674989989 
1663	 0.143514171282848 
1664	 0.143571382545091 
1665	 0.143609514678883 
1666	 0.143650872948161 
1667	 0.143696851306951 
1668	 0.143714113228658 
1669	 0.143720369512752 
1670	 0.143714911114 
1671	 0.143671019848129 
1672	 0.143643648226193 
1673	 0.143624799816494 
1674	 0.143597207476405 
1675	 0.14357765137856 
1676	 0.143530632915158 
1677	 0.143470246166094 
1678	 0.143390107339497 
1679	 0.143278623427369 
1680	 0.143176625424771 
1681	 0.143069543238984 
1682	 0.142955524234588 
1683	 0.142842188405382 
1684	 0.142714854691113 
1685	 0.14257657739312 
1686	 0.142425888057864 
1687	 0.142271184618474 
1688	 0.142090291569065 
1689	 0.141880971737103 
1690	 0.141679628919513 
1691	 0.141460739106722 
1692	 0.141250963205299 
1693	 0.141062498271194 
1694	 0.140834515759981 
1695	 0.140582642816175 
1696	 0.140331512505177 
1697	 0.140058233004232 
1698	 0.13978680916779 
1699	 0.139518847574036 
1700	 0.139250082097366 
1701	 0.138965576878872 
1702	 0.138703526142554 
1703	 0.138447123397863 
1704	 0.138205731937665 
1705	 0.137964712693482 
1706	 0.137759383656278 
1707	 0.137591428448713 
1708	 0.137431379460905 
1709	 0.137300049985728 
1710	 0.137170274157172 
1711	 0.137036009386312 
1712	 0.13693046306872 
1713	 0.136834365261259 
1714	 0.136751996464434 
1715	 0.136699089152844 
1716	 0.136658358231829 
1717	 0.13661248950134 
1718	 0.136572147285404 
1719	 0.136535933244287 
1720	 0.136497142555187 
1721	 0.136496293524088 
1722	 0.136531544560474 
1723	 0.136577815289177 
1724	 0.13665867523303 
1725	 0.136762893961469 
1726	 0.136884392666507 
1727	 0.137052100364215 
1728	 0.137253199599156 
1729	 0.137493139522117 
1730	 0.13774825283283 
1731	 0.138007813140873 
1732	 0.138314206702014 
1733	 0.138600992702736 
1734	 0.138901902079684 
1735	 0.139231800079341 
1736	 0.139506705873521 
1737	 0.139763021359818 
1738	 0.139974192639796 
1739	 0.140166789485316 
1740	 0.140336187119742 
1741	 0.140473747316265 
1742	 0.140594729506227 
1743	 0.140687999598223 
1744	 0.140716798524288 
1745	 0.140778970659098 
1746	 0.140833863187162 
1747	 0.140892035465352 
1748	 0.140965767467541 
1749	 0.141042264365136 
1750	 0.14111181957254 
1751	 0.141190795132526 
1752	 0.1412745755291 
1753	 0.141376630553031 
1754	 0.141475529819628 
1755	 0.141623678770711 
1756	 0.141801490327681 
1757	 0.14199748510225 
1758	 0.142240379676876 
1759	 0.142471537381924 
1760	 0.142721095947492 
1761	 0.1430339617397 
1762	 0.143326073031568 
1763	 0.143644630913077 
1764	 0.144011869802617 
1765	 0.144367336951083 
1766	 0.144768950096518 
1767	 0.145186135006231 
1768	 0.145593861418043 
1769	 0.146004764224257 
1770	 0.146374667022913 
1771	 0.146732972412375 
1772	 0.14709117492479 
1773	 0.147426371281207 
1774	 0.147746939173606 
1775	 0.148040472694692 
1776	 0.148320797315411 
1777	 0.148572637699786 
1778	 0.148801309666345 
1779	 0.149055193201531 
1780	 0.149294266573964 
1781	 0.149527651439406 
1782	 0.149774554834371 
1783	 0.150003327029547 
1784	 0.150224476294557 
1785	 0.150417651500873 
1786	 0.15060777438781 
1787	 0.150793671734246 
1788	 0.150952812050327 
1789	 0.151085872157173 
1790	 0.15124541641974 
1791	 0.151388700976078 
1792	 0.151531909245615 
1793	 0.151695855433977 
1794	 0.151849753325572 
1795	 0.152008299130518 
1796	 0.152171920232988 
1797	 0.152321890975651 
1798	 0.152453494270743 
1799	 0.152589572480953 
1800	 0.152753545646446 
1801	 0.152608602363154 
1802	 0.152766021296293 
1803	 0.15293275171623 
1804	 0.153100350445069 
1805	 0.15329636618058 
1806	 0.153471039606823 
1807	 0.153640675259162 
1808	 0.153821894815466 
1809	 0.153999735989084 
1810	 0.154182928368269 
1811	 0.154389947041744 
1812	 0.154578297838322 
1813	 0.154752001773701 
1814	 0.154938901136686 
1815	 0.155124603806423 
1816	 0.15529352413897 
1817	 0.155465786851132 
1818	 0.155632807609861 
1819	 0.155809115935317 
1820	 0.155985886301492 
1821	 0.156163302637027 
1822	 0.156344463035786 
1823	 0.156532996911754 
1824	 0.156715975282017 
1825	 0.156899010082842 
1826	 0.157088001140357 
1827	 0.157285587533295 
1828	 0.157478958821031 
1829	 0.157671245439289 
1830	 0.157866754918503 
1831	 0.158068348912618 
1832	 0.158267233510096 
1833	 0.158450176264935 
1834	 0.158636065779805 
1835	 0.158815665397286 
1836	 0.158982808570809 
1837	 0.15916241421738 
1838	 0.159346941589108 
1839	 0.159529039598008 
1840	 0.159711098318254 
1841	 0.159903598721244 
1842	 0.160099857640399 
1843	 0.160297323134672 
1844	 0.160507672726554 
1845	 0.160696813458112 
1846	 0.160888396363593 
1847	 0.161087948952115 
1848	 0.161274570561353 
1849	 0.161464910390106 
1850	 0.161638776085391 
1851	 0.161801073477442 
1852	 0.161954866397527 
1853	 0.162097065077324 
1854	 0.162229611367373 
1855	 0.162362554000478 
1856	 0.162479112127444 
1857	 0.162603567882672 
1858	 0.162734191037306 
1859	 0.162853089267142 
1860	 0.162973023569352 
1861	 0.163079370295495 
1862	 0.163175986632092 
1863	 0.163264604124165 
1864	 0.163352078508823 
1865	 0.163424244641581 
1866	 0.163478233144695 
1867	 0.16352057083306 
1868	 0.163547325595247 
1869	 0.163565878259862 
1870	 0.163577618508859 
1871	 0.16358323614361 
1872	 0.163583110204013 
1873	 0.163574728298927 
1874	 0.16356533373333 
1875	 0.163539183101749 
1876	 0.163483580159719 
1877	 0.163424642973195 
1878	 0.163327915515269 
1879	 0.163209455462481 
1880	 0.163092925099745 
1881	 0.162941378770355 
1882	 0.16275906867685 
1883	 0.162559287744994 
1884	 0.162337002228915 
1885	 0.162069788819312 
1886	 0.161766952755965 
1887	 0.161409995029378 
1888	 0.161015855056824 
1889	 0.160624661294821 
1890	 0.160194332780275 
1891	 0.159754806012006 
1892	 0.159306183695928 
1893	 0.15883558038883 
1894	 0.158326065320121 
1895	 0.157836058706376 
1896	 0.157343645346821 
1897	 0.156843074185917 
1898	 0.156378916835467 
1899	 0.155902823660626 
1900	 0.155455061698386 
1901	 0.155060859998226 
1902	 0.154658525133208 
1903	 0.15429862035138 
1904	 0.153968583950416 
1905	 0.153665775586625 
1906	 0.153377954685588 
1907	 0.153144448927151 
1908	 0.152933593610569 
1909	 0.152746079733676 
1910	 0.152595810052078 
1911	 0.152445392962042 
1912	 0.152313121204162 
1913	 0.152217710685247 
1914	 0.152132187861097 
1915	 0.152067187432284 
1916	 0.152027010077871 
1917	 0.152017469719368 
1918	 0.15200703491302 
1919	 0.152001949980171 
1920	 0.152016032291707 
1921	 0.152031795485608 
1922	 0.152053918798491 
1923	 0.152091337685022 
1924	 0.152133958676129 
1925	 0.152185828422759 
1926	 0.152238400336104 
1927	 0.152293099023202 
1928	 0.152352366535134 
1929	 0.152414674301042 
1930	 0.152478204289884 
1931	 0.152561134546175 
1932	 0.152656751613696 
1933	 0.152757143657306 
1934	 0.152876948755059 
1935	 0.152985061174332 
1936	 0.153114155853047 
1937	 0.153255883474526 
1938	 0.153405741565953 
1939	 0.153562797765008 
1940	 0.153740881724625 
1941	 0.153915252976735 
1942	 0.154076408806305 
1943	 0.15426629153214 
1944	 0.154452613950579 
1945	 0.154630549400517 
1946	 0.154841171356689 
1947	 0.155054632037432 
1948	 0.155290706634296 
1949	 0.155557861458465 
1950	 0.155802085206982 
1951	 0.156039425606922 
1952	 0.15629314328725 
1953	 0.156545507699638 
1954	 0.156791617138145 
1955	 0.157076147310183 
1956	 0.157352053163217 
1957	 0.157642965993961 
1958	 0.157942057540027 
1959	 0.158210764259919 
1960	 0.158482375692046 
1961	 0.158744674263748 
1962	 0.15898243575386 
1963	 0.159233170422858 
1964	 0.159495141244045 
1965	 0.159738397392261 
1966	 0.159981245438167 
1967	 0.160203434032736 
1968	 0.160404854299834 
1969	 0.160617537100008 
1970	 0.160815857494827 
1971	 0.161019245785359 
1972	 0.161247883799542 
1973	 0.161464146968405 
1974	 0.161691200766841 
1975	 0.161946837713819 
1976	 0.162171353011869 
1977	 0.162381735411598 
1978	 0.16259461285845 
1979	 0.162791625683995 
1980	 0.162987837812193 
1981	 0.163221224535024 
1982	 0.163456130060076 
1983	 0.163709090167676 
1984	 0.163965178510605 
1985	 0.164191121334839 
1986	 0.1644276649431 
1987	 0.16465963136015 
1988	 0.164875569410736 
1989	 0.165113846350363 
1990	 0.165357692756268 
1991	 0.165611661143741 
1992	 0.165888132564351 
1993	 0.166159108482192 
1994	 0.166408190872743 
1995	 0.166672397071176 
1996	 0.166929928406872 
1997	 0.167196930020922 
1998	 0.167463331872512 
1999	 0.167745650471647 
2000	 0.168005867330882 
2001	 0.168264464855937 
2002	 0.168501609982316 
2003	 0.168725277021015 
2004	 0.168942788690239 
2005	 0.169130162071323 
2006	 0.169333308672119 
2007	 0.169544556190957 
2008	 0.169745827314439 
2009	 0.169946716037017 
2010	 0.170150201505127 
2011	 0.170323893967519 
2012	 0.170494585389295 
2013	 0.170652689501698 
2014	 0.170788865941403 
2015	 0.170933174755222 
2016	 0.171079311632563 
2017	 0.171211817485161 
2018	 0.171344380132397 
2019	 0.171463141039269 
2020	 0.171576607935651 
2021	 0.171660391253541 
2022	 0.171725103535045 
2023	 0.171812802670146 
2024	 0.171897879459832 
2025	 0.171969268635331 
2026	 0.172022799409045 
2027	 0.172065047133987 
2028	 0.172105927600525 
2029	 0.172120610645038 
2030	 0.172150274995371 
2031	 0.172192953582843 
2032	 0.172233635912646 
2033	 0.172260187324687 
2034	 0.17230099635314 
2035	 0.172356598617756 
2036	 0.172412144090688 
2037	 0.172455881384867 
2038	 0.172506530136791 
2039	 0.172556361179461 
2040	 0.172599849273961 
2041	 0.172648299855737 
2042	 0.172704133461928 
2043	 0.172760332958217 
2044	 0.172817724023328 
2045	 0.172870518683557 
2046	 0.172925682894506 
2047	 0.172974667225059 
2048	 0.173012386505112 
2049	 0.173060473735605 
2050	 0.173111057432884 
2051	 0.173161014760054 
2052	 0.173226711881427 
2053	 0.173297019624749 
2054	 0.173362872105034 
2055	 0.173437463387912 
2056	 0.173500528915689 
2057	 0.173556298835227 
2058	 0.173610884607623 
2059	 0.173654889176171 
2060	 0.173709631671076 
2061	 0.173767076334912 
2062	 0.173825362063221 
2063	 0.173892423285789 
2064	 0.173955804154571 
2065	 0.174018128352176 
2066	 0.174078887273714 
2067	 0.174137387990275 
2068	 0.174191014337439 
2069	 0.174240842835515 
2070	 0.17427896327519 
2071	 0.17433169124666 
2072	 0.174385031334937 
2073	 0.174445374082751 
2074	 0.174523518923488 
2075	 0.17458665789363 
2076	 0.174643924146352 
2077	 0.174702126298012 
2078	 0.174750414029383 
2079	 0.174808900658447 
2080	 0.174876793001435 
2081	 0.17494033733799 
2082	 0.175010859363906 
2083	 0.175074800476292 
2084	 0.175124639393932 
2085	 0.175165675717688 
2086	 0.175215817636069 
2087	 0.175259047271061 
2088	 0.175312476293751 
2089	 0.175381291837053 
2090	 0.175437178414546 
2091	 0.175495039297422 
2092	 0.175539654590933 
2093	 0.175566046259355 
2094	 0.175606492971636 
2095	 0.175655109629628 
2096	 0.175689173554747 
2097	 0.175719126633357 
2098	 0.175753017674391 
2099	 0.175784120857192 
2100	 0.175790207133667 
2101	 0.175802031090507 
2102	 0.17581750661842 
2103	 0.175826299490955 
2104	 0.175831736454285 
2105	 0.175821924635676 
2106	 0.175806048078011 
2107	 0.175784806439173 
2108	 0.175739671390278 
2109	 0.175706770882323 
2110	 0.175691948018099 
2111	 0.175653228315819 
2112	 0.17560081049766 
2113	 0.175546326555011 
2114	 0.175476042597121 
2115	 0.175408397707463 
2116	 0.175344725005584 
2117	 0.175270523809768 
2118	 0.175196996820799 
2119	 0.175118090718643 
2120	 0.175040326173442 
2121	 0.17495228409737 
2122	 0.174889538735605 
2123	 0.174825284252862 
2124	 0.174789215352799 
2125	 0.174783331872307 
2126	 0.174775160011256 
2127	 0.174784772071519 
2128	 0.174791308005455 
2129	 0.174800675102199 
2130	 0.174814344550866 
2131	 0.174822914952729 
2132	 0.174851398153679 
2133	 0.174904233089294 
2134	 0.174940990620314 
2135	 0.174987198540192 
2136	 0.175047473431308 
2137	 0.175093098530692 
2138	 0.175125150225187 
2139	 0.175170818980616 
2140	 0.175216284796666 
2141	 0.175272959332212 
2142	 0.17533316222859 
2143	 0.175409177677143 
2144	 0.175502815032662 
2145	 0.175589212896605 
2146	 0.175677066493585 
2147	 0.175779196397561 
2148	 0.175881624987524 
2149	 0.17599686972777 
2150	 0.17613430131274 
2151	 0.176267182452068 
2152	 0.176405702498087 
2153	 0.176544945930856 
2154	 0.176676718348713 
2155	 0.17681790749185 
2156	 0.176933250790686 
2157	 0.177042138319617 
2158	 0.177124893102181 
2159	 0.177177833213184 
2160	 0.177241992423303 
2161	 0.177292096151129 
2162	 0.177345337365662 
2163	 0.177412279467944 
2164	 0.177452429402136 
2165	 0.177466459298495 
2166	 0.177494630426876 
2167	 0.177521295581583 
2168	 0.17753912461493 
2169	 0.177555531712379 
2170	 0.177572656314956 
2171	 0.177573540060422 
2172	 0.177587240244195 
2173	 0.177618785169395 
2174	 0.177637419080653 
2175	 0.177652712119803 
2176	 0.177686657429795 
2177	 0.177714370207817 
2178	 0.177748085441569 
2179	 0.177766507839505 
2180	 0.177773130843079 
2181	 0.177794172607374 
2182	 0.177812818205668 
2183	 0.177835676307996 
2184	 0.17788996088513 
2185	 0.177900032166035 
2186	 0.177872129707691 
2187	 0.177867546276353 
2188	 0.177854783008126 
2189	 0.177844405936162 
2190	 0.177857294469413 
2191	 0.177847043622803 
2192	 0.177814047729556 
2193	 0.177787086140297 
2194	 0.177757879575131 
2195	 0.177725280984889 
2196	 0.177691332213643 
2197	 0.177656070571244 
2198	 0.177616574282731 
2199	 0.177556447860124 
2200	 0.177503466384679 
2201	 0.177454858754171 
2202	 0.177378976476446 
2203	 0.177284567772893 
2204	 0.177204718064429 
2205	 0.177106489291047 
2206	 0.177029467031513 
2207	 0.176977382473925 
2208	 0.176906935378182 
2209	 0.176832128860303 
2210	 0.176757863775628 
2211	 0.176681700171632 
2212	 0.176600534111746 
2213	 0.176517557662501 
2214	 0.176430201016088 
2215	 0.176342682325623 
2216	 0.176244480446018 
2217	 0.176161124320239 
2218	 0.176038422172092 
2219	 0.175868748289094 
2220	 0.175716457384465 
2221	 0.175562542135731 
2222	 0.175375641836827 
2223	 0.175221640260972 
2224	 0.175063351496556 
2225	 0.174874048192471 
2226	 0.174668154377966 
2227	 0.174417617883412 
2228	 0.174129956557036 
2229	 0.17383628211677 
2230	 0.173512181068855 
2231	 0.17316788391698 
2232	 0.172823807072585 
2233	 0.172416105467708 
2234	 0.171980083289004 
2235	 0.17147539132943 
2236	 0.170911578510706 
2237	 0.170319673803982 
2238	 0.169648208860119 
2239	 0.168980225575656 
2240	 0.168307322361023 
2241	 0.167574950256417 
2242	 0.166845949378702 
2243	 0.166015845673303 
2244	 0.165076493515666 
2245	 0.164144768608834 
2246	 0.163115661284282 
2247	 0.162123764994049 
2248	 0.16116074603806 
2249	 0.16016248256539 
2250	 0.159157495263381 
2251	 0.158146481649583 
2252	 0.157027799215183 
2253	 0.155949714271812 
2254	 0.15484917251354 
2255	 0.153718143612275 
2256	 0.152692334122623 
2257	 0.151663232449112 
2258	 0.1506598442655 
2259	 0.149696318604929 
2260	 0.148724216930218 
2261	 0.147749628626161 
2262	 0.146821402917759 
2263	 0.145899819498362 
2264	 0.145027117403428 
2265	 0.144216181713156 
2266	 0.143381691515317 
2267	 0.142587050426102 
2268	 0.141754599391682 
2269	 0.140895760086766 
2270	 0.140063378832558 
2271	 0.139187859074192 
2272	 0.1383975988119 
2273	 0.137694897776369 
2274	 0.136932803645214 
2275	 0.136225445304413 
2276	 0.135445150520088 
2277	 0.134589542392172 
2278	 0.133752959824925 
2279	 0.132877149856137 
2280	 0.132018222952605 
2281	 0.13118013470236 
2282	 0.130308349731553 
2283	 0.129414778186478 
2284	 0.128562924019447 
2285	 0.127612428220575 
2286	 0.126658051129862 
2287	 0.125632961392709 
2288	 0.124565690910797 
2289	 0.123563572925331 
2290	 0.122499866834084 
2291	 0.121505630936549 
2292	 0.120535639868003 
2293	 0.11950603064879 
2294	 0.118557939174794 
2295	 0.117620717956961 
2296	 0.116742110574376 
2297	 0.116009502311206 
2298	 0.11537684088103 
2299	 0.114858505738456 
2300	 0.114466358763425 
2301	 0.114186380675493 
2302	 0.114008428919861 
2303	 0.113986462919317 
2304	 0.114123776593847 
2305	 0.11434950810052 
2306	 0.114718080411971 
2307	 0.11517299897457 
2308	 0.115728086990361 
2309	 0.116407308171103 
2310	 0.117259374809415 
2311	 0.118099992053195 
2312	 0.119100124855965 
2313	 0.119992278379848 
2314	 0.120870544221654 
2315	 0.121748680103405 
2316	 0.122627974451989 
2317	 0.123416556479819 
2318	 0.124212205977715 
2319	 0.124875948758316 
2320	 0.125436062790699 
2321	 0.125915847481987 
2322	 0.126304055007406 
2323	 0.126609233946705 
2324	 0.126821594431709 
2325	 0.12693837246263 
2326	 0.126922864052572 
2327	 0.126883229850249 
2328	 0.126754207642429 
2329	 0.126583000950906 
2330	 0.126391475983182 
2331	 0.12610741153061 
2332	 0.125742367174853 
2333	 0.125288376554775 
2334	 0.124688037437633 
2335	 0.124113819219925 
2336	 0.123455097567988 
2337	 0.122739479647727 
2338	 0.122152490159269 
2339	 0.121461654637153 
2340	 0.120788891361018 
2341	 0.120227573569597 
2342	 0.119627024361049 
2343	 0.119151432501436 
2344	 0.118853840957957 
2345	 0.118685019157559 
2346	 0.118638357961978 
2347	 0.11875606184213 
2348	 0.118993069556503 
2349	 0.119314739093807 
2350	 0.119801754592203 
2351	 0.120441885826351 
2352	 0.121133045426388 
2353	 0.12188081017143 
2354	 0.122603380759143 
2355	 0.123240783301389 
2356	 0.123809087739888 
2357	 0.124298581478514 
2358	 0.1247081038251 
2359	 0.124992400905664 
2360	 0.125219209494576 
2361	 0.125364204643059 
2362	 0.125469575886999 
2363	 0.125586493950324 
2364	 0.125645215172025 
2365	 0.125662335839228 
2366	 0.125623290619655 
2367	 0.125583402372431 
2368	 0.125587306930485 
2369	 0.125600747505947 
2370	 0.125677344635031 
2371	 0.12579389636365 
2372	 0.125866018201746 
2373	 0.125911296078465 
2374	 0.125947508703748 
2375	 0.125952959228142 
2376	 0.125976598315154 
2377	 0.126049001788857 
2378	 0.126105882466458 
2379	 0.126117023045954 
2380	 0.126099002803232 
2381	 0.126121651682235 
2382	 0.126208160838785 
2383	 0.126352634951775 
2384	 0.126485570857485 
2385	 0.126702697829169 
2386	 0.12682975626284 
2387	 0.126925196870938 
2388	 0.126992822375387 
2389	 0.126974896166973 
2390	 0.127054005109803 
2391	 0.127169089538786 
2392	 0.127232774898213 
2393	 0.12732691937749 
2394	 0.127431375157501 
2395	 0.127494989465446 
2396	 0.127551656289824 
2397	 0.127669062739495 
2398	 0.127731312882061 
2399	 0.127692755976993 
2400	 0.12773348117069 
2401	 0.127804335595823 
2402	 0.127887870504262 
2403	 0.127941658159397 
2404	 0.127937570440242 
2405	 0.128037300479819 
2406	 0.128101716193946 
2407	 0.128159247866252 
2408	 0.128206632663084 
2409	 0.128181422087034 
2410	 0.128183473809144 
2411	 0.128170382347349 
2412	 0.128081562746891 
2413	 0.128023164824366 
2414	 0.128037087672002 
2415	 0.128020075900308 
2416	 0.128052937292718 
2417	 0.128160548546771 
2418	 0.128188941100136 
2419	 0.128165098448391 
2420	 0.128202133096976 
2421	 0.128296395564628 
2422	 0.128293711495554 
2423	 0.128241931820408 
2424	 0.128218568376262 
2425	 0.128149485590281 
2426	 0.128219095414385 
2427	 0.128384368412314 
2428	 0.128466315301975 
2429	 0.128543443692863 
2430	 0.128513654348387 
2431	 0.128406683205983 
2432	 0.128367786674936 
2433	 0.128277120155233 
2434	 0.128199195610711 
2435	 0.1281610156646 
2436	 0.128123692502571 
2437	 0.128181499219594 
2438	 0.12818005684913 
2439	 0.128122299408298 
2440	 0.128030937376825 
2441	 0.127976598912928 
2442	 0.127972573796716 
2443	 0.127873253950508 
2444	 0.127815478294356 
2445	 0.127572538742206 
2446	 0.127233532002543 
2447	 0.127099346658509 
2448	 0.126930880465152 
2449	 0.12678304061791 
2450	 0.126733900120813 
2451	 0.126653523706953 
2452	 0.12656238535964 
2453	 0.12644228106509 
2454	 0.12628876878903 
2455	 0.126108352748406 
2456	 0.125846029839884 
2457	 0.12567420136466 
2458	 0.125645752755261 
2459	 0.12560233591485 
2460	 0.125553009773373 
2461	 0.125527535373421 
2462	 0.125433086938135 
2463	 0.125224034766962 
2464	 0.125108781321774 
2465	 0.12501166979432 
2466	 0.124845104899445 
2467	 0.124800877085218 
2468	 0.12474254417738 
2469	 0.124695313233488 
2470	 0.124687826700366 
2471	 0.124619692728626 
2472	 0.124666603140791 
2473	 0.124813343248014 
2474	 0.124929979279472 
2475	 0.12494775933297 
2476	 0.124876278757513 
2477	 0.124812926119453 
2478	 0.124711457382398 
2479	 0.124699351547774 
2480	 0.12486934433767 
2481	 0.124959412701766 
2482	 0.12524235441346 
2483	 0.125335575406584 
2484	 0.125315754428512 
2485	 0.125381156074204 
2486	 0.125243165516477 
2487	 0.125181469978483 
2488	 0.125503243273717 
2489	 0.125687756223282 
2490	 0.125848113157919 
2491	 0.12612580012029 
2492	 0.126125323411668 
2493	 0.126102173194241 
2494	 0.126220048427869 
2495	 0.126466896046325 
2496	 0.126682480283476 
2497	 0.126961565441833 
2498	 0.127367303264943 
2499	 0.12768170853549 
2500	 0.127925122487636 
