Wavelength	spectrum00021.asd
350	 4.13454194025367E-02 
351	 3.91371714761128E-02 
352	 3.69325032613314E-02 
353	 3.74241244987717E-02 
354	 3.67059435241916E-02 
355	 3.72512159823021E-02 
356	 3.80498141997945E-02 
357	 0.037535619651344 
358	 3.41671587845976E-02 
359	 3.38849019281244E-02 
360	 0.035970622276427 
361	 3.64288140859668E-02 
362	 3.60246321578747E-02 
363	 3.43256984975426E-02 
364	 3.24754623756642E-02 
365	 3.36914339572648E-02 
366	 0.034988912746318 
367	 3.49302660343031E-02 
368	 3.36034005021589E-02 
369	 3.45221841369955E-02 
370	 3.53804175563738E-02 
371	 3.51054646355726E-02 
372	 0.033618062616561 
373	 3.20419839744903E-02 
374	 3.27229627113746E-02 
375	 3.51792347757091E-02 
376	 0.034921972034693 
377	 3.46462356787022E-02 
378	 0.034274927730386 
379	 3.33852427445669E-02 
380	 3.25272512273563E-02 
381	 3.34314037265741E-02 
382	 3.47633188902201E-02 
383	 3.38391465991264E-02 
384	 3.41486440581178E-02 
385	 3.44494025972939E-02 
386	 3.38416641924744E-02 
387	 3.26852937776095E-02 
388	 3.32757912157402E-02 
389	 3.43987224334473E-02 
390	 3.43185438189963E-02 
391	 0.033202320986859 
392	 3.28386779619866E-02 
393	 3.34142085176093E-02 
394	 3.39747897205008E-02 
395	 3.41210499617863E-02 
396	 3.40284354215775E-02 
397	 3.39123397329453E-02 
398	 0.033910850154797 
399	 3.34736528660308E-02 
400	 3.32846895708993E-02 
401	 3.38022389582847E-02 
402	 3.29217438806756E-02 
403	 3.29587628058639E-02 
404	 3.38666973876282E-02 
405	 3.38546990167497E-02 
406	 3.40198099430781E-02 
407	 3.40129862201452E-02 
408	 3.36487166872658E-02 
409	 3.34050880874988E-02 
410	 3.32616965876325E-02 
411	 3.34064833557286E-02 
412	 0.033908008576336 
413	 3.41243263609429E-02 
414	 3.37278711482144E-02 
415	 3.32288145990383E-02 
416	 0.033746016186308 
417	 3.35639336895509E-02 
418	 3.34240783736807E-02 
419	 3.38662612637834E-02 
420	 3.39586764589636E-02 
421	 3.38778293365725E-02 
422	 3.38813892472395E-02 
423	 3.41508871737806E-02 
424	 3.40879301839301E-02 
425	 3.38441663879891E-02 
426	 3.37326474001442E-02 
427	 3.41631882111467E-02 
428	 3.41307579032626E-02 
429	 3.40316884352055E-02 
430	 3.42725337578068E-02 
431	 3.42572014578944E-02 
432	 3.44572882163602E-02 
433	 3.47044944318687E-02 
434	 3.45741859877214E-02 
435	 3.48577023166001E-02 
436	 3.51692297074763E-02 
437	 3.52048714357195E-02 
438	 3.49632229500966E-02 
439	 3.51767668150928E-02 
440	 3.55297994697292E-02 
441	 3.55722047112034E-02 
442	 3.57423835371169E-02 
443	 3.58557754857595E-02 
444	 3.58840618448537E-02 
445	 3.59444913736055E-02 
446	 3.61943431169278E-02 
447	 3.63651111298312E-02 
448	 3.63386238013188E-02 
449	 3.64656852193425E-02 
450	 3.67251456750034E-02 
451	 3.69436862343543E-02 
452	 3.69538073386624E-02 
453	 3.70591351607681E-02 
454	 3.73075631193028E-02 
455	 3.75834908616688E-02 
456	 3.76245543326226E-02 
457	 3.77214964559742E-02 
458	 3.77888654197455E-02 
459	 3.78126211587453E-02 
460	 0.038289599211582 
461	 3.85230768381712E-02 
462	 3.84919477853655E-02 
463	 3.85668730288833E-02 
464	 3.88734147426095E-02 
465	 3.90665683681571E-02 
466	 3.90359296246387E-02 
467	 3.91063883386242E-02 
468	 3.93808641149787E-02 
469	 3.96603520577775E-02 
470	 3.97666942753177E-02 
471	 4.00561605554949E-02 
472	 4.02424125909802E-02 
473	 4.03440651048464E-02 
474	 4.06084057291669E-02 
475	 4.06455778818019E-02 
476	 4.07194452153061E-02 
477	 4.09840597487393E-02 
478	 4.11060025262802E-02 
479	 4.13456803935029E-02 
480	 4.16563691340239E-02 
481	 4.18811711323739E-02 
482	 4.19654384459045E-02 
483	 4.21583857152076E-02 
484	 4.24891973410246E-02 
485	 4.27151010086581E-02 
486	 4.30191102130068E-02 
487	 4.32534179170424E-02 
488	 4.33439111541611E-02 
489	 4.36744094089026E-02 
490	 4.39798819282089E-02 
491	 0.044224755075069 
492	 4.45035699768816E-02 
493	 4.47268005827332E-02 
494	 4.50273055670861E-02 
495	 4.54377688501981E-02 
496	 4.57977450653764E-02 
497	 4.59652852045166E-02 
498	 0.046113725596979 
499	 4.64411219503695E-02 
500	 4.67498547164699E-02 
501	 4.70237158002452E-02 
502	 4.72928061193681E-02 
503	 0.047617532226351 
504	 4.79530372922644E-02 
505	 4.82511275579369E-02 
506	 4.85295172955833E-02 
507	 4.89790499574025E-02 
508	 4.93495748271233E-02 
509	 4.96709862624094E-02 
510	 5.00727220670463E-02 
511	 5.04263376754036E-02 
512	 5.07503337782143E-02 
513	 5.10970204571092E-02 
514	 5.15485440111622E-02 
515	 5.18574974505089E-02 
516	 5.21481521581345E-02 
517	 5.25551781115809E-02 
518	 5.28863643446701E-02 
519	 5.32179345611306E-02 
520	 5.36114982106581E-02 
521	 5.40961520496357E-02 
522	 0.054492402934439 
523	 5.48202578656615E-02 
524	 5.51388626735637E-02 
525	 5.55235197712206E-02 
526	 5.59124666822563E-02 
527	 5.62925008316649E-02 
528	 5.66706839181722E-02 
529	 5.70744548382918E-02 
530	 5.74294721521531E-02 
531	 5.77552381059133E-02 
532	 5.81704186965148E-02 
533	 5.84948472449607E-02 
534	 5.88318201490027E-02 
535	 5.92564344836933E-02 
536	 5.95809480683023E-02 
537	 5.99044734671198E-02 
538	 6.02449432765809E-02 
539	 6.05706348130985E-02 
540	 6.08288183190069E-02 
541	 6.11091516643671E-02 
542	 6.14332460048295E-02 
543	 6.16869390873662E-02 
544	 0.061936731034868 
545	 6.21584316365933E-02 
546	 6.23290947604803E-02 
547	 6.25559930757161E-02 
548	 6.27455632419919E-02 
549	 6.28827687665737E-02 
550	 0.063027534119774 
551	 6.31462287900735E-02 
552	 0.063249390637263 
553	 6.33593988513188E-02 
554	 6.35164780985013E-02 
555	 6.36283571775798E-02 
556	 6.37095847750497E-02 
557	 6.38158401755347E-02 
558	 6.38838711675423E-02 
559	 6.39550572371055E-02 
560	 6.40437065950379E-02 
561	 6.41151776628905E-02 
562	 6.41275234508605E-02 
563	 6.41221531244173E-02 
564	 6.41351439512805E-02 
565	 6.40850399763308E-02 
566	 6.40079540844937E-02 
567	 6.39064892448863E-02 
568	 6.37590576873888E-02 
569	 6.35960743025066E-02 
570	 6.33843061107422E-02 
571	 6.31300661220885E-02 
572	 6.29429454201544E-02 
573	 6.27873855352292E-02 
574	 6.26205349690129E-02 
575	 6.24168655392938E-02 
576	 6.22937933416758E-02 
577	 6.21604295277461E-02 
578	 6.19819503620209E-02 
579	 6.18031475978933E-02 
580	 6.15669992093724E-02 
581	 6.13299438471786E-02 
582	 6.11466626215579E-02 
583	 0.060987986759868 
584	 6.08228894323826E-02 
585	 6.06343480491503E-02 
586	 6.04144950313783E-02 
587	 6.01410973931529E-02 
588	 5.98697054389978E-02 
589	 5.96248421101298E-02 
590	 5.93688446569448E-02 
591	 5.90662637082323E-02 
592	 5.87558622634759E-02 
593	 5.84816149282223E-02 
594	 5.81975286649194E-02 
595	 5.78955269880723E-02 
596	 5.75948415726485E-02 
597	 5.73333226590181E-02 
598	 5.70359104220144E-02 
599	 5.67574767989149E-02 
600	 5.65224581484425E-02 
601	 5.62234645544726E-02 
602	 5.59513543592371E-02 
603	 5.57006284374409E-02 
604	 5.54289074915693E-02 
605	 5.51415319657209E-02 
606	 5.48802513104719E-02 
607	 5.46522455707696E-02 
608	 5.44193874491794E-02 
609	 5.41080494862113E-02 
610	 0.053801732283888 
611	 5.35736980533649E-02 
612	 5.33288828885055E-02 
613	 5.30583562020596E-02 
614	 5.27755084141809E-02 
615	 5.25050225997175E-02 
616	 5.22163705611425E-02 
617	 5.19666343073673E-02 
618	 5.17664727683578E-02 
619	 5.15250554488373E-02 
620	 5.12965382339066E-02 
621	 5.10699161968182E-02 
622	 5.08205644482539E-02 
623	 5.05542467274686E-02 
624	 5.03348063688603E-02 
625	 5.01494805947435E-02 
626	 4.99155142686181E-02 
627	 0.04967286332517 
628	 4.94446777130432E-02 
629	 4.92403921428146E-02 
630	 4.90441067184333E-02 
631	 4.88521311311471E-02 
632	 4.86542361789868E-02 
633	 4.84442446345916E-02 
634	 4.82553498428406E-02 
635	 4.80731875121493E-02 
636	 0.047890273591605 
637	 4.77138664237329E-02 
638	 4.75430500874909E-02 
639	 4.73664292066338E-02 
640	 4.71769598453683E-02 
641	 4.69847165806976E-02 
642	 4.68281555232049E-02 
643	 0.046688701605004 
644	 4.65190644411905E-02 
645	 4.63718032057206E-02 
646	 4.62277118476795E-02 
647	 4.60749167508558E-02 
648	 4.59268151655902E-02 
649	 4.57994505172218E-02 
650	 4.56575312783869E-02 
651	 4.54781073938773E-02 
652	 4.53593296104826E-02 
653	 4.52498436287318E-02 
654	 4.51234172444823E-02 
655	 4.49826230570934E-02 
656	 4.48810555794165E-02 
657	 4.47864938443079E-02 
658	 4.46752208999417E-02 
659	 4.45742071968525E-02 
660	 4.44467864821051E-02 
661	 4.43313989406611E-02 
662	 4.42705366185114E-02 
663	 4.41698681757972E-02 
664	 4.40500744216046E-02 
665	 4.39407496423016E-02 
666	 4.38701203010686E-02 
667	 4.37902124679257E-02 
668	 4.37044589586371E-02 
669	 4.36218208089225E-02 
670	 4.35362920573184E-02 
671	 4.34534393484519E-02 
672	 4.33672078216179E-02 
673	 4.32731630304198E-02 
674	 4.32149272122824E-02 
675	 0.043166402003787 
676	 4.31059710850615E-02 
677	 4.30258963794538E-02 
678	 0.042963701427967 
679	 0.042921497415227 
680	 4.28835395234156E-02 
681	 4.28064853377529E-02 
682	 4.27560260427784E-02 
683	 4.27199327459763E-02 
684	 4.26486792412461E-02 
685	 4.25698065827748E-02 
686	 0.042509484392954 
687	 4.24746744825402E-02 
688	 4.24465994349649E-02 
689	 4.23969060639994E-02 
690	 4.23347304190802E-02 
691	 4.22834598598912E-02 
692	 4.22770728431077E-02 
693	 4.22502624910919E-02 
694	 4.22174427850498E-02 
695	 4.22303219141971E-02 
696	 4.21718254282423E-02 
697	 4.21115623218178E-02 
698	 4.20895727317393E-02 
699	 4.20637128886205E-02 
700	 4.20518132544392E-02 
701	 4.20410429526318E-02 
702	 4.20201106832214E-02 
703	 4.20140187719661E-02 
704	 4.20204039291853E-02 
705	 4.20129985411749E-02 
706	 4.19611112159423E-02 
707	 4.19617865076165E-02 
708	 4.19649752614912E-02 
709	 4.19403955441593E-02 
710	 4.19228726168482E-02 
711	 0.041928684552437 
712	 4.19337961126188E-02 
713	 4.19207104755709E-02 
714	 4.19592883384817E-02 
715	 4.19556109163965E-02 
716	 4.19125306569009E-02 
717	 4.19027674692776E-02 
718	 4.19201940891873E-02 
719	 4.19385018653717E-02 
720	 4.19441778982513E-02 
721	 4.19505844496497E-02 
722	 4.19728823047293E-02 
723	 0.041991559559319 
724	 4.19878834197285E-02 
725	 4.19893950886003E-02 
726	 4.20112710965957E-02 
727	 0.042041855034622 
728	 4.20533077924982E-02 
729	 4.20600801662705E-02 
730	 4.20779125127657E-02 
731	 4.21078045936591E-02 
732	 4.21258434316139E-02 
733	 4.21718162804646E-02 
734	 4.22143538412765E-02 
735	 4.22220061558345E-02 
736	 4.22435198279479E-02 
737	 4.22647439852384E-02 
738	 4.22894438095111E-02 
739	 4.23340397065706E-02 
740	 4.24207116949968E-02 
741	 4.24721046255064E-02 
742	 4.24697139281059E-02 
743	 4.24986973693703E-02 
744	 4.25327713612283E-02 
745	 4.25869609022711E-02 
746	 4.26642997198115E-02 
747	 4.26986478268712E-02 
748	 4.27300568276997E-02 
749	 4.27675449966067E-02 
750	 0.042801636467509 
751	 4.28295556281302E-02 
752	 4.28794601460959E-02 
753	 4.29496879146509E-02 
754	 4.29976382399789E-02 
755	 4.30414677575832E-02 
756	 0.043088449523457 
757	 4.31403110013829E-02 
758	 4.31892509099585E-02 
759	 4.32365079478573E-02 
760	 4.32795147182214E-02 
761	 4.33183367692607E-02 
762	 4.33789450134108E-02 
763	 4.34436380489692E-02 
764	 4.35008081623792E-02 
765	 4.35507358545895E-02 
766	 4.36203760422196E-02 
767	 4.36854334296803E-02 
768	 4.37371432952928E-02 
769	 4.38291657736027E-02 
770	 4.39025709799403E-02 
771	 4.39573990846622E-02 
772	 4.40168935534541E-02 
773	 4.40998272103575E-02 
774	 4.41869943672592E-02 
775	 4.42612664572942E-02 
776	 4.43135383546743E-02 
777	 4.43772797575022E-02 
778	 4.44781630901311E-02 
779	 4.45974061339548E-02 
780	 4.46459282944921E-02 
781	 4.47131951577998E-02 
782	 4.47959716366535E-02 
783	 4.48737446427587E-02 
784	 4.49652477910041E-02 
785	 4.50458078937668E-02 
786	 4.51328769420717E-02 
787	 0.0452561496055 
788	 4.53474491832551E-02 
789	 4.54229020473372E-02 
790	 4.55056903409367E-02 
791	 4.56148939632951E-02 
792	 4.57134835937308E-02 
793	 4.58030039477304E-02 
794	 4.58955899943791E-02 
795	 4.60102846286212E-02 
796	 4.61064694766155E-02 
797	 4.61946418018779E-02 
798	 4.62981028253744E-02 
799	 4.63985156178817E-02 
800	 4.65071961264285E-02 
801	 4.66141117719946E-02 
802	 4.66972339243748E-02 
803	 4.67986578517674E-02 
804	 4.68828132758523E-02 
805	 0.046956747957908 
806	 4.71040481626743E-02 
807	 4.72228270056888E-02 
808	 4.73149872737827E-02 
809	 4.74082797047089E-02 
810	 4.75201962866399E-02 
811	 4.76552165871962E-02 
812	 4.77817490559836E-02 
813	 4.78696615855292E-02 
814	 4.79939859591667E-02 
815	 4.81182519430415E-02 
816	 4.82369255347479E-02 
817	 4.83743027814668E-02 
818	 4.84991143553729E-02 
819	 4.86229140021615E-02 
820	 4.87529492273567E-02 
821	 0.048879005080426 
822	 4.89852224464489E-02 
823	 4.91111851351707E-02 
824	 4.92810414158886E-02 
825	 4.94297009070108E-02 
826	 4.95456658732859E-02 
827	 4.96437583159681E-02 
828	 0.049758875705853 
829	 4.99520097312433E-02 
830	 0.050107993970983 
831	 5.02194399936443E-02 
832	 5.03758604215437E-02 
833	 5.05288408040488E-02 
834	 5.06624323154567E-02 
835	 5.07878694449795E-02 
836	 5.09499590134716E-02 
837	 5.11082051287727E-02 
838	 5.12520377364742E-02 
839	 5.13858659278594E-02 
840	 5.15343503902121E-02 
841	 5.16740659731625E-02 
842	 5.18057474636997E-02 
843	 5.19433847428483E-02 
844	 5.21126715523409E-02 
845	 0.052268792423691 
846	 5.24125088855058E-02 
847	 5.25749364885082E-02 
848	 5.27165809895305E-02 
849	 5.28560003353423E-02 
850	 5.30023235737231E-02 
851	 5.31449032222303E-02 
852	 5.33117060561464E-02 
853	 5.35050633400393E-02 
854	 5.36959982740559E-02 
855	 5.38024164453853E-02 
856	 5.39106003046087E-02 
857	 5.40566443525879E-02 
858	 5.42403767374893E-02 
859	 0.054401178256286 
860	 5.45601218065335E-02 
861	 5.47165585738773E-02 
862	 0.054865006632291 
863	 5.50373902309472E-02 
864	 5.52332830556614E-02 
865	 5.54324353935117E-02 
866	 5.56022531153608E-02 
867	 5.57321404757111E-02 
868	 5.58914396424281E-02 
869	 5.60939286642871E-02 
870	 5.62649173144152E-02 
871	 0.056437468793921 
872	 5.66060959901457E-02 
873	 0.056765899962265 
874	 5.69245547849075E-02 
875	 5.71578207041021E-02 
876	 5.73884043780365E-02 
877	 5.75383149198629E-02 
878	 5.77084906006697E-02 
879	 5.78803853391113E-02 
880	 5.80619437009273E-02 
881	 5.82650613217314E-02 
882	 5.84599691883126E-02 
883	 5.86384509402117E-02 
884	 5.88224548447619E-02 
885	 5.90467664098073E-02 
886	 5.92616317756022E-02 
887	 5.94683726081337E-02 
888	 5.96772011064295E-02 
889	 5.98977907863873E-02 
890	 6.00822756153198E-02 
891	 6.02379194180356E-02 
892	 6.04004957459334E-02 
893	 6.06314662666797E-02 
894	 6.08457376083801E-02 
895	 6.10399013845218E-02 
896	 6.12283481832242E-02 
897	 6.14101551715455E-02 
898	 0.061611897026572 
899	 6.18023560242226E-02 
900	 6.19593274905191E-02 
901	 6.21737638661493E-02 
902	 6.23661846791185E-02 
903	 6.25623251328074E-02 
904	 6.28113256644992E-02 
905	 0.062981227490237 
906	 6.31786962998164E-02 
907	 6.34022531904277E-02 
908	 6.35735579523335E-02 
909	 6.37283052049559E-02 
910	 6.39263209049103E-02 
911	 0.064154674343525 
912	 6.43353262803421E-02 
913	 0.064543170595321 
914	 6.47513694342862E-02 
915	 6.49482834216984E-02 
916	 6.51615993513538E-02 
917	 6.53480754047543E-02 
918	 6.55337281363504E-02 
919	 6.57538147514795E-02 
920	 6.60329066759565E-02 
921	 6.62350255527133E-02 
922	 6.64220475998346E-02 
923	 6.66625270577873E-02 
924	 6.69034034213676E-02 
925	 6.70991264548499E-02 
926	 6.72824929324472E-02 
927	 6.75046995080153E-02 
928	 6.77833178815371E-02 
929	 6.79972567312963E-02 
930	 6.81938177961673E-02 
931	 6.84551573152618E-02 
932	 6.86737856067575E-02 
933	 6.88933648038138E-02 
934	 6.91207507138054E-02 
935	 6.93365964109442E-02 
936	 6.94957472280477E-02 
937	 6.97558933421984E-02 
938	 7.00613776943091E-02 
939	 7.02420438811977E-02 
940	 7.04716829817662E-02 
941	 7.07175937803697E-02 
942	 7.09554473529117E-02 
943	 7.11868172394966E-02 
944	 7.14376732634418E-02 
945	 7.16909168069946E-02 
946	 7.19294665795981E-02 
947	 7.21469669546533E-02 
948	 7.23870060329715E-02 
949	 7.26015092068695E-02 
950	 0.072806390521342 
951	 7.30974728433573E-02 
952	 7.32771497226165E-02 
953	 7.35107993701129E-02 
954	 7.38328162018071E-02 
955	 7.40061272358756E-02 
956	 7.42200954188497E-02 
957	 7.44707125684183E-02 
958	 0.074714736744068 
959	 7.49151852207834E-02 
960	 7.50992056500836E-02 
961	 7.53090681196044E-02 
962	 7.55604737233607E-02 
963	 0.075813230949155 
964	 7.59762242773357E-02 
965	 7.61361376654348E-02 
966	 7.63626704931232E-02 
967	 7.65736902200799E-02 
968	 7.67968468857329E-02 
969	 7.69928946423709E-02 
970	 7.71556666774414E-02 
971	 7.74014187006306E-02 
972	 7.76511232485556E-02 
973	 7.78503421607441E-02 
974	 7.80011994950047E-02 
975	 7.82382619314411E-02 
976	 7.83729293631497E-02 
977	 7.86057145250855E-02 
978	 7.90467723404299E-02 
979	 7.91595232401467E-02 
980	 7.92667520175948E-02 
981	 7.94644313854283E-02 
982	 7.97177102290966E-02 
983	 7.98232857926119E-02 
984	 8.00724425703488E-02 
985	 8.03986964034216E-02 
986	 8.06474831292831E-02 
987	 8.08303268748671E-02 
988	 8.10756451419478E-02 
989	 8.13415039657969E-02 
990	 8.15488972669603E-02 
991	 8.17328237954127E-02 
992	 8.18795673275563E-02 
993	 8.21189196668827E-02 
994	 8.25054673072848E-02 
995	 0.082697268788473 
996	 8.28094388035417E-02 
997	 8.29125853018419E-02 
998	 8.30932942617862E-02 
999	 0.083542225238039 
1000	 8.38560068914676E-02 
1001	 8.72111312566054E-02 
1002	 8.74496353598644E-02 
1003	 8.76501937185615E-02 
1004	 8.78764508415799E-02 
1005	 0.088112203931354 
1006	 8.83351354467509E-02 
1007	 8.85566664506724E-02 
1008	 8.87779282592044E-02 
1009	 8.89729684422103E-02 
1010	 8.92067891352638E-02 
1011	 8.94810887720613E-02 
1012	 8.97154598241786E-02 
1013	 8.99652209579639E-02 
1014	 9.01896634461197E-02 
1015	 9.03794607745423E-02 
1016	 9.05562374131552E-02 
1017	 0.090761754035316 
1018	 9.09422308599539E-02 
1019	 9.11661732929586E-02 
1020	 0.091412331060569 
1021	 9.16255547072073E-02 
1022	 0.091844190256413 
1023	 9.20490740316094E-02 
1024	 9.22232736759658E-02 
1025	 9.24085308641992E-02 
1026	 9.25952226004234E-02 
1027	 9.27780949327557E-02 
1028	 9.29495022683456E-02 
1029	 9.31480896872771E-02 
1030	 9.33150537951489E-02 
1031	 9.34896127113688E-02 
1032	 9.36809584402754E-02 
1033	 9.38318311284496E-02 
1034	 0.093982457290803 
1035	 9.41578674549353E-02 
1036	 9.43292459012375E-02 
1037	 9.44987282295793E-02 
1038	 0.094661518428402 
1039	 9.48335972871451E-02 
1040	 9.49945678003163E-02 
1041	 9.51226905698101E-02 
1042	 9.52787756115261E-02 
1043	 9.54385147808243E-02 
1044	 9.56267954367225E-02 
1045	 9.58313493620994E-02 
1046	 0.096046071899897 
1047	 9.62507896898578E-02 
1048	 9.64264718385023E-02 
1049	 9.65894992319153E-02 
1050	 9.67596603817314E-02 
1051	 9.69507312089132E-02 
1052	 0.097143298445706 
1053	 9.73363274143245E-02 
1054	 9.75391432983244E-02 
1055	 9.77442631086629E-02 
1056	 9.79333725411114E-02 
1057	 9.81507055877656E-02 
1058	 9.84005603774568E-02 
1059	 9.86129013520873E-02 
1060	 9.88333482723459E-02 
1061	 9.90512154413331E-02 
1062	 0.099218412319789 
1063	 0.099419077588425 
1064	 9.96123357328441E-02 
1065	 9.98055531566827E-02 
1066	 0.10006121820576 
1067	 0.100300454470834 
1068	 0.100534625358191 
1069	 0.100781989581031 
1070	 0.101009538651957 
1071	 0.101216440073256 
1072	 0.101424381817042 
1073	 0.10163458188963 
1074	 0.101835493120544 
1075	 0.102048476205092 
1076	 0.102259557761164 
1077	 0.102463683416328 
1078	 0.102683690693766 
1079	 0.102897746221248 
1080	 0.103117211424669 
1081	 0.103342532551835 
1082	 0.103534514955972 
1083	 0.103741052939036 
1084	 0.103961805273924 
1085	 0.104165547600549 
1086	 0.104360893287483 
1087	 0.104561046784353 
1088	 0.104766672181657 
1089	 0.104945253530195 
1090	 0.105105350114041 
1091	 0.105319475057846 
1092	 0.105504436717301 
1093	 0.105676855902115 
1094	 0.105901972242007 
1095	 0.106081575495269 
1096	 0.106251646634004 
1097	 0.106437841050025 
1098	 0.106611877762589 
1099	 0.106790200565876 
1100	 0.10696440842205 
1101	 0.107151668491624 
1102	 0.107335635293055 
1103	 0.107503528049236 
1104	 0.107656089112234 
1105	 0.10783805287862 
1106	 0.108019214007579 
1107	 0.10816219916032 
1108	 0.108324094936148 
1109	 0.108478596011124 
1110	 0.108609577334893 
1111	 0.108765000762291 
1112	 0.108935996216749 
1113	 0.109113203762336 
1114	 0.10926377817353 
1115	 0.109413492630431 
1116	 0.109579412385981 
1117	 0.109718171225026 
1118	 0.109861319572616 
1119	 0.110023202772986 
1120	 0.110162870391224 
1121	 0.110283247088774 
1122	 0.110403177251564 
1123	 0.110525348949548 
1124	 0.110662115479972 
1125	 0.11080428336272 
1126	 0.110946640229316 
1127	 0.111095272545287 
1128	 0.111224605508704 
1129	 0.11134713265654 
1130	 0.11148197296263 
1131	 0.111595614365097 
1132	 0.111700905856506 
1133	 0.111823449605559 
1134	 0.111937040204253 
1135	 0.112058235538177 
1136	 0.112207227456641 
1137	 0.112336567521857 
1138	 0.112453808280203 
1139	 0.112568027489393 
1140	 0.112681590476222 
1141	 0.112781573433277 
1142	 0.112878572293775 
1143	 0.112976550413454 
1144	 0.113082122607345 
1145	 0.113194410719722 
1146	 0.113295612869095 
1147	 0.113408937670464 
1148	 0.113538379634599 
1149	 0.113664688634756 
1150	 0.113785370450566 
1151	 0.113891421939362 
1152	 0.11400241498477 
1153	 0.114096450302773 
1154	 0.114201886795221 
1155	 0.114322298628583 
1156	 0.114438204638292 
1157	 0.114549734777073 
1158	 0.114659017817177 
1159	 0.114769034620184 
1160	 0.114878416153662 
1161	 0.114981030654609 
1162	 0.115085797117322 
1163	 0.115190959724417 
1164	 0.115299725782724 
1165	 0.115418987176804 
1166	 0.115533021925731 
1167	 0.115647476802188 
1168	 0.115757479124702 
1169	 0.115879681680854 
1170	 0.116011533525102 
1171	 0.116133603372661 
1172	 0.116271498975147 
1173	 0.116386370755036 
1174	 0.116468782183554 
1175	 0.116570052755454 
1176	 0.116672833013255 
1177	 0.11677711523776 
1178	 0.116881513913827 
1179	 0.117002182899406 
1180	 0.117128110156778 
1181	 0.117241534065392 
1182	 0.117353359383084 
1183	 0.117461739992085 
1184	 0.117564913219513 
1185	 0.117667538311763 
1186	 0.117786222298307 
1187	 0.117929964940166 
1188	 0.118049256160616 
1189	 0.118156711504361 
1190	 0.118281038284011 
1191	 0.11840317166547 
1192	 0.118526696182618 
1193	 0.118667981946804 
1194	 0.118802562585734 
1195	 0.11892291138604 
1196	 0.119053317093687 
1197	 0.119193802176002 
1198	 0.119331267351235 
1199	 0.11946720035715 
1200	 0.119604391652772 
1201	 0.119746569194649 
1202	 0.119884820365633 
1203	 0.120018494462483 
1204	 0.120158341261533 
1205	 0.12030095139251 
1206	 0.120441977665208 
1207	 0.120592355452105 
1208	 0.120743655798861 
1209	 0.120910317061439 
1210	 0.121090199946361 
1211	 0.121266160063665 
1212	 0.121456406178596 
1213	 0.121644775033658 
1214	 0.12182051523835 
1215	 0.12201627581756 
1216	 0.122223822721563 
1217	 0.122431688851257 
1218	 0.122660429073354 
1219	 0.122876679922089 
1220	 0.123061913636484 
1221	 0.12328038664384 
1222	 0.123485695335289 
1223	 0.123693523027758 
1224	 0.123905998156723 
1225	 0.124131763478562 
1226	 0.124347450411903 
1227	 0.124561805399444 
1228	 0.124769065947808 
1229	 0.124976326116021 
1230	 0.125178446776693 
1231	 0.125367232824707 
1232	 0.125564411229319 
1233	 0.125772107152892 
1234	 0.125964417627035 
1235	 0.126156414368616 
1236	 0.126334409742026 
1237	 0.126481175972808 
1238	 0.126650209938541 
1239	 0.126820269771701 
1240	 0.126996408724124 
1241	 0.127193543949967 
1242	 0.127394040144684 
1243	 0.127570985487053 
1244	 0.127735993599829 
1245	 0.127907741032109 
1246	 0.128070666742041 
1247	 0.12823131903184 
1248	 0.128399149133078 
1249	 0.128557316238462 
1250	 0.128703834049151 
1251	 0.128846480466795 
1252	 0.128983498271363 
1253	 0.129125095858956 
1254	 0.129265483358754 
1255	 0.129400564655408 
1256	 0.129543069727377 
1257	 0.129672856129275 
1258	 0.129774459848453 
1259	 0.129898710353484 
1260	 0.130039045715175 
1261	 0.130168060809016 
1262	 0.130307625637113 
1263	 0.130435860702167 
1264	 0.130560977454198 
1265	 0.130672713981726 
1266	 0.130789604742726 
1267	 0.130906141148808 
1268	 0.131026181949085 
1269	 0.131139120938412 
1270	 0.131264804712079 
1271	 0.131398340213665 
1272	 0.131536573132315 
1273	 0.131674170337881 
1274	 0.131828114937259 
1275	 0.132001664376018 
1276	 0.13216453633743 
1277	 0.132335711718754 
1278	 0.132501362345718 
1279	 0.132649511678934 
1280	 0.132815527913152 
1281	 0.132989479597111 
1282	 0.133167845926683 
1283	 0.133361200450961 
1284	 0.133547691364167 
1285	 0.133733285163027 
1286	 0.133912857369875 
1287	 0.134113433147309 
1288	 0.134324557668432 
1289	 0.134523806710777 
1290	 0.134735635386866 
1291	 0.134930655235872 
1292	 0.135098034838851 
1293	 0.135295556626397 
1294	 0.13551017745477 
1295	 0.13571058079718 
1296	 0.135919070020258 
1297	 0.136116999970794 
1298	 0.136299130867394 
1299	 0.136488242414478 
1300	 0.13668595838119 
1301	 0.136869710683611 
1302	 0.137037518562179 
1303	 0.13721859396265 
1304	 0.13740407828495 
1305	 0.137581354284612 
1306	 0.137762921867779 
1307	 0.13794205541526 
1308	 0.138115986169811 
1309	 0.138282958646439 
1310	 0.138442511246535 
1311	 0.1385993167474 
1312	 0.138759121622939 
1313	 0.138909738409201 
1314	 0.139062212998307 
1315	 0.139224793689364 
1316	 0.139373723328267 
1317	 0.139514183079312 
1318	 0.139648717776498 
1319	 0.139774681464834 
1320	 0.139905864597502 
1321	 0.140031916044865 
1322	 0.140157404414999 
1323	 0.140291518101502 
1324	 0.140413493425664 
1325	 0.140526688985493 
1326	 0.140636954909775 
1327	 0.14074096175426 
1328	 0.140844793991215 
1329	 0.140942833834974 
1330	 0.141042002428087 
1331	 0.141148807505981 
1332	 0.141242259730868 
1333	 0.141321327435601 
1334	 0.141409720692451 
1335	 0.141494965936343 
1336	 0.141572808784844 
1337	 0.141654002248483 
1338	 0.141743589264167 
1339	 0.141820120237343 
1340	 0.141886132472026 
1341	 0.141959156202395 
1342	 0.142030789010063 
1343	 0.142103700610768 
1344	 0.142185338651021 
1345	 0.142250354252346 
1346	 0.14230738245025 
1347	 0.142363710757479 
1348	 0.14241345162575 
1349	 0.142459181290947 
1350	 0.142499495954744 
1351	 0.142544265467643 
1352	 0.142589631323946 
1353	 0.142626244992297 
1354	 0.142662002649816 
1355	 0.142696730927027 
1356	 0.142720518447427 
1357	 0.14274817527709 
1358	 0.142780531410601 
1359	 0.142812408655324 
1360	 0.142843630751479 
1361	 0.142870280099537 
1362	 0.142910087680221 
1363	 0.142941758579697 
1364	 0.142988704219277 
1365	 0.143048004681277 
1366	 0.143091968067796 
1367	 0.143143254952345 
1368	 0.143175136766478 
1369	 0.143187427568109 
1370	 0.143210308766215 
1371	 0.143229070400903 
1372	 0.143250658483513 
1373	 0.143283554537443 
1374	 0.143294946995565 
1375	 0.143293075583994 
1376	 0.143296777372897 
1377	 0.143292443218005 
1378	 0.143287515295405 
1379	 0.14328877372347 
1380	 0.14328193470605 
1381	 0.143256990283253 
1382	 0.143247561725234 
1383	 0.143243067331857 
1384	 0.143241570193764 
1385	 0.143245785816408 
1386	 0.143254974543088 
1387	 0.143272582690874 
1388	 0.143285197958116 
1389	 0.143294336210156 
1390	 0.143313077303278 
1391	 0.143331407291866 
1392	 0.143351352653997 
1393	 0.143392649311966 
1394	 0.143451083268512 
1395	 0.143500785418647 
1396	 0.143558907142789 
1397	 0.143608589639994 
1398	 0.143658949542442 
1399	 0.143693984296841 
1400	 0.143732540544009 
1401	 0.143741929786692 
1402	 0.143734690962169 
1403	 0.14370791281214 
1404	 0.1436536977163 
1405	 0.143603134416659 
1406	 0.14353494485691 
1407	 0.143472507857794 
1408	 0.143414228687135 
1409	 0.143343699195174 
1410	 0.143258731552863 
1411	 0.143185041974793 
1412	 0.143099658157883 
1413	 0.143035779131379 
1414	 0.142989164766416 
1415	 0.142942856647329 
1416	 0.142899517520024 
1417	 0.142871118606874 
1418	 0.142849581243375 
1419	 0.142837925145192 
1420	 0.14284668844938 
1421	 0.14285352761603 
1422	 0.142872267259805 
1423	 0.142881144840762 
1424	 0.142885336033345 
1425	 0.142891431755751 
1426	 0.14289298064717 
1427	 0.142898344073322 
1428	 0.142925607527438 
1429	 0.142957879999687 
1430	 0.142979664178247 
1431	 0.143004994029656 
1432	 0.143023910385855 
1433	 0.143031264384522 
1434	 0.14304825127517 
1435	 0.143070119799726 
1436	 0.143089992674196 
1437	 0.143107240162835 
1438	 0.143130687151817 
1439	 0.143153204004863 
1440	 0.143186668183535 
1441	 0.143227551375568 
1442	 0.143272317505 
1443	 0.143319589179174 
1444	 0.143381986369707 
1445	 0.14344787741435 
1446	 0.143531131547726 
1447	 0.143622242362287 
1448	 0.143741458393157 
1449	 0.143880532091851 
1450	 0.144035804495456 
1451	 0.144218077745272 
1452	 0.144409835095467 
1453	 0.144619854817034 
1454	 0.144832312297594 
1455	 0.145059784901783 
1456	 0.145289601375116 
1457	 0.145531323323632 
1458	 0.145764997386898 
1459	 0.145997757532793 
1460	 0.146235728011455 
1461	 0.146469282450712 
1462	 0.146704205702998 
1463	 0.14694976723729 
1464	 0.14719006430905 
1465	 0.147415999182443 
1466	 0.147663619571631 
1467	 0.147896222743223 
1468	 0.148130214128605 
1469	 0.148375890944669 
1470	 0.148595007346829 
1471	 0.148828653350857 
1472	 0.149065494922146 
1473	 0.149300329102724 
1474	 0.149539146503325 
1475	 0.149767898808481 
1476	 0.14999732086226 
1477	 0.150211089778747 
1478	 0.15041299779632 
1479	 0.150609195961429 
1480	 0.150800363416979 
1481	 0.15097516666115 
1482	 0.151134830482946 
1483	 0.151297085392033 
1484	 0.1514445241091 
1485	 0.151599351949357 
1486	 0.151757040461829 
1487	 0.151914111412058 
1488	 0.152067060556657 
1489	 0.152226162490071 
1490	 0.15238953687396 
1491	 0.152553780401762 
1492	 0.152717282780645 
1493	 0.152889473573484 
1494	 0.153068779486281 
1495	 0.153245859282864 
1496	 0.153425097817867 
1497	 0.15360944996461 
1498	 0.153795305507146 
1499	 0.153984400554901 
1500	 0.154187184571595 
1501	 0.154377776034026 
1502	 0.154566125683929 
1503	 0.15474563500303 
1504	 0.154920707015742 
1505	 0.155084946904329 
1506	 0.155233990039654 
1507	 0.155387231972756 
1508	 0.155532765275825 
1509	 0.155680480207651 
1510	 0.155839455218957 
1511	 0.155982333118442 
1512	 0.156113943536155 
1513	 0.156244611162798 
1514	 0.156363501844399 
1515	 0.156484434250357 
1516	 0.15660849195098 
1517	 0.156727385036803 
1518	 0.156838247927151 
1519	 0.156953105482989 
1520	 0.157070267550182 
1521	 0.157182341679058 
1522	 0.157289816138986 
1523	 0.157410724735543 
1524	 0.157524018537551 
1525	 0.157635105344102 
1526	 0.157742827393382 
1527	 0.157853208642489 
1528	 0.157950361231872 
1529	 0.158034819197429 
1530	 0.158130568750347 
1531	 0.158224178409536 
1532	 0.158320901705701 
1533	 0.158422664815837 
1534	 0.158525239065509 
1535	 0.158628367277028 
1536	 0.158728328103505 
1537	 0.15883029887468 
1538	 0.15893318452372 
1539	 0.159029349687101 
1540	 0.159136194309015 
1541	 0.159247689973939 
1542	 0.159368431930136 
1543	 0.159499790982168 
1544	 0.159623234156949 
1545	 0.159751915285432 
1546	 0.159878201672043 
1547	 0.159993425077759 
1548	 0.160124992650632 
1549	 0.160267294722913 
1550	 0.160408283981093 
1551	 0.160561412281938 
1552	 0.160698252546612 
1553	 0.16082385131402 
1554	 0.160961768089732 
1555	 0.16110046457813 
1556	 0.161234204558331 
1557	 0.161374079106091 
1558	 0.16151050812413 
1559	 0.161636439630801 
1560	 0.161767864295778 
1561	 0.161905001059146 
1562	 0.162041395582755 
1563	 0.162173027426059 
1564	 0.162311309239199 
1565	 0.162459542845022 
1566	 0.162599459190262 
1567	 0.162741539594475 
1568	 0.162874191490856 
1569	 0.162994515809511 
1570	 0.163123792499677 
1571	 0.163256951134765 
1572	 0.163380215575963 
1573	 0.163501406800327 
1574	 0.163623154544766 
1575	 0.163730336836147 
1576	 0.163852277042799 
1577	 0.163987569088695 
1578	 0.164118146171517 
1579	 0.164254336574761 
1580	 0.164383391723795 
1581	 0.16450249333628 
1582	 0.164632590771347 
1583	 0.164775145305918 
1584	 0.164899656827192 
1585	 0.165017300459265 
1586	 0.165140863788526 
1587	 0.165254860513982 
1588	 0.165368879310605 
1589	 0.165484750037752 
1590	 0.165609471147209 
1591	 0.165738819903813 
1592	 0.165858526735557 
1593	 0.165979808233894 
1594	 0.16610697457061 
1595	 0.166234408733035 
1596	 0.166347806515008 
1597	 0.166460451183061 
1598	 0.166577075968041 
1599	 0.166676339212885 
1600	 0.166783960486038 
1601	 0.166899175040692 
1602	 0.167024538527879 
1603	 0.167160696213731 
1604	 0.167284567669273 
1605	 0.167418146030233 
1606	 0.167543010725677 
1607	 0.16765159355676 
1608	 0.167760470818778 
1609	 0.167875463890508 
1610	 0.167979194909211 
1611	 0.168069439899244 
1612	 0.168159649046873 
1613	 0.16823610813025 
1614	 0.168327284603243 
1615	 0.168432841139678 
1616	 0.168524107475913 
1617	 0.168611032768973 
1618	 0.168706899473915 
1619	 0.16879894681033 
1620	 0.168886703643535 
1621	 0.168988169763296 
1622	 0.169078173956227 
1623	 0.169161015346928 
1624	 0.169230003931757 
1625	 0.169280790249202 
1626	 0.169342641351411 
1627	 0.169395231018076 
1628	 0.169451708751207 
1629	 0.169517845909783 
1630	 0.16958544540044 
1631	 0.169645627064938 
1632	 0.16971713658693 
1633	 0.169799586809307 
1634	 0.169887443339762 
1635	 0.169987149053606 
1636	 0.170077084248681 
1637	 0.170176369195636 
1638	 0.170260248154372 
1639	 0.170329128231001 
1640	 0.170398227732652 
1641	 0.170457297299084 
1642	 0.170520722382221 
1643	 0.170591290877532 
1644	 0.170647335012736 
1645	 0.170688960173644 
1646	 0.170740681150305 
1647	 0.170795931373638 
1648	 0.170838820495366 
1649	 0.170891282342505 
1650	 0.170924446065897 
1651	 0.170931250084085 
1652	 0.170940649724412 
1653	 0.170937391020035 
1654	 0.170947724277305 
1655	 0.170976876525617 
1656	 0.170974169501275 
1657	 0.170969301047498 
1658	 0.170943277479241 
1659	 0.170884403801777 
1660	 0.170827076449652 
1661	 0.170769088126873 
1662	 0.170692516808598 
1663	 0.170600361992094 
1664	 0.170491558425258 
1665	 0.170369096353799 
1666	 0.17023121994453 
1667	 0.170084198561522 
1668	 0.169908296041725 
1669	 0.169710880361779 
1670	 0.169494080154536 
1671	 0.169247764710934 
1672	 0.168990505107163 
1673	 0.168729984986659 
1674	 0.168424340275925 
1675	 0.168081056215179 
1676	 0.167737562960734 
1677	 0.167362942931703 
1678	 0.166987475394986 
1679	 0.166614540897504 
1680	 0.166210879208756 
1681	 0.165791804844144 
1682	 0.165339474540778 
1683	 0.164855465825792 
1684	 0.164371825592512 
1685	 0.163872637956175 
1686	 0.163346711212389 
1687	 0.162795262663561 
1688	 0.162249798133597 
1689	 0.161682542772924 
1690	 0.161103470844325 
1691	 0.160534996314862 
1692	 0.1599537289468 
1693	 0.159347988673802 
1694	 0.158743695652849 
1695	 0.158140958348321 
1696	 0.157509799014884 
1697	 0.156852394873559 
1698	 0.156199421115955 
1699	 0.155536979763376 
1700	 0.154891051090737 
1701	 0.154235114087245 
1702	 0.153615422258432 
1703	 0.153004845458755 
1704	 0.152424663480542 
1705	 0.151867577227398 
1706	 0.151319519358336 
1707	 0.15084022114033 
1708	 0.1503814059423 
1709	 0.149963763582348 
1710	 0.149578822539786 
1711	 0.149193496776817 
1712	 0.148857489437341 
1713	 0.148520653395977 
1714	 0.14816929824684 
1715	 0.147877630141977 
1716	 0.147590775575925 
1717	 0.147326787598361 
1718	 0.147135641245826 
1719	 0.146937838116449 
1720	 0.146744822800131 
1721	 0.146594674718423 
1722	 0.14647161697048 
1723	 0.146393149366866 
1724	 0.146375651867099 
1725	 0.146414692785119 
1726	 0.146530713366084 
1727	 0.146732749906124 
1728	 0.146984533787879 
1729	 0.147310686941826 
1730	 0.147687962482714 
1731	 0.148056721305626 
1732	 0.148496442798682 
1733	 0.148957561080595 
1734	 0.149402807363631 
1735	 0.149879010552853 
1736	 0.150313651425952 
1737	 0.150680562273619 
1738	 0.150996987519331 
1739	 0.151243185144392 
1740	 0.151404824344136 
1741	 0.151551204722516 
1742	 0.151651463183305 
1743	 0.151714683448955 
1744	 0.15174287873499 
1745	 0.151738238012526 
1746	 0.151655939086654 
1747	 0.151612525823365 
1748	 0.151557501634708 
1749	 0.151532992210481 
1750	 0.151529616288373 
1751	 0.151521893596909 
1752	 0.151509828033073 
1753	 0.151542676603847 
1754	 0.151585422313396 
1755	 0.151676885905934 
1756	 0.151812181628676 
1757	 0.151946595465162 
1758	 0.152153595852295 
1759	 0.152394781956652 
1760	 0.152688717322844 
1761	 0.153069563349145 
1762	 0.153475857987756 
1763	 0.153939510937084 
1764	 0.154419806983179 
1765	 0.154890287845406 
1766	 0.155411810922641 
1767	 0.155917889200384 
1768	 0.156440272658044 
1769	 0.156975060957182 
1770	 0.157438486457175 
1771	 0.157909454901692 
1772	 0.158387262175808 
1773	 0.158843378316005 
1774	 0.159303857847539 
1775	 0.159719247931486 
1776	 0.16011582302402 
1777	 0.160496953788891 
1778	 0.160825145507941 
1779	 0.161132899180473 
1780	 0.161427923268049 
1781	 0.16171671961136 
1782	 0.162017452725009 
1783	 0.162315011849921 
1784	 0.162579338173564 
1785	 0.162780716255135 
1786	 0.162993873030675 
1787	 0.163217964055612 
1788	 0.163405125542345 
1789	 0.163570947461916 
1790	 0.163734306129708 
1791	 0.16386460391853 
1792	 0.163993752166828 
1793	 0.164105321997907 
1794	 0.164234926769038 
1795	 0.164382632901721 
1796	 0.164532102685056 
1797	 0.164686622458165 
1798	 0.164805191183459 
1799	 0.164927371865684 
1800	 0.16507776523739 
1801	 0.16376018364647 
1802	 0.163896823456454 
1803	 0.164067140333769 
1804	 0.164248231647171 
1805	 0.16446917413662 
1806	 0.164655444945447 
1807	 0.164860618421721 
1808	 0.165037061984563 
1809	 0.165181011597814 
1810	 0.165336020594108 
1811	 0.165487853249739 
1812	 0.165645558141132 
1813	 0.165802486349536 
1814	 0.165966659021042 
1815	 0.166114434112618 
1816	 0.166261830122459 
1817	 0.166428798881197 
1818	 0.166602122441982 
1819	 0.166768123375287 
1820	 0.166953550309611 
1821	 0.167128542464461 
1822	 0.167292464879139 
1823	 0.167452048677371 
1824	 0.167613919907867 
1825	 0.167780685152185 
1826	 0.167943141133314 
1827	 0.168091664310017 
1828	 0.168253382870879 
1829	 0.168416805149146 
1830	 0.168591552775781 
1831	 0.168770196156735 
1832	 0.168969237597143 
1833	 0.169154884504585 
1834	 0.169326959329898 
1835	 0.169485594022087 
1836	 0.169622299496523 
1837	 0.169768435586077 
1838	 0.169905382411429 
1839	 0.170062810360723 
1840	 0.170228832654634 
1841	 0.17039014134841 
1842	 0.17055809130441 
1843	 0.170733681129204 
1844	 0.170896026481722 
1845	 0.171048142654854 
1846	 0.171216584845718 
1847	 0.171371017082113 
1848	 0.17151277749033 
1849	 0.171643327971419 
1850	 0.171778627862296 
1851	 0.171910400443789 
1852	 0.172027853772008 
1853	 0.172144437627384 
1854	 0.172251561478336 
1855	 0.172348338269502 
1856	 0.17243060080536 
1857	 0.172500931233207 
1858	 0.172563979165072 
1859	 0.172608625062613 
1860	 0.172626656240829 
1861	 0.172649124946498 
1862	 0.172666245523744 
1863	 0.172672175565013 
1864	 0.172678073061679 
1865	 0.172667024501777 
1866	 0.17262387797366 
1867	 0.172561241933302 
1868	 0.172480598730158 
1869	 0.172364926457441 
1870	 0.172241470432141 
1871	 0.172106316599262 
1872	 0.171963208314156 
1873	 0.171799884045809 
1874	 0.171639396800779 
1875	 0.171476381235547 
1876	 0.171278066093272 
1877	 0.171083383611734 
1878	 0.170850783892128 
1879	 0.170592816767628 
1880	 0.170323094508695 
1881	 0.170003894133252 
1882	 0.169640214070491 
1883	 0.16925879485206 
1884	 0.168826116387441 
1885	 0.168334440582902 
1886	 0.167828999980335 
1887	 0.167275767340172 
1888	 0.166679746791609 
1889	 0.166089124475817 
1890	 0.165450144268687 
1891	 0.164809746053989 
1892	 0.164182747423265 
1893	 0.16353660045816 
1894	 0.162866637804139 
1895	 0.162227118156245 
1896	 0.161573364784246 
1897	 0.160920423085113 
1898	 0.160346758893735 
1899	 0.159773622292171 
1900	 0.159228324324969 
1901	 0.158732335228364 
1902	 0.158213999856798 
1903	 0.157745037285133 
1904	 0.157316340398537 
1905	 0.156922289118271 
1906	 0.156558662728569 
1907	 0.156252064230468 
1908	 0.155963739919279 
1909	 0.155703718802516 
1910	 0.15546623068747 
1911	 0.155239044313665 
1912	 0.155038543190686 
1913	 0.154855092811952 
1914	 0.154696006941007 
1915	 0.154547309439919 
1916	 0.154426397016986 
1917	 0.154298993965116 
1918	 0.154166557719076 
1919	 0.154048104030435 
1920	 0.153948853641408 
1921	 0.153862176783819 
1922	 0.15379708448105 
1923	 0.153736197734089 
1924	 0.153669023067358 
1925	 0.153610746380502 
1926	 0.153550875908753 
1927	 0.153491035978564 
1928	 0.153436808882315 
1929	 0.153380484489496 
1930	 0.153331832730013 
1931	 0.153309687056042 
1932	 0.153282496343649 
1933	 0.153265697900632 
1934	 0.153271029278356 
1935	 0.153278698450723 
1936	 0.153315290857248 
1937	 0.153372807427677 
1938	 0.153453184154587 
1939	 0.153548412415046 
1940	 0.15366361018237 
1941	 0.153801191123716 
1942	 0.153939956978066 
1943	 0.154102349313664 
1944	 0.154265348991896 
1945	 0.154431605680788 
1946	 0.154633947261903 
1947	 0.154837194344678 
1948	 0.155058850442356 
1949	 0.155306966299468 
1950	 0.155552964099893 
1951	 0.15580130659593 
1952	 0.156068557603307 
1953	 0.156349458722578 
1954	 0.156633081271422 
1955	 0.15694423585987 
1956	 0.157246302203661 
1957	 0.157535923562282 
1958	 0.15783509076319 
1959	 0.158112576191908 
1960	 0.158390579989056 
1961	 0.158661708881116 
1962	 0.15893439289699 
1963	 0.159185174167176 
1964	 0.15942496578893 
1965	 0.159651179380189 
1966	 0.159860010530348 
1967	 0.160072373441688 
1968	 0.160270096262504 
1969	 0.160450501742346 
1970	 0.160621364316082 
1971	 0.160795555297643 
1972	 0.160968486548456 
1973	 0.161134714671202 
1974	 0.161315980089362 
1975	 0.161515552039395 
1976	 0.161698647903263 
1977	 0.161874815436779 
1978	 0.162069765773765 
1979	 0.162265700098242 
1980	 0.162460144396231 
1981	 0.162692181717575 
1982	 0.162910972454982 
1983	 0.163126296056603 
1984	 0.163358777103564 
1985	 0.163576231508089 
1986	 0.163800708779285 
1987	 0.164032108682248 
1988	 0.164259485965468 
1989	 0.164505146341234 
1990	 0.164758739011497 
1991	 0.165028770861277 
1992	 0.165315255185966 
1993	 0.16561970443146 
1994	 0.165915565141635 
1995	 0.166231259980652 
1996	 0.16652046165604 
1997	 0.16680300845407 
1998	 0.16709784370925 
1999	 0.167395635369827 
2000	 0.167676468521993 
2001	 0.167975943204765 
2002	 0.168237159837892 
2003	 0.168467770873962 
2004	 0.16869914128715 
2005	 0.168910979586921 
2006	 0.169120959076934 
2007	 0.169331236067559 
2008	 0.169521020615919 
2009	 0.169710368693145 
2010	 0.169885288712919 
2011	 0.17003124286391 
2012	 0.170171261613167 
2013	 0.170294955168859 
2014	 0.17038561494144 
2015	 0.170495422259179 
2016	 0.170618712826184 
2017	 0.17070878685102 
2018	 0.170790398624692 
2019	 0.170859910266598 
2020	 0.170906831758886 
2021	 0.170937988393447 
2022	 0.170963952418744 
2023	 0.170994074507298 
2024	 0.171025142043269 
2025	 0.17103517694435 
2026	 0.171040978727101 
2027	 0.171052852186936 
2028	 0.171042787154595 
2029	 0.171004821407663 
2030	 0.170978832516292 
2031	 0.170947808153795 
2032	 0.170915845641823 
2033	 0.170884959912987 
2034	 0.170848025139863 
2035	 0.170810145382335 
2036	 0.170761486275342 
2037	 0.170707410611588 
2038	 0.17066708300014 
2039	 0.170639124687862 
2040	 0.170627277668097 
2041	 0.170604428633932 
2042	 0.170583549895515 
2043	 0.170571975863918 
2044	 0.170559751468646 
2045	 0.170547169285429 
2046	 0.170553395800462 
2047	 0.170547906788542 
2048	 0.170519768078399 
2049	 0.170509102919554 
2050	 0.170511710566248 
2051	 0.170505739296908 
2052	 0.170506322925153 
2053	 0.170525795614041 
2054	 0.170526595040267 
2055	 0.170518966659159 
2056	 0.170521879294431 
2057	 0.170520080246551 
2058	 0.170525414976215 
2059	 0.170543130670647 
2060	 0.170553143679058 
2061	 0.170564961231959 
2062	 0.170569638738652 
2063	 0.170568296785636 
2064	 0.170569237846225 
2065	 0.170566117489294 
2066	 0.170560947610243 
2067	 0.170562726819882 
2068	 0.170571003681441 
2069	 0.170570577540456 
2070	 0.170566544556646 
2071	 0.170564346171221 
2072	 0.170564366735364 
2073	 0.170555236128232 
2074	 0.170531891347651 
2075	 0.170533141911387 
2076	 0.170530037951163 
2077	 0.170542177278508 
2078	 0.170589300264121 
2079	 0.170619216219531 
2080	 0.170649044325869 
2081	 0.1706761169115 
2082	 0.170701718681536 
2083	 0.170721392027486 
2084	 0.170744464069073 
2085	 0.170741770508828 
2086	 0.170741223114281 
2087	 0.170723057310981 
2088	 0.170727376208475 
2089	 0.170737335147284 
2090	 0.170746969522747 
2091	 0.170777290399009 
2092	 0.170784946023995 
2093	 0.170778791973743 
2094	 0.170771251287193 
2095	 0.170756788924595 
2096	 0.170737381363166 
2097	 0.170705450914658 
2098	 0.170683601553684 
2099	 0.170671335347799 
2100	 0.170644875915327 
2101	 0.170604026332994 
2102	 0.170563226697944 
2103	 0.170504243384612 
2104	 0.17041064018029 
2105	 0.170345244735423 
2106	 0.170294843187511 
2107	 0.17021982413012 
2108	 0.170148531145188 
2109	 0.170057686645102 
2110	 0.169937617615269 
2111	 0.169825292339658 
2112	 0.169710748989095 
2113	 0.169590695547267 
2114	 0.169462264379341 
2115	 0.16933499272651 
2116	 0.169210728207754 
2117	 0.169068349504312 
2118	 0.168941302477066 
2119	 0.168818160936345 
2120	 0.168701991057617 
2121	 0.168579104493344 
2122	 0.168488771259584 
2123	 0.168413885659843 
2124	 0.168348644804198 
2125	 0.168310042266613 
2126	 0.168273101571504 
2127	 0.168243341848199 
2128	 0.168219016381069 
2129	 0.16819463781519 
2130	 0.168195069924224 
2131	 0.168227332994822 
2132	 0.168238021691972 
2133	 0.168256951694246 
2134	 0.168278043012758 
2135	 0.168268622164356 
2136	 0.168259472494124 
2137	 0.168270875400099 
2138	 0.168297465448322 
2139	 0.168317744265658 
2140	 0.168344205718726 
2141	 0.168372349515951 
2142	 0.168382370110239 
2143	 0.168434833631567 
2144	 0.168518309894157 
2145	 0.168592896286765 
2146	 0.168692462689093 
2147	 0.168782440439749 
2148	 0.168852808665067 
2149	 0.168946942862028 
2150	 0.169052115665264 
2151	 0.169168244316198 
2152	 0.169313134799493 
2153	 0.169441781679439 
2154	 0.169567571196873 
2155	 0.169696348026163 
2156	 0.169795841532171 
2157	 0.169871957560299 
2158	 0.169951133254523 
2159	 0.170016682873237 
2160	 0.170078531106447 
2161	 0.170134142116377 
2162	 0.170187735083639 
2163	 0.170252138292431 
2164	 0.170274735197358 
2165	 0.170268184358735 
2166	 0.17026992771796 
2167	 0.170247432097144 
2168	 0.170223978036804 
2169	 0.170204463178164 
2170	 0.170184497842621 
2171	 0.170132646980544 
2172	 0.17011199805378 
2173	 0.170111921416913 
2174	 0.170128187084974 
2175	 0.170122181726646 
2176	 0.170118725085314 
2177	 0.17011989756654 
2178	 0.170110795296554 
2179	 0.170105843755501 
2180	 0.170115963725706 
2181	 0.17011613969402 
2182	 0.170101738945557 
2183	 0.170101017476302 
2184	 0.170115899900381 
2185	 0.170112952734054 
2186	 0.170107759528082 
2187	 0.170093128989689 
2188	 0.170067285553965 
2189	 0.170036863537078 
2190	 0.170009190674228 
2191	 0.169960001426953 
2192	 0.169891205500887 
2193	 0.169825273741923 
2194	 0.169739737419595 
2195	 0.169660381134636 
2196	 0.16958972727577 
2197	 0.169510298736239 
2198	 0.169427882853519 
2199	 0.169338829717201 
2200	 0.169230759303923 
2201	 0.169109485952865 
2202	 0.168986574706349 
2203	 0.168847005501494 
2204	 0.168708096030471 
2205	 0.168566706127835 
2206	 0.168419218163151 
2207	 0.168255609709835 
2208	 0.168111596004407 
2209	 0.167980319215177 
2210	 0.167837595215575 
2211	 0.167712687166211 
2212	 0.16755305121153 
2213	 0.167355271240601 
2214	 0.167182016078808 
2215	 0.166997787183904 
2216	 0.166824964598486 
2217	 0.166698922930839 
2218	 0.166522086450247 
2219	 0.16632004967927 
2220	 0.166111170980808 
2221	 0.165869271759572 
2222	 0.165625403426433 
2223	 0.165401966950752 
2224	 0.165147419090817 
2225	 0.164911898256655 
2226	 0.164631239319407 
2227	 0.164291419058451 
2228	 0.163910541823537 
2229	 0.163507349413744 
2230	 0.163037782650394 
2231	 0.162573195144674 
2232	 0.162110918705646 
2233	 0.161586537350342 
2234	 0.161042283264189 
2235	 0.160421299969344 
2236	 0.159759238527681 
2237	 0.159021481998644 
2238	 0.158166294665508 
2239	 0.157336336615052 
2240	 0.156483046100867 
2241	 0.155570384941629 
2242	 0.154680159353077 
2243	 0.153670555986821 
2244	 0.152539765142327 
2245	 0.151400721061115 
2246	 0.150150814587397 
2247	 0.148935206364059 
2248	 0.147734135253452 
2249	 0.146486897315384 
2250	 0.145209792517831 
2251	 0.143954149183993 
2252	 0.142608246969713 
2253	 0.141274486017634 
2254	 0.139915868229434 
2255	 0.138557103045769 
2256	 0.137288160232831 
2257	 0.135994789150513 
2258	 0.13476233260363 
2259	 0.133605706264715 
2260	 0.132412568049717 
2261	 0.131218263395129 
2262	 0.130061409858278 
2263	 0.128877294507473 
2264	 0.127808975131095 
2265	 0.126811715511801 
2266	 0.125834981733133 
2267	 0.124965564397342 
2268	 0.124039582551287 
2269	 0.123093958648041 
2270	 0.122200714315549 
2271	 0.121303445916964 
2272	 0.120454070329574 
2273	 0.11968624698542 
2274	 0.118875890003872 
2275	 0.11809932579883 
2276	 0.117268501364846 
2277	 0.116397423806288 
2278	 0.115530099697869 
2279	 0.114634176228344 
2280	 0.113728769377864 
2281	 0.112844007799323 
2282	 0.111899657153558 
2283	 0.110921451351899 
2284	 0.109920265234658 
2285	 0.108819241988492 
2286	 0.107731243942187 
2287	 0.106585320616316 
2288	 0.105411007642535 
2289	 0.104316998877132 
2290	 0.103153519035404 
2291	 0.102004032623887 
2292	 0.100896060464262 
2293	 9.97155041085866E-02 
2294	 9.85678118097179E-02 
2295	 9.74617338247458E-02 
2296	 9.63803650659538E-02 
2297	 9.54332017187863E-02 
2298	 9.45795361602333E-02 
2299	 9.38173875719911E-02 
2300	 9.31406723409202E-02 
2301	 9.26093232227394E-02 
2302	 9.21612635367355E-02 
2303	 0.091897743863276 
2304	 9.17916325629162E-02 
2305	 9.18550903157281E-02 
2306	 0.092096377723449 
2307	 9.24800997160654E-02 
2308	 9.30544786672249E-02 
2309	 9.37360366233587E-02 
2310	 9.45909748818277E-02 
2311	 0.09551196666061 
2312	 9.66431948206081E-02 
2313	 9.76912255063201E-02 
2314	 0.098841064465852 
2315	 9.98803110162106E-02 
2316	 0.10086107659042 
2317	 0.101804053486759 
2318	 0.102756972111651 
2319	 0.103547054639049 
2320	 0.10427229835958 
2321	 0.104865746860994 
2322	 0.105268888831937 
2323	 0.105634874747911 
2324	 0.1059129698996 
2325	 0.106120124457049 
2326	 0.10626511608456 
2327	 0.1063067699108 
2328	 0.106239274024462 
2329	 0.106101632569162 
2330	 0.105882264408057 
2331	 0.10552835658148 
2332	 0.105153842316277 
2333	 0.104722809675588 
2334	 0.104187658433822 
2335	 0.103669760184364 
2336	 0.103021257416223 
2337	 0.102271415068287 
2338	 0.101568780343507 
2339	 0.100767187601919 
2340	 9.99860477561388E-02 
2341	 9.92891686508169E-02 
2342	 9.85979150120486E-02 
2343	 9.80077886764055E-02 
2344	 9.75588873401819E-02 
2345	 9.72760124432971E-02 
2346	 9.71244603694637E-02 
2347	 9.71445516242909E-02 
2348	 9.73539597918592E-02 
2349	 9.77364620714844E-02 
2350	 9.82713139165853E-02 
2351	 9.89277655552508E-02 
2352	 9.96682765843176E-02 
2353	 0.100480626861529 
2354	 0.101256491933208 
2355	 0.102005396742663 
2356	 0.102679480464416 
2357	 0.103212463235171 
2358	 0.103741641006292 
2359	 0.104170130854035 
2360	 0.104520833753877 
2361	 0.10481846336179 
2362	 0.104980925237391 
2363	 0.105077963074688 
2364	 0.105146303681848 
2365	 0.105135399825773 
2366	 0.105126971717164 
2367	 0.105139528131139 
2368	 0.105081287353243 
2369	 0.105081398834713 
2370	 0.105135697385417 
2371	 0.105159887311161 
2372	 0.105193731488078 
2373	 0.105187367078196 
2374	 0.105164446273817 
2375	 0.105183604542739 
2376	 0.105224553489074 
2377	 0.105252937940424 
2378	 0.105255852411298 
2379	 0.105295473077953 
2380	 0.105336193918813 
2381	 0.105350383830222 
2382	 0.105371510214757 
2383	 0.105374999414671 
2384	 0.1053929852894 
2385	 0.105425337174838 
2386	 0.105476084165358 
2387	 0.105560999371394 
2388	 0.105593362762924 
2389	 0.105575919187245 
2390	 0.105611187157063 
2391	 0.105682909561713 
2392	 0.105699686728144 
2393	 0.105711157371402 
2394	 0.105732248257308 
2395	 0.105692351454382 
2396	 0.105687486913233 
2397	 0.105784042408499 
2398	 0.105778031601525 
2399	 0.105630149535315 
2400	 0.105662521575133 
2401	 0.105761290201892 
2402	 0.10587614898849 
2403	 0.106012676237562 
2404	 0.106010813562576 
2405	 0.105948791006914 
2406	 0.10588851216011 
2407	 0.105871315622214 
2408	 0.10581930589079 
2409	 0.105736072683397 
2410	 0.105797271013491 
2411	 0.105894977825443 
2412	 0.105916016354783 
2413	 0.105944043235673 
2414	 0.105934934214635 
2415	 0.105876480945334 
2416	 0.105888125592151 
2417	 0.105965440031219 
2418	 0.105990144330521 
2419	 0.105960263565406 
2420	 0.10596372366088 
2421	 0.105990038547561 
2422	 0.105950524128665 
2423	 0.105874770176402 
2424	 0.105789295623086 
2425	 0.105694782287547 
2426	 0.105638028358059 
2427	 0.10558032731581 
2428	 0.105591612671878 
2429	 0.105629383414935 
2430	 0.105570455628784 
2431	 0.105543052813853 
2432	 0.105510843633518 
2433	 0.105358097435654 
2434	 0.105234201093217 
2435	 0.105176318016935 
2436	 0.105108162522907 
2437	 0.105114010841686 
2438	 0.105171965135243 
2439	 0.105182379336211 
2440	 0.105090124071509 
2441	 0.10485480661946 
2442	 0.104605080091024 
2443	 0.104404905063788 
2444	 0.104281898824298 
2445	 0.104295955638514 
2446	 0.10435327658485 
2447	 0.104342018067978 
2448	 0.104313008915279 
2449	 0.10425770409828 
2450	 0.104117162080183 
2451	 0.103999514477399 
2452	 0.103909921205473 
2453	 0.103838350618842 
2454	 0.10387106984243 
2455	 0.104059063361238 
2456	 0.104182731617197 
2457	 0.104227206993981 
2458	 0.104347131703857 
2459	 0.104341974392445 
2460	 0.10427273384467 
2461	 0.104301523236034 
2462	 0.104347694381596 
2463	 0.104305885506275 
2464	 0.104278337880561 
2465	 0.104304065740435 
2466	 0.104232471332447 
2467	 0.104350524874033 
2468	 0.104555287952838 
2469	 0.104621734649908 
2470	 0.104804384297235 
2471	 0.104814053218844 
2472	 0.104859297901244 
2473	 0.10524735922725 
2474	 0.105425138372496 
2475	 0.105464042872048 
2476	 0.105515424566108 
2477	 0.105468816503448 
2478	 0.105669963567897 
2479	 0.105888679018883 
2480	 0.106060632029048 
2481	 0.106234766567857 
2482	 0.106232136170752 
2483	 0.106478346813129 
2484	 0.106679666398392 
2485	 0.106863945148851 
2486	 0.107052836982299 
2487	 0.107055507421526 
2488	 0.107153421421034 
2489	 0.107382555484399 
2490	 0.107478663886108 
2491	 0.107792725804692 
2492	 0.108018681180398 
2493	 0.108091125727746 
2494	 0.108490790603827 
2495	 0.108805089560059 
2496	 0.109091725358484 
2497	 0.109418937104271 
2498	 0.109703447658818 
2499	 0.110254361811301 
2500	 0.110615345732298 
