Wavelength	spectrum00020.asd
350	 4.66758851444038E-02 
351	 0.045470646222402 
352	 4.55244399007014E-02 
353	 4.60612966798056E-02 
354	 4.53644971040244E-02 
355	 4.53654486571277E-02 
356	 4.52829521592514E-02 
357	 4.37733440496267E-02 
358	 3.89289518067571E-02 
359	 3.81469387595874E-02 
360	 4.04179469792233E-02 
361	 4.06988456023783E-02 
362	 4.07320136023333E-02 
363	 3.95614370076998E-02 
364	 3.73247111246248E-02 
365	 3.57520948963117E-02 
366	 3.71211058066675E-02 
367	 3.89003608049093E-02 
368	 3.85932497936161E-02 
369	 3.78119762086855E-02 
370	 3.68421878973201E-02 
371	 3.62384970888882E-02 
372	 3.65251283127658E-02 
373	 3.67555478085255E-02 
374	 3.74616630193543E-02 
375	 3.84285592855809E-02 
376	 3.81879027546241E-02 
377	 3.75276286779102E-02 
378	 3.72843506303762E-02 
379	 3.77296858391322E-02 
380	 3.71826984333209E-02 
381	 3.69560627175377E-02 
382	 3.64859138524384E-02 
383	 3.46041432428247E-02 
384	 3.61233447786526E-02 
385	 3.71737958785986E-02 
386	 3.60443098702761E-02 
387	 3.57183787796239E-02 
388	 3.56403523052129E-02 
389	 3.58746750516737E-02 
390	 3.63117261639846E-02 
391	 3.58608583780562E-02 
392	 3.55437096582512E-02 
393	 3.53240419134709E-02 
394	 3.45926068354051E-02 
395	 3.48742177415862E-02 
396	 3.54431916668964E-02 
397	 3.56699988020315E-02 
398	 0.035595863765091 
399	 0.035058316795857 
400	 0.034761971233571 
401	 3.51098396915467E-02 
402	 3.41098428351309E-02 
403	 3.40978895122517E-02 
404	 3.50584420984984E-02 
405	 3.51883095390286E-02 
406	 0.034757783988511 
407	 3.42053925303008E-02 
408	 3.39281495624296E-02 
409	 3.42471658186722E-02 
410	 3.42172639322194E-02 
411	 3.41462212493724E-02 
412	 3.45504259475331E-02 
413	 3.48594002362954E-02 
414	 3.42735637562261E-02 
415	 3.34057730915872E-02 
416	 3.39812700442701E-02 
417	 3.40217624257178E-02 
418	 3.38391636809607E-02 
419	 3.38559969003139E-02 
420	 3.37725364925869E-02 
421	 3.35432589377977E-02 
422	 3.34088614968031E-02 
423	 3.35973837099667E-02 
424	 3.34030598361318E-02 
425	 3.34410498394225E-02 
426	 3.36970956218397E-02 
427	 3.33451045727739E-02 
428	 3.30649528494402E-02 
429	 0.033121177962587 
430	 3.34264144808211E-02 
431	 3.31272333142688E-02 
432	 3.30794494265832E-02 
433	 3.32508937618024E-02 
434	 3.31592591122187E-02 
435	 3.32501228062534E-02 
436	 3.32512950086762E-02 
437	 3.31030023718315E-02 
438	 3.32004794177823E-02 
439	 3.31938567653276E-02 
440	 3.31204918948637E-02 
441	 3.31047288530917E-02 
442	 3.31439900055512E-02 
443	 3.31246664016572E-02 
444	 3.31022381687018E-02 
445	 0.033248231448677 
446	 3.33330034670933E-02 
447	 3.32519293377173E-02 
448	 3.30529191977119E-02 
449	 3.30410437019817E-02 
450	 3.32815653633231E-02 
451	 3.34256631814538E-02 
452	 3.31180114362917E-02 
453	 0.033051785604609 
454	 3.31383076641737E-02 
455	 3.32500536166399E-02 
456	 3.32846860569733E-02 
457	 3.33297998475332E-02 
458	 3.32769484780321E-02 
459	 3.31071712686419E-02 
460	 3.32021384623025E-02 
461	 3.31920990999695E-02 
462	 3.30706849394072E-02 
463	 0.03304106872312 
464	 3.31929214601044E-02 
465	 3.33158792322521E-02 
466	 3.32822891746858E-02 
467	 0.033139282087067 
468	 3.30471114785703E-02 
469	 3.30388545274112E-02 
470	 0.033095090686898 
471	 0.033198882011402 
472	 0.033246103771258 
473	 3.32015121873373E-02 
474	 3.30980186128063E-02 
475	 3.30658628281131E-02 
476	 3.30396666636155E-02 
477	 3.30050387612957E-02 
478	 3.31689001203756E-02 
479	 3.31412400209133E-02 
480	 0.033049248036349 
481	 0.033148311693005 
482	 3.30855728985418E-02 
483	 0.033023019249677 
484	 3.30557392433056E-02 
485	 0.033157241524897 
486	 3.31237351133189E-02 
487	 3.30565910639543E-02 
488	 3.30611925141794E-02 
489	 3.29963189703648E-02 
490	 3.30649204706127E-02 
491	 3.31987173230094E-02 
492	 3.31875567204343E-02 
493	 3.31369590497528E-02 
494	 3.31199449480577E-02 
495	 0.033157394025984 
496	 3.31956814666228E-02 
497	 3.31874141632595E-02 
498	 3.31576048333437E-02 
499	 3.31503229316406E-02 
500	 3.31800418102374E-02 
501	 3.31232380275644E-02 
502	 3.30237986659742E-02 
503	 3.30628567882571E-02 
504	 3.30470611111778E-02 
505	 3.30109673649838E-02 
506	 3.30088046481411E-02 
507	 3.30561979505575E-02 
508	 3.29821240608908E-02 
509	 3.28785343227631E-02 
510	 3.29211548472581E-02 
511	 3.29495373911848E-02 
512	 3.29821622316395E-02 
513	 3.30064913607142E-02 
514	 3.29506270760581E-02 
515	 3.28821464733409E-02 
516	 3.28303490503112E-02 
517	 3.28107558077505E-02 
518	 3.28342270305694E-02 
519	 3.28515682813999E-02 
520	 3.28424025870712E-02 
521	 3.28117751105336E-02 
522	 3.27927773434538E-02 
523	 3.27861501150499E-02 
524	 3.27875720123649E-02 
525	 3.28029891730998E-02 
526	 3.27294437639372E-02 
527	 3.26660013928228E-02 
528	 0.032733259578074 
529	 3.27315261681662E-02 
530	 3.26954430048298E-02 
531	 3.26862441098705E-02 
532	 3.27710181839432E-02 
533	 3.27174413197489E-02 
534	 3.26601412241845E-02 
535	 3.27037960632461E-02 
536	 3.26120406798782E-02 
537	 3.25806119728788E-02 
538	 3.26127316729506E-02 
539	 3.26089842405441E-02 
540	 3.26089901414884E-02 
541	 0.032603190495072 
542	 3.25805305318269E-02 
543	 3.25303313698246E-02 
544	 3.25429042522834E-02 
545	 3.25627990515528E-02 
546	 3.25199029916885E-02 
547	 3.24991818402525E-02 
548	 3.24997826775242E-02 
549	 3.24927276598955E-02 
550	 3.24329812717381E-02 
551	 3.24151151725068E-02 
552	 3.24392616804459E-02 
553	 3.24716127550373E-02 
554	 0.032438723308958 
555	 3.24216332488019E-02 
556	 3.24174557976913E-02 
557	 3.23965279280833E-02 
558	 3.24472870213415E-02 
559	 3.25157302569845E-02 
560	 3.25516257349763E-02 
561	 3.25289240509895E-02 
562	 3.25165156171423E-02 
563	 3.25318988219118E-02 
564	 3.25645839106857E-02 
565	 3.25651638889209E-02 
566	 3.25476702076967E-02 
567	 3.25363147410663E-02 
568	 3.25532549451491E-02 
569	 3.24962328957918E-02 
570	 3.24318841460665E-02 
571	 3.24102591705367E-02 
572	 3.23883076116568E-02 
573	 3.23834129024865E-02 
574	 0.032383289043986 
575	 3.23725480505772E-02 
576	 3.23879180019032E-02 
577	 3.23816556358172E-02 
578	 3.23538019995422E-02 
579	 3.23630489114509E-02 
580	 3.23406921295758E-02 
581	 3.23258177353525E-02 
582	 3.23552139228368E-02 
583	 3.23829429866169E-02 
584	 3.23994613630341E-02 
585	 3.24051401980375E-02 
586	 3.24097056809574E-02 
587	 3.24433725847717E-02 
588	 0.032431133148858 
589	 3.23634455442257E-02 
590	 3.23542959422659E-02 
591	 3.23785214628592E-02 
592	 3.23916664439768E-02 
593	 3.23622356109077E-02 
594	 3.23519363285443E-02 
595	 0.032356483807626 
596	 3.23543583603266E-02 
597	 3.23168427413548E-02 
598	 3.23307614770177E-02 
599	 3.23666920251436E-02 
600	 0.032384865559148 
601	 3.23718740332789E-02 
602	 3.23628262093015E-02 
603	 3.23642391342093E-02 
604	 3.23681987616994E-02 
605	 3.23653336192128E-02 
606	 0.032364319960779 
607	 3.23752836461631E-02 
608	 3.24080115124961E-02 
609	 3.23752260185651E-02 
610	 3.23567006673047E-02 
611	 0.032417431846186 
612	 3.24322068234266E-02 
613	 3.24110048160841E-02 
614	 3.23893052247262E-02 
615	 0.032409824385581 
616	 3.23958127397891E-02 
617	 3.24023906885515E-02 
618	 3.24484180793825E-02 
619	 3.24597029963161E-02 
620	 0.032446525566017 
621	 3.24311306722108E-02 
622	 3.24356412011748E-02 
623	 3.24486846351091E-02 
624	 0.032462503686055 
625	 3.24739913447823E-02 
626	 3.24850789890246E-02 
627	 3.25098082239099E-02 
628	 3.25226195242348E-02 
629	 0.032510640730494 
630	 3.25073460793059E-02 
631	 3.25284720678701E-02 
632	 3.25642360994157E-02 
633	 3.25903658322621E-02 
634	 3.25845856608772E-02 
635	 3.25869539871589E-02 
636	 3.26121613075706E-02 
637	 3.26365020629496E-02 
638	 3.26390093498707E-02 
639	 3.26457307369008E-02 
640	 0.032675427632694 
641	 3.26807320037237E-02 
642	 3.26888476752675E-02 
643	 3.27116459147626E-02 
644	 3.27472613812966E-02 
645	 3.27657716346767E-02 
646	 0.032771117008155 
647	 3.27763513926311E-02 
648	 3.28010311442721E-02 
649	 3.28451406666176E-02 
650	 3.28702644384242E-02 
651	 3.28520171667188E-02 
652	 3.28757495750915E-02 
653	 3.29031003370408E-02 
654	 3.29228249116162E-02 
655	 3.29486643576397E-02 
656	 3.29832942999091E-02 
657	 0.033008868102823 
658	 3.30228830211882E-02 
659	 3.30623952898998E-02 
660	 3.31080390353222E-02 
661	 3.31389318689553E-02 
662	 3.31493117087411E-02 
663	 0.033224126854818 
664	 3.32665325370223E-02 
665	 3.32688307307727E-02 
666	 3.33201460796996E-02 
667	 3.33661140595407E-02 
668	 3.34068463748673E-02 
669	 3.34507943434254E-02 
670	 3.35028741658046E-02 
671	 3.35389679895756E-02 
672	 3.35866042660962E-02 
673	 3.36813995072328E-02 
674	 3.37428809309865E-02 
675	 3.37876042352526E-02 
676	 3.38370824121719E-02 
677	 3.39073176301172E-02 
678	 3.39628001280052E-02 
679	 3.40338279684683E-02 
680	 3.41375991555695E-02 
681	 0.034202535853007 
682	 3.42860903322089E-02 
683	 3.43856693441148E-02 
684	 3.44687890694247E-02 
685	 3.45515651110065E-02 
686	 3.46410017835886E-02 
687	 3.47512346257372E-02 
688	 3.49079759202826E-02 
689	 3.50358389855761E-02 
690	 3.51627999760484E-02 
691	 3.53270466427187E-02 
692	 3.54983577624359E-02 
693	 3.56764944418444E-02 
694	 3.58704670166927E-02 
695	 3.60898309896725E-02 
696	 3.62915467542092E-02 
697	 3.65066647902987E-02 
698	 3.67570172911988E-02 
699	 3.70355993638895E-02 
700	 3.73269886601496E-02 
701	 0.037637442968676 
702	 3.79773077811703E-02 
703	 0.038344147259608 
704	 3.87346759223926E-02 
705	 3.91608038497324E-02 
706	 3.96428836905625E-02 
707	 4.01717600444358E-02 
708	 0.040723357575588 
709	 4.12919537833476E-02 
710	 4.19021587181037E-02 
711	 4.26086517984433E-02 
712	 4.33689213218314E-02 
713	 4.41415187417196E-02 
714	 4.50214724514152E-02 
715	 0.045959599826772 
716	 4.69430131589432E-02 
717	 4.79923028280907E-02 
718	 4.91729971740719E-02 
719	 0.050423879014064 
720	 5.17209310635716E-02 
721	 5.31280051983594E-02 
722	 5.46532912279529E-02 
723	 5.62845966737992E-02 
724	 5.80046166877931E-02 
725	 5.98256202428762E-02 
726	 6.17557271530181E-02 
727	 6.38025690546196E-02 
728	 6.59658162162931E-02 
729	 6.82054920066018E-02 
730	 7.05706968369762E-02 
731	 7.30758533941004E-02 
732	 0.075663050083484 
733	 0.078333534032245 
734	 8.11052507697416E-02 
735	 8.39932013531225E-02 
736	 8.69629829857961E-02 
737	 8.99883934389078E-02 
738	 9.30652759129081E-02 
739	 9.62032858392632E-02 
740	 0.099448204221984 
741	 0.102717643628135 
742	 0.105967681110143 
743	 0.109245501124 
744	 0.11257614214577 
745	 0.115922970421275 
746	 0.119243033458078 
747	 0.122537482404378 
748	 0.125812568161843 
749	 0.129071205716586 
750	 0.132307557264102 
751	 0.135509725581644 
752	 0.138659558890589 
753	 0.141747830036331 
754	 0.144775919776238 
755	 0.147795010674123 
756	 0.150749955593774 
757	 0.153588215013946 
758	 0.156326393878455 
759	 0.159030733508065 
760	 0.16169604022509 
761	 0.164279803036916 
762	 0.166778134379506 
763	 0.169212122749066 
764	 0.171591267963554 
765	 0.173913721491408 
766	 0.176112004977375 
767	 0.178222935800023 
768	 0.18029398251743 
769	 0.18235060970291 
770	 0.18435015030591 
771	 0.186290212009513 
772	 0.188175649309662 
773	 0.189964704979887 
774	 0.191710069274513 
775	 0.193422432052727 
776	 0.195075374792736 
777	 0.196667559614521 
778	 0.198226640786106 
779	 0.199754321629671 
780	 0.201196291000084 
781	 0.202628352003619 
782	 0.204028133868293 
783	 0.205366049238728 
784	 0.206687683495791 
785	 0.208009997781603 
786	 0.209289539236758 
787	 0.21046630426387 
788	 0.211642522236221 
789	 0.212801568506325 
790	 0.213927557189126 
791	 0.215022362065065 
792	 0.216143339292281 
793	 0.21723197547421 
794	 0.218261914965934 
795	 0.219353816672879 
796	 0.220342339074729 
797	 0.22128770401651 
798	 0.222296487407926 
799	 0.223256798483036 
800	 0.224204689410027 
801	 0.225128486097332 
802	 0.225986440479752 
803	 0.226870322638536 
804	 0.227754607014132 
805	 0.228614066277846 
806	 0.229450588115701 
807	 0.230266090053249 
808	 0.231052463930932 
809	 0.23181955770266 
810	 0.232638356570451 
811	 0.23343390463207 
812	 0.234193676499798 
813	 0.234933087831284 
814	 0.235635429576287 
815	 0.236362009494433 
816	 0.237112606213471 
817	 0.2378312386626 
818	 0.238551812041971 
819	 0.239232996523616 
820	 0.239864801690008 
821	 0.240504254030624 
822	 0.24110813392672 
823	 0.241730532643111 
824	 0.242404643013113 
825	 0.243022501927054 
826	 0.243642515196621 
827	 0.24424872092748 
828	 0.244806874016471 
829	 0.245385857545748 
830	 0.245942820483919 
831	 0.246507137856551 
832	 0.247155652922954 
833	 0.247710594995753 
834	 0.248187060627289 
835	 0.248646406615157 
836	 0.249169273815371 
837	 0.249732712218571 
838	 0.250276665133003 
839	 0.250770451567841 
840	 0.251300180577244 
841	 0.251776835641096 
842	 0.252235407400847 
843	 0.252735940506609 
844	 0.253188738274424 
845	 0.253673097809391 
846	 0.254176674411214 
847	 0.254621831966805 
848	 0.255022138321281 
849	 0.255473553605008 
850	 0.2559780149674 
851	 0.256412338265896 
852	 0.256832022835789 
853	 0.257266516926549 
854	 0.257721863995162 
855	 0.258167789884883 
856	 0.258551155723297 
857	 0.258941655644796 
858	 0.259403079189075 
859	 0.259831750363221 
860	 0.260226532082719 
861	 0.26062044965864 
862	 0.26104585841649 
863	 0.261418637114082 
864	 0.261785938976361 
865	 0.262166997871883 
866	 0.262545030034981 
867	 0.262860969200944 
868	 0.263250005761308 
869	 0.263718607787832 
870	 0.264070219292509 
871	 0.264384671944099 
872	 0.264710017699381 
873	 0.265058584900028 
874	 0.265371188855628 
875	 0.265747053747176 
876	 0.266135915707104 
877	 0.266474508358135 
878	 0.266833423543818 
879	 0.267160057326203 
880	 0.267476378263633 
881	 0.267823759312417 
882	 0.26814184781802 
883	 0.268406436420342 
884	 0.26865987147638 
885	 0.268982020729851 
886	 0.269332437330153 
887	 0.269680261643617 
888	 0.270011033921389 
889	 0.270326955553892 
890	 0.270584931865171 
891	 0.270807313085524 
892	 0.271045820063217 
893	 0.271374987427954 
894	 0.271674988799527 
895	 0.271965894715005 
896	 0.272273591179999 
897	 0.272540436257842 
898	 0.272803984543791 
899	 0.273073021772922 
900	 0.27334268557649 
901	 0.273596479605403 
902	 0.273826774985156 
903	 0.274076125048196 
904	 0.274386001245853 
905	 0.27465957120213 
906	 0.274924643690587 
907	 0.275185628608165 
908	 0.275430943436907 
909	 0.275691546606767 
910	 0.275964356547059 
911	 0.276243308174592 
912	 0.27652012724024 
913	 0.276747202884894 
914	 0.27695112260619 
915	 0.277164044798893 
916	 0.277404575167281 
917	 0.277613975281692 
918	 0.277830441630671 
919	 0.278098964102286 
920	 0.278438637640103 
921	 0.278695281341293 
922	 0.278848001383513 
923	 0.278958948551061 
924	 0.27918446096143 
925	 0.279423221115508 
926	 0.279669424816209 
927	 0.279933653034365 
928	 0.280180862411618 
929	 0.280413405494921 
930	 0.280652477757387 
931	 0.280911685711901 
932	 0.281145068729048 
933	 0.281306030050634 
934	 0.281485377144415 
935	 0.281788836765067 
936	 0.281981355609838 
937	 0.282192233756597 
938	 0.282430764182978 
939	 0.282634830031196 
940	 0.282963496987489 
941	 0.283225357075407 
942	 0.283401423704219 
943	 0.283634308138868 
944	 0.283876072749812 
945	 0.284025729644974 
946	 0.284128214414336 
947	 0.284360453611039 
948	 0.284545568491129 
949	 0.284761573101075 
950	 0.285016447460611 
951	 0.285195249779584 
952	 0.28534847012707 
953	 0.285561715527672 
954	 0.285832010642383 
955	 0.286025012374511 
956	 0.286175210377063 
957	 0.28629440432301 
958	 0.286419477884838 
959	 0.28662606376158 
960	 0.286863745655951 
961	 0.287025613803381 
962	 0.287111746793176 
963	 0.287345975704724 
964	 0.287549346735482 
965	 0.287721888701098 
966	 0.287895694608024 
967	 0.288066224030462 
968	 0.288248932908678 
969	 0.288383185333389 
970	 0.288479730565697 
971	 0.288780610915708 
972	 0.288968461322282 
973	 0.289068105275874 
974	 0.289196899780863 
975	 0.289409246310248 
976	 0.289550900815787 
977	 0.28970842049956 
978	 0.289934783819272 
979	 0.289927303721959 
980	 0.290006452946808 
981	 0.290155264684294 
982	 0.290271670803126 
983	 0.290375236376012 
984	 0.290558503536479 
985	 0.290756542458964 
986	 0.290910806784747 
987	 0.291202514706669 
988	 0.291302092057682 
989	 0.291324471208379 
990	 0.291472394997706 
991	 0.291652295011522 
992	 0.291729554854913 
993	 0.291822777640685 
994	 0.29206325931341 
995	 0.2922928595649 
996	 0.292452807646522 
997	 0.292494792681117 
998	 0.292472074864856 
999	 0.29271575864387 
1000	 0.292874069329736 
1001	 0.292211972403607 
1002	 0.292304127203221 
1003	 0.292398027032687 
1004	 0.292471644713241 
1005	 0.292517832000236 
1006	 0.292590412696392 
1007	 0.292659990577345 
1008	 0.292743705073884 
1009	 0.292838472810632 
1010	 0.292932889616535 
1011	 0.293049033976347 
1012	 0.293138593158672 
1013	 0.29321122490479 
1014	 0.293307568017697 
1015	 0.293434925692456 
1016	 0.293481847108593 
1017	 0.293562857708346 
1018	 0.293627328737998 
1019	 0.293681947185605 
1020	 0.293773337618603 
1021	 0.293849042624083 
1022	 0.293941808251856 
1023	 0.294025275312532 
1024	 0.294078078752747 
1025	 0.29417062957981 
1026	 0.294294868817261 
1027	 0.294400485664676 
1028	 0.29451927241871 
1029	 0.2946262701938 
1030	 0.294710264142228 
1031	 0.294797112197118 
1032	 0.294915858093729 
1033	 0.295057065831476 
1034	 0.295170685501308 
1035	 0.295315285192922 
1036	 0.295428811082569 
1037	 0.295504329622089 
1038	 0.295585076105227 
1039	 0.295654360371023 
1040	 0.295743630865577 
1041	 0.295847003927819 
1042	 0.295937279644993 
1043	 0.296038499470851 
1044	 0.29613174719569 
1045	 0.296194027414193 
1046	 0.296254335243072 
1047	 0.29633454734623 
1048	 0.296390127514478 
1049	 0.296430220788165 
1050	 0.296491593588356 
1051	 0.296558923229228 
1052	 0.296615247174911 
1053	 0.296669111901874 
1054	 0.296714576754895 
1055	 0.296774565581351 
1056	 0.296853971201392 
1057	 0.29691978196652 
1058	 0.297002118186477 
1059	 0.297047748044463 
1060	 0.297063732666486 
1061	 0.297038883222326 
1062	 0.297045415933201 
1063	 0.297061997534125 
1064	 0.297069018065854 
1065	 0.297090916964094 
1066	 0.297091632860199 
1067	 0.297094307045472 
1068	 0.297120231967169 
1069	 0.297158591311986 
1070	 0.297199293672503 
1071	 0.297242430078311 
1072	 0.297296706640089 
1073	 0.297356431538712 
1074	 0.297370458967043 
1075	 0.297365981931538 
1076	 0.297391732025765 
1077	 0.297418699439845 
1078	 0.297463541826606 
1079	 0.297541041050261 
1080	 0.297576183114611 
1081	 0.297583560902657 
1082	 0.297629541102969 
1083	 0.297663387759665 
1084	 0.297679820092493 
1085	 0.297728452234401 
1086	 0.297775109513014 
1087	 0.297812599101639 
1088	 0.297850785869154 
1089	 0.297905055196145 
1090	 0.297958002441628 
1091	 0.298013866609916 
1092	 0.29806459969551 
1093	 0.298135544733708 
1094	 0.298207826877318 
1095	 0.298265937626011 
1096	 0.298339975367726 
1097	 0.298415133847159 
1098	 0.298466768459951 
1099	 0.298522160049623 
1100	 0.298586145135349 
1101	 0.298662919646084 
1102	 0.298775806518994 
1103	 0.298867043088557 
1104	 0.298964326722905 
1105	 0.299047302168605 
1106	 0.299119218990092 
1107	 0.299166730685448 
1108	 0.299260182524119 
1109	 0.299384311665645 
1110	 0.299487933598572 
1111	 0.299598237724166 
1112	 0.299697254605653 
1113	 0.299774338557866 
1114	 0.299880776599304 
1115	 0.300017341978233 
1116	 0.300132674798868 
1117	 0.300224371504319 
1118	 0.30031673924834 
1119	 0.300378243923147 
1120	 0.300463687063504 
1121	 0.300554434899574 
1122	 0.300665493057015 
1123	 0.300770946442311 
1124	 0.300872039848224 
1125	 0.300980500910129 
1126	 0.301086857240854 
1127	 0.301183270401017 
1128	 0.301294577876124 
1129	 0.301369689708586 
1130	 0.301429635551906 
1131	 0.301522270316281 
1132	 0.301578973924668 
1133	 0.30163962047541 
1134	 0.301726201654856 
1135	 0.301809212317944 
1136	 0.301884862589239 
1137	 0.301977201521241 
1138	 0.302094416093144 
1139	 0.302190039633389 
1140	 0.302285426448563 
1141	 0.302361539273726 
1142	 0.302438470339892 
1143	 0.30251013072731 
1144	 0.302574372856181 
1145	 0.30264939088936 
1146	 0.302724022605548 
1147	 0.30278915900993 
1148	 0.302862304423954 
1149	 0.302954602475555 
1150	 0.303041921483363 
1151	 0.303122196883017 
1152	 0.30319394758718 
1153	 0.303260394564159 
1154	 0.303317805219271 
1155	 0.303367808305395 
1156	 0.303406093806407 
1157	 0.303432159401558 
1158	 0.303455149623505 
1159	 0.303462189864004 
1160	 0.303482513502915 
1161	 0.303499215687232 
1162	 0.303507219321082 
1163	 0.303511654055032 
1164	 0.303511118031206 
1165	 0.303503397555632 
1166	 0.303491650717999 
1167	 0.303480811007642 
1168	 0.30346762998992 
1169	 0.303452042546413 
1170	 0.303437472220194 
1171	 0.303417972281223 
1172	 0.303394943870076 
1173	 0.303366936886785 
1174	 0.303335897244782 
1175	 0.303303489628719 
1176	 0.303261499075963 
1177	 0.303224603830946 
1178	 0.303190222067121 
1179	 0.303153866064692 
1180	 0.303113303561538 
1181	 0.303082597950387 
1182	 0.303052276391792 
1183	 0.303024957898188 
1184	 0.302985959955066 
1185	 0.302953950676797 
1186	 0.302949354904228 
1187	 0.302960482125634 
1188	 0.302961090222602 
1189	 0.302989333146436 
1190	 0.303000207697569 
1191	 0.302979956232106 
1192	 0.30299013418422 
1193	 0.303018382900983 
1194	 0.303042675676464 
1195	 0.303069960197537 
1196	 0.303110952042639 
1197	 0.303160247650316 
1198	 0.303209673675197 
1199	 0.303274188299041 
1200	 0.303340328381763 
1201	 0.303428719440029 
1202	 0.303531654354242 
1203	 0.303643489557538 
1204	 0.303785450967358 
1205	 0.303936290398271 
1206	 0.304083929960191 
1207	 0.304282675767655 
1208	 0.304509248447351 
1209	 0.30476068705207 
1210	 0.305048989939267 
1211	 0.30535562033739 
1212	 0.305676521013797 
1213	 0.30604321001778 
1214	 0.306447449549499 
1215	 0.306873172239663 
1216	 0.307354160797854 
1217	 0.307820310554462 
1218	 0.308302607314103 
1219	 0.308778325224835 
1220	 0.309265237381295 
1221	 0.309782306579056 
1222	 0.310271448338149 
1223	 0.31078015318304 
1224	 0.31128478068692 
1225	 0.31178230196091 
1226	 0.312270064606552 
1227	 0.312777582088694 
1228	 0.313247679326257 
1229	 0.313695710752569 
1230	 0.314127073218169 
1231	 0.314538266249803 
1232	 0.314940800550034 
1233	 0.315319417999473 
1234	 0.31569415806647 
1235	 0.316056405387534 
1236	 0.316417946536729 
1237	 0.316773393112576 
1238	 0.317122634228377 
1239	 0.317461494287023 
1240	 0.317813156775968 
1241	 0.318155667765696 
1242	 0.318461470027048 
1243	 0.318770816010113 
1244	 0.319066701947437 
1245	 0.319370389214772 
1246	 0.319670584400603 
1247	 0.319965909342257 
1248	 0.320263474298375 
1249	 0.32055587988499 
1250	 0.320838720122553 
1251	 0.321120915703439 
1252	 0.321403197558167 
1253	 0.321684690148481 
1254	 0.321961349916835 
1255	 0.322240355497957 
1256	 0.322523184245227 
1257	 0.322802967277881 
1258	 0.323075380088663 
1259	 0.323354597128924 
1260	 0.323643138820098 
1261	 0.323923538899486 
1262	 0.324193983351295 
1263	 0.324484339384026 
1264	 0.324759637727832 
1265	 0.325028431741834 
1266	 0.325297370582272 
1267	 0.325565641380651 
1268	 0.32582735785519 
1269	 0.326091623239814 
1270	 0.326333651527326 
1271	 0.326563510477471 
1272	 0.326788977853721 
1273	 0.326984771339085 
1274	 0.327206001030291 
1275	 0.327436111475942 
1276	 0.327663200497302 
1277	 0.327914125197514 
1278	 0.328133605600439 
1279	 0.328330951187816 
1280	 0.328533076762555 
1281	 0.328726574310468 
1282	 0.328908879872571 
1283	 0.32908910529531 
1284	 0.329261508721357 
1285	 0.329423977049383 
1286	 0.329558572291947 
1287	 0.329731765255031 
1288	 0.329919157058741 
1289	 0.330095739212174 
1290	 0.330287455405819 
1291	 0.33046154294652 
1292	 0.330618547116396 
1293	 0.330783958760902 
1294	 0.330948351662375 
1295	 0.331116921879714 
1296	 0.331290036967267 
1297	 0.331454776802214 
1298	 0.331615029458959 
1299	 0.331781558417323 
1300	 0.33194776584947 
1301	 0.332109833629785 
1302	 0.332275061647849 
1303	 0.332439679804121 
1304	 0.332591122852943 
1305	 0.332754691305763 
1306	 0.332925506139143 
1307	 0.333100935737457 
1308	 0.333281944612226 
1309	 0.333470307636786 
1310	 0.33364824672361 
1311	 0.333826704367207 
1312	 0.334004517209413 
1313	 0.334179228457462 
1314	 0.334347832007642 
1315	 0.33450825413158 
1316	 0.334687498161485 
1317	 0.334869571054762 
1318	 0.335049734442329 
1319	 0.335237705356247 
1320	 0.335433976650947 
1321	 0.33562644710134 
1322	 0.335824405330468 
1323	 0.336053275693902 
1324	 0.336250417779196 
1325	 0.336421049275011 
1326	 0.336607378857672 
1327	 0.336793032378582 
1328	 0.336973334007299 
1329	 0.337167690392001 
1330	 0.337342578674068 
1331	 0.337503119906069 
1332	 0.337656245735755 
1333	 0.337790820526151 
1334	 0.337930521456237 
1335	 0.338075351715327 
1336	 0.338219483338364 
1337	 0.338358117008824 
1338	 0.338504358791733 
1339	 0.338636238200161 
1340	 0.338756224877744 
1341	 0.338875056031711 
1342	 0.338997366548864 
1343	 0.339099952968698 
1344	 0.339193475575523 
1345	 0.339273690399113 
1346	 0.339340711134739 
1347	 0.339398172614089 
1348	 0.339447161328117 
1349	 0.339480482847978 
1350	 0.339493900091109 
1351	 0.339511030071533 
1352	 0.339516754915358 
1353	 0.339523834307058 
1354	 0.339526364673013 
1355	 0.339535852491898 
1356	 0.339550904919491 
1357	 0.33955777833839 
1358	 0.339570377928765 
1359	 0.339574309477875 
1360	 0.339564641829667 
1361	 0.339551620335177 
1362	 0.339555891937017 
1363	 0.339563780417843 
1364	 0.33956487980942 
1365	 0.339579545113924 
1366	 0.339563418907975 
1367	 0.339534247793961 
1368	 0.339489537024154 
1369	 0.33942951551477 
1370	 0.33935794087356 
1371	 0.339274719925872 
1372	 0.339176018233441 
1373	 0.339070690482326 
1374	 0.338935971317365 
1375	 0.338783126862003 
1376	 0.338606154069007 
1377	 0.338396598194161 
1378	 0.338182954489546 
1379	 0.337948854900863 
1380	 0.337709308303869 
1381	 0.337450948853694 
1382	 0.337201585812884 
1383	 0.336943927547174 
1384	 0.336694337928943 
1385	 0.33644889868628 
1386	 0.336210970664348 
1387	 0.335968749612327 
1388	 0.335748188070112 
1389	 0.3355452011753 
1390	 0.335348563446877 
1391	 0.33516676692428 
1392	 0.334986562475356 
1393	 0.334837353498055 
1394	 0.334679027012078 
1395	 0.334519875201372 
1396	 0.334390297686875 
1397	 0.334195302158073 
1398	 0.333995474085159 
1399	 0.333710604237448 
1400	 0.333387537904764 
1401	 0.332983191137818 
1402	 0.332506390191383 
1403	 0.331980643596684 
1404	 0.331379842238995 
1405	 0.330761594255011 
1406	 0.330085691030476 
1407	 0.329404253744915 
1408	 0.328681482183167 
1409	 0.327967967565616 
1410	 0.327232180149935 
1411	 0.326508321164273 
1412	 0.325767884141267 
1413	 0.325071425937193 
1414	 0.3243721200666 
1415	 0.323725865103625 
1416	 0.32312235292049 
1417	 0.322542899408475 
1418	 0.322010037938029 
1419	 0.321481697564826 
1420	 0.320970612414884 
1421	 0.320485045659475 
1422	 0.320028411566045 
1423	 0.319570475890955 
1424	 0.319133641152852 
1425	 0.318689673463656 
1426	 0.318277147828554 
1427	 0.317879417447556 
1428	 0.317510554720245 
1429	 0.317177191687231 
1430	 0.316826623400169 
1431	 0.316487748037417 
1432	 0.31612245803202 
1433	 0.315756808688723 
1434	 0.31536381403652 
1435	 0.314943242164793 
1436	 0.314525002867877 
1437	 0.314078302097732 
1438	 0.313673379257043 
1439	 0.313256750494838 
1440	 0.312901775144955 
1441	 0.312558967208007 
1442	 0.312303957205477 
1443	 0.312080787006392 
1444	 0.311964509272128 
1445	 0.311908668046481 
1446	 0.311980089523775 
1447	 0.312145185903032 
1448	 0.312421251121672 
1449	 0.312842164496586 
1450	 0.313308433475311 
1451	 0.313892461720982 
1452	 0.314490282776769 
1453	 0.315162299163787 
1454	 0.315834699030994 
1455	 0.316554139730584 
1456	 0.31726081973659 
1457	 0.318004248817966 
1458	 0.318707319075451 
1459	 0.319395044719153 
1460	 0.320067984077265 
1461	 0.320718900141799 
1462	 0.321345773872326 
1463	 0.321957308486706 
1464	 0.322550601124552 
1465	 0.323105414693641 
1466	 0.323672756636243 
1467	 0.324195115990335 
1468	 0.324714229885289 
1469	 0.325231988532886 
1470	 0.32571041091605 
1471	 0.326218816449579 
1472	 0.326743776865672 
1473	 0.327240466575407 
1474	 0.327743901481304 
1475	 0.328204190400089 
1476	 0.328644024159029 
1477	 0.329050471624174 
1478	 0.329434014708279 
1479	 0.329768156545269 
1480	 0.330057292150005 
1481	 0.33033476905771 
1482	 0.330566282440301 
1483	 0.330805098312361 
1484	 0.331024947926406 
1485	 0.331256737399812 
1486	 0.331472014135973 
1487	 0.33171073287675 
1488	 0.331948886084268 
1489	 0.332226402587386 
1490	 0.332525606709235 
1491	 0.332845791671351 
1492	 0.333183948582279 
1493	 0.333567636277836 
1494	 0.333980457307766 
1495	 0.334416406750566 
1496	 0.334899138571091 
1497	 0.335395305570004 
1498	 0.335923563774407 
1499	 0.336443441644701 
1500	 0.337009114603913 
1501	 0.337525524582986 
1502	 0.338011043072361 
1503	 0.33849340763893 
1504	 0.338959763296174 
1505	 0.339410583950775 
1506	 0.339856832413199 
1507	 0.34028225851565 
1508	 0.340685884698351 
1509	 0.341073883874898 
1510	 0.341448492138445 
1511	 0.341801915753243 
1512	 0.342132066757408 
1513	 0.342448788958733 
1514	 0.342744634776655 
1515	 0.343031655707874 
1516	 0.343311328704891 
1517	 0.343568473079743 
1518	 0.343798956374451 
1519	 0.344029041450727 
1520	 0.344247642647669 
1521	 0.344454710643926 
1522	 0.344645636919515 
1523	 0.344831855889354 
1524	 0.345009590384544 
1525	 0.345163727656879 
1526	 0.345334184047058 
1527	 0.34551399128198 
1528	 0.345676562570007 
1529	 0.345830348488295 
1530	 0.345986985317236 
1531	 0.346138505215276 
1532	 0.346287524841148 
1533	 0.346430109682345 
1534	 0.34659188802479 
1535	 0.346746757080485 
1536	 0.346933882180742 
1537	 0.347142345196666 
1538	 0.34736697733738 
1539	 0.347609627264941 
1540	 0.347866558682834 
1541	 0.348138801358365 
1542	 0.34843565562787 
1543	 0.348750191193832 
1544	 0.349083298168164 
1545	 0.349447962921744 
1546	 0.349809040771504 
1547	 0.350189003441708 
1548	 0.350555772930872 
1549	 0.350912338507447 
1550	 0.351297423007243 
1551	 0.351693257350467 
1552	 0.352087309591839 
1553	 0.352504303391141 
1554	 0.352909517119365 
1555	 0.353311052786735 
1556	 0.353700315415033 
1557	 0.35408896507701 
1558	 0.354471260590412 
1559	 0.354834564642318 
1560	 0.355204379639989 
1561	 0.355575282313198 
1562	 0.355950102736434 
1563	 0.356324473493803 
1564	 0.356696898906623 
1565	 0.3570773417307 
1566	 0.357449012847489 
1567	 0.357817654517073 
1568	 0.358175095703535 
1569	 0.358525974963372 
1570	 0.358873009180171 
1571	 0.359214929760917 
1572	 0.359541966183094 
1573	 0.359853338146702 
1574	 0.360174779809608 
1575	 0.360485808767211 
1576	 0.360801828787581 
1577	 0.361125243055456 
1578	 0.361452862245672 
1579	 0.361782471968091 
1580	 0.362106825934098 
1581	 0.362430790239635 
1582	 0.362764363223748 
1583	 0.363097937541443 
1584	 0.36343170299103 
1585	 0.363780164394656 
1586	 0.364120132126575 
1587	 0.364453028741945 
1588	 0.364781552788436 
1589	 0.365110102161884 
1590	 0.365434060162836 
1591	 0.36575285474226 
1592	 0.366064592317059 
1593	 0.366363181172681 
1594	 0.366675521413572 
1595	 0.366993187225088 
1596	 0.367300434522705 
1597	 0.367602388270578 
1598	 0.36792041915028 
1599	 0.368247336768839 
1600	 0.368558709867986 
1601	 0.368884800853858 
1602	 0.369193348471944 
1603	 0.369479777589407 
1604	 0.369756365481353 
1605	 0.370022695360178 
1606	 0.370289927090549 
1607	 0.370546491971216 
1608	 0.370796737945887 
1609	 0.371047983971548 
1610	 0.371293178604511 
1611	 0.371529748720744 
1612	 0.371753969033206 
1613	 0.371981523883916 
1614	 0.372185686992594 
1615	 0.372367007562721 
1616	 0.372540107673968 
1617	 0.372698251125668 
1618	 0.372848299141418 
1619	 0.372987727856039 
1620	 0.373115248094122 
1621	 0.373226923647092 
1622	 0.37333656266468 
1623	 0.373438934798846 
1624	 0.373532208022471 
1625	 0.373607280899454 
1626	 0.373698889650002 
1627	 0.373789274862733 
1628	 0.373882514252367 
1629	 0.373996991106447 
1630	 0.374094535361546 
1631	 0.37417890036794 
1632	 0.374267194801957 
1633	 0.374336558764398 
1634	 0.374434525906385 
1635	 0.37454907498284 
1636	 0.374665230180826 
1637	 0.374812314245394 
1638	 0.374936390281149 
1639	 0.375057830205733 
1640	 0.375161969015153 
1641	 0.375255098732147 
1642	 0.375331717755948 
1643	 0.375413315812103 
1644	 0.375440507512041 
1645	 0.375446740484223 
1646	 0.375401262152322 
1647	 0.375303937933438 
1648	 0.375168311117009 
1649	 0.374996076285721 
1650	 0.374769879651679 
1651	 0.374490085710512 
1652	 0.374173308187845 
1653	 0.373798811033427 
1654	 0.373409020926839 
1655	 0.372977793497024 
1656	 0.372527540750901 
1657	 0.372060573766211 
1658	 0.371550141496486 
1659	 0.371005724767703 
1660	 0.370445241946707 
1661	 0.369852552024124 
1662	 0.369232966756312 
1663	 0.368608029798253 
1664	 0.367911788126007 
1665	 0.367172030727599 
1666	 0.366372497151962 
1667	 0.365500586532915 
1668	 0.364619068326705 
1669	 0.363682627613586 
1670	 0.362748785220622 
1671	 0.361760776245497 
1672	 0.360823883505439 
1673	 0.35991941262272 
1674	 0.358985080702629 
1675	 0.358089503035752 
1676	 0.357152878157735 
1677	 0.356172729829229 
1678	 0.355183207030866 
1679	 0.354182077657327 
1680	 0.353156508125192 
1681	 0.352113838430106 
1682	 0.351028923439255 
1683	 0.349939940436533 
1684	 0.348789252506089 
1685	 0.347594793846305 
1686	 0.346342708857545 
1687	 0.345022711760602 
1688	 0.343664996463518 
1689	 0.342253721394089 
1690	 0.340797567855513 
1691	 0.339324799655151 
1692	 0.337776819039724 
1693	 0.336174630510087 
1694	 0.334496898591043 
1695	 0.332722349103447 
1696	 0.330916281873679 
1697	 0.329037964513901 
1698	 0.327132624925975 
1699	 0.325182495722271 
1700	 0.323268329411096 
1701	 0.321303239453624 
1702	 0.319422177340084 
1703	 0.317540259947982 
1704	 0.315768192542582 
1705	 0.314045227969525 
1706	 0.312400265695594 
1707	 0.310936126100315 
1708	 0.30952615045028 
1709	 0.308211720717349 
1710	 0.307037360443041 
1711	 0.305881316799207 
1712	 0.30479052797096 
1713	 0.303728612515756 
1714	 0.302670242440764 
1715	 0.301707935326069 
1716	 0.300776492270528 
1717	 0.299913413195438 
1718	 0.299104455727845 
1719	 0.298290288645104 
1720	 0.297572442100237 
1721	 0.296930341530861 
1722	 0.296376880764067 
1723	 0.295985485987937 
1724	 0.295699647990078 
1725	 0.295549397769651 
1726	 0.295603617919604 
1727	 0.295846059516022 
1728	 0.296253562542673 
1729	 0.296851293343207 
1730	 0.297618341201734 
1731	 0.298458120632893 
1732	 0.299445175584461 
1733	 0.300478785296759 
1734	 0.301497420305602 
1735	 0.302522337356792 
1736	 0.303456303832169 
1737	 0.304279673464736 
1738	 0.304977220375088 
1739	 0.305513811558258 
1740	 0.305886523953788 
1741	 0.306157049565756 
1742	 0.306264636528775 
1743	 0.306314005710445 
1744	 0.306237405541953 
1745	 0.306128505121784 
1746	 0.305909666479655 
1747	 0.30573429002925 
1748	 0.305493364933382 
1749	 0.305352326400669 
1750	 0.305233174634449 
1751	 0.305209856816934 
1752	 0.305253027804208 
1753	 0.305378271577557 
1754	 0.30558094299016 
1755	 0.305866287388387 
1756	 0.306208339129021 
1757	 0.306666258322787 
1758	 0.307284348599531 
1759	 0.307987480229441 
1760	 0.308820685456038 
1761	 0.309801111637714 
1762	 0.310813485624642 
1763	 0.311973122419438 
1764	 0.313235041173628 
1765	 0.314539158356071 
1766	 0.315970913604379 
1767	 0.317407847972969 
1768	 0.318887456281756 
1769	 0.320370783473416 
1770	 0.321716806133466 
1771	 0.32304085178351 
1772	 0.324293640586845 
1773	 0.325455226847629 
1774	 0.326627523527272 
1775	 0.327684028379811 
1776	 0.328681193315189 
1777	 0.329641770654864 
1778	 0.330488070902539 
1779	 0.331317351727853 
1780	 0.332088095899925 
1781	 0.332801907748467 
1782	 0.33352094816831 
1783	 0.334173662352468 
1784	 0.334777666092822 
1785	 0.335303899682585 
1786	 0.33581202934334 
1787	 0.336300978685701 
1788	 0.336760424347437 
1789	 0.337181832603556 
1790	 0.337586700760839 
1791	 0.337955601179761 
1792	 0.338325715172064 
1793	 0.338666888582505 
1794	 0.339043083566381 
1795	 0.339387904589363 
1796	 0.339707288563488 
1797	 0.34005073175893 
1798	 0.340374077175959 
1799	 0.3407277739263 
1800	 0.341114049201621 
1801	 0.334363799772018 
1802	 0.334771826032276 
1803	 0.335151849821077 
1804	 0.335533054048234 
1805	 0.335934424715104 
1806	 0.336280656174512 
1807	 0.336590753049715 
1808	 0.336917576629185 
1809	 0.337226402858081 
1810	 0.337531468398122 
1811	 0.337825342083859 
1812	 0.338146665396858 
1813	 0.338473525601166 
1814	 0.338794282556754 
1815	 0.339138892460072 
1816	 0.339503914791008 
1817	 0.339858148716389 
1818	 0.340199491523991 
1819	 0.340557768005396 
1820	 0.34093052395119 
1821	 0.341294770941174 
1822	 0.341657375174393 
1823	 0.342034151911741 
1824	 0.342379950920093 
1825	 0.342740244327282 
1826	 0.343096415426662 
1827	 0.343443783029835 
1828	 0.343785375134926 
1829	 0.344138548443564 
1830	 0.344471275006039 
1831	 0.344779809598309 
1832	 0.345110444135164 
1833	 0.345417451464678 
1834	 0.345711141099282 
1835	 0.346016532807069 
1836	 0.346311861487434 
1837	 0.34660498079872 
1838	 0.346895086779047 
1839	 0.347193864624161 
1840	 0.347492020511761 
1841	 0.347781110096713 
1842	 0.348071906716982 
1843	 0.348377624219396 
1844	 0.348647298967976 
1845	 0.348900783818226 
1846	 0.34915676649101 
1847	 0.349368915056466 
1848	 0.349576575310891 
1849	 0.349783638946073 
1850	 0.349953305072245 
1851	 0.350104930106322 
1852	 0.350234122139407 
1853	 0.350300082543262 
1854	 0.350325759975745 
1855	 0.350315059546185 
1856	 0.350265875942568 
1857	 0.350224555490336 
1858	 0.350134380543957 
1859	 0.349990457100968 
1860	 0.349823618487539 
1861	 0.349583226929142 
1862	 0.349270104137792 
1863	 0.348932360044595 
1864	 0.348538624130422 
1865	 0.348100868163511 
1866	 0.347626868870533 
1867	 0.347064890394758 
1868	 0.346474940295094 
1869	 0.345808984425577 
1870	 0.345108204967328 
1871	 0.344375187723837 
1872	 0.343604288597662 
1873	 0.342789302174319 
1874	 0.341948853413854 
1875	 0.341077394058438 
1876	 0.340052710770006 
1877	 0.339006558239835 
1878	 0.337839611834315 
1879	 0.336518853982646 
1880	 0.335221080145127 
1881	 0.333785914862362 
1882	 0.332219604358732 
1883	 0.330602123370857 
1884	 0.328918972292042 
1885	 0.326995652872805 
1886	 0.325044859415821 
1887	 0.322945771217822 
1888	 0.320669022334868 
1889	 0.318475160767686 
1890	 0.316123353790423 
1891	 0.313751120995677 
1892	 0.311419455227333 
1893	 0.308990577816086 
1894	 0.30643648093352 
1895	 0.303979782821165 
1896	 0.301496671881545 
1897	 0.298985718540751 
1898	 0.296704460116541 
1899	 0.294409042157182 
1900	 0.292178304060644 
1901	 0.290074950140639 
1902	 0.287889740522992 
1903	 0.285871350547509 
1904	 0.283931344726236 
1905	 0.282054555557126 
1906	 0.280260040686388 
1907	 0.278699142099719 
1908	 0.277129744781918 
1909	 0.27565882435508 
1910	 0.274312436128472 
1911	 0.272913086632896 
1912	 0.27161261064675 
1913	 0.270367796612331 
1914	 0.269144220883627 
1915	 0.268011181887653 
1916	 0.266984037717977 
1917	 0.265955200622958 
1918	 0.264969137212293 
1919	 0.264029828490498 
1920	 0.2630378899954 
1921	 0.262099907870668 
1922	 0.261179902731422 
1923	 0.260230907405319 
1924	 0.259365917014282 
1925	 0.258501913035259 
1926	 0.257660817428297 
1927	 0.256845575010469 
1928	 0.256055111013708 
1929	 0.25526405755259 
1930	 0.254534325736367 
1931	 0.253858102878726 
1932	 0.253226706329988 
1933	 0.252710990647865 
1934	 0.252253228972749 
1935	 0.251855139883916 
1936	 0.251560891676703 
1937	 0.251332995397037 
1938	 0.251162312401572 
1939	 0.251102771557241 
1940	 0.251138426782843 
1941	 0.251249223395268 
1942	 0.251433763019137 
1943	 0.251700662634196 
1944	 0.252011512212729 
1945	 0.252367136675294 
1946	 0.252843436743564 
1947	 0.253359826489183 
1948	 0.253957409332404 
1949	 0.254676211648121 
1950	 0.255421091556468 
1951	 0.256217119342978 
1952	 0.257095557095005 
1953	 0.25804320028178 
1954	 0.259036365944185 
1955	 0.260125794005957 
1956	 0.261210978549939 
1957	 0.262311009489413 
1958	 0.263394000434777 
1959	 0.264389095416152 
1960	 0.265358156244236 
1961	 0.266252275956306 
1962	 0.267077052339871 
1963	 0.26784682784 
1964	 0.268554649085548 
1965	 0.269196929592416 
1966	 0.269778094100128 
1967	 0.270304498414072 
1968	 0.270757287129683 
1969	 0.271210214670183 
1970	 0.271631012424266 
1971	 0.272048894913813 
1972	 0.272492453685887 
1973	 0.272950727380835 
1974	 0.273428257173231 
1975	 0.273935800613552 
1976	 0.274441080988657 
1977	 0.274947788399804 
1978	 0.275486538452326 
1979	 0.2760420442518 
1980	 0.276607107192524 
1981	 0.277230213182839 
1982	 0.277826734505845 
1983	 0.278444285226667 
1984	 0.27910411969679 
1985	 0.279741062384417 
1986	 0.28044160196007 
1987	 0.281166887804589 
1988	 0.281896992396424 
1989	 0.282701089772508 
1990	 0.283554018505592 
1991	 0.284446362978959 
1992	 0.285393273773443 
1993	 0.286416850355434 
1994	 0.287389948051012 
1995	 0.288429326282216 
1996	 0.289454685472794 
1997	 0.290446782975886 
1998	 0.291461496948085 
1999	 0.292507259153514 
2000	 0.293488157310022 
2001	 0.294494643528163 
2002	 0.295397416256568 
2003	 0.296239307625971 
2004	 0.297035733250698 
2005	 0.297751281230342 
2006	 0.298437807643558 
2007	 0.299097685598344 
2008	 0.299692312917826 
2009	 0.300229069830251 
2010	 0.300726377735204 
2011	 0.301127785843111 
2012	 0.301493321203026 
2013	 0.301812606032631 
2014	 0.302079442487773 
2015	 0.302298817665053 
2016	 0.302473945083838 
2017	 0.302598426772282 
2018	 0.302663621818136 
2019	 0.302687210006551 
2020	 0.302666738524049 
2021	 0.302600375374793 
2022	 0.302470871895218 
2023	 0.30233443709356 
2024	 0.302143459503494 
2025	 0.301902502991759 
2026	 0.30163576679041 
2027	 0.301318963997803 
2028	 0.300994994801145 
2029	 0.300639452777075 
2030	 0.300271142645071 
2031	 0.299885370395193 
2032	 0.299479883669337 
2033	 0.299033185994538 
2034	 0.298611149953259 
2035	 0.298178624305187 
2036	 0.297749513624741 
2037	 0.297357857600162 
2038	 0.296945183892832 
2039	 0.296550310450717 
2040	 0.296160659383914 
2041	 0.295784849742227 
2042	 0.29542079981671 
2043	 0.295066724584902 
2044	 0.294718689808473 
2045	 0.294388209122672 
2046	 0.29406707377955 
2047	 0.293760246788907 
2048	 0.293464621641536 
2049	 0.293196092603248 
2050	 0.292939312849087 
2051	 0.292708110192439 
2052	 0.292520836618947 
2053	 0.292356172277083 
2054	 0.292213269271073 
2055	 0.292107902849918 
2056	 0.292004367760928 
2057	 0.29191554300492 
2058	 0.291844276354603 
2059	 0.291796074192185 
2060	 0.291747790523519 
2061	 0.291698237533128 
2062	 0.291682619073899 
2063	 0.291678563326979 
2064	 0.291700696472815 
2065	 0.291758107383571 
2066	 0.291838925008399 
2067	 0.291913796594852 
2068	 0.291987881025209 
2069	 0.292063349244255 
2070	 0.292135731499507 
2071	 0.29222071312217 
2072	 0.29232012132012 
2073	 0.292404739123979 
2074	 0.292506572431647 
2075	 0.292571728843473 
2076	 0.292617876208202 
2077	 0.292647703638871 
2078	 0.292661703567569 
2079	 0.292652224606724 
2080	 0.292624250723353 
2081	 0.292577660784244 
2082	 0.292516425366588 
2083	 0.292425238722929 
2084	 0.292292473464509 
2085	 0.292144635176582 
2086	 0.291978578327194 
2087	 0.291766781187076 
2088	 0.29157191726209 
2089	 0.291386175158135 
2090	 0.291167620927182 
2091	 0.290931308612286 
2092	 0.290686512781761 
2093	 0.290424063830604 
2094	 0.290146603738884 
2095	 0.289847909360638 
2096	 0.289550863190188 
2097	 0.289244504844263 
2098	 0.288926021128576 
2099	 0.288612136908337 
2100	 0.288300562667597 
2101	 0.287930053618208 
2102	 0.287517785882144 
2103	 0.287116513050891 
2104	 0.286673248916115 
2105	 0.286255022759095 
2106	 0.285873375205065 
2107	 0.285429821030353 
2108	 0.284975453629341 
2109	 0.28447602427652 
2110	 0.283924284214295 
2111	 0.283367981800302 
2112	 0.282762105668409 
2113	 0.282174417760993 
2114	 0.281591348758741 
2115	 0.280987098034871 
2116	 0.280379958381714 
2117	 0.279774107615299 
2118	 0.279121621646745 
2119	 0.278434063577555 
2120	 0.277754218617176 
2121	 0.27703046934876 
2122	 0.27635086437278 
2123	 0.275683485978329 
2124	 0.275022071401221 
2125	 0.274391204866821 
2126	 0.273738274182154 
2127	 0.273073848358543 
2128	 0.272422407568996 
2129	 0.271751457549252 
2130	 0.271112669964697 
2131	 0.270500905697976 
2132	 0.269891232226901 
2133	 0.269297972433746 
2134	 0.26870632396714 
2135	 0.268112533752639 
2136	 0.267577696282594 
2137	 0.267074212723819 
2138	 0.266595658010575 
2139	 0.266174592082132 
2140	 0.265803128275146 
2141	 0.265459226893895 
2142	 0.265163851465889 
2143	 0.264893129796213 
2144	 0.26465035181724 
2145	 0.264452441890315 
2146	 0.264304930945612 
2147	 0.264165895403931 
2148	 0.264055766175854 
2149	 0.263975232325597 
2150	 0.263913625028038 
2151	 0.26388424504988 
2152	 0.263903846714368 
2153	 0.263931219604214 
2154	 0.263978326787267 
2155	 0.264031398919132 
2156	 0.264110792726617 
2157	 0.264206803427505 
2158	 0.264331749232548 
2159	 0.264477201863434 
2160	 0.264650962943676 
2161	 0.264867869003836 
2162	 0.265063749916224 
2163	 0.265278260720306 
2164	 0.265491332994514 
2165	 0.265697979603274 
2166	 0.265908789876616 
2167	 0.266128481876355 
2168	 0.266349893311702 
2169	 0.266562999587848 
2170	 0.266789689623873 
2171	 0.267023297264335 
2172	 0.267271931686462 
2173	 0.267527698174802 
2174	 0.267805068231915 
2175	 0.268072050328855 
2176	 0.268343383098951 
2177	 0.268624923449416 
2178	 0.268913978350214 
2179	 0.269175589787207 
2180	 0.269457092063958 
2181	 0.269688532191413 
2182	 0.269889801072637 
2183	 0.270060783895481 
2184	 0.270207560872635 
2185	 0.27032015510047 
2186	 0.270388217465066 
2187	 0.270440955372374 
2188	 0.270465824249109 
2189	 0.270476474130537 
2190	 0.270459576308685 
2191	 0.270433790242445 
2192	 0.270400785142377 
2193	 0.270340661348958 
2194	 0.270261423905061 
2195	 0.27015775588338 
2196	 0.270027579744611 
2197	 0.269872633852401 
2198	 0.269713194307837 
2199	 0.269529951958236 
2200	 0.269314803288583 
2201	 0.269086435239323 
2202	 0.26880683078355 
2203	 0.268470812811516 
2204	 0.268145115998257 
2205	 0.267776961702276 
2206	 0.267434585252553 
2207	 0.267080744885573 
2208	 0.266766711618609 
2209	 0.266454183618357 
2210	 0.266191248410878 
2211	 0.265993079740353 
2212	 0.265767400593185 
2213	 0.265565698855762 
2214	 0.265349174946176 
2215	 0.265130867702469 
2216	 0.264891785986511 
2217	 0.264668489034167 
2218	 0.264398649937087 
2219	 0.264074151729124 
2220	 0.263760874878444 
2221	 0.26344083409913 
2222	 0.263086350992002 
2223	 0.26276859860168 
2224	 0.262392965498769 
2225	 0.261936983723338 
2226	 0.261450241567678 
2227	 0.260884899152344 
2228	 0.260249620408307 
2229	 0.259549623556733 
2230	 0.258776167821491 
2231	 0.257960498710284 
2232	 0.25709548353155 
2233	 0.256125108136742 
2234	 0.255119258226146 
2235	 0.253973040341946 
2236	 0.252673800469643 
2237	 0.251354338714424 
2238	 0.249936896545899 
2239	 0.248476302929842 
2240	 0.246978477538514 
2241	 0.245386727586685 
2242	 0.243768645216454 
2243	 0.241984779676577 
2244	 0.24006311888301 
2245	 0.238082975888572 
2246	 0.235883289092642 
2247	 0.233752336770907 
2248	 0.231631490714589 
2249	 0.22944363514936 
2250	 0.227225055272443 
2251	 0.22502410109356 
2252	 0.222626662446231 
2253	 0.220303076733286 
2254	 0.217979537975766 
2255	 0.215619379407393 
2256	 0.213451556253134 
2257	 0.211261282180967 
2258	 0.209128460778644 
2259	 0.207074569865793 
2260	 0.205006362879182 
2261	 0.202921414508642 
2262	 0.20096207416477 
2263	 0.199026158801059 
2264	 0.197198334889679 
2265	 0.195518803946263 
2266	 0.193800130409285 
2267	 0.192151588947199 
2268	 0.190475461150699 
2269	 0.188773238553152 
2270	 0.187148633231399 
2271	 0.185528874299683 
2272	 0.183980985049293 
2273	 0.182539932672881 
2274	 0.18105767856082 
2275	 0.179644583679121 
2276	 0.178154769856292 
2277	 0.176622057664381 
2278	 0.175098764212854 
2279	 0.173506532077811 
2280	 0.171950696834928 
2281	 0.170461211574474 
2282	 0.168883429303941 
2283	 0.167258350600466 
2284	 0.165683970946214 
2285	 0.163919227578392 
2286	 0.162185891982895 
2287	 0.160429409525527 
2288	 0.158574240695821 
2289	 0.156797216308816 
2290	 0.154977647887785 
2291	 0.153195025233186 
2292	 0.151417246671995 
2293	 0.149566992812398 
2294	 0.147811079117481 
2295	 0.146110450763138 
2296	 0.144483401124722 
2297	 0.143086282024415 
2298	 0.141857615839806 
2299	 0.1408322727998 
2300	 0.13998110468383 
2301	 0.139379449158686 
2302	 0.138991632299214 
2303	 0.138853748761268 
2304	 0.138971176216159 
2305	 0.139311118031253 
2306	 0.139935120532267 
2307	 0.14072343789286 
2308	 0.141738122702869 
2309	 0.14294172370833 
2310	 0.144410416120941 
2311	 0.145947727644981 
2312	 0.147784814278734 
2313	 0.149508888524138 
2314	 0.151331338217625 
2315	 0.153069958161048 
2316	 0.154807064217259 
2317	 0.156428306832803 
2318	 0.158081086124961 
2319	 0.159453948158539 
2320	 0.160703902468218 
2321	 0.161716168715287 
2322	 0.162437136193254 
2323	 0.163056642278372 
2324	 0.163495945144834 
2325	 0.163778617228366 
2326	 0.163909382287098 
2327	 0.163858269767555 
2328	 0.163531586555572 
2329	 0.163175620852104 
2330	 0.162698362806539 
2331	 0.162103327337682 
2332	 0.161407471769643 
2333	 0.16060161132924 
2334	 0.159565259698095 
2335	 0.158406582445578 
2336	 0.157191458740619 
2337	 0.155900184077607 
2338	 0.154630048920496 
2339	 0.153340233566003 
2340	 0.152093333035696 
2341	 0.150905607469139 
2342	 0.149769570183071 
2343	 0.148892034270752 
2344	 0.148224352932639 
2345	 0.147751083569539 
2346	 0.14755812104048 
2347	 0.147646246134823 
2348	 0.147955300203708 
2349	 0.148612430174385 
2350	 0.149533581796029 
2351	 0.150569511139821 
2352	 0.151781549820788 
2353	 0.153100438249356 
2354	 0.154310539896308 
2355	 0.155442503124492 
2356	 0.15648119497512 
2357	 0.157330793532499 
2358	 0.158117909819783 
2359	 0.158785228127845 
2360	 0.159303041450993 
2361	 0.159633003474592 
2362	 0.159790555857609 
2363	 0.159888883557361 
2364	 0.159893304505662 
2365	 0.159825777405976 
2366	 0.159787299708372 
2367	 0.159741634189158 
2368	 0.159679187269283 
2369	 0.159618128539997 
2370	 0.159557325433793 
2371	 0.159509837989447 
2372	 0.159441336658954 
2373	 0.159393891790504 
2374	 0.159386389015151 
2375	 0.159349574112863 
2376	 0.159299210038644 
2377	 0.159240977468793 
2378	 0.159184409634921 
2379	 0.159164199646246 
2380	 0.159158519041535 
2381	 0.159200749626972 
2382	 0.159264454391232 
2383	 0.1593416818224 
2384	 0.159445405100847 
2385	 0.159643734474662 
2386	 0.159701697869501 
2387	 0.159677673530972 
2388	 0.159715802985195 
2389	 0.159707973954192 
2390	 0.159736326902043 
2391	 0.159852205742634 
2392	 0.159884367628048 
2393	 0.159833756685584 
2394	 0.159830735564654 
2395	 0.1598930171465 
2396	 0.159822813542569 
2397	 0.159700946736112 
2398	 0.159559667255758 
2399	 0.159270609988402 
2400	 0.159123439031014 
2401	 0.159048640158124 
2402	 0.158949384016527 
2403	 0.15885884153805 
2404	 0.158741597316534 
2405	 0.158669879273285 
2406	 0.158649540375006 
2407	 0.158601351636442 
2408	 0.158572429080872 
2409	 0.158562518023701 
2410	 0.158555327254055 
2411	 0.158595908115105 
2412	 0.158712683958717 
2413	 0.158826926286094 
2414	 0.158898483630778 
2415	 0.159012176416136 
2416	 0.159126932165215 
2417	 0.159190841365542 
2418	 0.1592941761169 
2419	 0.15944267887917 
2420	 0.159419806506063 
2421	 0.159362026583272 
2422	 0.15940667123428 
2423	 0.159334435128793 
2424	 0.159259674267927 
2425	 0.159279958607093 
2426	 0.159239215693663 
2427	 0.159169238635081 
2428	 0.159127221717183 
2429	 0.159109578825438 
2430	 0.159058295052644 
2431	 0.15894865142998 
2432	 0.158883568550894 
2433	 0.158753574302262 
2434	 0.15857931288054 
2435	 0.158424458780577 
2436	 0.15823730096553 
2437	 0.158087607134296 
2438	 0.157834947625626 
2439	 0.157573213021648 
2440	 0.157390118512272 
2441	 0.157180345407593 
2442	 0.157078095528298 
2443	 0.156984132646474 
2444	 0.156840360882339 
2445	 0.156527786002032 
2446	 0.156084141140117 
2447	 0.155725826552827 
2448	 0.155336485235135 
2449	 0.155138148746614 
2450	 0.155034022631306 
2451	 0.154758710924007 
2452	 0.154476104875067 
2453	 0.154091775108659 
2454	 0.153726991083324 
2455	 0.153520549804589 
2456	 0.153230319096104 
2457	 0.152913159374163 
2458	 0.152605633099881 
2459	 0.152246236063035 
2460	 0.151936503435329 
2461	 0.151606591472119 
2462	 0.151389223204512 
2463	 0.151257606771309 
2464	 0.151120559439672 
2465	 0.151210936638991 
2466	 0.151219047703658 
2467	 0.150924767797548 
2468	 0.150736715681554 
2469	 0.150559682501504 
2470	 0.150211659222409 
2471	 0.150107841017148 
2472	 0.150037172571776 
2473	 0.149989894754586 
2474	 0.150170979886213 
2475	 0.15015776545358 
2476	 0.150118054345957 
2477	 0.1499604556635 
2478	 0.149635481545823 
2479	 0.149613656353899 
2480	 0.149634047766164 
2481	 0.149719720319088 
2482	 0.150040729224313 
2483	 0.14996689669303 
2484	 0.150038581259595 
2485	 0.150378444140763 
2486	 0.150479825013152 
2487	 0.150665425546437 
2488	 0.150811925033703 
2489	 0.150732422856241 
2490	 0.150863572958671 
2491	 0.151051283016141 
2492	 0.151161842283495 
2493	 0.151336594733132 
2494	 0.151440340774379 
2495	 0.151718620738322 
2496	 0.152464192702041 
2497	 0.15306143193549 
2498	 0.153343692631719 
2499	 0.153764793829443 
2500	 0.154166667783553 
