Wavelength	spectrum00012.asd
350	 5.25680611492001E-02 
351	 0.050513571994216 
352	 4.89457806757227E-02 
353	 4.83069242078989E-02 
354	 4.64599903691352E-02 
355	 4.67584640140698E-02 
356	 4.73235866081037E-02 
357	 4.61833774563647E-02 
358	 4.44037314359373E-02 
359	 0.043473299162719 
360	 4.36378595838419E-02 
361	 4.42504190262406E-02 
362	 0.043686742528122 
363	 0.04324704066066 
364	 4.30490174928204E-02 
365	 4.12420597118644E-02 
366	 4.29041620544304E-02 
367	 0.044356029751974 
368	 4.23689920732265E-02 
369	 4.21072799005799E-02 
370	 4.23553098290431E-02 
371	 4.21598742897092E-02 
372	 4.10130744902626E-02 
373	 4.07074558540047E-02 
374	 4.14158564412226E-02 
375	 4.25088188817929E-02 
376	 4.25546776237618E-02 
377	 4.26455194015114E-02 
378	 4.19387162315554E-02 
379	 4.02614993898657E-02 
380	 4.14690801078719E-02 
381	 4.18838208165949E-02 
382	 4.08689343813277E-02 
383	 3.99316125124412E-02 
384	 4.10400446459973E-02 
385	 0.042220102039793 
386	 4.20613956193991E-02 
387	 4.06361699959088E-02 
388	 4.05008561127375E-02 
389	 4.07800181013452E-02 
390	 4.02701597073479E-02 
391	 4.04591854385053E-02 
392	 4.05612551187505E-02 
393	 4.04826624739266E-02 
394	 4.05574128327717E-02 
395	 4.00379805451773E-02 
396	 0.040324221362684 
397	 4.13437812007627E-02 
398	 4.00912619090467E-02 
399	 4.02122976948052E-02 
400	 0.040761322643387 
401	 4.01541877727048E-02 
402	 4.00578474407012E-02 
403	 0.040004697782455 
404	 3.99205436270171E-02 
405	 4.00446832880056E-02 
406	 4.00954646592974E-02 
407	 3.97399737693567E-02 
408	 0.039152735170912 
409	 3.95271647901864E-02 
410	 3.96050419907522E-02 
411	 0.039529301001338 
412	 3.97413316462698E-02 
413	 3.97818477964665E-02 
414	 3.94144226273908E-02 
415	 3.89547218652107E-02 
416	 3.91325892159864E-02 
417	 3.91253340094296E-02 
418	 3.90651233441183E-02 
419	 3.91201840025134E-02 
420	 0.039149643846061 
421	 3.90375634026544E-02 
422	 3.89010047240644E-02 
423	 3.89069219762459E-02 
424	 3.88393261664237E-02 
425	 0.038774749397215 
426	 3.87816762571889E-02 
427	 3.88916166002432E-02 
428	 3.89450614625774E-02 
429	 3.89105414687894E-02 
430	 3.87865858513271E-02 
431	 3.84919430038516E-02 
432	 3.86184073432691E-02 
433	 3.88152377706445E-02 
434	 0.038363612772837 
435	 3.84517274738721E-02 
436	 0.038689433375067 
437	 3.87460424665013E-02 
438	 3.86684121587874E-02 
439	 3.85082063290301E-02 
440	 0.038452099057478 
441	 3.86109693637973E-02 
442	 3.86602541741592E-02 
443	 3.86036838343474E-02 
444	 3.85390114968711E-02 
445	 3.86102800875354E-02 
446	 3.86100216977356E-02 
447	 0.038483819518332 
448	 3.82984616682179E-02 
449	 3.83168217953209E-02 
450	 3.84751616004693E-02 
451	 3.86117957498704E-02 
452	 3.85611963841592E-02 
453	 3.84307739246734E-02 
454	 3.83455282306955E-02 
455	 3.83415123979353E-02 
456	 3.83544976056132E-02 
457	 3.84533240476649E-02 
458	 3.84633483668035E-02 
459	 3.83137918217953E-02 
460	 3.84018028168925E-02 
461	 3.84409787074992E-02 
462	 3.83463568682797E-02 
463	 3.81894028131167E-02 
464	 3.83310134828272E-02 
465	 3.84058178671129E-02 
466	 3.82646436267911E-02 
467	 3.82161737106831E-02 
468	 0.038185782914083 
469	 3.81634954157588E-02 
470	 3.81682851283233E-02 
471	 3.83136691213878E-02 
472	 3.82931358076533E-02 
473	 3.81596502203633E-02 
474	 3.82363771101655E-02 
475	 3.82200817326522E-02 
476	 3.81737405646034E-02 
477	 3.81697956332401E-02 
478	 3.81698825396804E-02 
479	 3.81777762004838E-02 
480	 3.82027522415023E-02 
481	 3.82335741237211E-02 
482	 3.80975749553037E-02 
483	 3.81134403113425E-02 
484	 3.82910093939131E-02 
485	 3.82569944104322E-02 
486	 3.82640767934829E-02 
487	 3.82474583523404E-02 
488	 3.81584516426459E-02 
489	 3.82168379956925E-02 
490	 3.82957634167228E-02 
491	 3.83386823137043E-02 
492	 0.038335232650372 
493	 3.82697842724472E-02 
494	 0.038251351652567 
495	 3.83333312874741E-02 
496	 3.84670707054053E-02 
497	 3.84905864655072E-02 
498	 3.84390070255554E-02 
499	 3.84106086816025E-02 
500	 3.84504549970613E-02 
501	 3.84896513248529E-02 
502	 3.84840546135189E-02 
503	 3.84256148522173E-02 
504	 3.84744540675916E-02 
505	 3.85537645108747E-02 
506	 3.85723225119995E-02 
507	 0.038504726698539 
508	 3.84750032667655E-02 
509	 3.84791936462388E-02 
510	 3.84628573964714E-02 
511	 3.84644698509188E-02 
512	 3.85370060391197E-02 
513	 3.86510304475797E-02 
514	 3.86731473729313E-02 
515	 3.86756790457815E-02 
516	 3.86876238777994E-02 
517	 3.87171427314399E-02 
518	 3.87360177132856E-02 
519	 0.038750512451704 
520	 0.038788621120012 
521	 3.88809607824718E-02 
522	 3.89107982357086E-02 
523	 3.88897715325578E-02 
524	 3.88804676501474E-02 
525	 3.90194443893909E-02 
526	 0.039093708720012 
527	 3.91357768718467E-02 
528	 3.92386642521567E-02 
529	 3.92976984635996E-02 
530	 3.93369030054244E-02 
531	 3.93862853425544E-02 
532	 3.94716656601068E-02 
533	 0.039554216482818 
534	 3.96355898929742E-02 
535	 3.97204537229122E-02 
536	 0.039793533545727 
537	 3.98711370753649E-02 
538	 0.039981650676477 
539	 4.01449504387227E-02 
540	 4.02419991348036E-02 
541	 4.03625737749561E-02 
542	 4.05401803658854E-02 
543	 4.06780554433317E-02 
544	 4.08326024984822E-02 
545	 4.09875616415559E-02 
546	 4.11307887343575E-02 
547	 0.041370682052369 
548	 4.15904772254875E-02 
549	 4.17815462389947E-02 
550	 4.20355273054129E-02 
551	 4.22914440483795E-02 
552	 0.042571858499335 
553	 4.28877801278115E-02 
554	 4.31767788962827E-02 
555	 4.35151095220219E-02 
556	 4.39302335597642E-02 
557	 4.44145779212633E-02 
558	 4.49015323851572E-02 
559	 4.54313180348532E-02 
560	 4.60059617080884E-02 
561	 4.65601670252605E-02 
562	 4.71781401122407E-02 
563	 4.78617980629763E-02 
564	 4.85787659796842E-02 
565	 4.92591344549749E-02 
566	 5.00071994888252E-02 
567	 5.08280681585595E-02 
568	 5.16537593255428E-02 
569	 5.25523492760601E-02 
570	 5.34620811555755E-02 
571	 5.43617447956646E-02 
572	 5.53551375394258E-02 
573	 5.64090790145695E-02 
574	 5.75054964678572E-02 
575	 5.86376820736218E-02 
576	 5.98483765451118E-02 
577	 6.10851311498973E-02 
578	 6.23428975509613E-02 
579	 6.36726206535802E-02 
580	 6.50028579803397E-02 
581	 0.06636997413251 
582	 6.78208208645201E-02 
583	 0.069350488883831 
584	 7.09431411781365E-02 
585	 0.072561812128276 
586	 7.41718695232491E-02 
587	 7.58464634348424E-02 
588	 7.75433633372345E-02 
589	 7.92551898031556E-02 
590	 8.10570309418318E-02 
591	 8.28142682591874E-02 
592	 8.45267365273054E-02 
593	 8.62378280510148E-02 
594	 8.79722150080508E-02 
595	 8.96892449473661E-02 
596	 9.14010700482315E-02 
597	 9.31543555309957E-02 
598	 9.48042015732927E-02 
599	 9.64800189780662E-02 
600	 9.82557067410157E-02 
601	 9.99396247949627E-02 
602	 0.101603200649702 
603	 0.103241795002531 
604	 0.104826096501183 
605	 0.106393790820044 
606	 0.10791157031049 
607	 0.109378673173221 
608	 0.110838935461664 
609	 0.112173691191426 
610	 0.113458293923093 
611	 0.114775906013602 
612	 0.116057656415999 
613	 0.117259635544661 
614	 0.118403645220337 
615	 0.119547822868381 
616	 0.120593454524778 
617	 0.121623797473577 
618	 0.122681613880785 
619	 0.123701334948296 
620	 0.124654179674868 
621	 0.125567655579405 
622	 0.126476767058648 
623	 0.127337592719012 
624	 0.12816673355136 
625	 0.128977311664768 
626	 0.129776650174711 
627	 0.130538050312762 
628	 0.131281191507105 
629	 0.13201695667725 
630	 0.132710573244125 
631	 0.133372641027881 
632	 0.13403974662118 
633	 0.134743049260279 
634	 0.135393720721795 
635	 0.136036272791154 
636	 0.136693510275914 
637	 0.13734360857406 
638	 0.138001620274024 
639	 0.138631753412259 
640	 0.139214970563701 
641	 0.139822585351534 
642	 0.140441308580796 
643	 0.141064313767632 
644	 0.141689074141681 
645	 0.142310360512597 
646	 0.142954699913761 
647	 0.143622762957675 
648	 0.144269396027871 
649	 0.144887145034029 
650	 0.145492725953858 
651	 0.146109782503668 
652	 0.146742873206879 
653	 0.147434180045538 
654	 0.148154868157201 
655	 0.148825042684746 
656	 0.149500003400523 
657	 0.150206634621403 
658	 0.150934221145095 
659	 0.1515965497942 
660	 0.152318160088747 
661	 0.153094470113485 
662	 0.153875607585918 
663	 0.154666895333528 
664	 0.155420365249042 
665	 0.15615549467521 
666	 0.156957801036808 
667	 0.157778489621801 
668	 0.158619856152222 
669	 0.159486404449607 
670	 0.160371935529474 
671	 0.161233218624629 
672	 0.162111408547043 
673	 0.163071445645709 
674	 0.164040863769459 
675	 0.164977456462307 
676	 0.165885429523574 
677	 0.166819292634859 
678	 0.167819942248309 
679	 0.168849831405529 
680	 0.169858603885622 
681	 0.170813929382005 
682	 0.17184517322867 
683	 0.172931675545267 
684	 0.173976869779921 
685	 0.175026342792296 
686	 0.17610454477333 
687	 0.177221010698789 
688	 0.17836927653789 
689	 0.179492401192367 
690	 0.180602267867657 
691	 0.181730922242156 
692	 0.182896540162973 
693	 0.184100432588617 
694	 0.18531458652833 
695	 0.186495893159523 
696	 0.187657706890525 
697	 0.188834110313763 
698	 0.190037086044764 
699	 0.191237724917915 
700	 0.19247024990815 
701	 0.193692901450465 
702	 0.194876421317332 
703	 0.196120180787713 
704	 0.197360952010919 
705	 0.198578036920248 
706	 0.199788288995411 
707	 0.20103306943134 
708	 0.202258090832357 
709	 0.20343922579506 
710	 0.204622753202444 
711	 0.205818449670617 
712	 0.207012742486699 
713	 0.208190869879331 
714	 0.209380513578236 
715	 0.210515893846238 
716	 0.211608867457931 
717	 0.212721371150821 
718	 0.213807511918273 
719	 0.214876319559298 
720	 0.215916998602197 
721	 0.216865804902324 
722	 0.217864330049554 
723	 0.218883548915118 
724	 0.219843720486524 
725	 0.220701146525233 
726	 0.221557764601759 
727	 0.222411149569978 
728	 0.223188790166548 
729	 0.223969000295373 
730	 0.224660932842809 
731	 0.225251624333165 
732	 0.2258898090082 
733	 0.226475796717853 
734	 0.227008355990553 
735	 0.22750209992794 
736	 0.227915459346631 
737	 0.228318830951789 
738	 0.228693054943334 
739	 0.228972598397245 
740	 0.22928219718113 
741	 0.229485928977554 
742	 0.229544966465587 
743	 0.229608543889798 
744	 0.22967036093651 
745	 0.229751248554275 
746	 0.229827755156242 
747	 0.229725209731544 
748	 0.229573894006394 
749	 0.229432207476425 
750	 0.229296125759174 
751	 0.229048903658563 
752	 0.228755796794454 
753	 0.228450143526618 
754	 0.228098633597491 
755	 0.227700196822308 
756	 0.227292518973524 
757	 0.226888084214348 
758	 0.226405216039804 
759	 0.225863139536526 
760	 0.225305296369813 
761	 0.224769338136969 
762	 0.224168372175428 
763	 0.223537355134419 
764	 0.222901777639525 
765	 0.222264304992372 
766	 0.221633564681214 
767	 0.220937851256404 
768	 0.220163338027657 
769	 0.219460101206932 
770	 0.218759227288878 
771	 0.218026302485255 
772	 0.217241752508217 
773	 0.216402345664076 
774	 0.215591773863224 
775	 0.21481001966035 
776	 0.213989192720521 
777	 0.213153468494015 
778	 0.212340778545618 
779	 0.211541879176927 
780	 0.210667062625602 
781	 0.209817728777881 
782	 0.208984888858132 
783	 0.20814255771646 
784	 0.207324153885536 
785	 0.206511447452036 
786	 0.205687968014107 
787	 0.204845155263655 
788	 0.20400616958324 
789	 0.20320688074027 
790	 0.202419905862813 
791	 0.201549700201538 
792	 0.20072320043552 
793	 0.199927518239217 
794	 0.199136860969167 
795	 0.198374800448576 
796	 0.197571799539777 
797	 0.196762101481488 
798	 0.196001269516759 
799	 0.195237209313043 
800	 0.194502171715697 
801	 0.19378484709964 
802	 0.193044974639281 
803	 0.192324597908401 
804	 0.191601127373701 
805	 0.190874197435744 
806	 0.19018671580516 
807	 0.189523315037754 
808	 0.188858216622299 
809	 0.188182183662348 
810	 0.187541734194994 
811	 0.186918642375104 
812	 0.186305944117519 
813	 0.185701009030837 
814	 0.185101338221851 
815	 0.184532526798178 
816	 0.183981672106942 
817	 0.183408371999031 
818	 0.182881338401364 
819	 0.182333725282738 
820	 0.181743271977557 
821	 0.181191540852936 
822	 0.180656470594255 
823	 0.180169482402186 
824	 0.17974565174051 
825	 0.179318519129179 
826	 0.178891928348598 
827	 0.178448413198618 
828	 0.177980077583325 
829	 0.17757044975675 
830	 0.177162204111614 
831	 0.176764838343669 
832	 0.176442911785033 
833	 0.176121328211003 
834	 0.175769121226346 
835	 0.175392156652714 
836	 0.175038776761222 
837	 0.174740049443738 
838	 0.174460613124542 
839	 0.174172121706998 
840	 0.173921895473521 
841	 0.173654135459621 
842	 0.17338646235347 
843	 0.173156135860986 
844	 0.172935592032924 
845	 0.17273970782141 
846	 0.172558943043634 
847	 0.172367703249293 
848	 0.172173436572017 
849	 0.171998258254937 
850	 0.171843014398443 
851	 0.171683349224026 
852	 0.17158613848628 
853	 0.171522047362638 
854	 0.171451293972209 
855	 0.17135745111048 
856	 0.171266108074859 
857	 0.171205783007577 
858	 0.171189566242806 
859	 0.171178973955401 
860	 0.171162763757991 
861	 0.17114928528199 
862	 0.17115638119632 
863	 0.171187308108852 
864	 0.171219244107209 
865	 0.171242311351701 
866	 0.171259096375691 
867	 0.171240158667251 
868	 0.17131522071847 
869	 0.171496130369981 
870	 0.171612545526983 
871	 0.171735269495124 
872	 0.17185369386588 
873	 0.171971991998126 
874	 0.172159212579945 
875	 0.172363257490146 
876	 0.172538572923617 
877	 0.172680174870697 
878	 0.172907984639981 
879	 0.173156458162041 
880	 0.173389635300309 
881	 0.173602430312157 
882	 0.173863628861185 
883	 0.174098725570835 
884	 0.174342941067952 
885	 0.174696938569045 
886	 0.175025483407806 
887	 0.175335172520114 
888	 0.175656113764878 
889	 0.176019091580749 
890	 0.176350367037309 
891	 0.176659171484393 
892	 0.176992200960245 
893	 0.177427055198665 
894	 0.17787175365607 
895	 0.178288740087699 
896	 0.178682471617354 
897	 0.179117567055653 
898	 0.179611161605558 
899	 0.180093245210541 
900	 0.180513122939117 
901	 0.181008512548578 
902	 0.18154434592571 
903	 0.182101609646498 
904	 0.182667345314536 
905	 0.183215543919949 
906	 0.183809033416732 
907	 0.184432864240307 
908	 0.185023874956892 
909	 0.18563448794116 
910	 0.186227176067077 
911	 0.18682549044982 
912	 0.187510231718849 
913	 0.188194254142124 
914	 0.188886123525858 
915	 0.189599024966705 
916	 0.190332259734756 
917	 0.191041426831734 
918	 0.191785553262481 
919	 0.192604556543263 
920	 0.1934662082537 
921	 0.194187819623517 
922	 0.194903125617414 
923	 0.195745324595563 
924	 0.196622488610002 
925	 0.197471704694941 
926	 0.198313298321731 
927	 0.199189175885053 
928	 0.200098441330303 
929	 0.201003412746443 
930	 0.201924360352469 
931	 0.202884385133282 
932	 0.203805260717133 
933	 0.204772064739345 
934	 0.205791644344948 
935	 0.206823826370089 
936	 0.207843595880975 
937	 0.208881468983869 
938	 0.209929412763679 
939	 0.210966668453683 
940	 0.212089489889105 
941	 0.213245285098998 
942	 0.214396779486598 
943	 0.215539943028711 
944	 0.216711340625904 
945	 0.217874721525102 
946	 0.219039533623424 
947	 0.220261455688856 
948	 0.22146623929858 
949	 0.222701730031404 
950	 0.223961543809046 
951	 0.225165551436244 
952	 0.226488595973665 
953	 0.227815963937029 
954	 0.229076917340007 
955	 0.230345999353938 
956	 0.231622553760845 
957	 0.232970038235198 
958	 0.234392387889649 
959	 0.235780561205438 
960	 0.237144196420371 
961	 0.238514204645469 
962	 0.239921086295109 
963	 0.241377892825619 
964	 0.242761586962302 
965	 0.244182909007958 
966	 0.245707982896277 
967	 0.24716525153569 
968	 0.248560568743447 
969	 0.250007111852093 
970	 0.251585547562739 
971	 0.253219815765329 
972	 0.25470584509924 
973	 0.256173252086125 
974	 0.257766941261355 
975	 0.259348896195084 
976	 0.260921462077197 
977	 0.26258456876438 
978	 0.264343752204111 
979	 0.265828329122609 
980	 0.267323650996623 
981	 0.268917490090541 
982	 0.270577293705478 
983	 0.272122336376619 
984	 0.273776654629119 
985	 0.275505191357214 
986	 0.277194278521308 
987	 0.278807931095259 
988	 0.280398571123466 
989	 0.281961726932922 
990	 0.283504556771678 
991	 0.28513582590907 
992	 0.286854250562646 
993	 0.28855148962487 
994	 0.29014064685138 
995	 0.291746578822336 
996	 0.293332286702417 
997	 0.294903796606544 
998	 0.296495110175077 
999	 0.298190578041359 
1000	 0.299848665881048 
1001	 0.300681204349704 
1002	 0.30231380484912 
1003	 0.303939865730062 
1004	 0.305451001236277 
1005	 0.306885154814629 
1006	 0.308391961322877 
1007	 0.309838256926621 
1008	 0.311332843198632 
1009	 0.312901001959952 
1010	 0.314402406207155 
1011	 0.315908492517234 
1012	 0.317342809156458 
1013	 0.318706794811257 
1014	 0.320113822664135 
1015	 0.321484887015128 
1016	 0.322835491859676 
1017	 0.324317011064117 
1018	 0.325721197859181 
1019	 0.327157078378963 
1020	 0.328643720369901 
1021	 0.330008678714098 
1022	 0.331315206960389 
1023	 0.332652252062956 
1024	 0.333897801254382 
1025	 0.335209406492899 
1026	 0.336601212353883 
1027	 0.337920994275686 
1028	 0.339228350956593 
1029	 0.340544608468299 
1030	 0.341726560386643 
1031	 0.342934215221038 
1032	 0.344139336982639 
1033	 0.345274530562297 
1034	 0.346497165276547 
1035	 0.347689137817957 
1036	 0.348872851450292 
1037	 0.350085143753284 
1038	 0.351231799219222 
1039	 0.352325925806183 
1040	 0.353453162164122 
1041	 0.354555932577427 
1042	 0.355645468347062 
1043	 0.356769043484134 
1044	 0.357841491621411 
1045	 0.35883215120516 
1046	 0.359839864226019 
1047	 0.360813740469536 
1048	 0.361811259937006 
1049	 0.362823989071518 
1050	 0.363785479862035 
1051	 0.364772326269203 
1052	 0.365723956697801 
1053	 0.366683026139995 
1054	 0.367675371559981 
1055	 0.368628730442178 
1056	 0.369530713998139 
1057	 0.370478635068747 
1058	 0.37146046852276 
1059	 0.372342148475896 
1060	 0.373248679832503 
1061	 0.374160281358738 
1062	 0.375028352422868 
1063	 0.375929541205426 
1064	 0.376810111829205 
1065	 0.377698659548968 
1066	 0.3785888720128 
1067	 0.379443963196724 
1068	 0.380346038370777 
1069	 0.381229954973428 
1070	 0.382085409438629 
1071	 0.382911905915847 
1072	 0.383747920266567 
1073	 0.384551799427551 
1074	 0.385342857881595 
1075	 0.386129355956167 
1076	 0.386946380698411 
1077	 0.387793425533862 
1078	 0.38861889910163 
1079	 0.38947749586152 
1080	 0.390356475977604 
1081	 0.391175365702902 
1082	 0.391985770826506 
1083	 0.392767812187463 
1084	 0.393517396470698 
1085	 0.394312919060053 
1086	 0.395112054216087 
1087	 0.395925218667236 
1088	 0.396772647133469 
1089	 0.397605737131234 
1090	 0.398363176620535 
1091	 0.399140401705122 
1092	 0.399902220105337 
1093	 0.400654766343945 
1094	 0.401471076986659 
1095	 0.402257759488142 
1096	 0.403051524466636 
1097	 0.403839170012161 
1098	 0.404563142645749 
1099	 0.405317601732193 
1100	 0.4060532755051 
1101	 0.406778251981399 
1102	 0.407566225140868 
1103	 0.40833112654155 
1104	 0.409085516846633 
1105	 0.409854869618225 
1106	 0.410655815595037 
1107	 0.411392814636406 
1108	 0.412157030812973 
1109	 0.412927445220939 
1110	 0.413657696180352 
1111	 0.414436374798923 
1112	 0.415181556308613 
1113	 0.415912686681674 
1114	 0.416679266892307 
1115	 0.417413346096562 
1116	 0.418164740478855 
1117	 0.418924152794624 
1118	 0.419679307406952 
1119	 0.420447332709704 
1120	 0.421185234612567 
1121	 0.421904598927669 
1122	 0.422635792748231 
1123	 0.423364720224261 
1124	 0.424053694881575 
1125	 0.424774062308746 
1126	 0.42547515119251 
1127	 0.426132477647364 
1128	 0.426809348444267 
1129	 0.427463498654284 
1130	 0.428131112673325 
1131	 0.428810920093763 
1132	 0.429458197304807 
1133	 0.430125281774099 
1134	 0.430776738727367 
1135	 0.431430733718371 
1136	 0.432094022714353 
1137	 0.432749530903412 
1138	 0.433409309762695 
1139	 0.434048585249335 
1140	 0.43469441912892 
1141	 0.435276252204154 
1142	 0.435854829899355 
1143	 0.436402657430975 
1144	 0.436930826635966 
1145	 0.437512310086089 
1146	 0.438066626669371 
1147	 0.438641493309451 
1148	 0.439236058516252 
1149	 0.439764718020542 
1150	 0.440313822238959 
1151	 0.440873293217788 
1152	 0.441412994965589 
1153	 0.441954086779021 
1154	 0.442470941533092 
1155	 0.442959142761889 
1156	 0.44345348281864 
1157	 0.443936438270029 
1158	 0.444411400687768 
1159	 0.444890572139032 
1160	 0.44536152329866 
1161	 0.445794718870655 
1162	 0.446226852081126 
1163	 0.446643261829718 
1164	 0.447062639858403 
1165	 0.447519530670273 
1166	 0.447954541808998 
1167	 0.448375254539403 
1168	 0.448787968918624 
1169	 0.449168746590099 
1170	 0.449509808984021 
1171	 0.449852946949528 
1172	 0.450178772079522 
1173	 0.450503488054501 
1174	 0.450821683088899 
1175	 0.451117604563997 
1176	 0.451398902566529 
1177	 0.451677889250124 
1178	 0.45192906274566 
1179	 0.452205682086361 
1180	 0.452477573026138 
1181	 0.45275036144245 
1182	 0.453015270538594 
1183	 0.453250226253801 
1184	 0.453476921036636 
1185	 0.453693080358845 
1186	 0.453907227060858 
1187	 0.454111590962007 
1188	 0.454320775103204 
1189	 0.454529864952603 
1190	 0.454731911293121 
1191	 0.454932448721008 
1192	 0.455120755688339 
1193	 0.455294831001121 
1194	 0.455481911601545 
1195	 0.455668670208026 
1196	 0.455855876162058 
1197	 0.456053628157097 
1198	 0.456240995220281 
1199	 0.456421225989089 
1200	 0.456599360189703 
1201	 0.456769645365278 
1202	 0.456932539066199 
1203	 0.457084027225752 
1204	 0.45722640279728 
1205	 0.457385833583448 
1206	 0.457541195391816 
1207	 0.457720183062155 
1208	 0.457918544329674 
1209	 0.458117934382678 
1210	 0.458333487439496 
1211	 0.458541630308964 
1212	 0.458751453118961 
1213	 0.458965426243859 
1214	 0.459171461484604 
1215	 0.459397653026357 
1216	 0.459647060647204 
1217	 0.459879532891486 
1218	 0.460116476687514 
1219	 0.460348537332317 
1220	 0.460569810750923 
1221	 0.460813273806557 
1222	 0.4610688644664 
1223	 0.461330902186392 
1224	 0.461574832249669 
1225	 0.461817633587715 
1226	 0.462040442199655 
1227	 0.462245160573698 
1228	 0.462450683558197 
1229	 0.462657258159263 
1230	 0.462837174335033 
1231	 0.462999451307895 
1232	 0.463161316583695 
1233	 0.463307223708667 
1234	 0.463441502450031 
1235	 0.463578504110568 
1236	 0.463695899195574 
1237	 0.463774705575251 
1238	 0.463872449222396 
1239	 0.463977841419542 
1240	 0.464069532103938 
1241	 0.464164305045802 
1242	 0.464265198688501 
1243	 0.464352813196205 
1244	 0.464423485940791 
1245	 0.464513502193183 
1246	 0.464608855522315 
1247	 0.464700545598834 
1248	 0.464797842683501 
1249	 0.464893953699147 
1250	 0.46497926373485 
1251	 0.465081908527941 
1252	 0.465202128509118 
1253	 0.465312779050568 
1254	 0.465426931643371 
1255	 0.465539920415242 
1256	 0.465654922332748 
1257	 0.465757887531434 
1258	 0.465853345366948 
1259	 0.465954162743029 
1260	 0.466066940048346 
1261	 0.466148955282401 
1262	 0.466227094076175 
1263	 0.46628725642382 
1264	 0.466326137453701 
1265	 0.46631884684564 
1266	 0.466347294761988 
1267	 0.466380580466043 
1268	 0.466406499868876 
1269	 0.466443698122245 
1270	 0.466460574895266 
1271	 0.466466524829312 
1272	 0.466462809011416 
1273	 0.466440245660296 
1274	 0.466428032186431 
1275	 0.466423255321936 
1276	 0.466394056580374 
1277	 0.466353070213436 
1278	 0.466315931779741 
1279	 0.46625869235567 
1280	 0.466207215165304 
1281	 0.466170795607572 
1282	 0.466122454770107 
1283	 0.466073631748109 
1284	 0.466006632357586 
1285	 0.465928702297699 
1286	 0.465839415484904 
1287	 0.465757594279295 
1288	 0.465658441358385 
1289	 0.465579680973613 
1290	 0.465521928178335 
1291	 0.465440926798362 
1292	 0.465357136666374 
1293	 0.46526501551482 
1294	 0.465154782507737 
1295	 0.465059640076867 
1296	 0.464962484440465 
1297	 0.464875040426609 
1298	 0.46479324869828 
1299	 0.464720168944825 
1300	 0.464654649744158 
1301	 0.464593535749673 
1302	 0.464541333510793 
1303	 0.464492101572843 
1304	 0.464440029735782 
1305	 0.464403164476046 
1306	 0.464383063793001 
1307	 0.464358864509132 
1308	 0.464345825993004 
1309	 0.464327286963503 
1310	 0.464311031269953 
1311	 0.464289590022927 
1312	 0.464276679116065 
1313	 0.464266825428025 
1314	 0.464264384517217 
1315	 0.464265566244868 
1316	 0.464272493187381 
1317	 0.46428714498348 
1318	 0.464303290583713 
1319	 0.464330806057046 
1320	 0.464343473861726 
1321	 0.464352463417624 
1322	 0.464361383662763 
1323	 0.464351027177613 
1324	 0.464363636471849 
1325	 0.464385557860888 
1326	 0.464415356365315 
1327	 0.464471848670419 
1328	 0.464506771773563 
1329	 0.464530684416877 
1330	 0.464563514522675 
1331	 0.464588128428547 
1332	 0.464617764610915 
1333	 0.464644708670304 
1334	 0.464696588535032 
1335	 0.464746378298859 
1336	 0.464800408556867 
1337	 0.464846294058877 
1338	 0.464908488487044 
1339	 0.464937139480484 
1340	 0.464937563110522 
1341	 0.464960180794557 
1342	 0.464973845099174 
1343	 0.46500153975159 
1344	 0.46505166311333 
1345	 0.465079384940251 
1346	 0.465107171107806 
1347	 0.465118854743993 
1348	 0.465112147675616 
1349	 0.465111234638498 
1350	 0.465105512396333 
1351	 0.465096509517009 
1352	 0.465082926183008 
1353	 0.465072475862011 
1354	 0.465052337528459 
1355	 0.465043118613894 
1356	 0.465047641884159 
1357	 0.465047143312257 
1358	 0.465049989933248 
1359	 0.465049313545422 
1360	 0.465056337697843 
1361	 0.465040749601662 
1362	 0.465016718883364 
1363	 0.46500330702624 
1364	 0.465000971698666 
1365	 0.465008843705463 
1366	 0.464993399083475 
1367	 0.464990642009393 
1368	 0.464954761830017 
1369	 0.464885578648283 
1370	 0.464824312872112 
1371	 0.464760237251153 
1372	 0.464685052339182 
1373	 0.464615117976455 
1374	 0.464503776699218 
1375	 0.464359694920665 
1376	 0.464224235958127 
1377	 0.464060647896428 
1378	 0.463907337494585 
1379	 0.463761054830227 
1380	 0.463614448489851 
1381	 0.463449972325062 
1382	 0.463309214255303 
1383	 0.463183697639815 
1384	 0.463062228517159 
1385	 0.462968347699483 
1386	 0.462851693858011 
1387	 0.462724910322854 
1388	 0.462605404071682 
1389	 0.462465488384213 
1390	 0.462346163260965 
1391	 0.462249275631242 
1392	 0.462142436198318 
1393	 0.462060676342418 
1394	 0.461968327011758 
1395	 0.461887730809136 
1396	 0.461827504607173 
1397	 0.461725626065805 
1398	 0.46161653336861 
1399	 0.46149226405991 
1400	 0.461348736556729 
1401	 0.461181448013968 
1402	 0.461006436496451 
1403	 0.46080296121169 
1404	 0.460554417638515 
1405	 0.460322101068482 
1406	 0.46008225033935 
1407	 0.45984141867834 
1408	 0.459602047624018 
1409	 0.459349820149656 
1410	 0.459084488280392 
1411	 0.458824471351787 
1412	 0.458547860392267 
1413	 0.458294698870218 
1414	 0.458046226303842 
1415	 0.457816600832241 
1416	 0.457609524609251 
1417	 0.45739993361336 
1418	 0.457204703041667 
1419	 0.457007436327753 
1420	 0.456814282340407 
1421	 0.456616664995751 
1422	 0.4564158212748 
1423	 0.456219164080584 
1424	 0.45601578097204 
1425	 0.455816549275131 
1426	 0.455643818081731 
1427	 0.455484075438822 
1428	 0.455342242948675 
1429	 0.455216886379683 
1430	 0.455087084176609 
1431	 0.454963375868992 
1432	 0.454841111139828 
1433	 0.454723741158145 
1434	 0.454602456439367 
1435	 0.454480201360566 
1436	 0.454363604411199 
1437	 0.454239574491422 
1438	 0.454139255958335 
1439	 0.454056490794365 
1440	 0.453967915989717 
1441	 0.453888599297501 
1442	 0.453809310626551 
1443	 0.45371602887434 
1444	 0.453655663040013 
1445	 0.453603128613699 
1446	 0.453582405443472 
1447	 0.453582228208969 
1448	 0.453609379124144 
1449	 0.453679220610289 
1450	 0.453740231590962 
1451	 0.453825774112539 
1452	 0.453903879077248 
1453	 0.453975102486609 
1454	 0.454055879339524 
1455	 0.454129527304562 
1456	 0.454229854302287 
1457	 0.454351435662746 
1458	 0.454474667507425 
1459	 0.454625265705621 
1460	 0.45476550242844 
1461	 0.454897708557562 
1462	 0.455035220736826 
1463	 0.45518212128211 
1464	 0.45531828424941 
1465	 0.455449255475498 
1466	 0.455583709239338 
1467	 0.455698704882072 
1468	 0.455815005187726 
1469	 0.45594880819018 
1470	 0.456087180106131 
1471	 0.456246943304477 
1472	 0.456426160910233 
1473	 0.456611516632324 
1474	 0.456824701446823 
1475	 0.456999144945285 
1476	 0.457181873548026 
1477	 0.457320174506605 
1478	 0.45741691487843 
1479	 0.457522330253858 
1480	 0.457606137781257 
1481	 0.457699930907229 
1482	 0.457788865278297 
1483	 0.45788692942252 
1484	 0.457993649680037 
1485	 0.458085137013541 
1486	 0.458180173838963 
1487	 0.458261388058974 
1488	 0.458324694284333 
1489	 0.458392984801341 
1490	 0.458453122531626 
1491	 0.458523467616287 
1492	 0.458578619310848 
1493	 0.458671947231791 
1494	 0.458798310291167 
1495	 0.458909758556801 
1496	 0.459037468008287 
1497	 0.459162456284653 
1498	 0.459282594311704 
1499	 0.459398536153949 
1500	 0.459529820833367 
1501	 0.459639134648201 
1502	 0.459729921456699 
1503	 0.459816950947904 
1504	 0.459881893041604 
1505	 0.459964901687221 
1506	 0.46005071984056 
1507	 0.460136729130143 
1508	 0.46022908977362 
1509	 0.460329298594474 
1510	 0.460439480584944 
1511	 0.460536968858395 
1512	 0.460640859332373 
1513	 0.460736465118176 
1514	 0.460818739484184 
1515	 0.460896136430808 
1516	 0.460975552655233 
1517	 0.461043136696786 
1518	 0.461101365631451 
1519	 0.461147079995572 
1520	 0.461177171630721 
1521	 0.461204336013882 
1522	 0.461233258746483 
1523	 0.461257384049081 
1524	 0.461276365504051 
1525	 0.461297926574891 
1526	 0.461314260676181 
1527	 0.461317600880041 
1528	 0.461333126597694 
1529	 0.46135213170856 
1530	 0.46137888422032 
1531	 0.461410730773825 
1532	 0.461439639488866 
1533	 0.461476932681511 
1534	 0.461506802047925 
1535	 0.461529547274251 
1536	 0.461557623976977 
1537	 0.461582545408732 
1538	 0.461623074932064 
1539	 0.461665345058534 
1540	 0.461723397733917 
1541	 0.461806181503397 
1542	 0.461868875018101 
1543	 0.461931200119429 
1544	 0.461993647869181 
1545	 0.462050060229509 
1546	 0.462105278510066 
1547	 0.462162303475556 
1548	 0.462219253637266 
1549	 0.462271192648648 
1550	 0.462324021701287 
1551	 0.462370743489218 
1552	 0.462440329586153 
1553	 0.462521699402217 
1554	 0.462595099711322 
1555	 0.462695794501104 
1556	 0.462760563092351 
1557	 0.462791657571113 
1558	 0.462843002423273 
1559	 0.462893089422445 
1560	 0.462939812301507 
1561	 0.462986538679097 
1562	 0.463040876325868 
1563	 0.4630838808841 
1564	 0.463149510100094 
1565	 0.4632386766966 
1566	 0.463320597690507 
1567	 0.463412640220463 
1568	 0.46349682571293 
1569	 0.463583606570898 
1570	 0.463658146084493 
1571	 0.463724840065741 
1572	 0.463788516289146 
1573	 0.463841783005155 
1574	 0.463896330525801 
1575	 0.46393910027431 
1576	 0.464001712469103 
1577	 0.464071542291082 
1578	 0.464144447821293 
1579	 0.464242933413748 
1580	 0.464318282591403 
1581	 0.464375589660773 
1582	 0.46444497149267 
1583	 0.464503853218583 
1584	 0.464578853218874 
1585	 0.464674268723588 
1586	 0.464760378019305 
1587	 0.464861449822308 
1588	 0.464937357393774 
1589	 0.464998608002241 
1590	 0.465054633187948 
1591	 0.465084884875167 
1592	 0.465129824898985 
1593	 0.465171339861491 
1594	 0.465226018178054 
1595	 0.46529095242372 
1596	 0.465360070073144 
1597	 0.465443431251567 
1598	 0.465521152467288 
1599	 0.465608866143646 
1600	 0.465679639996306 
1601	 0.465741719910069 
1602	 0.465799611692667 
1603	 0.465844198628969 
1604	 0.465887559869016 
1605	 0.46592147172666 
1606	 0.465965543114515 
1607	 0.466015181138978 
1608	 0.466058345314244 
1609	 0.466114387126463 
1610	 0.466150566196559 
1611	 0.466158114243725 
1612	 0.466185539440032 
1613	 0.466225972136909 
1614	 0.466246175855377 
1615	 0.466259607842223 
1616	 0.466279075506198 
1617	 0.466282301600112 
1618	 0.466291891051171 
1619	 0.466326199532781 
1620	 0.466339735063843 
1621	 0.466326126494961 
1622	 0.46633416309073 
1623	 0.466353690934468 
1624	 0.466358639608725 
1625	 0.46636667148123 
1626	 0.466374103875802 
1627	 0.466363271983558 
1628	 0.466364631185124 
1629	 0.466386118116337 
1630	 0.466390072736479 
1631	 0.466390746603876 
1632	 0.46638454816356 
1633	 0.466353037270499 
1634	 0.466346428757328 
1635	 0.466343073446869 
1636	 0.46634800544403 
1637	 0.466375868074318 
1638	 0.466397966924337 
1639	 0.46642142027093 
1640	 0.466445761650233 
1641	 0.466486224676754 
1642	 0.466501766378501 
1643	 0.466518574572652 
1644	 0.466504269105132 
1645	 0.46644628307297 
1646	 0.466402668533466 
1647	 0.466350731510973 
1648	 0.466291853392793 
1649	 0.466237637996348 
1650	 0.466173310801517 
1651	 0.466085377834439 
1652	 0.466009766327869 
1653	 0.465944076674986 
1654	 0.465867447462481 
1655	 0.46579793706397 
1656	 0.465705069958905 
1657	 0.465597159124285 
1658	 0.465477417813602 
1659	 0.465345613212242 
1660	 0.465198779900805 
1661	 0.465046903863867 
1662	 0.464865434719469 
1663	 0.464656645268384 
1664	 0.464430574296223 
1665	 0.464197985659961 
1666	 0.463913446144322 
1667	 0.46359901776508 
1668	 0.463254300480135 
1669	 0.462862921956772 
1670	 0.462446237770941 
1671	 0.46199773085054 
1672	 0.461527891400995 
1673	 0.461029764280106 
1674	 0.46050391435726 
1675	 0.45996122435977 
1676	 0.459386794083289 
1677	 0.458771310881163 
1678	 0.458137499172794 
1679	 0.457469032765744 
1680	 0.456797080860711 
1681	 0.456115627628943 
1682	 0.455398765421141 
1683	 0.454684210969224 
1684	 0.453909600479015 
1685	 0.45308441681088 
1686	 0.452232654389297 
1687	 0.451313774919581 
1688	 0.450409388043875 
1689	 0.449489413706615 
1690	 0.448553735888497 
1691	 0.447630598674683 
1692	 0.44666347351356 
1693	 0.445672706647937 
1694	 0.444646649613015 
1695	 0.443564144006664 
1696	 0.442489297953953 
1697	 0.441391042143399 
1698	 0.440275841755651 
1699	 0.439147584147919 
1700	 0.438064880850703 
1701	 0.436966666671888 
1702	 0.435905654860914 
1703	 0.434864639858793 
1704	 0.433870635922718 
1705	 0.432882574673714 
1706	 0.431965657727993 
1707	 0.431166338695614 
1708	 0.43039878591179 
1709	 0.429690966297452 
1710	 0.429062648546191 
1711	 0.42845090619489 
1712	 0.427913952775497 
1713	 0.427379495589175 
1714	 0.42684039589713 
1715	 0.426371442028423 
1716	 0.425873054588711 
1717	 0.425416580574783 
1718	 0.425001660095364 
1719	 0.424578049730812 
1720	 0.424218136207649 
1721	 0.423889967943559 
1722	 0.423644506352269 
1723	 0.423489158886833 
1724	 0.423375637665245 
1725	 0.423357048968146 
1726	 0.423429926975464 
1727	 0.423567977861212 
1728	 0.423802566259391 
1729	 0.424144252756986 
1730	 0.424569912091711 
1731	 0.425046143567148 
1732	 0.425577175306634 
1733	 0.426108700844463 
1734	 0.426643838292709 
1735	 0.427209262045972 
1736	 0.427726035728303 
1737	 0.428192047657542 
1738	 0.428539357216732 
1739	 0.428818130339746 
1740	 0.429019469721179 
1741	 0.429164829902721 
1742	 0.429249799870919 
1743	 0.429273253546206 
1744	 0.429195631598226 
1745	 0.429120938138343 
1746	 0.428988836200714 
1747	 0.428872427977897 
1748	 0.428731277604476 
1749	 0.428631220061411 
1750	 0.428517263503459 
1751	 0.428460544326528 
1752	 0.428449577089654 
1753	 0.428482746195475 
1754	 0.428548572938097 
1755	 0.42867343738307 
1756	 0.428830016676912 
1757	 0.429060604535806 
1758	 0.429393243648047 
1759	 0.429761814683276 
1760	 0.430175061028435 
1761	 0.430631869004109 
1762	 0.431104520057462 
1763	 0.431651341726795 
1764	 0.432262691736423 
1765	 0.432917700310199 
1766	 0.43363719569128 
1767	 0.434352695149876 
1768	 0.435109754757339 
1769	 0.435905343741369 
1770	 0.436612056760778 
1771	 0.437320466116014 
1772	 0.438006678420201 
1773	 0.438588885537041 
1774	 0.439183168071372 
1775	 0.439726648386548 
1776	 0.440221984670096 
1777	 0.440727579491375 
1778	 0.441164790232183 
1779	 0.441568832765973 
1780	 0.441951616597799 
1781	 0.442289219997375 
1782	 0.442615173844145 
1783	 0.442927840088792 
1784	 0.44319556026696 
1785	 0.443408620646473 
1786	 0.443594050567932 
1787	 0.443743771781192 
1788	 0.443894206478221 
1789	 0.443986402001791 
1790	 0.444120295876442 
1791	 0.444276105691393 
1792	 0.444423579167819 
1793	 0.444579518848575 
1794	 0.444750115468141 
1795	 0.444896852810384 
1796	 0.444987347594864 
1797	 0.445110291394047 
1798	 0.445227408508656 
1799	 0.445329934443562 
1800	 0.445455334950604 
1801	 0.443713135849476 
1802	 0.443838376078288 
1803	 0.443977499037021 
1804	 0.444125605163348 
1805	 0.444301089545018 
1806	 0.444453027061596 
1807	 0.444607162631506 
1808	 0.444759707649701 
1809	 0.444908521983524 
1810	 0.445049245417087 
1811	 0.445185685054475 
1812	 0.445327399421321 
1813	 0.445460356148479 
1814	 0.44560184344953 
1815	 0.445739492559889 
1816	 0.445887399157949 
1817	 0.446037946952798 
1818	 0.446184556993475 
1819	 0.44633835925671 
1820	 0.446500807836322 
1821	 0.44666508289626 
1822	 0.446831480137217 
1823	 0.447005928846401 
1824	 0.447159351500799 
1825	 0.447333674670363 
1826	 0.447511190535454 
1827	 0.447691850399086 
1828	 0.447855917523194 
1829	 0.44802596625278 
1830	 0.448191589590697 
1831	 0.448332877546704 
1832	 0.448498297001592 
1833	 0.448672920318105 
1834	 0.448841085248152 
1835	 0.448999997113737 
1836	 0.449153190055966 
1837	 0.449323927755066 
1838	 0.449500521495106 
1839	 0.449678772028323 
1840	 0.449874750817232 
1841	 0.450058432191921 
1842	 0.450229472102875 
1843	 0.450416366915353 
1844	 0.450609147239859 
1845	 0.450798554995873 
1846	 0.45098870040678 
1847	 0.451150231561593 
1848	 0.451310626867946 
1849	 0.45146587418399 
1850	 0.451598245122889 
1851	 0.451706780589617 
1852	 0.451838413894667 
1853	 0.451954517790351 
1854	 0.452039735749744 
1855	 0.452112421345093 
1856	 0.452176503947736 
1857	 0.452229144627422 
1858	 0.452248038049807 
1859	 0.452271213952357 
1860	 0.452321427575731 
1861	 0.452315739234926 
1862	 0.452273125651442 
1863	 0.452232779800008 
1864	 0.452165263471063 
1865	 0.452034766106652 
1866	 0.451887234761465 
1867	 0.45174305385221 
1868	 0.451577014093418 
1869	 0.451399684099833 
1870	 0.4512334242318 
1871	 0.451078688491075 
1872	 0.450903787416312 
1873	 0.450724124719602 
1874	 0.450549499344564 
1875	 0.450369558952975 
1876	 0.450145088228682 
1877	 0.449898314220398 
1878	 0.44957994171814 
1879	 0.449152487184374 
1880	 0.448710645337914 
1881	 0.448220604185309 
1882	 0.447672322200397 
1883	 0.44708134590542 
1884	 0.446439293526862 
1885	 0.445700840278141 
1886	 0.444913092578005 
1887	 0.444060778854667 
1888	 0.443166500430756 
1889	 0.442266767834452 
1890	 0.441275111452167 
1891	 0.440264002942828 
1892	 0.439238558482127 
1893	 0.438163796474753 
1894	 0.437026895934894 
1895	 0.435907710362657 
1896	 0.43476215806197 
1897	 0.433598346956566 
1898	 0.432540728670538 
1899	 0.43149154958442 
1900	 0.430479154367961 
1901	 0.429556717589998 
1902	 0.42858430818649 
1903	 0.4276807399157 
1904	 0.426832741984026 
1905	 0.426030198401664 
1906	 0.425249356142636 
1907	 0.424580694390594 
1908	 0.423927780159656 
1909	 0.423309827069806 
1910	 0.422759116773097 
1911	 0.422210282453639 
1912	 0.421714700011198 
1913	 0.421258740608205 
1914	 0.420809357026393 
1915	 0.420401360277165 
1916	 0.420037307468115 
1917	 0.419691370405535 
1918	 0.419362502905864 
1919	 0.41906974611115 
1920	 0.418771265911534 
1921	 0.418485253302991 
1922	 0.418231935942935 
1923	 0.417982326297566 
1924	 0.417774568361376 
1925	 0.417597195281684 
1926	 0.417418452985094 
1927	 0.417245931552444 
1928	 0.417098552230162 
1929	 0.416962518275419 
1930	 0.416836903562396 
1931	 0.416762300808154 
1932	 0.416697984106249 
1933	 0.416643383834206 
1934	 0.416626988475098 
1935	 0.416614478806075 
1936	 0.41664470915552 
1937	 0.416703986245048 
1938	 0.41680231315643 
1939	 0.416908274252059 
1940	 0.417043503574204 
1941	 0.417189349056371 
1942	 0.41733839079138 
1943	 0.417513102324646 
1944	 0.41769794002022 
1945	 0.417894141219309 
1946	 0.418115801553702 
1947	 0.418355719755875 
1948	 0.418625001987639 
1949	 0.418909156478996 
1950	 0.419191434348705 
1951	 0.419491406547537 
1952	 0.419790369113374 
1953	 0.420088719179982 
1954	 0.420379704014411 
1955	 0.420713467234075 
1956	 0.421031453347495 
1957	 0.421357386434608 
1958	 0.421710736941366 
1959	 0.422035720542417 
1960	 0.422365410486159 
1961	 0.422698618698707 
1962	 0.423034701710601 
1963	 0.423371543068151 
1964	 0.423724239822622 
1965	 0.424042765141859 
1966	 0.424355693861434 
1967	 0.424651731151243 
1968	 0.424911238864364 
1969	 0.425164714516321 
1970	 0.425402714211686 
1971	 0.425623393760497 
1972	 0.425859075955381 
1973	 0.42610745892151 
1974	 0.426358899896552 
1975	 0.426637933595997 
1976	 0.426894960072308 
1977	 0.427134302572341 
1978	 0.427384264574442 
1979	 0.427631990140488 
1980	 0.427886311213945 
1981	 0.428151498901199 
1982	 0.428400190510488 
1983	 0.428665284129052 
1984	 0.428934986674751 
1985	 0.429189982295974 
1986	 0.429515675681699 
1987	 0.429837919257385 
1988	 0.430176829526519 
1989	 0.430519014832521 
1990	 0.430888552282968 
1991	 0.43123573138527 
1992	 0.431583743584845 
1993	 0.431935984021384 
1994	 0.432238667343589 
1995	 0.432555275736672 
1996	 0.432868093385533 
1997	 0.433157539298858 
1998	 0.433469262612163 
1999	 0.433802205614124 
2000	 0.434114056479788 
2001	 0.434436154774897 
2002	 0.434729150052574 
2003	 0.435026108254581 
2004	 0.435273975102274 
2005	 0.435465203138122 
2006	 0.435668429934487 
2007	 0.435854831833415 
2008	 0.436023150788595 
2009	 0.436191430578843 
2010	 0.436364539290376 
2011	 0.436490497287419 
2012	 0.436588222838731 
2013	 0.436678001854537 
2014	 0.43674313256067 
2015	 0.436806434485524 
2016	 0.436865215157129 
2017	 0.436899810805316 
2018	 0.436919707431667 
2019	 0.436924045108142 
2020	 0.436910687993215 
2021	 0.436879211128335 
2022	 0.436830225776057 
2023	 0.436784680993466 
2024	 0.436688179195525 
2025	 0.436572892351374 
2026	 0.43645043023386 
2027	 0.436294615472588 
2028	 0.436149963643628 
2029	 0.436005399806089 
2030	 0.435850370229341 
2031	 0.435682136522778 
2032	 0.43552236562799 
2033	 0.43535046493962 
2034	 0.435199137005038 
2035	 0.43506468340294 
2036	 0.434924035373853 
2037	 0.434797159252385 
2038	 0.434669912705305 
2039	 0.434547539567834 
2040	 0.43442816023797 
2041	 0.434318424846448 
2042	 0.434223712836556 
2043	 0.434110233025469 
2044	 0.433999220903746 
2045	 0.433876175934179 
2046	 0.433733254572611 
2047	 0.433600128359372 
2048	 0.433456945299596 
2049	 0.433329727101931 
2050	 0.433202650024908 
2051	 0.433095776127133 
2052	 0.433006315531778 
2053	 0.432915731217336 
2054	 0.432827733567355 
2055	 0.432747168781084 
2056	 0.432667969546036 
2057	 0.432592564386636 
2058	 0.432516266178931 
2059	 0.432445496971758 
2060	 0.432365948006261 
2061	 0.432276123041496 
2062	 0.432197291451843 
2063	 0.432115097649462 
2064	 0.432046187681012 
2065	 0.431998733536237 
2066	 0.43194041295501 
2067	 0.431869532344248 
2068	 0.431795901053204 
2069	 0.431710684065531 
2070	 0.431599364146432 
2071	 0.431508635410801 
2072	 0.431415838160457 
2073	 0.431339006365024 
2074	 0.43127831987994 
2075	 0.431210036471428 
2076	 0.43115141444938 
2077	 0.431084749939858 
2078	 0.431009216431965 
2079	 0.430937296594397 
2080	 0.430864780210408 
2081	 0.430794218633791 
2082	 0.430729193011206 
2083	 0.430663462748331 
2084	 0.430570842013411 
2085	 0.43048322590071 
2086	 0.43039230250884 
2087	 0.430275534115719 
2088	 0.430189391652927 
2089	 0.430115210179138 
2090	 0.430054777570426 
2091	 0.430025915791638 
2092	 0.429970212854523 
2093	 0.429928197858356 
2094	 0.429855340209765 
2095	 0.42975124673453 
2096	 0.429649716264787 
2097	 0.429530765333793 
2098	 0.429418274372574 
2099	 0.429318890061732 
2100	 0.429184844364978 
2101	 0.429037999049906 
2102	 0.42887679174937 
2103	 0.428710316256936 
2104	 0.428513583099723 
2105	 0.428340975841664 
2106	 0.428184474354364 
2107	 0.428004707381305 
2108	 0.42781872974799 
2109	 0.427628203740624 
2110	 0.427427384794172 
2111	 0.427221007274114 
2112	 0.42700612494556 
2113	 0.426794004914834 
2114	 0.426570048624345 
2115	 0.426351746392294 
2116	 0.426146301540078 
2117	 0.425934804994239 
2118	 0.425708055393765 
2119	 0.425473589198627 
2120	 0.425236756877136 
2121	 0.424969464816273 
2122	 0.42475213837632 
2123	 0.424549134286916 
2124	 0.42435800409198 
2125	 0.424192672635116 
2126	 0.424039578772491 
2127	 0.423900350133448 
2128	 0.423765904049011 
2129	 0.423644438366916 
2130	 0.42353682761958 
2131	 0.423435601888175 
2132	 0.423347671468061 
2133	 0.423283454797552 
2134	 0.423226750811911 
2135	 0.423161422066885 
2136	 0.423098825897101 
2137	 0.423040383311058 
2138	 0.422985606503364 
2139	 0.422927905765878 
2140	 0.42286567159578 
2141	 0.42282251135123 
2142	 0.422782432822706 
2143	 0.422749742734516 
2144	 0.422743453974154 
2145	 0.422719911413249 
2146	 0.42267330793736 
2147	 0.422664069389082 
2148	 0.422667168856722 
2149	 0.422676711935914 
2150	 0.422717828573164 
2151	 0.422749383883904 
2152	 0.42278597953801 
2153	 0.422809828612207 
2154	 0.422837019849007 
2155	 0.422880073966298 
2156	 0.422897035863846 
2157	 0.422916584523208 
2158	 0.422895212488471 
2159	 0.422840246140325 
2160	 0.422793202041809 
2161	 0.422728528079885 
2162	 0.422653419632447 
2163	 0.422577755582944 
2164	 0.422486156849906 
2165	 0.422372251325522 
2166	 0.422253726201375 
2167	 0.422123267651578 
2168	 0.421997818244685 
2169	 0.421865947160828 
2170	 0.421724476351401 
2171	 0.421562363800303 
2172	 0.421431576560687 
2173	 0.421308280236674 
2174	 0.421193560772103 
2175	 0.421075268071838 
2176	 0.420955202834389 
2177	 0.420833998451742 
2178	 0.420688086818271 
2179	 0.420558950655721 
2180	 0.420448859015064 
2181	 0.420332231878505 
2182	 0.420203365929874 
2183	 0.420083991483819 
2184	 0.419973710867416 
2185	 0.419868761914786 
2186	 0.41978918933139 
2187	 0.419661727948132 
2188	 0.419527329630187 
2189	 0.419369828957725 
2190	 0.419150502809537 
2191	 0.418963104538661 
2192	 0.418794295987735 
2193	 0.41860734497376 
2194	 0.418401686677501 
2195	 0.418215728809113 
2196	 0.418037208020387 
2197	 0.417844347047083 
2198	 0.417673740343049 
2199	 0.417513893120692 
2200	 0.417325949816255 
2201	 0.417128815059208 
2202	 0.416909181573264 
2203	 0.416667947433076 
2204	 0.416424118410364 
2205	 0.416156059960376 
2206	 0.415901823906611 
2207	 0.41564588171598 
2208	 0.415400106298371 
2209	 0.41515945963553 
2210	 0.414915709759963 
2211	 0.41468894140309 
2212	 0.414436602050478 
2213	 0.414183792865771 
2214	 0.413903548406285 
2215	 0.413594398972515 
2216	 0.413282264295664 
2217	 0.412946570152776 
2218	 0.4126146280631 
2219	 0.412295574399088 
2220	 0.411950221112615 
2221	 0.411605033531272 
2222	 0.41122124488929 
2223	 0.410802013122702 
2224	 0.410354217981476 
2225	 0.40991131526144 
2226	 0.409430007522994 
2227	 0.408909628731984 
2228	 0.408379372863721 
2229	 0.407789620100908 
2230	 0.407151072355329 
2231	 0.406451964514864 
2232	 0.405719718872245 
2233	 0.404898631804957 
2234	 0.404018114840904 
2235	 0.403035592672174 
2236	 0.401966830028378 
2237	 0.400835589660858 
2238	 0.399565070016794 
2239	 0.398312938708068 
2240	 0.397045655216919 
2241	 0.395695331600435 
2242	 0.394362862559009 
2243	 0.3928623356349 
2244	 0.391209793592162 
2245	 0.389535182921241 
2246	 0.387676079303144 
2247	 0.385888553799324 
2248	 0.384130871074564 
2249	 0.382312435228121 
2250	 0.380478725643492 
2251	 0.378666756611366 
2252	 0.376638266358112 
2253	 0.37466818052594 
2254	 0.37269678368957 
2255	 0.370704592013689 
2256	 0.368914339754796 
2257	 0.367131205309059 
2258	 0.365366299944598 
2259	 0.363653077259331 
2260	 0.361949487161301 
2261	 0.360244741732303 
2262	 0.358609891135232 
2263	 0.356996468638544 
2264	 0.355474380684341 
2265	 0.354042028775493 
2266	 0.352585494217658 
2267	 0.351210506692645 
2268	 0.34979407487008 
2269	 0.348317715772291 
2270	 0.346941598301126 
2271	 0.345601571488799 
2272	 0.344292703697552 
2273	 0.343067102837887 
2274	 0.341816612966058 
2275	 0.340618496439107 
2276	 0.339349754904307 
2277	 0.338074454981796 
2278	 0.336755074096433 
2279	 0.335341342296409 
2280	 0.333954118462511 
2281	 0.332598446132985 
2282	 0.331154370618096 
2283	 0.32966947132667 
2284	 0.328184224951469 
2285	 0.326554862283369 
2286	 0.324911545665474 
2287	 0.323182900964242 
2288	 0.321400790488247 
2289	 0.319731493802592 
2290	 0.317978142157582 
2291	 0.316289034590104 
2292	 0.314657128245329 
2293	 0.312864991822836 
2294	 0.311177610967885 
2295	 0.309580470836068 
2296	 0.308040034303769 
2297	 0.306766610990317 
2298	 0.30570344567569 
2299	 0.304773234408488 
2300	 0.304018109658695 
2301	 0.303490255179968 
2302	 0.303116595701111 
2303	 0.303030324097474 
2304	 0.303236980382915 
2305	 0.303584607342921 
2306	 0.304190303491457 
2307	 0.304918334406216 
2308	 0.305828853796153 
2309	 0.306889697346473 
2310	 0.30816513744003 
2311	 0.309500365734928 
2312	 0.311100153541018 
2313	 0.312561036057333 
2314	 0.314081168949417 
2315	 0.315532421300691 
2316	 0.316949372130975 
2317	 0.318255444273881 
2318	 0.31956464650198 
2319	 0.320681326623585 
2320	 0.321700787361159 
2321	 0.322515257304206 
2322	 0.323142243823891 
2323	 0.323638906477866 
2324	 0.323909823796367 
2325	 0.324088992341274 
2326	 0.324149391536548 
2327	 0.324072278231352 
2328	 0.323830986501364 
2329	 0.323499793524001 
2330	 0.323030082085582 
2331	 0.322452951260208 
2332	 0.321820680806256 
2333	 0.321091050945392 
2334	 0.320242621483775 
2335	 0.319311424534171 
2336	 0.318271447162234 
2337	 0.31716503361652 
2338	 0.316067197289965 
2339	 0.314930138448018 
2340	 0.313837290270245 
2341	 0.31281277382497 
2342	 0.311851646044385 
2343	 0.311083221058462 
2344	 0.310531011797685 
2345	 0.310190914237265 
2346	 0.310097250488507 
2347	 0.310279207989393 
2348	 0.310594350729183 
2349	 0.31117117324505 
2350	 0.312014883004034 
2351	 0.312975739840888 
2352	 0.314079001630491 
2353	 0.315262244818827 
2354	 0.316349384868278 
2355	 0.317380781034711 
2356	 0.318323572765624 
2357	 0.319074028090864 
2358	 0.319745116862395 
2359	 0.320227659771707 
2360	 0.320551932249559 
2361	 0.32080880098615 
2362	 0.320967363091728 
2363	 0.321046122531899 
2364	 0.321121455460441 
2365	 0.321181569510925 
2366	 0.321165531346551 
2367	 0.32114816257809 
2368	 0.321095491062639 
2369	 0.320978851568154 
2370	 0.320904664142707 
2371	 0.320904132050256 
2372	 0.320942113864873 
2373	 0.32097456412831 
2374	 0.320981768304754 
2375	 0.320944608744098 
2376	 0.320907302741638 
2377	 0.320912547272835 
2378	 0.320949213425642 
2379	 0.321021597012401 
2380	 0.321065396523654 
2381	 0.32108938377287 
2382	 0.321156600921217 
2383	 0.321227979671882 
2384	 0.321329427142862 
2385	 0.321515385876483 
2386	 0.321625010662939 
2387	 0.321679582539164 
2388	 0.32178301247348 
2389	 0.321881505026749 
2390	 0.321952391839496 
2391	 0.3220434651014 
2392	 0.322161090511814 
2393	 0.322247527530334 
2394	 0.322367761853864 
2395	 0.322599642559827 
2396	 0.322707705674764 
2397	 0.32270196255451 
2398	 0.322777239818814 
2399	 0.322833928884129 
2400	 0.322917351743953 
2401	 0.323112377775797 
2402	 0.323196615434435 
2403	 0.323163398633433 
2404	 0.323144198125161 
2405	 0.323143743458758 
2406	 0.323160805192709 
2407	 0.32319818078982 
2408	 0.323254323346691 
2409	 0.323320898463181 
2410	 0.32334522174385 
2411	 0.323412303743223 
2412	 0.323512937748054 
2413	 0.323478416580423 
2414	 0.323484370444246 
2415	 0.323508802565818 
2416	 0.323418825030477 
2417	 0.323450535217513 
2418	 0.323560785961785 
2419	 0.323569070336793 
2420	 0.323610352787417 
2421	 0.323766749680393 
2422	 0.323760384568675 
2423	 0.323576702414217 
2424	 0.323567367744816 
2425	 0.323573952237607 
2426	 0.323569487021059 
2427	 0.32380547932479 
2428	 0.324011964658336 
2429	 0.324087944159306 
2430	 0.324157460161927 
2431	 0.32421756315062 
2432	 0.324147315926953 
2433	 0.323983689506956 
2434	 0.323907870499178 
2435	 0.323793521421919 
2436	 0.32370345449543 
2437	 0.323700359962504 
2438	 0.323594103064153 
2439	 0.323469391269123 
2440	 0.323369721789674 
2441	 0.323209878628803 
2442	 0.323091074100197 
2443	 0.322964119517838 
2444	 0.322799366108315 
2445	 0.322583670584922 
2446	 0.322248644622483 
2447	 0.321985165496219 
2448	 0.321832846145677 
2449	 0.321747825333198 
2450	 0.321645673920927 
2451	 0.321412701519557 
2452	 0.321135424185163 
2453	 0.320851667821586 
2454	 0.320613105014545 
2455	 0.320368100942364 
2456	 0.320079197131679 
2457	 0.319792590772708 
2458	 0.319560844458479 
2459	 0.319454202417769 
2460	 0.319261535848871 
2461	 0.319017961676236 
2462	 0.318878409163738 
2463	 0.318629110668246 
2464	 0.318446522804987 
2465	 0.318396182125411 
2466	 0.318144730087736 
2467	 0.31800271513176 
2468	 0.317889978336507 
2469	 0.317743923212208 
2470	 0.317833320197939 
2471	 0.317666677141941 
2472	 0.317533437049542 
2473	 0.317563114995245 
2474	 0.31742259501541 
2475	 0.31756867212152 
2476	 0.317813256575654 
2477	 0.317809657147823 
2478	 0.317834408312734 
2479	 0.317859263287571 
2480	 0.317934255337031 
2481	 0.3179851783054 
2482	 0.318051451400545 
2483	 0.317878824555815 
2484	 0.317744410143756 
2485	 0.317826091493711 
2486	 0.317950679531045 
2487	 0.318272009737173 
2488	 0.318605730275305 
2489	 0.318774004428379 
2490	 0.318808320767065 
2491	 0.318720146661583 
2492	 0.318990980486127 
2493	 0.31949306707915 
2494	 0.319883130620161 
2495	 0.320292790295586 
2496	 0.320573403871901 
2497	 0.32087486867589 
2498	 0.321273772269458 
2499	 0.321733136551324 
2500	 0.322199402628419 
