Wavelength	spectrum00006.asd
350	 4.49689042639418E-02 
351	 4.64156538429038E-02 
352	 4.51421763171968E-02 
353	 4.10879620983341E-02 
354	 4.17814804305713E-02 
355	 4.31188397154696E-02 
356	 4.34828388724466E-02 
357	 4.23103711521657E-02 
358	 4.00785260743122E-02 
359	 3.90632469419699E-02 
360	 3.88074650189298E-02 
361	 3.77085952103178E-02 
362	 3.77016333169816E-02 
363	 3.70114543531996E-02 
364	 3.57218744789626E-02 
365	 3.67348779324602E-02 
366	 3.76784324187808E-02 
367	 0.037882018949079 
368	 0.037391534728885 
369	 3.70340547556626E-02 
370	 0.036598144780431 
371	 3.64318235045332E-02 
372	 0.036994381626703 
373	 3.69109200964364E-02 
374	 3.64690480180893E-02 
375	 3.62142716129802E-02 
376	 3.67640361118432E-02 
377	 3.74726949516317E-02 
378	 3.75348414288464E-02 
379	 3.65619018793613E-02 
380	 3.53620373381282E-02 
381	 3.57819067997764E-02 
382	 3.66960872388639E-02 
383	 3.56884786314927E-02 
384	 3.67314335440472E-02 
385	 0.037390220525192 
386	 3.65202330789708E-02 
387	 3.59824064351572E-02 
388	 3.51663568342712E-02 
389	 3.52651303536541E-02 
390	 3.68451044350892E-02 
391	 3.68375667447194E-02 
392	 3.57350055740966E-02 
393	 3.48525871808014E-02 
394	 3.56540110842985E-02 
395	 3.59228597754161E-02 
396	 3.60412767153489E-02 
397	 3.61676767207403E-02 
398	 3.54348505782397E-02 
399	 3.55023538011938E-02 
400	 3.57690412317601E-02 
401	 3.53329317604091E-02 
402	 3.49327177996057E-02 
403	 3.51173258369513E-02 
404	 3.54125570969832E-02 
405	 3.47658690615658E-02 
406	 0.035004972084089 
407	 3.51064141855358E-02 
408	 3.46299826010041E-02 
409	 3.51483688412904E-02 
410	 3.49850248619325E-02 
411	 3.46198638320275E-02 
412	 3.49731738934851E-02 
413	 0.035517339210458 
414	 3.53037601947854E-02 
415	 3.46458338591116E-02 
416	 3.49048690938169E-02 
417	 3.50334580084809E-02 
418	 3.50560739245344E-02 
419	 3.50624782395012E-02 
420	 3.48106191047827E-02 
421	 0.034629030541959 
422	 3.47359357166894E-02 
423	 3.51841959951312E-02 
424	 3.54403688619194E-02 
425	 3.53441281899277E-02 
426	 3.51690913731021E-02 
427	 3.56157244931355E-02 
428	 3.55289970828384E-02 
429	 3.53783287965372E-02 
430	 3.56745404323391E-02 
431	 3.59358884948783E-02 
432	 0.03606581329837 
433	 3.60667620781451E-02 
434	 3.60286468859677E-02 
435	 3.61888352719941E-02 
436	 3.64142392443747E-02 
437	 3.65716218409874E-02 
438	 0.036587310480406 
439	 3.67542976253945E-02 
440	 0.037029902111197 
441	 3.72580936190011E-02 
442	 3.72608763006712E-02 
443	 3.74011822449275E-02 
444	 3.76972478903281E-02 
445	 3.78838877792241E-02 
446	 3.80173410656294E-02 
447	 3.80476662328842E-02 
448	 3.80119274374958E-02 
449	 3.81645001605009E-02 
450	 3.83876237746447E-02 
451	 3.85118824819673E-02 
452	 3.84292251310878E-02 
453	 3.85483460316221E-02 
454	 3.86592631515402E-02 
455	 3.86930672484747E-02 
456	 3.87841298633837E-02 
457	 3.88331680802791E-02 
458	 3.88707173957289E-02 
459	 3.89495609093973E-02 
460	 3.91216958667803E-02 
461	 0.039174637213989 
462	 3.91139929632228E-02 
463	 0.039066397845327 
464	 3.89827104364635E-02 
465	 3.90422955398755E-02 
466	 3.92011765991871E-02 
467	 0.039029137523424 
468	 3.90935114035111E-02 
469	 3.92550446783239E-02 
470	 3.92708770810913E-02 
471	 3.94218800820365E-02 
472	 0.039379272537587 
473	 3.92501124042701E-02 
474	 3.94577485365385E-02 
475	 3.95053130209697E-02 
476	 3.95134505004287E-02 
477	 3.96133116011449E-02 
478	 3.97402302365378E-02 
479	 3.98440842140554E-02 
480	 3.98823686096237E-02 
481	 3.98585081358386E-02 
482	 3.99867026977429E-02 
483	 4.01748122035607E-02 
484	 4.03488136442238E-02 
485	 4.04845906540873E-02 
486	 4.05528630155943E-02 
487	 0.040611379839677 
488	 4.07168636940096E-02 
489	 4.08506850025652E-02 
490	 4.10457805476302E-02 
491	 4.12858231237386E-02 
492	 4.15213747609643E-02 
493	 4.16977358563944E-02 
494	 4.18666667007195E-02 
495	 4.20551336180588E-02 
496	 4.22185504659235E-02 
497	 4.24985591879049E-02 
498	 4.27885098487139E-02 
499	 4.29630511080346E-02 
500	 4.31974170157221E-02 
501	 4.34082683613718E-02 
502	 4.36193121387221E-02 
503	 4.39447903555491E-02 
504	 4.42023788778143E-02 
505	 4.44743273566011E-02 
506	 4.48323561617122E-02 
507	 4.52154692413364E-02 
508	 4.55383151571705E-02 
509	 4.58655867513132E-02 
510	 4.62928949683431E-02 
511	 4.65956789787152E-02 
512	 4.69431081938921E-02 
513	 4.73836977799313E-02 
514	 4.77696039649461E-02 
515	 4.81432429305559E-02 
516	 4.85530432437815E-02 
517	 4.90141707779966E-02 
518	 4.94102434253634E-02 
519	 4.98450351440261E-02 
520	 5.03188962875732E-02 
521	 5.07693372046289E-02 
522	 5.13526907812576E-02 
523	 5.18808183953401E-02 
524	 5.22885767169415E-02 
525	 5.28515102100101E-02 
526	 5.34074864068201E-02 
527	 5.39634716743239E-02 
528	 5.45693700798562E-02 
529	 5.51865057453569E-02 
530	 5.57728874388816E-02 
531	 5.63626070766451E-02 
532	 5.70622469472369E-02 
533	 5.76434583958208E-02 
534	 5.82149075635808E-02 
535	 0.058889438824266 
536	 5.95747011948652E-02 
537	 6.02732081627594E-02 
538	 6.09775474361155E-02 
539	 6.16788323537096E-02 
540	 6.23803704518059E-02 
541	 6.31075037400986E-02 
542	 6.38503330450566E-02 
543	 6.45341022744409E-02 
544	 6.52657427045717E-02 
545	 6.59961893523593E-02 
546	 6.66698630954159E-02 
547	 6.74407373131097E-02 
548	 6.81607240800381E-02 
549	 6.88125894606105E-02 
550	 6.95025816157247E-02 
551	 7.01822186666123E-02 
552	 7.08844160127952E-02 
553	 7.16200946185831E-02 
554	 7.23086611654327E-02 
555	 7.29879538148914E-02 
556	 7.36917497262161E-02 
557	 7.44387036057064E-02 
558	 7.51511371910825E-02 
559	 7.58535733525878E-02 
560	 7.65586165733261E-02 
561	 7.72489527906503E-02 
562	 7.79370671363694E-02 
563	 7.85967412088807E-02 
564	 7.92059298354677E-02 
565	 7.97966429672058E-02 
566	 8.03825400668026E-02 
567	 8.09655662934596E-02 
568	 8.15376858555872E-02 
569	 8.20992868594364E-02 
570	 8.26105512441846E-02 
571	 8.30715741132857E-02 
572	 8.35761442603446E-02 
573	 8.40952037499596E-02 
574	 8.46115145942848E-02 
575	 8.51181401283418E-02 
576	 8.56641658183468E-02 
577	 8.61692132466935E-02 
578	 8.66217852308956E-02 
579	 8.70950928309393E-02 
580	 8.75058079772399E-02 
581	 8.79043920186233E-02 
582	 8.83445472502984E-02 
583	 8.87942202226088E-02 
584	 8.92218677136423E-02 
585	 8.96476593262024E-02 
586	 9.01123983301666E-02 
587	 9.05271840109627E-02 
588	 9.09096012386172E-02 
589	 9.12903327841918E-02 
590	 9.17008764761924E-02 
591	 9.20598398615731E-02 
592	 9.24142645658758E-02 
593	 9.28188567849026E-02 
594	 9.31800459869407E-02 
595	 9.34937929519615E-02 
596	 9.37949087407273E-02 
597	 9.41431006528905E-02 
598	 9.44779035464137E-02 
599	 9.48109104476482E-02 
600	 9.51552011848879E-02 
601	 9.54955435519932E-02 
602	 9.58172079842591E-02 
603	 9.61317849110676E-02 
604	 9.64564684853841E-02 
605	 9.67574675393156E-02 
606	 9.70642818036244E-02 
607	 9.73919171793614E-02 
608	 9.77308500047087E-02 
609	 9.79972352291337E-02 
610	 9.82687829865485E-02 
611	 9.86085593396148E-02 
612	 9.88846577071831E-02 
613	 9.91547784259186E-02 
614	 9.94361477137062E-02 
615	 9.97196927979292E-02 
616	 0.100009045313802 
617	 0.100290180414144 
618	 0.100570666820945 
619	 0.10090598262995 
620	 0.101177357256762 
621	 0.101427024731443 
622	 0.101727364704077 
623	 0.102011151870207 
624	 0.102280492098234 
625	 0.102549612051149 
626	 0.102839690469911 
627	 0.10311427430377 
628	 0.103415178367352 
629	 0.103751740716628 
630	 0.104010296284607 
631	 0.10430502109889 
632	 0.10462847722435 
633	 0.104922149010682 
634	 0.105181689866642 
635	 0.105481270786758 
636	 0.105825397206957 
637	 0.106123730491555 
638	 0.106419051052861 
639	 0.106728330626893 
640	 0.107048517919125 
641	 0.107324246356738 
642	 0.107645725768826 
643	 0.108000120707117 
644	 0.108316713281852 
645	 0.10863978044027 
646	 0.108949091316569 
647	 0.109247838621033 
648	 0.109589387112438 
649	 0.109943916552183 
650	 0.110273141572584 
651	 0.110559946998225 
652	 0.110886154153898 
653	 0.111217301230656 
654	 0.111557154179398 
655	 0.111938219885449 
656	 0.112309933657997 
657	 0.112678225099948 
658	 0.113042846103264 
659	 0.113366628370911 
660	 0.113707034370416 
661	 0.114058878611408 
662	 0.114407472486005 
663	 0.114832309940352 
664	 0.115218105794809 
665	 0.115548661348525 
666	 0.115916095976368 
667	 0.116276550884437 
668	 0.116638197634252 
669	 0.117012713063159 
670	 0.117401956779939 
671	 0.117766553412841 
672	 0.118132165477337 
673	 0.118544007010882 
674	 0.118952513256807 
675	 0.119336786320411 
676	 0.119702467766983 
677	 0.120082824225305 
678	 0.120501670068857 
679	 0.120914583770276 
680	 0.121285909662334 
681	 0.121649997577463 
682	 0.122084610137812 
683	 0.122542569132991 
684	 0.122921819649288 
685	 0.123299196814416 
686	 0.123707181775475 
687	 0.124141331351881 
688	 0.124553723991473 
689	 0.124966742552244 
690	 0.125381285239406 
691	 0.1257995723496 
692	 0.126247498357069 
693	 0.126667877097317 
694	 0.127080963642519 
695	 0.127543464913891 
696	 0.127958054933113 
697	 0.128365124797259 
698	 0.128797807424782 
699	 0.129250677957573 
700	 0.129705786847747 
701	 0.130150869592272 
702	 0.130584662580578 
703	 0.13103520473704 
704	 0.131485542422088 
705	 0.131935447663412 
706	 0.132395411661952 
707	 0.13284638431723 
708	 0.133310988600189 
709	 0.133780336268948 
710	 0.134180615105615 
711	 0.134655719563485 
712	 0.135163365805155 
713	 0.135630150909115 
714	 0.136110080713375 
715	 0.13655419428056 
716	 0.136968911926597 
717	 0.137404714276351 
718	 0.137918397168405 
719	 0.138438045572034 
720	 0.138907850610653 
721	 0.139325853938346 
722	 0.139786772184919 
723	 0.140292661170589 
724	 0.140804036252077 
725	 0.141257528115785 
726	 0.141706053423588 
727	 0.14217730911434 
728	 0.142670185890918 
729	 0.143120172475573 
730	 0.14356389935594 
731	 0.144031359273103 
732	 0.144520221359908 
733	 0.144978587135039 
734	 0.145432122948186 
735	 0.145907457495515 
736	 0.146333193810594 
737	 0.146788099078129 
738	 0.14725505402856 
739	 0.147667155491277 
740	 0.148155528304635 
741	 0.148610386887321 
742	 0.148989076324685 
743	 0.149391803004821 
744	 0.149828070576477 
745	 0.150282161285608 
746	 0.150723973424057 
747	 0.151105988862086 
748	 0.151530076138255 
749	 0.151969329436318 
750	 0.152337792532354 
751	 0.152735700735192 
752	 0.153134544091334 
753	 0.153510329161796 
754	 0.153862601723442 
755	 0.154235686602281 
756	 0.154621696811166 
757	 0.154992452082815 
758	 0.155296037808852 
759	 0.155625953292806 
760	 0.155980735871878 
761	 0.156315655355679 
762	 0.156636620882376 
763	 0.156960539904501 
764	 0.15729311950271 
765	 0.157627452783636 
766	 0.157966960843472 
767	 0.158262275485091 
768	 0.158507373621878 
769	 0.158817142573972 
770	 0.159124459660198 
771	 0.159405070169682 
772	 0.159651703356678 
773	 0.159860965743571 
774	 0.160092947338268 
775	 0.160354824294429 
776	 0.160605912949689 
777	 0.160814444010553 
778	 0.1610069623808 
779	 0.161200191425429 
780	 0.161375526456575 
781	 0.161588114396045 
782	 0.161809262436134 
783	 0.162002472453209 
784	 0.162198347046085 
785	 0.162375039103055 
786	 0.162526892405019 
787	 0.162662347577615 
788	 0.162815667064815 
789	 0.162951968703429 
790	 0.163064103914047 
791	 0.163184709355455 
792	 0.163301328121879 
793	 0.163411395057444 
794	 0.1635216693139 
795	 0.163661962925879 
796	 0.1637656094086 
797	 0.163850988695267 
798	 0.163956027356836 
799	 0.164039995849653 
800	 0.164139583169813 
801	 0.164231511440683 
802	 0.16425703902938 
803	 0.164314688367047 
804	 0.164359857339901 
805	 0.164377049642881 
806	 0.164422082821829 
807	 0.164455079440291 
808	 0.164478123102655 
809	 0.164505548828169 
810	 0.164559314377573 
811	 0.164588235368834 
812	 0.164597064270397 
813	 0.164613691993395 
814	 0.164633590027845 
815	 0.164646761070189 
816	 0.164646444722953 
817	 0.164632687884121 
818	 0.164646698365941 
819	 0.164628152484664 
820	 0.164560555050293 
821	 0.164521727635825 
822	 0.164518530010256 
823	 0.164524831370469 
824	 0.164511382639686 
825	 0.164475558203155 
826	 0.164438056181491 
827	 0.164391650093314 
828	 0.164325175005038 
829	 0.164283276123087 
830	 0.164242118248678 
831	 0.164207164158371 
832	 0.164204871960387 
833	 0.164164261515539 
834	 0.164081573206444 
835	 0.163984606088243 
836	 0.163929243162423 
837	 0.163883443322748 
838	 0.163842874384241 
839	 0.16380343030725 
840	 0.163749282237842 
841	 0.163633667198722 
842	 0.163533980161281 
843	 0.163529430549969 
844	 0.163442160158061 
845	 0.163362943031148 
846	 0.163315613914869 
847	 0.163263301746562 
848	 0.163176237411092 
849	 0.163075888213705 
850	 0.162995205683439 
851	 0.162967419609731 
852	 0.162910654138752 
853	 0.162851593803832 
854	 0.162808716185178 
855	 0.162734126099302 
856	 0.162636307748494 
857	 0.162546757470201 
858	 0.162489558550934 
859	 0.162434411276216 
860	 0.162359839946529 
861	 0.16230619239185 
862	 0.162315732853031 
863	 0.162242184740042 
864	 0.162188582632258 
865	 0.162151421244536 
866	 0.162036188724149 
867	 0.161940883612542 
868	 0.161924831688185 
869	 0.161945806295033 
870	 0.161843412324618 
871	 0.161785137920486 
872	 0.161753205959475 
873	 0.161717079608464 
874	 0.161714532827112 
875	 0.161654139086487 
876	 0.161563320860529 
877	 0.161505969151805 
878	 0.161524948958748 
879	 0.161547162569591 
880	 0.161530290015861 
881	 0.161471433146745 
882	 0.161469521651902 
883	 0.161443784484185 
884	 0.161387448236646 
885	 0.161358575134983 
886	 0.161387097275803 
887	 0.161396755249621 
888	 0.161367328500686 
889	 0.161355492698943 
890	 0.161338140593058 
891	 0.161328435760923 
892	 0.161322120431444 
893	 0.161276816120007 
894	 0.161308736003701 
895	 0.161345310514317 
896	 0.161329637901931 
897	 0.161375315080607 
898	 0.161422456737342 
899	 0.161457215576187 
900	 0.161482431427038 
901	 0.161506622460637 
902	 0.161499754779337 
903	 0.16151704555266 
904	 0.161615494400749 
905	 0.161627588359781 
906	 0.161653631210143 
907	 0.161717789545744 
908	 0.161775987177953 
909	 0.16179460266005 
910	 0.161864180557321 
911	 0.161972256843969 
912	 0.162004038116261 
913	 0.16204802640821 
914	 0.16209535516985 
915	 0.16215464682675 
916	 0.162271588397434 
917	 0.16236456071947 
918	 0.162465176215819 
919	 0.162584221538289 
920	 0.162651954044395 
921	 0.16273784943814 
922	 0.162819322242153 
923	 0.16287903866279 
924	 0.162969983412987 
925	 0.16312255640871 
926	 0.163256907255308 
927	 0.163315297632072 
928	 0.163445252060243 
929	 0.163532519247122 
930	 0.16361889545233 
931	 0.163780492941923 
932	 0.163945009450324 
933	 0.164074879116857 
934	 0.164211761889157 
935	 0.16440525072555 
936	 0.164497971330377 
937	 0.164607973809318 
938	 0.164737451646953 
939	 0.164826367649536 
940	 0.165052043513736 
941	 0.165241516145544 
942	 0.165344177736461 
943	 0.165450921635308 
944	 0.165653873673517 
945	 0.165840514384611 
946	 0.165988288460207 
947	 0.166187700539451 
948	 0.166387537532053 
949	 0.166562538617295 
950	 0.166720271462064 
951	 0.166900956045613 
952	 0.167072574055226 
953	 0.167233132095323 
954	 0.167391512031199 
955	 0.167562483174544 
956	 0.167689936371031 
957	 0.167900257965886 
958	 0.168202909905141 
959	 0.168357746049558 
960	 0.168478367305095 
961	 0.16865049953242 
962	 0.168890572495 
963	 0.169093282407058 
964	 0.169252665011527 
965	 0.169395838584345 
966	 0.169577901032787 
967	 0.169885749743352 
968	 0.170149921596016 
969	 0.170371595425587 
970	 0.170597040442879 
971	 0.170850356931704 
972	 0.171025065959848 
973	 0.171203309963253 
974	 0.171450591452115 
975	 0.171610872684657 
976	 0.171841025538824 
977	 0.17213733501871 
978	 0.172437432773167 
979	 0.17268067533621 
980	 0.17289734880154 
981	 0.173121230246421 
982	 0.173377911037993 
983	 0.173665975541616 
984	 0.173909693882929 
985	 0.174199355256222 
986	 0.174593305605493 
987	 0.174847544713288 
988	 0.175108417228683 
989	 0.175359737391297 
990	 0.175570202753338 
991	 0.175859709411453 
992	 0.176111246534475 
993	 0.176377785723093 
994	 0.176716073774259 
995	 0.176970899919974 
996	 0.177336910050234 
997	 0.177698631684486 
998	 0.177927263888888 
999	 0.178237977418251 
1000	 0.178562751972739 
1001	 0.179412637182973 
1002	 0.179711751967771 
1003	 0.180017532092316 
1004	 0.180310076384236 
1005	 0.180577248071304 
1006	 0.180871914349598 
1007	 0.181180032347905 
1008	 0.181492776202547 
1009	 0.181821245138146 
1010	 0.182129368037224 
1011	 0.182418872035517 
1012	 0.182733967057292 
1013	 0.183063544358429 
1014	 0.183381819543299 
1015	 0.183693849835465 
1016	 0.184023649286342 
1017	 0.184415153051859 
1018	 0.184755628501764 
1019	 0.185120286535925 
1020	 0.185506662492484 
1021	 0.185843682778385 
1022	 0.186108348523138 
1023	 0.18644866586487 
1024	 0.186811832615505 
1025	 0.187164955595424 
1026	 0.187547620846983 
1027	 0.187896518363783 
1028	 0.188212943322629 
1029	 0.188561965179462 
1030	 0.188916919160252 
1031	 0.189265489811013 
1032	 0.189628092080623 
1033	 0.190018978263146 
1034	 0.190411872648005 
1035	 0.190794482487258 
1036	 0.191161899371953 
1037	 0.191522933485853 
1038	 0.191886875577309 
1039	 0.192235475158016 
1040	 0.192595376504741 
1041	 0.192959311336089 
1042	 0.193332881514895 
1043	 0.193710834336047 
1044	 0.194079070221953 
1045	 0.19446972386295 
1046	 0.194867341608242 
1047	 0.195248144473469 
1048	 0.195644168559673 
1049	 0.196041172410036 
1050	 0.19644343901896 
1051	 0.196830473117415 
1052	 0.197196411799814 
1053	 0.197590931552381 
1054	 0.197997267406902 
1055	 0.198397555710109 
1056	 0.198824236556028 
1057	 0.199247676540089 
1058	 0.199669410747628 
1059	 0.200053830009092 
1060	 0.200489231760972 
1061	 0.200859269554249 
1062	 0.201246354158814 
1063	 0.201718270284602 
1064	 0.202156981429064 
1065	 0.202616196082083 
1066	 0.203066515399803 
1067	 0.203476410992958 
1068	 0.20393942721075 
1069	 0.20439720190815 
1070	 0.204835733404363 
1071	 0.205273721183649 
1072	 0.205715170283962 
1073	 0.206122373940723 
1074	 0.206534994445109 
1075	 0.206941362532315 
1076	 0.207366044301684 
1077	 0.207823650143693 
1078	 0.208282108011174 
1079	 0.208786582912459 
1080	 0.20930644511249 
1081	 0.209772330375857 
1082	 0.210221786069461 
1083	 0.210658330947863 
1084	 0.211089001312986 
1085	 0.211558997157798 
1086	 0.21202443524722 
1087	 0.21249882551906 
1088	 0.212987372692658 
1089	 0.213468481852776 
1090	 0.213910616127861 
1091	 0.214368159403191 
1092	 0.214808815297022 
1093	 0.21525371653558 
1094	 0.215720479158489 
1095	 0.216161090392581 
1096	 0.216650359626209 
1097	 0.217145586895091 
1098	 0.217584957872828 
1099	 0.21804147848316 
1100	 0.218475724054302 
1101	 0.218889883897923 
1102	 0.219359961693465 
1103	 0.219815952644343 
1104	 0.220277595582941 
1105	 0.2207407683095 
1106	 0.221225438553838 
1107	 0.221670405746263 
1108	 0.222137441623859 
1109	 0.222600909990658 
1110	 0.223060190486812 
1111	 0.223536136075638 
1112	 0.223967823924368 
1113	 0.224435048837259 
1114	 0.224900679119667 
1115	 0.225328519678633 
1116	 0.225800708379527 
1117	 0.226256325130097 
1118	 0.226709181263314 
1119	 0.227155484245215 
1120	 0.227606607979004 
1121	 0.228046581843936 
1122	 0.228523248703584 
1123	 0.228998260396713 
1124	 0.229440910261428 
1125	 0.229903281182798 
1126	 0.23032740779759 
1127	 0.230729051244706 
1128	 0.231171769664556 
1129	 0.231601315211445 
1130	 0.232042344775647 
1131	 0.232499721894233 
1132	 0.232916828099447 
1133	 0.233345140018779 
1134	 0.23376994922936 
1135	 0.234194984581904 
1136	 0.234628623357885 
1137	 0.235047004747987 
1138	 0.235456140840406 
1139	 0.235871964640328 
1140	 0.236287258179457 
1141	 0.236674254286755 
1142	 0.237085503825313 
1143	 0.237473553855625 
1144	 0.237854580492536 
1145	 0.238266231614912 
1146	 0.238653112211739 
1147	 0.239053679604755 
1148	 0.239458982079662 
1149	 0.239827578130832 
1150	 0.240211644980253 
1151	 0.240588510050014 
1152	 0.240969756749057 
1153	 0.241355154450238 
1154	 0.241730003449915 
1155	 0.242106085242852 
1156	 0.242479385370858 
1157	 0.242832620186334 
1158	 0.243189477032226 
1159	 0.24354886036013 
1160	 0.243915762123473 
1161	 0.244270087417386 
1162	 0.244645278332985 
1163	 0.245007017456616 
1164	 0.245347895070708 
1165	 0.245697920178551 
1166	 0.246033949875669 
1167	 0.246368671864788 
1168	 0.246716079671931 
1169	 0.247049731036707 
1170	 0.247369147963323 
1171	 0.247690371549958 
1172	 0.248018070519819 
1173	 0.248329896198653 
1174	 0.248620650391038 
1175	 0.248930703152511 
1176	 0.249247996287506 
1177	 0.249550266127346 
1178	 0.249850720369583 
1179	 0.250163549800012 
1180	 0.250445221184236 
1181	 0.250723850539464 
1182	 0.251015843346166 
1183	 0.251286971985335 
1184	 0.251558429980447 
1185	 0.251837584114385 
1186	 0.252120422925161 
1187	 0.252405017964752 
1188	 0.252690476326755 
1189	 0.252983391106005 
1190	 0.253278380268379 
1191	 0.253571212423446 
1192	 0.253864457001467 
1193	 0.254159120546162 
1194	 0.254458600814018 
1195	 0.254755995492142 
1196	 0.255066207892871 
1197	 0.255391599158702 
1198	 0.255712095168435 
1199	 0.25604125636969 
1200	 0.25636704895293 
1201	 0.256712850919886 
1202	 0.257056677876729 
1203	 0.25738954207506 
1204	 0.257747308228548 
1205	 0.258103318613577 
1206	 0.258449336470073 
1207	 0.258834827932078 
1208	 0.259236484134976 
1209	 0.259652186965094 
1210	 0.260087746902316 
1211	 0.260538871805657 
1212	 0.261024197687803 
1213	 0.261497767577836 
1214	 0.261975499030126 
1215	 0.26246802543082 
1216	 0.262947390753214 
1217	 0.26345139646048 
1218	 0.263988892155402 
1219	 0.264529336315504 
1220	 0.265051668720119 
1221	 0.265611043330807 
1222	 0.266142571508756 
1223	 0.266686760659868 
1224	 0.267225036841006 
1225	 0.267771524782011 
1226	 0.268289423299001 
1227	 0.268795052671984 
1228	 0.269295360560224 
1229	 0.269786119873615 
1230	 0.270264316478535 
1231	 0.270732548231848 
1232	 0.2711979854997 
1233	 0.271649113001423 
1234	 0.272090155775181 
1235	 0.272525685225331 
1236	 0.27295876235036 
1237	 0.273375156369055 
1238	 0.273796817255797 
1239	 0.274224359637958 
1240	 0.274648416940502 
1241	 0.275070382583798 
1242	 0.27545793036667 
1243	 0.275846694752535 
1244	 0.27621760049952 
1245	 0.276603033707312 
1246	 0.276990707255914 
1247	 0.277368909514149 
1248	 0.277745993746811 
1249	 0.278125339348006 
1250	 0.278494779174107 
1251	 0.278869163954517 
1252	 0.279252605590135 
1253	 0.279633571866874 
1254	 0.280014723806546 
1255	 0.280391225346914 
1256	 0.280776564430866 
1257	 0.281148119130827 
1258	 0.281510139513438 
1259	 0.281863991552699 
1260	 0.282199340309738 
1261	 0.28254446677589 
1262	 0.282886841822642 
1263	 0.283240560045814 
1264	 0.28356774409734 
1265	 0.283892428059146 
1266	 0.284211746375597 
1267	 0.284504987968338 
1268	 0.284816559937357 
1269	 0.285139557416694 
1270	 0.285454369258995 
1271	 0.285762315788241 
1272	 0.28607736248285 
1273	 0.286402096083814 
1274	 0.286712762681626 
1275	 0.28701554719206 
1276	 0.287321251722198 
1277	 0.287615593344746 
1278	 0.287917588027857 
1279	 0.288226513260458 
1280	 0.288534533949064 
1281	 0.288835040583458 
1282	 0.289147407864359 
1283	 0.289476728980029 
1284	 0.289790805796932 
1285	 0.290101071095733 
1286	 0.290407299125993 
1287	 0.290729077358658 
1288	 0.291052347227453 
1289	 0.291363396777869 
1290	 0.291685218382455 
1291	 0.291994943052659 
1292	 0.292276666589139 
1293	 0.292581018118937 
1294	 0.292897939372377 
1295	 0.293212236481084 
1296	 0.293524954775868 
1297	 0.293844128989345 
1298	 0.294171974923911 
1299	 0.294494791935228 
1300	 0.294820613126059 
1301	 0.295141043895497 
1302	 0.295452348950729 
1303	 0.295771593964774 
1304	 0.296105911128099 
1305	 0.296417383512615 
1306	 0.296704866981847 
1307	 0.297014868380352 
1308	 0.297314230640819 
1309	 0.297628910055976 
1310	 0.297949531924924 
1311	 0.298298301710476 
1312	 0.298622940846364 
1313	 0.298945309331804 
1314	 0.299249302143638 
1315	 0.299533688366878 
1316	 0.299842324613547 
1317	 0.300151805937241 
1318	 0.300452547080933 
1319	 0.300777173279195 
1320	 0.30106776760392 
1321	 0.301323612529858 
1322	 0.30159319664481 
1323	 0.301856169439276 
1324	 0.302123652703215 
1325	 0.302391915182413 
1326	 0.302661456546158 
1327	 0.302934430603163 
1328	 0.303204523031097 
1329	 0.303480345544577 
1330	 0.303744487961903 
1331	 0.304008565504922 
1332	 0.304258402167692 
1333	 0.304485423693496 
1334	 0.304722073015303 
1335	 0.304958002797105 
1336	 0.305194804201514 
1337	 0.305409403494445 
1338	 0.30562238130135 
1339	 0.305824122497776 
1340	 0.305994426648454 
1341	 0.306193651119239 
1342	 0.30640857542677 
1343	 0.306609080027262 
1344	 0.306816506926791 
1345	 0.307007700468144 
1346	 0.307186091829541 
1347	 0.307362161368098 
1348	 0.30753598885686 
1349	 0.30769711533864 
1350	 0.307846743931889 
1351	 0.307997732758854 
1352	 0.308148698166267 
1353	 0.308282562858173 
1354	 0.308406891848215 
1355	 0.308529470809738 
1356	 0.308626603069847 
1357	 0.308741063501002 
1358	 0.308865756804895 
1359	 0.308991952014389 
1360	 0.309130061409424 
1361	 0.309258641411609 
1362	 0.309395570431171 
1363	 0.30951755612116 
1364	 0.309639643015157 
1365	 0.30976439359225 
1366	 0.309863248146601 
1367	 0.309952203835059 
1368	 0.310028010639756 
1369	 0.310076572277534 
1370	 0.310140366708664 
1371	 0.310214110904018 
1372	 0.310257328921321 
1373	 0.310296884869169 
1374	 0.31031363579385 
1375	 0.310296679620399 
1376	 0.310287955763321 
1377	 0.310275955357921 
1378	 0.310252487110538 
1379	 0.310224171163062 
1380	 0.310184681999035 
1381	 0.310123374741705 
1382	 0.310073519696809 
1383	 0.310020108895395 
1384	 0.309968977647772 
1385	 0.309921091447166 
1386	 0.309876673163323 
1387	 0.309822520554317 
1388	 0.309788411711819 
1389	 0.309764836594668 
1390	 0.309752615197357 
1391	 0.309758413404022 
1392	 0.309770051172197 
1393	 0.309788000181038 
1394	 0.309793967289004 
1395	 0.309801788460051 
1396	 0.309820537713886 
1397	 0.309793337568883 
1398	 0.309763205934799 
1399	 0.309683288583426 
1400	 0.309567244899017 
1401	 0.309415215696027 
1402	 0.309235519287985 
1403	 0.309009875620212 
1404	 0.308732267076359 
1405	 0.308445145097046 
1406	 0.308117061991942 
1407	 0.307791159224507 
1408	 0.307445176477405 
1409	 0.307096777670834 
1410	 0.306727705169494 
1411	 0.306376730200942 
1412	 0.305999528920552 
1413	 0.305684673084312 
1414	 0.305394963560391 
1415	 0.305136184582304 
1416	 0.304921419287946 
1417	 0.304724083503036 
1418	 0.304548642617896 
1419	 0.304399089851959 
1420	 0.30428581525062 
1421	 0.30418209229833 
1422	 0.304101764033851 
1423	 0.304028661673419 
1424	 0.303963871806545 
1425	 0.303916161679586 
1426	 0.303880938379484 
1427	 0.303859296428775 
1428	 0.303859690011124 
1429	 0.303867995234107 
1430	 0.303887964410498 
1431	 0.303923735397462 
1432	 0.303961707782418 
1433	 0.304007928547681 
1434	 0.304060208126951 
1435	 0.3041174305834 
1436	 0.304186323351337 
1437	 0.304263420447796 
1438	 0.304350256122803 
1439	 0.304445299095852 
1440	 0.304552173767076 
1441	 0.304659640910371 
1442	 0.304801309845534 
1443	 0.304945907158113 
1444	 0.305148765649031 
1445	 0.305388534871873 
1446	 0.305662308051601 
1447	 0.30597610787087 
1448	 0.306327228248506 
1449	 0.306713562674376 
1450	 0.307137847640925 
1451	 0.307617931234037 
1452	 0.308106878990865 
1453	 0.308626575749231 
1454	 0.309158611616315 
1455	 0.309717855440393 
1456	 0.310276552078055 
1457	 0.310859008310702 
1458	 0.311435201854421 
1459	 0.312013671501403 
1460	 0.312590503843258 
1461	 0.31317496704183 
1462	 0.313741762863486 
1463	 0.314299629669122 
1464	 0.314852295112579 
1465	 0.315381820730656 
1466	 0.315935203049023 
1467	 0.316456858648424 
1468	 0.316973295241936 
1469	 0.317494212798752 
1470	 0.317983379707564 
1471	 0.318483058913611 
1472	 0.318982759456068 
1473	 0.319482069152757 
1474	 0.319978968122106 
1475	 0.320468738629584 
1476	 0.320964251488973 
1477	 0.321438224582471 
1478	 0.321900383640785 
1479	 0.322343521639373 
1480	 0.322762005631001 
1481	 0.323198544718745 
1482	 0.323632377374117 
1483	 0.324053958841666 
1484	 0.324478677489047 
1485	 0.324898850749449 
1486	 0.325301664219026 
1487	 0.325705275033355 
1488	 0.326114685808739 
1489	 0.326519169060447 
1490	 0.326908256582306 
1491	 0.327309505066044 
1492	 0.32771080633365 
1493	 0.328129133984612 
1494	 0.328555539536672 
1495	 0.328985612419981 
1496	 0.329440652937108 
1497	 0.329877276304245 
1498	 0.330310985044723 
1499	 0.330735435806964 
1500	 0.331145807883868 
1501	 0.331563873242583 
1502	 0.331979646837325 
1503	 0.332391613001314 
1504	 0.332812280418412 
1505	 0.33321799225869 
1506	 0.333613767199138 
1507	 0.334003715426199 
1508	 0.334381581370171 
1509	 0.334759832210358 
1510	 0.335147394189494 
1511	 0.335506878536355 
1512	 0.335849974950111 
1513	 0.336186579371286 
1514	 0.336500760273378 
1515	 0.336809450548002 
1516	 0.337111529225201 
1517	 0.337411043687695 
1518	 0.337703253207189 
1519	 0.337984997792647 
1520	 0.338259073304062 
1521	 0.338534397679222 
1522	 0.33878775837972 
1523	 0.339046155187489 
1524	 0.339293547824124 
1525	 0.339536442011688 
1526	 0.339775220451477 
1527	 0.340005102627084 
1528	 0.340234704256212 
1529	 0.340460505211122 
1530	 0.340690151921017 
1531	 0.340916885088765 
1532	 0.341148553699301 
1533	 0.341386543342272 
1534	 0.341618196551752 
1535	 0.34184418656909 
1536	 0.342080068252768 
1537	 0.342316469290727 
1538	 0.342560093791649 
1539	 0.342815551349138 
1540	 0.343062558425892 
1541	 0.343298174987477 
1542	 0.343564970322285 
1543	 0.343847684730335 
1544	 0.344120780657704 
1545	 0.344410945343223 
1546	 0.344694082434895 
1547	 0.344957464714536 
1548	 0.34524696544221 
1549	 0.345553661637045 
1550	 0.345862891468204 
1551	 0.346187637452014 
1552	 0.346497702334098 
1553	 0.346811513374575 
1554	 0.347116716514115 
1555	 0.347412051359194 
1556	 0.347704696533502 
1557	 0.347993407727947 
1558	 0.34828232930054 
1559	 0.348562756277632 
1560	 0.348848949516368 
1561	 0.349131348824514 
1562	 0.34943047262066 
1563	 0.349739495306762 
1564	 0.350047324660904 
1565	 0.350380939152677 
1566	 0.350682440500693 
1567	 0.350954533398516 
1568	 0.351251606950416 
1569	 0.351540004736314 
1570	 0.351845305291304 
1571	 0.352190095193694 
1572	 0.352497354203642 
1573	 0.35277885387667 
1574	 0.353082431575622 
1575	 0.353390493452583 
1576	 0.353682656486359 
1577	 0.353983563823533 
1578	 0.354274395169896 
1579	 0.35454047241939 
1580	 0.354811714160996 
1581	 0.355087620794748 
1582	 0.355362681169506 
1583	 0.355630132775163 
1584	 0.355899463757809 
1585	 0.356164329634406 
1586	 0.356446430963106 
1587	 0.356741580854657 
1588	 0.357024864436927 
1589	 0.357329579933742 
1590	 0.357606143145137 
1591	 0.357845267811389 
1592	 0.358106515641317 
1593	 0.358372673534614 
1594	 0.358631992851806 
1595	 0.358897240510089 
1596	 0.359157751000345 
1597	 0.359402357009376 
1598	 0.359657934274083 
1599	 0.359927222362546 
1600	 0.360185523067975 
1601	 0.360442799680618 
1602	 0.360695897231323 
1603	 0.360938016607477 
1604	 0.361184191351905 
1605	 0.361438291319445 
1606	 0.361678217729215 
1607	 0.361913610130725 
1608	 0.362142600853104 
1609	 0.362361422784643 
1610	 0.362574402264069 
1611	 0.36278623553153 
1612	 0.362984233541655 
1613	 0.363165255923047 
1614	 0.36334652195175 
1615	 0.363522456077528 
1616	 0.363691972827032 
1617	 0.363853818639068 
1618	 0.364017735167983 
1619	 0.364175914878321 
1620	 0.364332220964766 
1621	 0.364489181646528 
1622	 0.364645230492063 
1623	 0.364808958288912 
1624	 0.364951887829111 
1625	 0.365075597334952 
1626	 0.365211700412937 
1627	 0.365340574430345 
1628	 0.365466135494513 
1629	 0.365605673772421 
1630	 0.365730948249721 
1631	 0.365842290664036 
1632	 0.365949357939039 
1633	 0.366029955548403 
1634	 0.366148789611753 
1635	 0.366283767266282 
1636	 0.366416993946454 
1637	 0.366588382105901 
1638	 0.366734089058398 
1639	 0.366863894473724 
1640	 0.366985578647163 
1641	 0.367103810865386 
1642	 0.367207902462389 
1643	 0.367286982091063 
1644	 0.367377013007922 
1645	 0.36746501099721 
1646	 0.367546577771411 
1647	 0.367655357285934 
1648	 0.367713108717426 
1649	 0.367739403470374 
1650	 0.367754933653734 
1651	 0.367733494287974 
1652	 0.367705324500417 
1653	 0.36767422953025 
1654	 0.367621938253295 
1655	 0.367551010961498 
1656	 0.367460808844387 
1657	 0.367360120225711 
1658	 0.367222068890139 
1659	 0.367056203162256 
1660	 0.366868296200205 
1661	 0.366664882544808 
1662	 0.366412456085648 
1663	 0.366137118858802 
1664	 0.365798590292064 
1665	 0.365399506195718 
1666	 0.364958589987105 
1667	 0.36447355269764 
1668	 0.363941032807109 
1669	 0.363370486814106 
1670	 0.362738839380335 
1671	 0.362045563310695 
1672	 0.361298393357226 
1673	 0.360488784817282 
1674	 0.359634336844156 
1675	 0.358731324745821 
1676	 0.357797518289191 
1677	 0.356832156136561 
1678	 0.35579254492179 
1679	 0.354682002209675 
1680	 0.35353370229106 
1681	 0.352336065904663 
1682	 0.35106986454389 
1683	 0.349764474479586 
1684	 0.348410984482541 
1685	 0.34697671934032 
1686	 0.345508256321123 
1687	 0.34398946095776 
1688	 0.342429129886984 
1689	 0.340820579318743 
1690	 0.339151738421964 
1691	 0.337447588673136 
1692	 0.33571721452979 
1693	 0.333929451406119 
1694	 0.332112513473912 
1695	 0.330247419986531 
1696	 0.328360657360383 
1697	 0.326421064493126 
1698	 0.324477296872506 
1699	 0.322513708310549 
1700	 0.320612615046568 
1701	 0.31868438476099 
1702	 0.316856197730845 
1703	 0.315054030646049 
1704	 0.313387011628207 
1705	 0.311786446600994 
1706	 0.310299170507461 
1707	 0.309004496727074 
1708	 0.307755440749515 
1709	 0.306610503832675 
1710	 0.305587084384174 
1711	 0.304570988930369 
1712	 0.303636859487575 
1713	 0.302759632345194 
1714	 0.301919851529699 
1715	 0.301195639800618 
1716	 0.300495900064868 
1717	 0.299847856688888 
1718	 0.299258196777628 
1719	 0.298662717272848 
1720	 0.298157630710255 
1721	 0.297739149019435 
1722	 0.297401634977137 
1723	 0.297216863200711 
1724	 0.297149963644758 
1725	 0.297200612159009 
1726	 0.297404435382156 
1727	 0.297744726127851 
1728	 0.298226718900064 
1729	 0.298900508725283 
1730	 0.299727689773795 
1731	 0.300614516523053 
1732	 0.301621073866629 
1733	 0.302624228460416 
1734	 0.30359605769551 
1735	 0.304591377726278 
1736	 0.305496287800833 
1737	 0.306287909380318 
1738	 0.306944009977444 
1739	 0.307455072344085 
1740	 0.307810481536801 
1741	 0.308068253923937 
1742	 0.308172844724958 
1743	 0.308229573612275 
1744	 0.308147485628602 
1745	 0.308073642174732 
1746	 0.30792244303791 
1747	 0.307814587113854 
1748	 0.307679303284435 
1749	 0.307617724104008 
1750	 0.307568717752917 
1751	 0.30761208216244 
1752	 0.307715513154788 
1753	 0.307912909899467 
1754	 0.308174943369462 
1755	 0.308544028795316 
1756	 0.309001469867958 
1757	 0.309521310864914 
1758	 0.310211806718306 
1759	 0.310967644076935 
1760	 0.311859565731716 
1761	 0.312900614291165 
1762	 0.313983994742209 
1763	 0.315227159697049 
1764	 0.316518537137671 
1765	 0.317815553031846 
1766	 0.319256630129616 
1767	 0.32067501982926 
1768	 0.322115258060889 
1769	 0.323619342710889 
1770	 0.3249769641532 
1771	 0.326272245309403 
1772	 0.327506399811892 
1773	 0.328634645044923 
1774	 0.329782755110919 
1775	 0.33084948888596 
1776	 0.331877331798419 
1777	 0.332861318334679 
1778	 0.333677003038049 
1779	 0.334466923836263 
1780	 0.335210587915947 
1781	 0.335889743564448 
1782	 0.336587962564817 
1783	 0.337206586432633 
1784	 0.337769787878678 
1785	 0.338237987919323 
1786	 0.33869355553883 
1787	 0.339134176644079 
1788	 0.33952614319278 
1789	 0.339866261847548 
1790	 0.340216852596058 
1791	 0.340532605985215 
1792	 0.340851666946034 
1793	 0.34116893394167 
1794	 0.341472690704465 
1795	 0.341766058477987 
1796	 0.342049305239478 
1797	 0.342339499760026 
1798	 0.34262904429172 
1799	 0.342929204076764 
1800	 0.343261340673637 
1801	 0.342995187844656 
1802	 0.343338445715737 
1803	 0.343676213574356 
1804	 0.343998047150855 
1805	 0.344356148580636 
1806	 0.344696061185362 
1807	 0.34503192540308 
1808	 0.34537156496533 
1809	 0.345718348494153 
1810	 0.346053480035246 
1811	 0.346378327436302 
1812	 0.34671818719008 
1813	 0.347055724894804 
1814	 0.347406584131772 
1815	 0.347761335950421 
1816	 0.348118664614975 
1817	 0.348491868165975 
1818	 0.348878399543156 
1819	 0.349256830951951 
1820	 0.349646309189618 
1821	 0.350034224527884 
1822	 0.35041875578201 
1823	 0.350798012660972 
1824	 0.351174948581869 
1825	 0.351578733239558 
1826	 0.35197501257556 
1827	 0.352369181837942 
1828	 0.352755385325417 
1829	 0.353151263704784 
1830	 0.353529386194907 
1831	 0.353884013512969 
1832	 0.354266971875264 
1833	 0.354623350628401 
1834	 0.354976742934189 
1835	 0.355328833644852 
1836	 0.355665020534969 
1837	 0.356018269880839 
1838	 0.356377722308167 
1839	 0.356737954882483 
1840	 0.3571090323279 
1841	 0.357473721350156 
1842	 0.357828714990388 
1843	 0.358200928923251 
1844	 0.35858953934237 
1845	 0.358940891446306 
1846	 0.359309728247516 
1847	 0.359666126985503 
1848	 0.359992542080401 
1849	 0.360296662089027 
1850	 0.360595413684028 
1851	 0.360884830618059 
1852	 0.361146042260263 
1853	 0.361378787349788 
1854	 0.361571173330091 
1855	 0.361721959903356 
1856	 0.361842074990557 
1857	 0.361949155779539 
1858	 0.362033887184917 
1859	 0.362097871904503 
1860	 0.362158306362675 
1861	 0.362163302512568 
1862	 0.362136759680399 
1863	 0.362078004873282 
1864	 0.361974857904617 
1865	 0.361822683439562 
1866	 0.361618748709913 
1867	 0.361376567485732 
1868	 0.361114164716843 
1869	 0.360778956517613 
1870	 0.360394642106851 
1871	 0.359967630167547 
1872	 0.359506089578074 
1873	 0.358982093487524 
1874	 0.358454504878175 
1875	 0.357904514445893 
1876	 0.357246783295758 
1877	 0.356544577814167 
1878	 0.355714485790204 
1879	 0.354757256875444 
1880	 0.353783626835643 
1881	 0.352685356047869 
1882	 0.351478552361349 
1883	 0.350186439936956 
1884	 0.348771777036581 
1885	 0.347144769764218 
1886	 0.345448478071814 
1887	 0.343586267446569 
1888	 0.341550567612186 
1889	 0.339569318747236 
1890	 0.33742792155478 
1891	 0.335238472237061 
1892	 0.333059422220176 
1893	 0.330817725583082 
1894	 0.328462926424017 
1895	 0.326200667302109 
1896	 0.323934165998139 
1897	 0.321696522248422 
1898	 0.319660725387047 
1899	 0.317616539720161 
1900	 0.315665741759549 
1901	 0.313856357384064 
1902	 0.312004482669082 
1903	 0.31032032044651 
1904	 0.308738632244207 
1905	 0.307246734977891 
1906	 0.305841284261221 
1907	 0.304639180458393 
1908	 0.303477584072689 
1909	 0.302413184878998 
1910	 0.301472914702083 
1911	 0.300544374033696 
1912	 0.299715816027065 
1913	 0.298954718623678 
1914	 0.298239429171817 
1915	 0.297613541582462 
1916	 0.297094893638391 
1917	 0.29659943930104 
1918	 0.29614122525405 
1919	 0.295744462913871 
1920	 0.295363065135181 
1921	 0.295038022945273 
1922	 0.294759672056758 
1923	 0.294511578438627 
1924	 0.294315748109187 
1925	 0.294141381706204 
1926	 0.29398902451175 
1927	 0.293869094388796 
1928	 0.293767351723378 
1929	 0.29367658649458 
1930	 0.293626921583748 
1931	 0.293613917501346 
1932	 0.2936344543057 
1933	 0.293698513872813 
1934	 0.293795460191081 
1935	 0.293925094652448 
1936	 0.29410548723389 
1937	 0.294323335567543 
1938	 0.294577376736819 
1939	 0.294870475041562 
1940	 0.295204779514717 
1941	 0.295587796436532 
1942	 0.295979190415555 
1943	 0.296427491788261 
1944	 0.296908341371195 
1945	 0.297392372582396 
1946	 0.297938186582062 
1947	 0.298511586680912 
1948	 0.299132935594131 
1949	 0.29978726439759 
1950	 0.30043063870368 
1951	 0.301084783149422 
1952	 0.301768986946818 
1953	 0.302452052488113 
1954	 0.303157997056841 
1955	 0.303950455596825 
1956	 0.304710920592698 
1957	 0.305478181592683 
1958	 0.306269614608901 
1959	 0.306979922159932 
1960	 0.307681550409014 
1961	 0.308365694779348 
1962	 0.309016033879536 
1963	 0.309652716360958 
1964	 0.310292657920947 
1965	 0.310882308177866 
1966	 0.311441805293743 
1967	 0.311970204180726 
1968	 0.312458397734757 
1969	 0.312972624530038 
1970	 0.31346530984219 
1971	 0.313952858666704 
1972	 0.314490076287524 
1973	 0.314986843480857 
1974	 0.315494180966496 
1975	 0.31602692704846 
1976	 0.316541135055562 
1977	 0.317031023915742 
1978	 0.317542444416252 
1979	 0.318063603332179 
1980	 0.31856801409468 
1981	 0.319108274150186 
1982	 0.319620119452824 
1983	 0.320154305709209 
1984	 0.320718823356567 
1985	 0.321260415716186 
1986	 0.321828933727306 
1987	 0.322382304696962 
1988	 0.322906249087793 
1989	 0.323480235878003 
1990	 0.324077635582241 
1991	 0.324667105042125 
1992	 0.325282176840104 
1993	 0.325914686009391 
1994	 0.326476570798415 
1995	 0.327086470005783 
1996	 0.327704965595321 
1997	 0.328302194951588 
1998	 0.32890068662489 
1999	 0.329521775263046 
2000	 0.330082072022941 
2001	 0.330630692976964 
2002	 0.33113433229504 
2003	 0.331604352100572 
2004	 0.332034287839148 
2005	 0.332406493306169 
2006	 0.332772862092798 
2007	 0.333107345297678 
2008	 0.333422886826694 
2009	 0.333736792366364 
2010	 0.334029901362564 
2011	 0.334272309769427 
2012	 0.334495897337211 
2013	 0.334670779425818 
2014	 0.334793208283262 
2015	 0.334900122585819 
2016	 0.334976885617771 
2017	 0.335018988298071 
2018	 0.33502460067761 
2019	 0.335012001253329 
2020	 0.334970354835103 
2021	 0.334903513593801 
2022	 0.334793977423411 
2023	 0.334680745860677 
2024	 0.334527336113924 
2025	 0.334322109159875 
2026	 0.334118746561478 
2027	 0.333888627720817 
2028	 0.333663971732437 
2029	 0.333428767120981 
2030	 0.33318639015747 
2031	 0.332942434016467 
2032	 0.332686935111659 
2033	 0.332403027698628 
2034	 0.332140939108802 
2035	 0.331887119475173 
2036	 0.331619373302038 
2037	 0.331371249377254 
2038	 0.331137587018335 
2039	 0.330920701194813 
2040	 0.330717996395242 
2041	 0.330520328091144 
2042	 0.330349212138591 
2043	 0.330166729605649 
2044	 0.329970471690407 
2045	 0.329800830833094 
2046	 0.329647728799242 
2047	 0.329490142815094 
2048	 0.329346494246565 
2049	 0.329202429408221 
2050	 0.329045172700493 
2051	 0.328913877730873 
2052	 0.328787546923188 
2053	 0.328680094525313 
2054	 0.328577489259712 
2055	 0.3284903306258 
2056	 0.328397127308987 
2057	 0.3283138993731 
2058	 0.328222501543904 
2059	 0.328141865383891 
2060	 0.328039676011496 
2061	 0.327915184467102 
2062	 0.327802103271077 
2063	 0.327667231227378 
2064	 0.327556985417984 
2065	 0.327467115803627 
2066	 0.327386847813654 
2067	 0.327278557538489 
2068	 0.327183130761322 
2069	 0.327077549786976 
2070	 0.326947783585267 
2071	 0.326839525964936 
2072	 0.326747892186649 
2073	 0.326643570363288 
2074	 0.326542978629989 
2075	 0.326432472209111 
2076	 0.326309392921896 
2077	 0.326194052262939 
2078	 0.326071474198657 
2079	 0.325955591835818 
2080	 0.325860470622019 
2081	 0.325744194550087 
2082	 0.325618553643862 
2083	 0.325497771049679 
2084	 0.325338369040311 
2085	 0.325176876413845 
2086	 0.32502781866392 
2087	 0.324871449375832 
2088	 0.324728764480636 
2089	 0.324613344032966 
2090	 0.324468863105669 
2091	 0.324319957751546 
2092	 0.324158445401326 
2093	 0.323984365798788 
2094	 0.323800259403275 
2095	 0.323605676940646 
2096	 0.323403572759647 
2097	 0.323201803687585 
2098	 0.322967952255293 
2099	 0.322729844402042 
2100	 0.322476606728397 
2101	 0.322195384762234 
2102	 0.321890856663388 
2103	 0.32156821734956 
2104	 0.321212658189013 
2105	 0.320862583745706 
2106	 0.320502042589121 
2107	 0.320123615108617 
2108	 0.31974383907357 
2109	 0.319337768786662 
2110	 0.318916041503211 
2111	 0.318464067930474 
2112	 0.317971564870405 
2113	 0.317486139704423 
2114	 0.316968979952603 
2115	 0.316460116393445 
2116	 0.315957306543804 
2117	 0.315464417920808 
2118	 0.31494218173669 
2119	 0.314401554781104 
2120	 0.313878921172792 
2121	 0.313330444435625 
2122	 0.312826179544408 
2123	 0.312329605149686 
2124	 0.311880693716937 
2125	 0.311459940227935 
2126	 0.311076920810053 
2127	 0.310743545609811 
2128	 0.310425151134765 
2129	 0.310130455235575 
2130	 0.309862902950286 
2131	 0.30962627177099 
2132	 0.309410972591374 
2133	 0.309215339415998 
2134	 0.309065439344928 
2135	 0.308911490844208 
2136	 0.308773223462175 
2137	 0.308666753598834 
2138	 0.308583874130307 
2139	 0.308507257291593 
2140	 0.308460954852634 
2141	 0.308416559323629 
2142	 0.308351984975588 
2143	 0.308356294261909 
2144	 0.308405920324855 
2145	 0.308464363947842 
2146	 0.308565657719741 
2147	 0.308675560752786 
2148	 0.308788432269468 
2149	 0.30893204687756 
2150	 0.309106128155697 
2151	 0.309296874286746 
2152	 0.30951942903005 
2153	 0.309744797157404 
2154	 0.309986474504978 
2155	 0.310235063321948 
2156	 0.310450488771953 
2157	 0.310651289852432 
2158	 0.310854452302024 
2159	 0.311045468471035 
2160	 0.311220220697247 
2161	 0.311410515844448 
2162	 0.31154277039106 
2163	 0.31162360378649 
2164	 0.311717615628381 
2165	 0.311792549639585 
2166	 0.311852867755034 
2167	 0.311900965272074 
2168	 0.311948130861681 
2169	 0.311960157696897 
2170	 0.311996271920922 
2171	 0.312049617612315 
2172	 0.312102941820683 
2173	 0.312161640205834 
2174	 0.312230860626021 
2175	 0.312276498813181 
2176	 0.312301342165149 
2177	 0.312340503332563 
2178	 0.312366906433573 
2179	 0.312399182603137 
2180	 0.312446702767036 
2181	 0.312476201222151 
2182	 0.312491904535274 
2183	 0.312510658909328 
2184	 0.312548664814889 
2185	 0.312540065263044 
2186	 0.312522439466085 
2187	 0.312459715590186 
2188	 0.312336856872525 
2189	 0.312228679930529 
2190	 0.312088096268457 
2191	 0.311966182533824 
2192	 0.311860028748242 
2193	 0.311737219617703 
2194	 0.311620824318868 
2195	 0.311480257864011 
2196	 0.311318299514061 
2197	 0.311149170888548 
2198	 0.3109812587946 
2199	 0.310787519988854 
2200	 0.31056730067486 
2201	 0.310336087470683 
2202	 0.310069932647318 
2203	 0.309753972123729 
2204	 0.309462012534919 
2205	 0.30916034325305 
2206	 0.308852234336197 
2207	 0.308545954169536 
2208	 0.308225667575905 
2209	 0.307893519603467 
2210	 0.307553407019147 
2211	 0.307206831878681 
2212	 0.3068506275437 
2213	 0.306486947452866 
2214	 0.306102421641849 
2215	 0.305707538253568 
2216	 0.305297071040392 
2217	 0.304873851907172 
2218	 0.304425589615059 
2219	 0.303975717541094 
2220	 0.30348423760205 
2221	 0.302957557312855 
2222	 0.302397196129924 
2223	 0.301840731304664 
2224	 0.301214166729258 
2225	 0.300546369069244 
2226	 0.299853179415494 
2227	 0.299064980746195 
2228	 0.298217569384726 
2229	 0.297272734663373 
2230	 0.296232637162974 
2231	 0.295142378487314 
2232	 0.293982225374737 
2233	 0.292719096003991 
2234	 0.291434942247193 
2235	 0.289945634706444 
2236	 0.288298290327052 
2237	 0.286563798992396 
2238	 0.284631751684385 
2239	 0.28269764020489 
2240	 0.280719481862521 
2241	 0.278608815967733 
2242	 0.276485731282637 
2243	 0.274142057451382 
2244	 0.271569435903093 
2245	 0.268983827312488 
2246	 0.266143609415 
2247	 0.26341730904709 
2248	 0.260756429309324 
2249	 0.258005454966796 
2250	 0.255232578841289 
2251	 0.252494254189318 
2252	 0.249501840656618 
2253	 0.246599140044222 
2254	 0.243700165650578 
2255	 0.240752669829229 
2256	 0.238080338845603 
2257	 0.235412148140433 
2258	 0.23282420848778 
2259	 0.23038494643378 
2260	 0.227887223626784 
2261	 0.225378447986347 
2262	 0.22296849509483 
2263	 0.220544001254569 
2264	 0.218278426924357 
2265	 0.21615738973348 
2266	 0.214021285561986 
2267	 0.212016525582476 
2268	 0.209942323651909 
2269	 0.207824405533712 
2270	 0.205798287070189 
2271	 0.203758943505711 
2272	 0.201815886373128 
2273	 0.199991424996895 
2274	 0.198141944052466 
2275	 0.196415320202527 
2276	 0.194560381952923 
2277	 0.192645026388064 
2278	 0.190737528131797 
2279	 0.18872083244732 
2280	 0.18675233662143 
2281	 0.184863630981197 
2282	 0.182890647553929 
2283	 0.180880184967529 
2284	 0.178891185567883 
2285	 0.176735084774029 
2286	 0.174579587045089 
2287	 0.172386318118956 
2288	 0.170156477086917 
2289	 0.168070773344916 
2290	 0.1659317557383 
2291	 0.163819603536143 
2292	 0.161752679151794 
2293	 0.159630810458738 
2294	 0.157663012390235 
2295	 0.155829443053097 
2296	 0.154133678888168 
2297	 0.15269716712809 
2298	 0.151471678684056 
2299	 0.150473292178495 
2300	 0.149697037634565 
2301	 0.149189668579361 
2302	 0.148938597058677 
2303	 0.1489314405731 
2304	 0.149216845955994 
2305	 0.149692165477722 
2306	 0.150439954297412 
2307	 0.151353329189964 
2308	 0.15248921216344 
2309	 0.153810187626692 
2310	 0.155410740075003 
2311	 0.157021677891512 
2312	 0.158910684233649 
2313	 0.160669427741015 
2314	 0.162495330568539 
2315	 0.164205359650938 
2316	 0.165899222100386 
2317	 0.167423488931381 
2318	 0.168896200264832 
2319	 0.170123572549527 
2320	 0.17120725175142 
2321	 0.172060235536023 
2322	 0.172647589417158 
2323	 0.173103967309619 
2324	 0.173330892290713 
2325	 0.173442711108152 
2326	 0.173409098033096 
2327	 0.173219021724552 
2328	 0.172838972075214 
2329	 0.172347891599808 
2330	 0.171714355263725 
2331	 0.170897907548695 
2332	 0.17001242329593 
2333	 0.169049028204546 
2334	 0.167868082080464 
2335	 0.166615490574649 
2336	 0.165251711943413 
2337	 0.163762633645663 
2338	 0.162403766563967 
2339	 0.161044584884244 
2340	 0.159725704711123 
2341	 0.158564177054213 
2342	 0.157439526769105 
2343	 0.15655147350044 
2344	 0.155939705654763 
2345	 0.155568415279485 
2346	 0.155485323890041 
2347	 0.155689691338908 
2348	 0.156139627612577 
2349	 0.15690662965572 
2350	 0.157925090981544 
2351	 0.159100832039233 
2352	 0.160377531680953 
2353	 0.161715555912337 
2354	 0.162998287334443 
2355	 0.164176145527903 
2356	 0.16527497782414 
2357	 0.166177279631468 
2358	 0.166938514326695 
2359	 0.16757456074697 
2360	 0.168059825078043 
2361	 0.168419466232058 
2362	 0.168683199962456 
2363	 0.168837427446719 
2364	 0.16891083065766 
2365	 0.168952232928613 
2366	 0.16896098846072 
2367	 0.168954004129955 
2368	 0.168963035847567 
2369	 0.168929508037948 
2370	 0.168921356719778 
2371	 0.16899114709127 
2372	 0.169009156957262 
2373	 0.169014938683934 
2374	 0.169036184364372 
2375	 0.169061956867044 
2376	 0.16907934729269 
2377	 0.169140680249815 
2378	 0.169280460823282 
2379	 0.1693746117446 
2380	 0.169484880996017 
2381	 0.169642757836307 
2382	 0.169764104101816 
2383	 0.169829754898066 
2384	 0.169943335945239 
2385	 0.170063001922766 
2386	 0.170198947261971 
2387	 0.170371451927253 
2388	 0.170524050020726 
2389	 0.170695346864957 
2390	 0.170844091748914 
2391	 0.170959849942418 
2392	 0.171058962890909 
2393	 0.171142322408352 
2394	 0.17123551073093 
2395	 0.171358969779812 
2396	 0.171412295682645 
2397	 0.171397287180538 
2398	 0.171474976264019 
2399	 0.171527896091655 
2400	 0.17158667452542 
2401	 0.171760440248458 
2402	 0.171784562506366 
2403	 0.171758495127472 
2404	 0.171859180485683 
2405	 0.172013491461905 
2406	 0.172155983285123 
2407	 0.172253905140097 
2408	 0.172223940706422 
2409	 0.172140540633586 
2410	 0.172103815608824 
2411	 0.1721512945092 
2412	 0.172189921140141 
2413	 0.172217470306667 
2414	 0.17227718806979 
2415	 0.172276862666765 
2416	 0.172293564813204 
2417	 0.172304515905099 
2418	 0.172221461753063 
2419	 0.172142934393963 
2420	 0.172181709634354 
2421	 0.172239317850107 
2422	 0.172160249197769 
2423	 0.172056036328762 
2424	 0.171925443458145 
2425	 0.171817594541428 
2426	 0.171912904828192 
2427	 0.172056859527871 
2428	 0.17208446260364 
2429	 0.172086593018177 
2430	 0.171996820732623 
2431	 0.171851653957044 
2432	 0.171835530736687 
2433	 0.171743871264271 
2434	 0.171622753466254 
2435	 0.171541423589533 
2436	 0.171406712128696 
2437	 0.171382262629209 
2438	 0.171293462586927 
2439	 0.171078898695911 
2440	 0.170955427414669 
2441	 0.170713251384281 
2442	 0.170441138661706 
2443	 0.170351607294654 
2444	 0.170165860718494 
2445	 0.169970453616785 
2446	 0.169726260149545 
2447	 0.169327804039959 
2448	 0.168921615175112 
2449	 0.168528551215848 
2450	 0.168302794607677 
2451	 0.168088000980865 
2452	 0.167844142635774 
2453	 0.167577388174876 
2454	 0.167214488453194 
2455	 0.166931814257651 
2456	 0.166712449483562 
2457	 0.166524544021907 
2458	 0.166271218745662 
2459	 0.165852132543327 
2460	 0.16532813924954 
2461	 0.164892787386966 
2462	 0.164596881413658 
2463	 0.164414088354463 
2464	 0.16433006933385 
2465	 0.16405040232476 
2466	 0.163690287410066 
2467	 0.16342254199545 
2468	 0.16310984783089 
2469	 0.162822236664908 
2470	 0.162629699280895 
2471	 0.162534797095789 
2472	 0.162468949149327 
2473	 0.162448753874001 
2474	 0.162358286513955 
2475	 0.162083056518646 
2476	 0.161958254048296 
2477	 0.161982670884674 
2478	 0.161937977754625 
2479	 0.161933059578292 
2480	 0.161938502324317 
2481	 0.161981634389782 
2482	 0.162145821870727 
2483	 0.162162903192306 
2484	 0.161967574979525 
2485	 0.161926257282536 
2486	 0.162199481777831 
2487	 0.162502331964523 
2488	 0.163013730589608 
2489	 0.163328741325793 
2490	 0.16328282906787 
2491	 0.163448363866462 
2492	 0.163747891151551 
2493	 0.164116473365833 
2494	 0.164825662196986 
2495	 0.16534481554988 
2496	 0.165623501959631 
2497	 0.166321625484449 
2498	 0.166775886832109 
2499	 0.166970086411699 
2500	 0.167595803323985 
