Wavelength	ProbetaAcolman00032.asd
350	 0.34179039548722 
351	 0.335347131412737 
352	 0.329177558310981 
353	 0.32083706618059 
354	 0.313234502079768 
355	 0.3039935819339 
356	 0.298450789431367 
357	 0.298886055010766 
358	 0.297042384315205 
359	 0.293542486580548 
360	 0.290900309334995 
361	 0.291556296301397 
362	 0.292664547862452 
363	 0.293103239484714 
364	 0.293783097541031 
365	 0.297575199765755 
366	 0.300739530025667 
367	 0.302190631222403 
368	 0.302605393956545 
369	 0.305405009065364 
370	 0.30952317469025 
371	 0.313128761331668 
372	 0.314853164128128 
373	 0.319230344332465 
374	 0.323813584321936 
375	 0.327173137811005 
376	 0.329985047755088 
377	 0.333233369332084 
378	 0.337141336479492 
379	 0.341415816953584 
380	 0.345048767658885 
381	 0.348166047941609 
382	 0.351560313359907 
383	 0.35610884394882 
384	 0.360002365103204 
385	 0.363167431910322 
386	 0.366144534327572 
387	 0.370030895588214 
388	 0.373405419034135 
389	 0.376896208707116 
390	 0.381026923448003 
391	 0.38407227904326 
392	 0.387653060729071 
393	 0.391620520106684 
394	 0.394816207689468 
395	 0.39846340485575 
396	 0.402055150086874 
397	 0.405333318484996 
398	 0.408766581910244 
399	 0.412670969376739 
400	 0.416557713867864 
401	 0.420023254059083 
402	 0.424000294741496 
403	 0.42802515195554 
404	 0.432036674188903 
405	 0.436285436076021 
406	 0.440709639800524 
407	 0.444907640576911 
408	 0.448895297707717 
409	 0.453561478955869 
410	 0.458013230717156 
411	 0.462405418216913 
412	 0.467058462876032 
413	 0.471359499902506 
414	 0.475536330485685 
415	 0.479666133481636 
416	 0.483668295838695 
417	 0.487870064229546 
418	 0.492066237023584 
419	 0.495975444629111 
420	 0.499341829432244 
421	 0.5028568112244 
422	 0.506368034125169 
423	 0.509453904767456 
424	 0.512384087980319 
425	 0.515136112734714 
426	 0.517815275009221 
427	 0.520682670875659 
428	 0.523362419370708 
429	 0.525868296209599 
430	 0.52823479892874 
431	 0.5302295394096 
432	 0.532392749401008 
433	 0.534572695888953 
434	 0.536292293854611 
435	 0.53801435596055 
436	 0.539744326931247 
437	 0.541436697426687 
438	 0.543061582564864 
439	 0.544519058215712 
440	 0.545858661776144 
441	 0.54714585450398 
442	 0.5482785579282 
443	 0.549497276628896 
444	 0.550650393257073 
445	 0.551323978659917 
446	 0.552163512137983 
447	 0.5528632587483 
448	 0.55328453171067 
449	 0.554036776525209 
450	 0.554576807388263 
451	 0.554898993388869 
452	 0.555193107942825 
453	 0.555477886726166 
454	 0.555624782407451 
455	 0.555660767540919 
456	 0.555792540530939 
457	 0.555794363499464 
458	 0.555700735724421 
459	 0.555549183970664 
460	 0.555191222142658 
461	 0.554794411918474 
462	 0.55440370034607 
463	 0.553991439806703 
464	 0.553611989825729 
465	 0.552979867702126 
466	 0.552047689058492 
467	 0.551178982766408 
468	 0.550378586366394 
469	 0.549483873314505 
470	 0.548369537288331 
471	 0.547325078192639 
472	 0.54620422795865 
473	 0.545045048956944 
474	 0.544018940337054 
475	 0.542816796812404 
476	 0.541498787533193 
477	 0.540176241790118 
478	 0.53894169991809 
479	 0.537639192651876 
480	 0.536277730707397 
481	 0.534927211191644 
482	 0.533596037495894 
483	 0.532249864512796 
484	 0.530874705662314 
485	 0.529488895311189 
486	 0.528213602893344 
487	 0.527012794719904 
488	 0.525805667119825 
489	 0.524478917471902 
490	 0.523268952758315 
491	 0.522224428405671 
492	 0.521279030784901 
493	 0.520481473953643 
494	 0.519665476836355 
495	 0.518787650954436 
496	 0.518042879858019 
497	 0.517396611697892 
498	 0.516865062267025 
499	 0.516425040540743 
500	 0.515848348213662 
501	 0.515250973451752 
502	 0.514667714473313 
503	 0.514045792881583 
504	 0.513321218748773 
505	 0.512507253216535 
506	 0.511638593322697 
507	 0.510751134639034 
508	 0.509894356880583 
509	 0.509060238907062 
510	 0.508230257259612 
511	 0.50753925491686 
512	 0.506823586354699 
513	 0.506023935730671 
514	 0.505246290823984 
515	 0.504442861597211 
516	 0.503628792837465 
517	 0.502816658034545 
518	 0.501977314315782 
519	 0.501008742704497 
520	 0.499938830304939 
521	 0.498886552589987 
522	 0.497856830163213 
523	 0.496753456911101 
524	 0.495552407295474 
525	 0.494391905163192 
526	 0.49326440908704 
527	 0.492206532136998 
528	 0.491246564519292 
529	 0.490316188969462 
530	 0.489399888575556 
531	 0.488548155573337 
532	 0.487873718224685 
533	 0.487244868053067 
534	 0.486675967980648 
535	 0.486217545629137 
536	 0.485926370620944 
537	 0.485728458121295 
538	 0.485628054273037 
539	 0.485665518354242 
540	 0.485773024444397 
541	 0.485973532561887 
542	 0.486304740866379 
543	 0.486814053188208 
544	 0.487402656480139 
545	 0.488103803281033 
546	 0.488960858310314 
547	 0.489862434582187 
548	 0.490866922243119 
549	 0.491979849264533 
550	 0.493154205709728 
551	 0.494447785635447 
552	 0.495753443865744 
553	 0.49699377820686 
554	 0.498244876878111 
555	 0.499451306521857 
556	 0.50053737770322 
557	 0.50143646326772 
558	 0.502231197161941 
559	 0.502878933849604 
560	 0.503359529799825 
561	 0.503699050680951 
562	 0.503863363120303 
563	 0.503963409930344 
564	 0.504057061028998 
565	 0.503872925064886 
566	 0.50345777941217 
567	 0.502799239875096 
568	 0.501848631152676 
569	 0.500718775429011 
570	 0.499368432959067 
571	 0.497777794231962 
572	 0.496032995426089 
573	 0.494111684130135 
574	 0.492085619229138 
575	 0.490037536566858 
576	 0.48791053666604 
577	 0.485808282121801 
578	 0.48370015792199 
579	 0.481396242747619 
580	 0.479003875846006 
581	 0.476566615644564 
582	 0.474123403597253 
583	 0.471729733551027 
584	 0.469470422013613 
585	 0.467379722039852 
586	 0.465452582148121 
587	 0.463695669759204 
588	 0.462082540993635 
589	 0.460632285774733 
590	 0.459449827183794 
591	 0.45846309676246 
592	 0.457723667579469 
593	 0.457278208334374 
594	 0.45698774757069 
595	 0.456902639327893 
596	 0.457012048390303 
597	 0.457244603806641 
598	 0.457557819177215 
599	 0.457941032405008 
600	 0.458372923722651 
601	 0.458783106192921 
602	 0.459212740126141 
603	 0.45967275922937 
604	 0.46014595979462 
605	 0.460523788493856 
606	 0.460888199176672 
607	 0.461271595357956 
608	 0.461623243762364 
609	 0.461960983920003 
610	 0.462288408371568 
611	 0.46262018179928 
612	 0.463017526140851 
613	 0.463429837622276 
614	 0.463803883894154 
615	 0.464094439413446 
616	 0.464345242306942 
617	 0.464574103715292 
618	 0.464777079354709 
619	 0.464919360613825 
620	 0.465004734623948 
621	 0.465036694717194 
622	 0.465020996070403 
623	 0.464965554997161 
624	 0.464877490029698 
625	 0.46473195755455 
626	 0.464479157444754 
627	 0.464172344443594 
628	 0.463816943056207 
629	 0.4634121845508 
630	 0.462967436155068 
631	 0.462472035896185 
632	 0.461973406311986 
633	 0.461529928216352 
634	 0.461082653435907 
635	 0.460616237554355 
636	 0.460146179285688 
637	 0.459720770591227 
638	 0.459396565869491 
639	 0.459175429390228 
640	 0.459034633884236 
641	 0.458935292501671 
642	 0.458863689571126 
643	 0.458884532712994 
644	 0.459091211827802 
645	 0.459352982314367 
646	 0.459699420697603 
647	 0.460163056576918 
648	 0.460747561290891 
649	 0.461459771871035 
650	 0.462271062893362 
651	 0.463177958886378 
652	 0.464341461982843 
653	 0.465578098808031 
654	 0.466844614922142 
655	 0.468224996296895 
656	 0.46979483491399 
657	 0.471473901923539 
658	 0.473257932958946 
659	 0.475372880757538 
660	 0.477633303096121 
661	 0.479972177311829 
662	 0.482389693519861 
663	 0.484994299261199 
664	 0.487772523855663 
665	 0.49071485303883 
666	 0.493823425506692 
667	 0.49707958150592 
668	 0.500501486788798 
669	 0.50411250515762 
670	 0.507958911923711 
671	 0.511938013755371 
672	 0.516049012113726 
673	 0.52033916224919 
674	 0.524796327797471 
675	 0.529438680604163 
676	 0.534269699313277 
677	 0.539268648851362 
678	 0.544342891529591 
679	 0.549525659457739 
680	 0.55486186831851 
681	 0.560333769755882 
682	 0.565872684926628 
683	 0.571466921703925 
684	 0.57714334718395 
685	 0.58291426376271 
686	 0.588720619557325 
687	 0.59451459547134 
688	 0.600290508616728 
689	 0.606032427032229 
690	 0.611753520491331 
691	 0.617460742996995 
692	 0.623111137392398 
693	 0.628641884684703 
694	 0.63402240487067 
695	 0.639256955291986 
696	 0.644430595898054 
697	 0.649464856904387 
698	 0.654303831963419 
699	 0.658960469720688 
700	 0.663486178833124 
701	 0.667859123648175 
702	 0.67203241116771 
703	 0.675948422988511 
704	 0.679715102052683 
705	 0.683333508070597 
706	 0.686735635842842 
707	 0.689997663473943 
708	 0.693059515389331 
709	 0.695898015534747 
710	 0.698579678703726 
711	 0.701167484178239 
712	 0.703605139395557 
713	 0.705845652356315 
714	 0.708035375534886 
715	 0.710115356909397 
716	 0.7120683288538 
717	 0.713911439988886 
718	 0.715684627249106 
719	 0.717302185280939 
720	 0.718730346861867 
721	 0.720049343039683 
722	 0.721281467000728 
723	 0.722440539475992 
724	 0.723549984003678 
725	 0.724713077972936 
726	 0.725747897967518 
727	 0.726658404128551 
728	 0.727574935593328 
729	 0.728407667139543 
730	 0.72912680523934 
731	 0.729782877569263 
732	 0.730546834316648 
733	 0.731201023355934 
734	 0.731730741045694 
735	 0.732204824808534 
736	 0.73274922866238 
737	 0.733287707742905 
738	 0.733769498100157 
739	 0.734177227047639 
740	 0.734605790159324 
741	 0.735047974184674 
742	 0.735491707110862 
743	 0.735940986262364 
744	 0.736343756107251 
745	 0.736719404046103 
746	 0.737083541058289 
747	 0.737355293652685 
748	 0.737660162995646 
749	 0.738034994628409 
750	 0.738438531989293 
751	 0.738715676607658 
752	 0.738853151059628 
753	 0.738937802499475 
754	 0.739153894560054 
755	 0.739399890353589 
756	 0.739658856369906 
757	 0.739930076802071 
758	 0.740210984026676 
759	 0.740473275091721 
760	 0.740705558187646 
761	 0.740917605069508 
762	 0.741186526011883 
763	 0.741440803587173 
764	 0.741627008941917 
765	 0.741733280251569 
766	 0.741886113433124 
767	 0.742133717130971 
768	 0.742446658454206 
769	 0.742669104035793 
770	 0.742839893198236 
771	 0.743040295751464 
772	 0.743332044065903 
773	 0.743582766970604 
774	 0.743824144913361 
775	 0.744070202867446 
776	 0.744313217161608 
777	 0.744534630374125 
778	 0.744717811123334 
779	 0.744871839365916 
780	 0.745043415783844 
781	 0.745276582703834 
782	 0.745532759282072 
783	 0.745766270701316 
784	 0.746006345590523 
785	 0.74623907289508 
786	 0.74648308354877 
787	 0.746762380954835 
788	 0.746995352284576 
789	 0.74724810398717 
790	 0.747550967631525 
791	 0.747874176044904 
792	 0.748197729901911 
793	 0.748526772799334 
794	 0.748861957023119 
795	 0.749169994558664 
796	 0.749532818793951 
797	 0.749932551316721 
798	 0.750311608759119 
799	 0.750640462337429 
800	 0.7508902408812 
801	 0.751127564332512 
802	 0.751471489472229 
803	 0.751786979524274 
804	 0.752133527200383 
805	 0.752537339087937 
806	 0.752937936395908 
807	 0.753385847463531 
808	 0.753794559077379 
809	 0.754108824046924 
810	 0.754452296406999 
811	 0.754874951173579 
812	 0.755325852651336 
813	 0.75572816044924 
814	 0.756171949908498 
815	 0.756641936503347 
816	 0.757115901352143 
817	 0.757568454073693 
818	 0.757956603566646 
819	 0.758305113146579 
820	 0.758666146519294 
821	 0.759115504547701 
822	 0.759499407218727 
823	 0.759918924304298 
824	 0.760459547744491 
825	 0.760945056375917 
826	 0.761392312833107 
827	 0.761803277345965 
828	 0.762185045722424 
829	 0.762579705615574 
830	 0.76299586239319 
831	 0.763419459230671 
832	 0.763823580623817 
833	 0.764236004472322 
834	 0.76471822488257 
835	 0.765255336439841 
836	 0.765714705403149 
837	 0.766135709745959 
838	 0.766558284195172 
839	 0.767008103763714 
840	 0.767471727250919 
841	 0.767877871067712 
842	 0.768270956704021 
843	 0.768716250188092 
844	 0.76911508982164 
845	 0.769522446100115 
846	 0.769961293271335 
847	 0.770417180726312 
848	 0.770812961541984 
849	 0.771216418817661 
850	 0.771659508917123 
851	 0.772103827494048 
852	 0.772489520699787 
853	 0.772890354580576 
854	 0.773335942950598 
855	 0.773697379182551 
856	 0.774103566050411 
857	 0.774534109669125 
858	 0.774936875269776 
859	 0.775322673920136 
860	 0.775798002177505 
861	 0.776298635201347 
862	 0.776694109808782 
863	 0.77705573608173 
864	 0.777390824796003 
865	 0.777712848045165 
866	 0.778037740499613 
867	 0.778314417302339 
868	 0.778660488163753 
869	 0.779078841707744 
870	 0.779395647161984 
871	 0.779845275133074 
872	 0.780323684154227 
873	 0.780716601948405 
874	 0.781057431648176 
875	 0.781393062482849 
876	 0.781692067103656 
877	 0.781942618308546 
878	 0.782291007252844 
879	 0.782661247172112 
880	 0.783032375761188 
881	 0.783395319868897 
882	 0.783641584908265 
883	 0.783962344439535 
884	 0.784366137088139 
885	 0.784708668794174 
886	 0.784933930764754 
887	 0.78521909913553 
888	 0.785569185240087 
889	 0.785775236268992 
890	 0.785976411723107 
891	 0.78623710046291 
892	 0.78655464847127 
893	 0.78683910438943 
894	 0.787132132856534 
895	 0.787426326854371 
896	 0.787722169915964 
897	 0.788073782218911 
898	 0.788382055917553 
899	 0.788709262265789 
900	 0.789101551296833 
901	 0.789327329590285 
902	 0.789529996365499 
903	 0.789728676977079 
904	 0.789897779760341 
905	 0.790137501782167 
906	 0.790415241566214 
907	 0.790696903198899 
908	 0.790956815336253 
909	 0.791187619424519 
910	 0.79146270966143 
911	 0.791782979237193 
912	 0.792075193231674 
913	 0.792398865320572 
914	 0.792665647879173 
915	 0.792863586621778 
916	 0.7931102224027 
917	 0.793434909106932 
918	 0.793777198411231 
919	 0.794074799058617 
920	 0.794306289387051 
921	 0.794540403326213 
922	 0.794791559191333 
923	 0.795063828053043 
924	 0.795384761370701 
925	 0.795624428583372 
926	 0.795853185002119 
927	 0.796161608143406 
928	 0.796481116809187 
929	 0.796655889937593 
930	 0.796763381839399 
931	 0.796962741688344 
932	 0.797255720804249 
933	 0.797671751980374 
934	 0.798103691387236 
935	 0.798412977485269 
936	 0.798711256961007 
937	 0.799007343903634 
938	 0.799336043178099 
939	 0.799717581319292 
940	 0.799948721053052 
941	 0.800199208222892 
942	 0.800488678809631 
943	 0.800695895937937 
944	 0.80091762122873 
945	 0.801159090168577 
946	 0.801391665372136 
947	 0.801576838160224 
948	 0.801859646590708 
949	 0.802045803581258 
950	 0.802140190150616 
951	 0.802429366877459 
952	 0.802677813662101 
953	 0.802874769519455 
954	 0.803010832645216 
955	 0.803030198637201 
956	 0.803066830239309 
957	 0.803176483109311 
958	 0.803297281518371 
959	 0.80321810680001 
960	 0.803212412114734 
961	 0.803220093800827 
962	 0.803224449566215 
963	 0.803445358445175 
964	 0.803649581726452 
965	 0.803884020369592 
966	 0.804199757122736 
967	 0.804492061093206 
968	 0.804752771000708 
969	 0.804993664950077 
970	 0.805229313347979 
971	 0.80545528759816 
972	 0.80569031268312 
973	 0.805937650382673 
974	 0.806160169118578 
975	 0.806216774561804 
976	 0.806417761223178 
977	 0.806637939924361 
978	 0.80670684562762 
979	 0.806764144937085 
980	 0.807010556011624 
981	 0.807340283000677 
982	 0.80757600192013 
983	 0.807705710073264 
984	 0.807900388964406 
985	 0.808045115025046 
986	 0.808021287265149 
987	 0.808050994610177 
988	 0.808094938248971 
989	 0.808142236379066 
990	 0.808234088981488 
991	 0.808585592087377 
992	 0.808687861208928 
993	 0.808699487042095 
994	 0.808908188293316 
995	 0.809147250840943 
996	 0.809036279384703 
997	 0.808970979247678 
998	 0.809336888613974 
999	 0.809495110370891 
1000	 0.809542067350702 
1001	 0.824279208277749 
1002	 0.82425792266173 
1003	 0.824302261124367 
1004	 0.824276037369123 
1005	 0.824225595892526 
1006	 0.824237311647533 
1007	 0.824191833318776 
1008	 0.824201168324533 
1009	 0.82436352043953 
1010	 0.824412510764391 
1011	 0.8243840293756 
1012	 0.824415743948776 
1013	 0.82442638642048 
1014	 0.824436407682421 
1015	 0.824507545266098 
1016	 0.824580812824497 
1017	 0.82435555685265 
1018	 0.824182180349503 
1019	 0.8241027838867 
1020	 0.823962811203395 
1021	 0.823863227368294 
1022	 0.823915560790587 
1023	 0.823879440454078 
1024	 0.823742248218695 
1025	 0.823647846176952 
1026	 0.823653513259779 
1027	 0.823553543636912 
1028	 0.823376130898415 
1029	 0.823189292539031 
1030	 0.822973078299084 
1031	 0.822905220331067 
1032	 0.822902060066289 
1033	 0.82287202154533 
1034	 0.822898053678158 
1035	 0.822806547294276 
1036	 0.82270410600083 
1037	 0.822544765836349 
1038	 0.822408136351414 
1039	 0.82225457324059 
1040	 0.822116980222384 
1041	 0.821950194456712 
1042	 0.821797903598975 
1043	 0.821683740874328 
1044	 0.821586080391023 
1045	 0.821270712627953 
1046	 0.820908625149039 
1047	 0.820644492611052 
1048	 0.820287797260932 
1049	 0.820018466491833 
1050	 0.819952353234617 
1051	 0.819781999453746 
1052	 0.819513589353135 
1053	 0.819256371688474 
1054	 0.819010073649044 
1055	 0.818723357999694 
1056	 0.81838418085798 
1057	 0.818055444267581 
1058	 0.817733569458962 
1059	 0.817374479550035 
1060	 0.816974633090105 
1061	 0.816570452619207 
1062	 0.816207571764238 
1063	 0.815823261380254 
1064	 0.815447833571614 
1065	 0.815168373802507 
1066	 0.814842792493563 
1067	 0.81439561356287 
1068	 0.813940714062655 
1069	 0.813446341929455 
1070	 0.812904066900878 
1071	 0.812273953702292 
1072	 0.811731501861375 
1073	 0.811233609183616 
1074	 0.81070215911937 
1075	 0.810229078105445 
1076	 0.809773863669303 
1077	 0.809260462460232 
1078	 0.808761596268743 
1079	 0.808237771578813 
1080	 0.807751727145122 
1081	 0.807338065433721 
1082	 0.806834014305881 
1083	 0.806377727485077 
1084	 0.805844011865025 
1085	 0.805172804144364 
1086	 0.804564437304609 
1087	 0.803975171924443 
1088	 0.803300171849394 
1089	 0.80266563828902 
1090	 0.802153663586697 
1091	 0.801544939037073 
1092	 0.800964739689044 
1093	 0.80042527533367 
1094	 0.799741629579988 
1095	 0.799066679288125 
1096	 0.798402767331601 
1097	 0.797687078114574 
1098	 0.797079254780869 
1099	 0.79647539980443 
1100	 0.795822395278306 
1101	 0.795156501283699 
1102	 0.794429763443958 
1103	 0.793729412655709 
1104	 0.793028775743416 
1105	 0.792290629751579 
1106	 0.791487193438992 
1107	 0.790773550922268 
1108	 0.790028412916852 
1109	 0.789293031940407 
1110	 0.788647969012907 
1111	 0.78794934601092 
1112	 0.787232658676895 
1113	 0.786498867611182 
1114	 0.785745463868319 
1115	 0.785027840831944 
1116	 0.784249958145145 
1117	 0.783468489736847 
1118	 0.782738965892744 
1119	 0.782067447687713 
1120	 0.781334316176469 
1121	 0.780615396994734 
1122	 0.779871759428165 
1123	 0.779027621770039 
1124	 0.778184004707798 
1125	 0.777293910212673 
1126	 0.776438666017072 
1127	 0.775681688163848 
1128	 0.774880045743905 
1129	 0.774078288470089 
1130	 0.773261180828194 
1131	 0.772327598206771 
1132	 0.771417866350984 
1133	 0.770491375706377 
1134	 0.769549654618263 
1135	 0.768596653859114 
1136	 0.767593739852574 
1137	 0.766628657531715 
1138	 0.765697921935077 
1139	 0.764719191717626 
1140	 0.763711935852108 
1141	 0.762788323530772 
1142	 0.761778147942849 
1143	 0.760761210306767 
1144	 0.759793952203856 
1145	 0.758739823621729 
1146	 0.75768239256941 
1147	 0.75663043652866 
1148	 0.755568893489595 
1149	 0.754599161721621 
1150	 0.753603704545117 
1151	 0.752556150502102 
1152	 0.751502987218488 
1153	 0.750400510367642 
1154	 0.749297719553265 
1155	 0.74819807541232 
1156	 0.747096530875951 
1157	 0.746022712711586 
1158	 0.744881210114315 
1159	 0.743703481808522 
1160	 0.742495100893072 
1161	 0.741250464865992 
1162	 0.740011784555094 
1163	 0.73892438131312 
1164	 0.737791397462789 
1165	 0.736621948127438 
1166	 0.735510857922731 
1167	 0.734311251789626 
1168	 0.733156705064051 
1169	 0.732039416904979 
1170	 0.730971979574568 
1171	 0.729877085495273 
1172	 0.728779964887081 
1173	 0.727728255659608 
1174	 0.726716942874392 
1175	 0.725690012318196 
1176	 0.724703234811874 
1177	 0.723680739911233 
1178	 0.722629245637982 
1179	 0.721560158102942 
1180	 0.720542258409374 
1181	 0.719474330138919 
1182	 0.71838963154483 
1183	 0.717360658870591 
1184	 0.716349130324993 
1185	 0.715375154232332 
1186	 0.714369276419534 
1187	 0.713350237470846 
1188	 0.712392071718888 
1189	 0.71143680254082 
1190	 0.710497222949529 
1191	 0.709629927587308 
1192	 0.708762730685975 
1193	 0.707868224858185 
1194	 0.707002467301211 
1195	 0.706148377898329 
1196	 0.705332028097784 
1197	 0.704526387514363 
1198	 0.703763837885646 
1199	 0.703021009062865 
1200	 0.702398344177521 
1201	 0.701709099247172 
1202	 0.70099552738244 
1203	 0.700285741600623 
1204	 0.699528217275849 
1205	 0.69885085649763 
1206	 0.698197183282367 
1207	 0.697559426369488 
1208	 0.696962708027326 
1209	 0.696397270393585 
1210	 0.695830057844242 
1211	 0.695315925049058 
1212	 0.694846687580987 
1213	 0.694408323325684 
1214	 0.694003594642196 
1215	 0.693636666640203 
1216	 0.693306040592216 
1217	 0.693020271079313 
1218	 0.692769493340801 
1219	 0.692558241917902 
1220	 0.692398015816017 
1221	 0.692256047710791 
1222	 0.692103836785675 
1223	 0.6919236178642 
1224	 0.691744048695323 
1225	 0.691559848751149 
1226	 0.691339197681198 
1227	 0.691091857472321 
1228	 0.690860642435176 
1229	 0.690594649327333 
1230	 0.690361528192196 
1231	 0.690186471560979 
1232	 0.689944414636236 
1233	 0.689655660129557 
1234	 0.689397853825065 
1235	 0.689132752272766 
1236	 0.688855260894515 
1237	 0.688593034945912 
1238	 0.688317176423279 
1239	 0.688003731668308 
1240	 0.687718464641397 
1241	 0.687405803095907 
1242	 0.687109968922017 
1243	 0.686790914770119 
1244	 0.686429639304276 
1245	 0.686126869133672 
1246	 0.685853220211298 
1247	 0.685558082118335 
1248	 0.685296474426785 
1249	 0.684982934974829 
1250	 0.684643412445662 
1251	 0.684287696317495 
1252	 0.683884634623883 
1253	 0.683522219520883 
1254	 0.683149619052518 
1255	 0.682794385461627 
1256	 0.682488383844747 
1257	 0.682144289344989 
1258	 0.681783760190461 
1259	 0.681422861772983 
1260	 0.681032100982181 
1261	 0.680661659085995 
1262	 0.680312541600561 
1263	 0.679948115704939 
1264	 0.679577852783053 
1265	 0.679196446963195 
1266	 0.678847404148715 
1267	 0.678495424291136 
1268	 0.678166453865784 
1269	 0.677893786807445 
1270	 0.677561492093767 
1271	 0.677183509723392 
1272	 0.676861276179588 
1273	 0.676543970181755 
1274	 0.676232878047688 
1275	 0.675965009632123 
1276	 0.675678616035565 
1277	 0.675374641828953 
1278	 0.675080193703833 
1279	 0.674774638509211 
1280	 0.674508555634812 
1281	 0.674253907126344 
1282	 0.674019629869198 
1283	 0.673832924993886 
1284	 0.673645589207703 
1285	 0.673465876243994 
1286	 0.673296538758999 
1287	 0.67311504756688 
1288	 0.672937494752196 
1289	 0.672759198641723 
1290	 0.672579550689027 
1291	 0.672389133532725 
1292	 0.672185995107818 
1293	 0.672015131367179 
1294	 0.67184873183966 
1295	 0.671682039744631 
1296	 0.67154755730512 
1297	 0.671392066300471 
1298	 0.671214144541584 
1299	 0.671048619983945 
1300	 0.670890882794896 
1301	 0.670731946671095 
1302	 0.670584112691681 
1303	 0.670415114293215 
1304	 0.670242928980773 
1305	 0.670059438024986 
1306	 0.669833570423544 
1307	 0.669640969789471 
1308	 0.669446319238792 
1309	 0.669279110090118 
1310	 0.66913357562828 
1311	 0.669015638102994 
1312	 0.668903199331002 
1313	 0.668809847490877 
1314	 0.668721546045778 
1315	 0.668648178935455 
1316	 0.668571808961693 
1317	 0.668480383520588 
1318	 0.668445958354068 
1319	 0.668468339916283 
1320	 0.668427689604822 
1321	 0.668403940707209 
1322	 0.668354181901773 
1323	 0.66822606889991 
1324	 0.668156805275054 
1325	 0.668118826090867 
1326	 0.668080154707541 
1327	 0.668073426485904 
1328	 0.668034494967575 
1329	 0.667981078959795 
1330	 0.667935373884515 
1331	 0.667890440744225 
1332	 0.667819833824655 
1333	 0.667731835318099 
1334	 0.667650658630103 
1335	 0.667590900526483 
1336	 0.667512730292524 
1337	 0.667468898878033 
1338	 0.667480677211437 
1339	 0.667431674762524 
1340	 0.667365834722867 
1341	 0.667288446744606 
1342	 0.667184511134544 
1343	 0.667098137733653 
1344	 0.667009731301169 
1345	 0.666919323984231 
1346	 0.666836203372152 
1347	 0.666739863860499 
1348	 0.666629399927424 
1349	 0.666525630653543 
1350	 0.666418685446335 
1351	 0.66631566468047 
1352	 0.666212379756983 
1353	 0.66611502553704 
1354	 0.666044982831119 
1355	 0.665931125562072 
1356	 0.665812084907396 
1357	 0.665664871959169 
1358	 0.665462113156333 
1359	 0.665277127686725 
1360	 0.665097970149777 
1361	 0.664885097985195 
1362	 0.664697461142004 
1363	 0.664541324723466 
1364	 0.664397002556679 
1365	 0.664275122985936 
1366	 0.664149605220185 
1367	 0.664063230327968 
1368	 0.663901710834339 
1369	 0.663748153197822 
1370	 0.663496909660483 
1371	 0.663165840728723 
1372	 0.66283883073429 
1373	 0.662463933603812 
1374	 0.662070325489517 
1375	 0.661643571145123 
1376	 0.661224328462213 
1377	 0.660756048782692 
1378	 0.660327593788811 
1379	 0.659934758612121 
1380	 0.659511914920059 
1381	 0.659083869634083 
1382	 0.658639702990993 
1383	 0.658221221127699 
1384	 0.657714448049465 
1385	 0.657207212609213 
1386	 0.656598695888891 
1387	 0.655859629496107 
1388	 0.655143781269305 
1389	 0.654400066840364 
1390	 0.653621698546911 
1391	 0.65283084207566 
1392	 0.652016749199401 
1393	 0.651172023327121 
1394	 0.650274044567981 
1395	 0.649414935548383 
1396	 0.648568309710611 
1397	 0.647700538151343 
1398	 0.646857187954535 
1399	 0.645923986818918 
1400	 0.644971211021873 
1401	 0.64393239988859 
1402	 0.642882406663368 
1403	 0.641637705077489 
1404	 0.640335648813307 
1405	 0.638835364222948 
1406	 0.637159207601496 
1407	 0.635362548594563 
1408	 0.633328811331939 
1409	 0.631373696807348 
1410	 0.62914980561831 
1411	 0.627305691362024 
1412	 0.625421962215709 
1413	 0.624037728694821 
1414	 0.622905753157529 
1415	 0.622169143109471 
1416	 0.621960301468866 
1417	 0.621797796380723 
1418	 0.622050101328088 
1419	 0.622203401139281 
1420	 0.622559009379167 
1421	 0.622705511419409 
1422	 0.622829063773485 
1423	 0.622805217026754 
1424	 0.622624665571753 
1425	 0.622310777001018 
1426	 0.621990200996935 
1427	 0.621626053631619 
1428	 0.62121906103709 
1429	 0.620854926820725 
1430	 0.620479624671283 
1431	 0.620086592452546 
1432	 0.619709147839449 
1433	 0.619362392524329 
1434	 0.618965390533692 
1435	 0.618534884185432 
1436	 0.618136839768228 
1437	 0.617703452359864 
1438	 0.617346237555027 
1439	 0.617055505166504 
1440	 0.616725506057114 
1441	 0.616420271446529 
1442	 0.616092478391275 
1443	 0.615722424652135 
1444	 0.61539884414073 
1445	 0.615101537964074 
1446	 0.614795284858384 
1447	 0.614515690642792 
1448	 0.614203517237111 
1449	 0.613834763888044 
1450	 0.613544543057409 
1451	 0.613298002966544 
1452	 0.613024707493369 
1453	 0.61279627077074 
1454	 0.612541083474206 
1455	 0.612226298620268 
1456	 0.611953174116479 
1457	 0.611714834160494 
1458	 0.611459978459094 
1459	 0.611186397238955 
1460	 0.610951942697473 
1461	 0.610745248597758 
1462	 0.610528470886685 
1463	 0.610346753385096 
1464	 0.610141941921162 
1465	 0.609928444835015 
1466	 0.609674294791581 
1467	 0.609431787234971 
1468	 0.609229753814248 
1469	 0.609019450414154 
1470	 0.608838794043097 
1471	 0.608650211115299 
1472	 0.608465010014668 
1473	 0.608300348767823 
1474	 0.608144679075878 
1475	 0.607997076133937 
1476	 0.607873017223418 
1477	 0.607738348637041 
1478	 0.607612106182265 
1479	 0.607458602057301 
1480	 0.607317400351343 
1481	 0.607118665147636 
1482	 0.606869063976098 
1483	 0.606635224790575 
1484	 0.606361517167297 
1485	 0.606128920157024 
1486	 0.605929287174455 
1487	 0.605695356241979 
1488	 0.60545155662538 
1489	 0.605216643340756 
1490	 0.604945041560514 
1491	 0.604731719194515 
1492	 0.604550336425734 
1493	 0.604386383721799 
1494	 0.604257492324773 
1495	 0.604130493976925 
1496	 0.604022350601965 
1497	 0.60392026437762 
1498	 0.603820498162312 
1499	 0.603743123696733 
1500	 0.603661767205364 
1501	 0.603630111784678 
1502	 0.603622999215068 
1503	 0.603657334922387 
1504	 0.603760124128652 
1505	 0.603849097426567 
1506	 0.603952029529035 
1507	 0.604076907512195 
1508	 0.604224058486311 
1509	 0.60436265624285 
1510	 0.604532027745738 
1511	 0.60467878265383 
1512	 0.604793768187295 
1513	 0.60492515205191 
1514	 0.605058860612428 
1515	 0.605196445858158 
1516	 0.605341157213562 
1517	 0.605487819050106 
1518	 0.605632422716393 
1519	 0.605785305602897 
1520	 0.605931565373723 
1521	 0.606105497912349 
1522	 0.606291188933429 
1523	 0.60648259352799 
1524	 0.606711766087315 
1525	 0.606973664695187 
1526	 0.607228807248694 
1527	 0.607500552478058 
1528	 0.607788308365912 
1529	 0.608085217836795 
1530	 0.608381559669942 
1531	 0.608695976584075 
1532	 0.609015308948238 
1533	 0.609321759263309 
1534	 0.609668442798047 
1535	 0.610041044008201 
1536	 0.610430919664634 
1537	 0.610846285787805 
1538	 0.611257661799864 
1539	 0.611710180721488 
1540	 0.612098136205391 
1541	 0.61245344389654 
1542	 0.612825319523146 
1543	 0.613160712341924 
1544	 0.613536792955267 
1545	 0.613953587046157 
1546	 0.614331839616694 
1547	 0.614708367494633 
1548	 0.615068291098507 
1549	 0.615406311537343 
1550	 0.615745845073392 
1551	 0.616098760262111 
1552	 0.61639830723079 
1553	 0.616674168155151 
1554	 0.616927656518353 
1555	 0.617125663909068 
1556	 0.617350056653563 
1557	 0.617570323324773 
1558	 0.617791788015993 
1559	 0.618008450159311 
1560	 0.618239016846928 
1561	 0.618453364144741 
1562	 0.618718235565776 
1563	 0.61900423390928 
1564	 0.619324150881681 
1565	 0.619686533213077 
1566	 0.620061791513567 
1567	 0.620483530892616 
1568	 0.620877332943368 
1569	 0.621279350841832 
1570	 0.621675768845092 
1571	 0.622033794092047 
1572	 0.622445883554206 
1573	 0.622875978733698 
1574	 0.623336157176342 
1575	 0.623868057281214 
1576	 0.624344047384553 
1577	 0.624819072810819 
1578	 0.625280019720178 
1579	 0.625700406534923 
1580	 0.626135919400946 
1581	 0.626586701282159 
1582	 0.627016205907674 
1583	 0.627435161999583 
1584	 0.627848010837615 
1585	 0.62824209835151 
1586	 0.628643516993634 
1587	 0.629048046668292 
1588	 0.629439761893221 
1589	 0.629814642600231 
1590	 0.630210993727026 
1591	 0.63059116478976 
1592	 0.631008999036022 
1593	 0.63144474732701 
1594	 0.631920051919363 
1595	 0.632448417309941 
1596	 0.6329569153466 
1597	 0.633485595909763 
1598	 0.634016884741496 
1599	 0.634560625428316 
1600	 0.635075005501557 
1601	 0.63558950696705 
1602	 0.63609199070936 
1603	 0.636569226809297 
1604	 0.637030398237941 
1605	 0.637482864389194 
1606	 0.637932160705091 
1607	 0.638331688946217 
1608	 0.638778248400159 
1609	 0.639284561999961 
1610	 0.639734225038904 
1611	 0.640170273232773 
1612	 0.640602762291288 
1613	 0.640995226417634 
1614	 0.641398064575283 
1615	 0.641830107037863 
1616	 0.642230207027757 
1617	 0.642573183729088 
1618	 0.642969267728926 
1619	 0.643405148125391 
1620	 0.643797356696526 
1621	 0.644202148557857 
1622	 0.644588674008115 
1623	 0.644912498481088 
1624	 0.645276328699017 
1625	 0.645654109518974 
1626	 0.646052653222554 
1627	 0.646517643588881 
1628	 0.646896593824438 
1629	 0.647251481346177 
1630	 0.647581543240777 
1631	 0.647812749803754 
1632	 0.648103714801255 
1633	 0.648447361843276 
1634	 0.648747770408779 
1635	 0.649027178765765 
1636	 0.649321772491405 
1637	 0.649600287388374 
1638	 0.649873796921803 
1639	 0.650185849518658 
1640	 0.650451073079191 
1641	 0.650667053783695 
1642	 0.650898506838084 
1643	 0.651132331722171 
1644	 0.651337707714242 
1645	 0.651537454937969 
1646	 0.651709604296008 
1647	 0.651828389680868 
1648	 0.651970539210712 
1649	 0.652132947996867 
1650	 0.652259616637189 
1651	 0.652375207614604 
1652	 0.652481822440519 
1653	 0.652544348779907 
1654	 0.65262189143622 
1655	 0.652711742747792 
1656	 0.652791646181954 
1657	 0.652898378766762 
1658	 0.652934701531311 
1659	 0.652950889789764 
1660	 0.652921142152397 
1661	 0.652841180747448 
1662	 0.652707349079671 
1663	 0.652521752186688 
1664	 0.652311166114781 
1665	 0.652054553246116 
1666	 0.65174694660099 
1667	 0.651428923584719 
1668	 0.651027150495634 
1669	 0.650561910494445 
1670	 0.650018511427466 
1671	 0.649378258022229 
1672	 0.648714902031109 
1673	 0.64799515690626 
1674	 0.647211688669959 
1675	 0.646392625045353 
1676	 0.64553313853704 
1677	 0.644596232750445 
1678	 0.643625308868337 
1679	 0.642601142864876 
1680	 0.641568664307417 
1681	 0.640520004393078 
1682	 0.639383979793382 
1683	 0.638196834322794 
1684	 0.637031086356095 
1685	 0.635776952136124 
1686	 0.634571861826797 
1687	 0.633413731434709 
1688	 0.632214126079888 
1689	 0.630954291885734 
1690	 0.629782182808707 
1691	 0.62862984994317 
1692	 0.627550293157333 
1693	 0.626557690367997 
1694	 0.6255464164466 
1695	 0.624609029706925 
1696	 0.623563399369202 
1697	 0.62249659689738 
1698	 0.621351831571843 
1699	 0.620123586009895 
1700	 0.618915153554326 
1701	 0.617681414709088 
1702	 0.616415073573101 
1703	 0.615107695950473 
1704	 0.613809271392828 
1705	 0.612439645689864 
1706	 0.611111159348631 
1707	 0.609959756521089 
1708	 0.608855362069657 
1709	 0.607768689662491 
1710	 0.606752582523398 
1711	 0.605671023341173 
1712	 0.604612145325874 
1713	 0.603634981120614 
1714	 0.602623016691493 
1715	 0.601593900350645 
1716	 0.600575231580768 
1717	 0.599551998482654 
1718	 0.598466611939746 
1719	 0.597418501510085 
1720	 0.596354747234586 
1721	 0.595222009039825 
1722	 0.594247343863047 
1723	 0.593427815917519 
1724	 0.59261633854677 
1725	 0.591947685770839 
1726	 0.59150440662247 
1727	 0.591150145920339 
1728	 0.590997977153938 
1729	 0.591133682993222 
1730	 0.591397343233628 
1731	 0.591810156229315 
1732	 0.592450557165437 
1733	 0.593198732781133 
1734	 0.594097194765737 
1735	 0.595142969242534 
1736	 0.596312930576755 
1737	 0.597555348209962 
1738	 0.598723444758437 
1739	 0.599772428913313 
1740	 0.600738162107538 
1741	 0.601600793478997 
1742	 0.602406461492847 
1743	 0.60309227510602 
1744	 0.603647011877355 
1745	 0.60413097321535 
1746	 0.604514209628809 
1747	 0.60480027129141 
1748	 0.604976053200168 
1749	 0.605133399274131 
1750	 0.605189984945111 
1751	 0.605226684013014 
1752	 0.605235605885129 
1753	 0.605211646232866 
1754	 0.605098856925045 
1755	 0.605046688160805 
1756	 0.605006960517377 
1757	 0.604938388020955 
1758	 0.604916065231975 
1759	 0.604931065067278 
1760	 0.604971263740858 
1761	 0.605132913932748 
1762	 0.605402947166228 
1763	 0.605779061202879 
1764	 0.606202236813221 
1765	 0.606687346269465 
1766	 0.607325515957749 
1767	 0.608039562768205 
1768	 0.608895780742607 
1769	 0.609836556469625 
1770	 0.610763300263632 
1771	 0.611770981680605 
1772	 0.61272390430234 
1773	 0.613732010734417 
1774	 0.614743317168548 
1775	 0.615584687890877 
1776	 0.616449059985767 
1777	 0.617219109354932 
1778	 0.617908670019422 
1779	 0.618667398077184 
1780	 0.619330263843737 
1781	 0.619883831054943 
1782	 0.620433426874652 
1783	 0.620889617890827 
1784	 0.621337102048472 
1785	 0.621778145459396 
1786	 0.622200786889038 
1787	 0.622676581572453 
1788	 0.623013310496984 
1789	 0.623271935834915 
1790	 0.623510827247801 
1791	 0.623628450683381 
1792	 0.623776583885002 
1793	 0.623890884126204 
1794	 0.624082216074408 
1795	 0.624329038264543 
1796	 0.624557807577615 
1797	 0.624849305012052 
1798	 0.62511700827929 
1799	 0.625306056122975 
1800	 0.625481315365307 
1801	 0.612877815502172 
1802	 0.613240357391463 
1803	 0.613639151720296 
1804	 0.614094063553608 
1805	 0.614595057234379 
1806	 0.615027791208727 
1807	 0.615490195256223 
1808	 0.615904056076094 
1809	 0.616265962576315 
1810	 0.616608604512303 
1811	 0.616925737460849 
1812	 0.617250035750683 
1813	 0.61750305176056 
1814	 0.617867841861214 
1815	 0.618195818074687 
1816	 0.618500043281765 
1817	 0.618797128608308 
1818	 0.619040133292266 
1819	 0.619322345511694 
1820	 0.619624229896741 
1821	 0.619917257132496 
1822	 0.620176930414593 
1823	 0.62055120447755 
1824	 0.620851138416864 
1825	 0.621176205513842 
1826	 0.621515140482481 
1827	 0.621850082514791 
1828	 0.622211532804963 
1829	 0.622629369390389 
1830	 0.62299000394335 
1831	 0.623349802610563 
1832	 0.62369501489224 
1833	 0.624002927657397 
1834	 0.624309113879165 
1835	 0.624668973371543 
1836	 0.625093460008947 
1837	 0.625450705502353 
1838	 0.625812964413463 
1839	 0.626150906539764 
1840	 0.626418575354762 
1841	 0.62672460963246 
1842	 0.627019069776185 
1843	 0.627375480973956 
1844	 0.627779172672966 
1845	 0.628126064089621 
1846	 0.628455256378884 
1847	 0.628757924197406 
1848	 0.629055341048318 
1849	 0.6293320451505 
1850	 0.629586132890438 
1851	 0.629848651145388 
1852	 0.630066539529162 
1853	 0.630208714640687 
1854	 0.630319690258226 
1855	 0.630439335998563 
1856	 0.630518495186447 
1857	 0.630642010364506 
1858	 0.630734753004814 
1859	 0.630789437514529 
1860	 0.63084601991985 
1861	 0.630857383265868 
1862	 0.630828917615096 
1863	 0.630754813412734 
1864	 0.63066265262727 
1865	 0.630513810983695 
1866	 0.630371463249183 
1867	 0.63018149287095 
1868	 0.629917458595154 
1869	 0.629615621838874 
1870	 0.629231666653858 
1871	 0.628770833846308 
1872	 0.628242273860961 
1873	 0.627622452153773 
1874	 0.626989988682559 
1875	 0.626337637462626 
1876	 0.625562162337109 
1877	 0.624840945517944 
1878	 0.624043169374555 
1879	 0.623164297516882 
1880	 0.622278929577428 
1881	 0.621249653889731 
1882	 0.620105174269029 
1883	 0.618926334122467 
1884	 0.617657822236369 
1885	 0.616237419134838 
1886	 0.614876730333355 
1887	 0.61332760431658 
1888	 0.611586062376659 
1889	 0.609880210869478 
1890	 0.60795425196801 
1891	 0.605966010778117 
1892	 0.60391543395292 
1893	 0.601678411232221 
1894	 0.599236705200274 
1895	 0.596792533288534 
1896	 0.594185201223607 
1897	 0.591469136340893 
1898	 0.588965223752718 
1899	 0.586318397197733 
1900	 0.583684465516203 
1901	 0.58110060732278 
1902	 0.578236269546856 
1903	 0.575515788489411 
1904	 0.572810371721939 
1905	 0.570090650050392 
1906	 0.567373542637734 
1907	 0.564943286415894 
1908	 0.562407956251015 
1909	 0.559978338390178 
1910	 0.557702579637417 
1911	 0.555259508940598 
1912	 0.553045987532789 
1913	 0.550860865309909 
1914	 0.548626080081978 
1915	 0.546563632666539 
1916	 0.544701014695034 
1917	 0.542709639861014 
1918	 0.540780499119797 
1919	 0.53899234834001 
1920	 0.537099760338369 
1921	 0.535338681745655 
1922	 0.533612707934828 
1923	 0.531900034093723 
1924	 0.530397824290075 
1925	 0.528906980211802 
1926	 0.527467219537414 
1927	 0.526148334093213 
1928	 0.524813153831752 
1929	 0.523455510776299 
1930	 0.522203277090058 
1931	 0.521045299795001 
1932	 0.519902733909021 
1933	 0.518940496196424 
1934	 0.518046442448708 
1935	 0.51717970106746 
1936	 0.516425913804365 
1937	 0.515714981519623 
1938	 0.515011058022864 
1939	 0.514489076862413 
1940	 0.514078759283885 
1941	 0.513740571587126 
1942	 0.513558920976012 
1943	 0.51340716805961 
1944	 0.513238242684594 
1945	 0.513223735684815 
1946	 0.513318951069494 
1947	 0.513445505972783 
1948	 0.513681827176238 
1949	 0.513951983269422 
1950	 0.514235406518558 
1951	 0.514543991506288 
1952	 0.514885220674636 
1953	 0.515239016023017 
1954	 0.515651675684182 
1955	 0.516117797336691 
1956	 0.516642959888226 
1957	 0.51730830140825 
1958	 0.517992000405337 
1959	 0.518649684779001 
1960	 0.519327558927076 
1961	 0.52002646849513 
1962	 0.520697854142522 
1963	 0.521430480067292 
1964	 0.522254354191693 
1965	 0.523024153854164 
1966	 0.523783620326846 
1967	 0.524577113817521 
1968	 0.525306222888611 
1969	 0.526046313594919 
1970	 0.526837497423304 
1971	 0.52761341394077 
1972	 0.528473823665023 
1973	 0.529347267855057 
1974	 0.530187089684259 
1975	 0.531019218808984 
1976	 0.531863781348935 
1977	 0.532673387685245 
1978	 0.533528641630267 
1979	 0.534407315680716 
1980	 0.535309403932511 
1981	 0.536267888536882 
1982	 0.53717146436575 
1983	 0.538091986234091 
1984	 0.539072583761709 
1985	 0.539896137626763 
1986	 0.5407340629577 
1987	 0.541583476979101 
1988	 0.542386288998469 
1989	 0.543215000511601 
1990	 0.544115165811175 
1991	 0.544934250512625 
1992	 0.545755307415598 
1993	 0.546488101404211 
1994	 0.547104697500001 
1995	 0.54778806293819 
1996	 0.548452576861699 
1997	 0.549089793360546 
1998	 0.54978942186522 
1999	 0.550556522092282 
2000	 0.551284788717286 
2001	 0.552039245024062 
2002	 0.552758443517283 
2003	 0.553454847024108 
2004	 0.554161983440873 
2005	 0.554842657518517 
2006	 0.555542070440979 
2007	 0.556287939494548 
2008	 0.556977371810394 
2009	 0.557661831341943 
2010	 0.558322640686853 
2011	 0.558916741260859 
2012	 0.55951788664418 
2013	 0.560054596685714 
2014	 0.560517528238841 
2015	 0.560997703671898 
2016	 0.561476809214656 
2017	 0.561880796064719 
2018	 0.562296589965064 
2019	 0.562618891775631 
2020	 0.562850331396414 
2021	 0.563046936868833 
2022	 0.563121661585491 
2023	 0.563158686253417 
2024	 0.563231884158787 
2025	 0.563200751672649 
2026	 0.563134604526759 
2027	 0.563101287442375 
2028	 0.562924823627913 
2029	 0.562576832814214 
2030	 0.56229006709284 
2031	 0.561972781112782 
2032	 0.561615648740544 
2033	 0.56123740481702 
2034	 0.560857677726772 
2035	 0.560401756410461 
2036	 0.559989614663488 
2037	 0.559682508390305 
2038	 0.559270744419311 
2039	 0.558992377291702 
2040	 0.558814765943152 
2041	 0.558609613397725 
2042	 0.558397668382893 
2043	 0.558309050112233 
2044	 0.558237545498302 
2045	 0.558256620944854 
2046	 0.558404873920638 
2047	 0.558588383758846 
2048	 0.558802487113227 
2049	 0.559096692992021 
2050	 0.559502070990294 
2051	 0.559925224918712 
2052	 0.560334253036462 
2053	 0.56085479110275 
2054	 0.561372952811288 
2055	 0.561882965966641 
2056	 0.562485953884853 
2057	 0.563162036065778 
2058	 0.563857937232428 
2059	 0.564623929074522 
2060	 0.565380592678069 
2061	 0.566177853327487 
2062	 0.566965845065694 
2063	 0.567755027523865 
2064	 0.568561473880457 
2065	 0.569372169060292 
2066	 0.57018308482918 
2067	 0.571117215568166 
2068	 0.5719836954321 
2069	 0.572798981483851 
2070	 0.573614988046338 
2071	 0.574397235262776 
2072	 0.575053817960524 
2073	 0.57583308943936 
2074	 0.576701789957275 
2075	 0.577498684200636 
2076	 0.578312498849265 
2077	 0.579078889513223 
2078	 0.579842398290128 
2079	 0.580521408091749 
2080	 0.581118851348554 
2081	 0.581731727311319 
2082	 0.582341276203966 
2083	 0.582805646202259 
2084	 0.583379679980525 
2085	 0.58391622985608 
2086	 0.584374962262609 
2087	 0.584787298575871 
2088	 0.585159516312166 
2089	 0.585465029243451 
2090	 0.585743496807768 
2091	 0.58594339333463 
2092	 0.586184868017345 
2093	 0.586416542197612 
2094	 0.586622960199372 
2095	 0.586819120649522 
2096	 0.587034550405941 
2097	 0.587238933986909 
2098	 0.587439871380208 
2099	 0.587570880199994 
2100	 0.58779294914117 
2101	 0.587975436032112 
2102	 0.58812446802847 
2103	 0.588240965255576 
2104	 0.588413467983017 
2105	 0.588441392339003 
2106	 0.588318863659278 
2107	 0.58828485912363 
2108	 0.588233788306379 
2109	 0.588170666605425 
2110	 0.588133748386685 
2111	 0.5880590832889 
2112	 0.587967582214049 
2113	 0.587824583884275 
2114	 0.587630320340948 
2115	 0.587454085976197 
2116	 0.587187302537659 
2117	 0.587000395500241 
2118	 0.586858278417273 
2119	 0.586771337581757 
2120	 0.586669236456587 
2121	 0.586631241966157 
2122	 0.586508136752171 
2123	 0.586359312739575 
2124	 0.58620282020363 
2125	 0.586024426539666 
2126	 0.585817504992949 
2127	 0.585596692044931 
2128	 0.585351464945664 
2129	 0.585085395185285 
2130	 0.584766480929072 
2131	 0.584417767007528 
2132	 0.584034745299072 
2133	 0.583597785278763 
2134	 0.583129961218487 
2135	 0.582643725161902 
2136	 0.582164232185356 
2137	 0.581586119158288 
2138	 0.580945652583878 
2139	 0.580271720167342 
2140	 0.57949302678878 
2141	 0.578790303609492 
2142	 0.578153949259202 
2143	 0.577373369815775 
2144	 0.57657075183742 
2145	 0.575689370476279 
2146	 0.574581386103499 
2147	 0.573643968138907 
2148	 0.572740982413649 
2149	 0.57187651076636 
2150	 0.571117116357138 
2151	 0.570323497060473 
2152	 0.569522050791137 
2153	 0.568750383083153 
2154	 0.567965483144642 
2155	 0.56717233027116 
2156	 0.566400796550474 
2157	 0.565662239560463 
2158	 0.564841580138255 
2159	 0.56402927447022 
2160	 0.563129001076542 
2161	 0.562116360364627 
2162	 0.561180973225618 
2163	 0.560219326074888 
2164	 0.559284701833794 
2165	 0.558366115953081 
2166	 0.557464833825407 
2167	 0.556521178507204 
2168	 0.555687096566207 
2169	 0.554989422642446 
2170	 0.554214045476604 
2171	 0.553362286931848 
2172	 0.552680145611693 
2173	 0.552056792477571 
2174	 0.551432132703384 
2175	 0.551002454529072 
2176	 0.550622216807682 
2177	 0.550207939820494 
2178	 0.549726488943691 
2179	 0.549440692785458 
2180	 0.549250671785837 
2181	 0.549097615364468 
2182	 0.54905798170616 
2183	 0.54904067179084 
2184	 0.549058755183207 
2185	 0.549108396635932 
2186	 0.549257483495641 
2187	 0.549382938674147 
2188	 0.549512740112537 
2189	 0.549653839267922 
2190	 0.549807516177527 
2191	 0.549974936715214 
2192	 0.550170827497598 
2193	 0.550361110002903 
2194	 0.550517034012763 
2195	 0.550753811253159 
2196	 0.551062283751483 
2197	 0.551351476782899 
2198	 0.551573322874375 
2199	 0.551824103911136 
2200	 0.552003483696389 
2201	 0.552026925569219 
2202	 0.552201289990388 
2203	 0.552456418532052 
2204	 0.552646287337647 
2205	 0.552848344947194 
2206	 0.553017953176642 
2207	 0.553136996968519 
2208	 0.553298482678505 
2209	 0.553457314816 
2210	 0.553640257184713 
2211	 0.553917154364186 
2212	 0.554047010634434 
2213	 0.554073103376852 
2214	 0.55417020546682 
2215	 0.554234395043051 
2216	 0.554277307819326 
2217	 0.554387032359848 
2218	 0.554442032001291 
2219	 0.554347002758043 
2220	 0.554347658386818 
2221	 0.55444712255074 
2222	 0.554506453534641 
2223	 0.554424684802503 
2224	 0.554310198148211 
2225	 0.554077826766007 
2226	 0.553728423854042 
2227	 0.553433808201129 
2228	 0.553166123661669 
2229	 0.552843581349189 
2230	 0.552525767104686 
2231	 0.552059537889715 
2232	 0.551542646016962 
2233	 0.550910153531613 
2234	 0.550139251216851 
2235	 0.549316790822491 
2236	 0.548469510158825 
2237	 0.547445707513608 
2238	 0.546289902545679 
2239	 0.545029158004189 
2240	 0.543631213981824 
2241	 0.542120412256917 
2242	 0.540559231246201 
2243	 0.538783906772429 
2244	 0.53679374350348 
2245	 0.534760639039923 
2246	 0.532519991665321 
2247	 0.530264005633488 
2248	 0.528011114814527 
2249	 0.525619257523192 
2250	 0.523124595857868 
2251	 0.520601863255353 
2252	 0.517830263310816 
2253	 0.514909072804148 
2254	 0.511919696662454 
2255	 0.508884012732154 
2256	 0.506028670083101 
2257	 0.503154126877818 
2258	 0.500373009823511 
2259	 0.49770906004818 
2260	 0.49500079133876 
2261	 0.492311389977059 
2262	 0.489663800425894 
2263	 0.486918657256165 
2264	 0.484427377595881 
2265	 0.4820913790719 
2266	 0.47977490311937 
2267	 0.47763309129857 
2268	 0.475493608357974 
2269	 0.473404330163782 
2270	 0.471277497468594 
2271	 0.469071898249411 
2272	 0.467095538586351 
2273	 0.465250415421368 
2274	 0.463330978784747 
2275	 0.461573031749102 
2276	 0.459784095049621 
2277	 0.457929102075994 
2278	 0.456059469617464 
2279	 0.454265669693772 
2280	 0.452388934118041 
2281	 0.450292302068334 
2282	 0.448361472853183 
2283	 0.446501944626116 
2284	 0.444738469260837 
2285	 0.442907240862211 
2286	 0.441083759391322 
2287	 0.439054757325087 
2288	 0.437053087285543 
2289	 0.435172989030996 
2290	 0.433171499066411 
2291	 0.431298455947325 
2292	 0.429274450055986 
2293	 0.427005011548612 
2294	 0.424829443859041 
2295	 0.422444906913408 
2296	 0.420000616623568 
2297	 0.417584837696294 
2298	 0.415132054093719 
2299	 0.41265989361417 
2300	 0.410093074620171 
2301	 0.407727461559745 
2302	 0.405324454824201 
2303	 0.403264572275811 
2304	 0.40135912005318 
2305	 0.399786887521285 
2306	 0.398393960442057 
2307	 0.397433604384554 
2308	 0.396714067157128 
2309	 0.396685648934617 
2310	 0.397160166824758 
2311	 0.398119616426742 
2312	 0.399838585626317 
2313	 0.401632981379611 
2314	 0.403884345671237 
2315	 0.406289743696971 
2316	 0.409120172155377 
2317	 0.411826039620406 
2318	 0.414878040346649 
2319	 0.417504814076474 
2320	 0.420216977497281 
2321	 0.422280500152522 
2322	 0.423723527519661 
2323	 0.42522993965884 
2324	 0.426415456698145 
2325	 0.427370916907428 
2326	 0.428343363314395 
2327	 0.42890704030153 
2328	 0.428928996531577 
2329	 0.428888319046636 
2330	 0.428655224819235 
2331	 0.428249760691027 
2332	 0.42759011905207 
2333	 0.426776498323196 
2334	 0.42565018335689 
2335	 0.42443537760246 
2336	 0.422967353173491 
2337	 0.421208931382058 
2338	 0.419459769787273 
2339	 0.417628385788713 
2340	 0.415870998977253 
2341	 0.413658292294127 
2342	 0.411148639751885 
2343	 0.408813565718433 
2344	 0.406382807297809 
2345	 0.40443784773697 
2346	 0.403016466588516 
2347	 0.401631170245532 
2348	 0.400612497795667 
2349	 0.400263202196624 
2350	 0.400384142720089 
2351	 0.400732057287065 
2352	 0.401595463696608 
2353	 0.403002568016694 
2354	 0.404545440559399 
2355	 0.406673117443922 
2356	 0.409147681146543 
2357	 0.41142105016928 
2358	 0.413659808122708 
2359	 0.41582126147216 
2360	 0.417567467738383 
2361	 0.418987987507383 
2362	 0.420214880362151 
2363	 0.421076985807285 
2364	 0.42190772079078 
2365	 0.422521261850205 
2366	 0.422884500784523 
2367	 0.423330787726847 
2368	 0.42348260543258 
2369	 0.423460254736656 
2370	 0.423528918259512 
2371	 0.423466573637844 
2372	 0.423489027730695 
2373	 0.423641061226742 
2374	 0.423702084702393 
2375	 0.423934833606055 
2376	 0.424076467504712 
2377	 0.424063405356482 
2378	 0.424295543281715 
2379	 0.424238349963065 
2380	 0.424050841156246 
2381	 0.424139484757523 
2382	 0.424137765086719 
2383	 0.424026695601323 
2384	 0.424013796892699 
2385	 0.424097181739626 
2386	 0.424055047703048 
2387	 0.423915442479538 
2388	 0.424062463619993 
2389	 0.424367319768848 
2390	 0.424588004824843 
2391	 0.424912900154014 
2392	 0.425219970122315 
2393	 0.425503740118917 
2394	 0.425579864473055 
2395	 0.425720231202557 
2396	 0.425606010292606 
2397	 0.425125774611931 
2398	 0.42476467575549 
2399	 0.424256671064226 
2400	 0.42399116910131 
2401	 0.423786454587492 
2402	 0.423919562049531 
2403	 0.424042881194452 
2404	 0.424566818061878 
2405	 0.42471719909097 
2406	 0.424560741857725 
2407	 0.424826374469664 
2408	 0.424764545533372 
2409	 0.424513036062806 
2410	 0.424615205938666 
2411	 0.424613677409516 
2412	 0.424574427337392 
2413	 0.425189758461131 
2414	 0.425709742585229 
2415	 0.425977416750559 
2416	 0.426514736563653 
2417	 0.426368254368561 
2418	 0.425963521527754 
2419	 0.42583693996026 
2420	 0.425141393663741 
2421	 0.424795020681389 
2422	 0.424937469512683 
2423	 0.424757159360362 
2424	 0.425157307364471 
2425	 0.425612117090567 
2426	 0.425356166695703 
2427	 0.425484308442192 
2428	 0.425757381348892 
2429	 0.425444321768808 
2430	 0.425272076620343 
2431	 0.425096246431113 
2432	 0.42459344441249 
2433	 0.424404918207638 
2434	 0.42459264706914 
2435	 0.424639406138302 
2436	 0.42455197469254 
2437	 0.424351688203316 
2438	 0.42395568690367 
2439	 0.423722691396412 
2440	 0.423554703451199 
2441	 0.423212033140007 
2442	 0.423079775888403 
2443	 0.422808233284339 
2444	 0.422023038183941 
2445	 0.421661444700184 
2446	 0.421276555927709 
2447	 0.420536996736056 
2448	 0.419839972628752 
2449	 0.419107884192411 
2450	 0.417946963149367 
2451	 0.41685576661797 
2452	 0.417043786565793 
2453	 0.416887618607515 
2454	 0.416460536873526 
2455	 0.416446822530317 
2456	 0.415654757767248 
2457	 0.414796232112944 
2458	 0.41395960754155 
2459	 0.412721745303605 
2460	 0.411877512514388 
2461	 0.411140595868782 
2462	 0.41022183878515 
2463	 0.410120527744487 
2464	 0.409524031120098 
2465	 0.408107482639159 
2466	 0.407694750881506 
2467	 0.407258257592681 
2468	 0.406565333573194 
2469	 0.406349273542216 
2470	 0.406567199435974 
2471	 0.406593115943268 
2472	 0.40619142718423 
2473	 0.406238554294406 
2474	 0.406279070129091 
2475	 0.406308800324976 
2476	 0.406667105707221 
2477	 0.406666281297595 
2478	 0.406016600219306 
2479	 0.405447261118978 
2480	 0.404399570262409 
2481	 0.404325968089971 
2482	 0.404948340197587 
2483	 0.404642682408069 
2484	 0.405451972803667 
2485	 0.405643128496091 
2486	 0.404509900871645 
2487	 0.40424145675735 
2488	 0.403440633455139 
2489	 0.401901512656982 
2490	 0.401714654616786 
2491	 0.401599644437368 
2492	 0.401227431650021 
2493	 0.400955085772681 
2494	 0.401331982782311 
2495	 0.401309944530826 
2496	 0.400396553406704 
2497	 0.400661808954141 
2498	 0.400474522335469 
2499	 0.400987742612716 
2500	 0.402572291497102 
