Wavelength	ProbetaAcolman00033.asd
350	 0.329719830889384 
351	 0.318966045324619 
352	 0.306181089736933 
353	 0.297319446740385 
354	 0.297464616358412 
355	 0.289113005119569 
356	 0.279302494616025 
357	 0.276009637131154 
358	 0.277856430545727 
359	 0.275461129771819 
360	 0.269619410183064 
361	 0.265349690308061 
362	 0.262827019130339 
363	 0.262534132584583 
364	 0.263692683463591 
365	 0.264330252370592 
366	 0.263767537203328 
367	 0.262855132791737 
368	 0.262721025901893 
369	 0.264292128620534 
370	 0.266143097644337 
371	 0.268113196105826 
372	 0.270453850858342 
373	 0.270904483008821 
374	 0.271690322571492 
375	 0.273529635928291 
376	 0.274696326101278 
377	 0.277492723118615 
378	 0.280851937057029 
379	 0.283394255406283 
380	 0.28533316998889 
381	 0.287376188080629 
382	 0.289718212090047 
383	 0.292275552790906 
384	 0.295399084858992 
385	 0.297736851325153 
386	 0.299314502707012 
387	 0.302281814050298 
388	 0.305135768878271 
389	 0.308197257511288 
390	 0.311658790250517 
391	 0.313646620300688 
392	 0.316113710276576 
393	 0.31906627154712 
394	 0.321389752822421 
395	 0.324556607747623 
396	 0.327833996390855 
397	 0.330825073282735 
398	 0.334150789474226 
399	 0.337131861747132 
400	 0.340055756968785 
401	 0.34335311490363 
402	 0.346887720385001 
403	 0.350249398534688 
404	 0.353590218314127 
405	 0.357410466197176 
406	 0.361125616964246 
407	 0.364672183596072 
408	 0.368145075970309 
409	 0.371758633719428 
410	 0.375261233792693 
411	 0.378962942015286 
412	 0.383074390727715 
413	 0.386422816841464 
414	 0.389871458756221 
415	 0.393464528121696 
416	 0.396474205686478 
417	 0.399537536589482 
418	 0.40257630292985 
419	 0.405422930847731 
420	 0.408014686200163 
421	 0.410559260556123 
422	 0.412983017864534 
423	 0.415086230200187 
424	 0.416610263914835 
425	 0.418116133494781 
426	 0.419724486741092 
427	 0.420991594853816 
428	 0.42219196325377 
429	 0.423429897229996 
430	 0.424639832240021 
431	 0.425345141044153 
432	 0.426109690700457 
433	 0.426923526259255 
434	 0.427489325329734 
435	 0.428151303058289 
436	 0.428717115263931 
437	 0.429101111400141 
438	 0.429479788716048 
439	 0.429669336372255 
440	 0.4297999358582 
441	 0.430013198279593 
442	 0.430118687789489 
443	 0.430080614919548 
444	 0.429913275163146 
445	 0.429677114661941 
446	 0.429529339994251 
447	 0.429384973243592 
448	 0.429142362035384 
449	 0.428741721988601 
450	 0.428398294408816 
451	 0.428004419660522 
452	 0.427395698610487 
453	 0.426906912833396 
454	 0.426387610990747 
455	 0.425785005114748 
456	 0.425190020438643 
457	 0.424518906472079 
458	 0.423874475398046 
459	 0.423284859646526 
460	 0.422419116309087 
461	 0.421598516997834 
462	 0.420854196522721 
463	 0.420064498010424 
464	 0.419362341513819 
465	 0.41860598882429 
466	 0.417750037895657 
467	 0.416938181413993 
468	 0.416200305311969 
469	 0.415407530844371 
470	 0.414481119127345 
471	 0.41377375556774 
472	 0.413011454378512 
473	 0.412163179387102 
474	 0.411412219227763 
475	 0.410846703003157 
476	 0.410264242460418 
477	 0.409575801124806 
478	 0.409060213021296 
479	 0.40853963526516 
480	 0.408004551385131 
481	 0.407501998477725 
482	 0.406996899376577 
483	 0.406630757663649 
484	 0.406364226368643 
485	 0.405946797380159 
486	 0.405713093724945 
487	 0.405546025004801 
488	 0.405305420864775 
489	 0.405131346590845 
490	 0.404863834956965 
491	 0.404596939019514 
492	 0.404537942342464 
493	 0.404424497875606 
494	 0.40425176251455 
495	 0.404076490145156 
496	 0.404010968369029 
497	 0.4038167614091 
498	 0.403603205826313 
499	 0.403522889978065 
500	 0.403402153642258 
501	 0.403162045726818 
502	 0.402882525004395 
503	 0.402760562254192 
504	 0.402497924981338 
505	 0.402247342859993 
506	 0.402092972941361 
507	 0.401743327176667 
508	 0.401422002951052 
509	 0.401129466721477 
510	 0.400776278834853 
511	 0.400400107979735 
512	 0.399955051442088 
513	 0.399458890189429 
514	 0.399016878012228 
515	 0.398547618990859 
516	 0.398010218094501 
517	 0.397408426305225 
518	 0.396874637014651 
519	 0.396249908450145 
520	 0.395491634602198 
521	 0.394658862752583 
522	 0.393911674958123 
523	 0.393169015822714 
524	 0.392343493116163 
525	 0.39140208470669 
526	 0.390431058079399 
527	 0.389453915716996 
528	 0.388469886950674 
529	 0.387488780260937 
530	 0.386492892809604 
531	 0.385494474858273 
532	 0.384537656271459 
533	 0.383453367920637 
534	 0.382338266642773 
535	 0.381273248166412 
536	 0.380093536019866 
537	 0.378972466952484 
538	 0.377890980782181 
539	 0.376733849516335 
540	 0.375611684480708 
541	 0.374515109186155 
542	 0.373440926825601 
543	 0.372420545372166 
544	 0.371474035516481 
545	 0.370572993014094 
546	 0.369691209537213 
547	 0.3688901429939 
548	 0.368141866008241 
549	 0.367457660857032 
550	 0.366884373268354 
551	 0.366360813197912 
552	 0.36587358919284 
553	 0.365423025988857 
554	 0.365023908817977 
555	 0.364638619352889 
556	 0.364212245686919 
557	 0.363689973549968 
558	 0.363082620366441 
559	 0.362426617862661 
560	 0.361712850475943 
561	 0.360867418085764 
562	 0.359907555348816 
563	 0.35889012760575 
564	 0.357889963005906 
565	 0.357010679655525 
566	 0.356131228083484 
567	 0.355223764334447 
568	 0.354334659521431 
569	 0.353430689844365 
570	 0.35256859740806 
571	 0.351739361020078 
572	 0.350768525426969 
573	 0.349740157385245 
574	 0.34867593205528 
575	 0.347571329565146 
576	 0.346402886966566 
577	 0.345222719047406 
578	 0.344037291573983 
579	 0.342797484712207 
580	 0.34166118019238 
581	 0.340544450040064 
582	 0.339376191716187 
583	 0.338327121746975 
584	 0.337268446771338 
585	 0.336133587656625 
586	 0.334903152588807 
587	 0.333611602143313 
588	 0.332269171023553 
589	 0.330925033319428 
590	 0.329699577346054 
591	 0.328519067274701 
592	 0.327400022524644 
593	 0.326365867495192 
594	 0.325348114565757 
595	 0.324406947791871 
596	 0.32353073796511 
597	 0.322642971492159 
598	 0.321773226809903 
599	 0.320889708346464 
600	 0.31997114577442 
601	 0.319042153527914 
602	 0.318097180547032 
603	 0.317177002794928 
604	 0.316320014431955 
605	 0.315409444916595 
606	 0.314480978150143 
607	 0.313579478348656 
608	 0.312744254509227 
609	 0.311839839428212 
610	 0.310901677468345 
611	 0.310005467722859 
612	 0.309213976239642 
613	 0.308369472953135 
614	 0.307452144763566 
615	 0.306537069929179 
616	 0.305639845257505 
617	 0.304728316288438 
618	 0.303782400621509 
619	 0.302814516635151 
620	 0.301844656596283 
621	 0.300863447554206 
622	 0.29985236239408 
623	 0.298798712872598 
624	 0.297781287761035 
625	 0.296796250128704 
626	 0.295763305049361 
627	 0.29471928195442 
628	 0.293714363091287 
629	 0.292754741211778 
630	 0.291735828984933 
631	 0.290723954903323 
632	 0.289735911452263 
633	 0.288765871987589 
634	 0.287801751563969 
635	 0.286886693002935 
636	 0.286025708035333 
637	 0.285171626216345 
638	 0.284394459160393 
639	 0.283682473889533 
640	 0.282997832903188 
641	 0.28228011319595 
642	 0.2816262956354 
643	 0.281057492029967 
644	 0.28053664827841 
645	 0.279986998734366 
646	 0.279494327312979 
647	 0.279094767114884 
648	 0.278707529351601 
649	 0.278369762997543 
650	 0.278091246112239 
651	 0.277876440104293 
652	 0.277742566614384 
653	 0.277627529873734 
654	 0.277560461838915 
655	 0.277634091049612 
656	 0.27771930914147 
657	 0.277802231168036 
658	 0.277947907902935 
659	 0.27835443294229 
660	 0.278820146068665 
661	 0.27932418403563 
662	 0.279913854885325 
663	 0.280610493444167 
664	 0.281408426222897 
665	 0.282313328955972 
666	 0.283345735552055 
667	 0.284564771919574 
668	 0.285917722892138 
669	 0.287357296295661 
670	 0.288919406094353 
671	 0.29060305743185 
672	 0.292432871549827 
673	 0.294436261085159 
674	 0.296573057467262 
675	 0.298853023577114 
676	 0.301306913801843 
677	 0.303981622373871 
678	 0.306833852310176 
679	 0.309801094335365 
680	 0.312877196845412 
681	 0.316225123192704 
682	 0.319810448995656 
683	 0.323593250080121 
684	 0.327539636452924 
685	 0.331677792161779 
686	 0.33607402523969 
687	 0.340747349915624 
688	 0.34565716994616 
689	 0.350825806194489 
690	 0.356200824859882 
691	 0.361768574308388 
692	 0.367690411481891 
693	 0.373958789410959 
694	 0.380503218466037 
695	 0.387238144810164 
696	 0.39432163008186 
697	 0.401681073016943 
698	 0.409265767388488 
699	 0.417108344371701 
700	 0.425222996734963 
701	 0.433603494036529 
702	 0.442234423968494 
703	 0.451082922601846 
704	 0.460238018425474 
705	 0.469647357980619 
706	 0.479173741025058 
707	 0.48891775868083 
708	 0.498846261735978 
709	 0.508899295530496 
710	 0.519013591305012 
711	 0.529233071983802 
712	 0.53945736377635 
713	 0.549589699000931 
714	 0.559695134664839 
715	 0.569793442669778 
716	 0.579820753014563 
717	 0.589659398998613 
718	 0.59939228352032 
719	 0.608941591444509 
720	 0.618224396301357 
721	 0.627189847738456 
722	 0.635891175085404 
723	 0.64435121321664 
724	 0.652560701471333 
725	 0.660475438064959 
726	 0.668072784730134 
727	 0.675332843371614 
728	 0.682247021901704 
729	 0.688839179612634 
730	 0.695087012929694 
731	 0.700993530750628 
732	 0.706617337540195 
733	 0.711848561370952 
734	 0.716719558583463 
735	 0.72132298814847 
736	 0.72578196703268 
737	 0.729995785886405 
738	 0.733902164571048 
739	 0.737483211721666 
740	 0.740904240394216 
741	 0.744095719911564 
742	 0.747023428109073 
743	 0.749759666669339 
744	 0.752280362421017 
745	 0.754649544345616 
746	 0.756928650674009 
747	 0.759083179797266 
748	 0.761142112537053 
749	 0.763083467893021 
750	 0.764860665489783 
751	 0.766505387928131 
752	 0.76797370110299 
753	 0.769259120627743 
754	 0.770411672980252 
755	 0.77155094700114 
756	 0.772710708216585 
757	 0.7738660426394 
758	 0.774912333349349 
759	 0.775835997987472 
760	 0.776705068261215 
761	 0.777601457300547 
762	 0.778400673661047 
763	 0.77922568867223 
764	 0.780058101914696 
765	 0.780722196398517 
766	 0.781295168637524 
767	 0.781913739674042 
768	 0.782622588872159 
769	 0.783240368236177 
770	 0.783754832594248 
771	 0.784227932649271 
772	 0.784737355996435 
773	 0.785256906457738 
774	 0.785722765097543 
775	 0.786112286617636 
776	 0.786454373857409 
777	 0.786922656564811 
778	 0.787356300621813 
779	 0.787699951399359 
780	 0.788161617716694 
781	 0.7886140957163 
782	 0.789021939456759 
783	 0.789377235893275 
784	 0.789667337985825 
785	 0.789987359412028 
786	 0.790352271244346 
787	 0.790705497398905 
788	 0.790866086088072 
789	 0.791044683158197 
790	 0.791348334303663 
791	 0.791709650167266 
792	 0.792033521616231 
793	 0.792288188428785 
794	 0.792497830421004 
795	 0.792766738280118 
796	 0.793118366833098 
797	 0.793430585643796 
798	 0.793574138582552 
799	 0.793676006180853 
800	 0.793822192988807 
801	 0.794048744794625 
802	 0.794338215774067 
803	 0.794586734802793 
804	 0.794835232010183 
805	 0.795093545450272 
806	 0.795294969276426 
807	 0.795494401134365 
808	 0.79565949070664 
809	 0.795763625972971 
810	 0.79584734086461 
811	 0.796025017170122 
812	 0.796234194161757 
813	 0.796362153898903 
814	 0.796536666169817 
815	 0.796701908407216 
816	 0.7968417978307 
817	 0.796984127799061 
818	 0.797128816702132 
819	 0.797238890034709 
820	 0.79734873062505 
821	 0.797616269224756 
822	 0.797790803538338 
823	 0.797957903858253 
824	 0.798211872330235 
825	 0.79838669675992 
826	 0.798473701282227 
827	 0.798498728307396 
828	 0.798516833902904 
829	 0.798600949227786 
830	 0.798742409454368 
831	 0.798890030710221 
832	 0.798968565010023 
833	 0.798983385329859 
834	 0.799063963196203 
835	 0.799243983779884 
836	 0.799385344603348 
837	 0.799441651869731 
838	 0.799507391601727 
839	 0.799662097185103 
840	 0.799838986283656 
841	 0.799954271741413 
842	 0.800071580948608 
843	 0.800277775543344 
844	 0.800441182602867 
845	 0.80056064698555 
846	 0.800664315316057 
847	 0.800787333594353 
848	 0.800849325018852 
849	 0.800920063199862 
850	 0.801041908442695 
851	 0.80119600574554 
852	 0.801285609724726 
853	 0.801404337186953 
854	 0.801589628144623 
855	 0.801674604969072 
856	 0.801723509673337 
857	 0.801774699607246 
858	 0.801838945845873 
859	 0.801842110170359 
860	 0.801908453658287 
861	 0.802003889655131 
862	 0.802037255447936 
863	 0.802116535709944 
864	 0.802264220280704 
865	 0.802434707116131 
866	 0.802537229945178 
867	 0.802591846852638 
868	 0.802653975641979 
869	 0.802753160253721 
870	 0.802874821440435 
871	 0.803074512263844 
872	 0.803258106054116 
873	 0.803340089338114 
874	 0.803318583626672 
875	 0.803405068303992 
876	 0.803502718818506 
877	 0.803488385386033 
878	 0.803518510073717 
879	 0.803661360988643 
880	 0.803861626038221 
881	 0.804007390381043 
882	 0.804060068501381 
883	 0.804197889794638 
884	 0.804400356544058 
885	 0.804502172806801 
886	 0.804579608540015 
887	 0.804658495295316 
888	 0.804731441301867 
889	 0.804765694494234 
890	 0.80488228419723 
891	 0.805013565345156 
892	 0.805082597413056 
893	 0.805060765544958 
894	 0.805198354233019 
895	 0.805365588564984 
896	 0.80542526566509 
897	 0.805489352592978 
898	 0.805573374774827 
899	 0.805695087879396 
900	 0.805848120016387 
901	 0.805968280222717 
902	 0.805982836956748 
903	 0.805952785572419 
904	 0.805989058368208 
905	 0.806056310288912 
906	 0.806167572483594 
907	 0.806303064283304 
908	 0.806415282649851 
909	 0.806443073545158 
910	 0.806477688665735 
911	 0.806581086207991 
912	 0.806748770042368 
913	 0.806804176612059 
914	 0.80678197661726 
915	 0.806731797804911 
916	 0.806675238796251 
917	 0.806730853626179 
918	 0.806833796624656 
919	 0.806944910299651 
920	 0.807153579719952 
921	 0.807106606482697 
922	 0.807119496253754 
923	 0.807412280293863 
924	 0.807510334378998 
925	 0.807545240947216 
926	 0.807584638357476 
927	 0.807664000068996 
928	 0.807759531599399 
929	 0.807772042553255 
930	 0.807770687193112 
931	 0.807842013801515 
932	 0.807796331193463 
933	 0.807860537333871 
934	 0.808003206665331 
935	 0.808067690002047 
936	 0.808097923101292 
937	 0.808162855798758 
938	 0.80826873479745 
939	 0.808364327231072 
940	 0.808357576818856 
941	 0.808359352321087 
942	 0.808383247004922 
943	 0.808356159282929 
944	 0.808366067449062 
945	 0.808393716212547 
946	 0.808438975325046 
947	 0.808529605818527 
948	 0.808644061918242 
949	 0.808672981733401 
950	 0.808627074873733 
951	 0.808670943724593 
952	 0.808782780691944 
953	 0.80884523224399 
954	 0.808832567129743 
955	 0.80886972260327 
956	 0.808690978750967 
957	 0.80847656818825 
958	 0.808367651818577 
959	 0.80827018555347 
960	 0.808192693012179 
961	 0.808094739020351 
962	 0.807970500987547 
963	 0.807895522564454 
964	 0.807883364941089 
965	 0.807982637288014 
966	 0.808123380895213 
967	 0.807963739558154 
968	 0.808153783034737 
969	 0.808410903519932 
970	 0.808426404180012 
971	 0.808545170175254 
972	 0.808619637184186 
973	 0.808767717541907 
974	 0.809020755258688 
975	 0.808964047023238 
976	 0.808927857311545 
977	 0.809040244595845 
978	 0.809228645918219 
979	 0.80902463290315 
980	 0.809101297453929 
981	 0.809344430145347 
982	 0.809438764536847 
983	 0.809365330509786 
984	 0.809439428624304 
985	 0.809546094534682 
986	 0.809481741683043 
987	 0.809300896600776 
988	 0.809270235789199 
989	 0.809382118493238 
990	 0.809497247803886 
991	 0.809462218879427 
992	 0.809347144225877 
993	 0.809299720704645 
994	 0.80939385181353 
995	 0.809381483025757 
996	 0.80926596568129 
997	 0.809304629052247 
998	 0.809605028679589 
999	 0.809472482604089 
1000	 0.809570206620998 
1001	 0.813168936099914 
1002	 0.813106793215551 
1003	 0.813128875578835 
1004	 0.813108276861624 
1005	 0.813035636587826 
1006	 0.813107886938663 
1007	 0.813273696469941 
1008	 0.813311309401574 
1009	 0.813407224654374 
1010	 0.813464512722827 
1011	 0.813330983815011 
1012	 0.81338369181638 
1013	 0.813670176220744 
1014	 0.813741588734664 
1015	 0.813755101566244 
1016	 0.813781744439967 
1017	 0.813635890417227 
1018	 0.813437778595355 
1019	 0.813394750980317 
1020	 0.813346472101097 
1021	 0.813325873110434 
1022	 0.813400605261443 
1023	 0.813405720049181 
1024	 0.813315637961581 
1025	 0.813374082569894 
1026	 0.813529248335453 
1027	 0.813584412042249 
1028	 0.813642988101526 
1029	 0.813782353270211 
1030	 0.813742827262806 
1031	 0.813800373469278 
1032	 0.813861459746655 
1033	 0.813813204745186 
1034	 0.813936397676699 
1035	 0.813956624388946 
1036	 0.813997731659954 
1037	 0.814146327039505 
1038	 0.814194900640599 
1039	 0.814113804113218 
1040	 0.814163601992153 
1041	 0.814240943409757 
1042	 0.814285996655561 
1043	 0.814357729592679 
1044	 0.814468091454744 
1045	 0.814494429541072 
1046	 0.814533074669583 
1047	 0.814624770231604 
1048	 0.814621672087933 
1049	 0.8145879937313 
1050	 0.81464593175541 
1051	 0.814732877871036 
1052	 0.814803771851197 
1053	 0.814876897558439 
1054	 0.814996758447434 
1055	 0.815087123635279 
1056	 0.815191418471478 
1057	 0.81522253584011 
1058	 0.815244902880185 
1059	 0.815159060128756 
1060	 0.815072683630242 
1061	 0.814997629171095 
1062	 0.815012515077684 
1063	 0.815090006233095 
1064	 0.815218444547464 
1065	 0.81537573325587 
1066	 0.815443084167567 
1067	 0.81553491244954 
1068	 0.815668997246579 
1069	 0.815715072001399 
1070	 0.815695220374652 
1071	 0.81564117180684 
1072	 0.815590888132993 
1073	 0.815509587284907 
1074	 0.815461304969719 
1075	 0.815521805842992 
1076	 0.81559044418745 
1077	 0.815603140268646 
1078	 0.815628804076622 
1079	 0.815695320648193 
1080	 0.815855402476602 
1081	 0.816038807073214 
1082	 0.81608776762335 
1083	 0.816110997876385 
1084	 0.816080435094252 
1085	 0.815996129069719 
1086	 0.815972746775571 
1087	 0.816005754830895 
1088	 0.816008244038285 
1089	 0.815992698670805 
1090	 0.816020850556448 
1091	 0.816026341808868 
1092	 0.816040051037964 
1093	 0.816068352275864 
1094	 0.816035412926067 
1095	 0.816018079716591 
1096	 0.816077051940754 
1097	 0.816134390920243 
1098	 0.816267563279229 
1099	 0.816349494735673 
1100	 0.816294767440074 
1101	 0.816303353405282 
1102	 0.816327641232099 
1103	 0.816320066650694 
1104	 0.816312677115428 
1105	 0.816329201395353 
1106	 0.816248570605459 
1107	 0.816129615522142 
1108	 0.816077297870751 
1109	 0.816050009588388 
1110	 0.816035933434403 
1111	 0.816089261273087 
1112	 0.816129435866712 
1113	 0.816168658143161 
1114	 0.816175809497235 
1115	 0.816072595421502 
1116	 0.815998177355082 
1117	 0.815930117942183 
1118	 0.815899808419621 
1119	 0.815961486309974 
1120	 0.815978329328313 
1121	 0.815991554542694 
1122	 0.816003614068565 
1123	 0.815923832327282 
1124	 0.815863389534325 
1125	 0.815798787205469 
1126	 0.815704301710633 
1127	 0.815673832146717 
1128	 0.815628130582334 
1129	 0.81557937448372 
1130	 0.815520752829234 
1131	 0.815379101021276 
1132	 0.815230382313041 
1133	 0.815029983608378 
1134	 0.814766687410051 
1135	 0.814567707267521 
1136	 0.814404135208144 
1137	 0.814229277538778 
1138	 0.81411572771015 
1139	 0.813910156614688 
1140	 0.813651920581046 
1141	 0.813390884687685 
1142	 0.81310558756046 
1143	 0.812850026692387 
1144	 0.81262073710564 
1145	 0.812377300820621 
1146	 0.812153927387467 
1147	 0.811928349517896 
1148	 0.811699385544178 
1149	 0.811498894628148 
1150	 0.811292484253766 
1151	 0.811038993535761 
1152	 0.8107682673655 
1153	 0.810495561652999 
1154	 0.810182715780768 
1155	 0.809795270270971 
1156	 0.809465007937515 
1157	 0.809137634103034 
1158	 0.808799928499553 
1159	 0.808467617870257 
1160	 0.808173678538773 
1161	 0.807816043202241 
1162	 0.80749455143925 
1163	 0.807211543011086 
1164	 0.806869234890281 
1165	 0.806512360635932 
1166	 0.806153164751913 
1167	 0.805786257226266 
1168	 0.805446561271921 
1169	 0.805111042415877 
1170	 0.804802628394595 
1171	 0.804484285729518 
1172	 0.804128426375141 
1173	 0.803855419445324 
1174	 0.803636355958674 
1175	 0.803409599991252 
1176	 0.803230522776802 
1177	 0.803040053954251 
1178	 0.802835728980258 
1179	 0.80265568436474 
1180	 0.802486076432438 
1181	 0.802277267648381 
1182	 0.802037712025767 
1183	 0.801774033373204 
1184	 0.8015502630823 
1185	 0.801341153164973 
1186	 0.801144299454552 
1187	 0.80095019984702 
1188	 0.800828024621847 
1189	 0.800753004558836 
1190	 0.800674068796636 
1191	 0.800666375406849 
1192	 0.800620715958602 
1193	 0.800515766725404 
1194	 0.800462338759223 
1195	 0.800442140429614 
1196	 0.800417965492825 
1197	 0.800376306044022 
1198	 0.800424031393176 
1199	 0.800478868411291 
1200	 0.800559137688717 
1201	 0.80062206699295 
1202	 0.800661816874084 
1203	 0.800676949979481 
1204	 0.800660928446637 
1205	 0.800700850262396 
1206	 0.800778921915696 
1207	 0.800852175717496 
1208	 0.800924168196839 
1209	 0.801038676552338 
1210	 0.801190860887959 
1211	 0.801322196331065 
1212	 0.801465688772536 
1213	 0.801632977669454 
1214	 0.801794496793389 
1215	 0.801972632591425 
1216	 0.802161404171666 
1217	 0.802392753247582 
1218	 0.802621016826784 
1219	 0.802916992117869 
1220	 0.803263491218968 
1221	 0.803598934448166 
1222	 0.803908000149481 
1223	 0.804180797328893 
1224	 0.804472594396946 
1225	 0.804747168693307 
1226	 0.805027972332433 
1227	 0.805328852697856 
1228	 0.805605729675252 
1229	 0.805860427929281 
1230	 0.806129848142947 
1231	 0.806419031536432 
1232	 0.806667225686785 
1233	 0.806891645400384 
1234	 0.807119780723996 
1235	 0.807332123128914 
1236	 0.807527018492568 
1237	 0.807724094291459 
1238	 0.80790596548841 
1239	 0.808040885963094 
1240	 0.808211948968212 
1241	 0.808371848001325 
1242	 0.808522147522945 
1243	 0.808636889599943 
1244	 0.808729052167952 
1245	 0.808805294806376 
1246	 0.808837802893355 
1247	 0.808904028456681 
1248	 0.808983105725108 
1249	 0.809033848152924 
1250	 0.809080322447977 
1251	 0.809125587895186 
1252	 0.809145289600854 
1253	 0.809174344554884 
1254	 0.809215447913672 
1255	 0.809252576662344 
1256	 0.809271577644001 
1257	 0.809312880591464 
1258	 0.809370020840075 
1259	 0.809420944991487 
1260	 0.809517623143027 
1261	 0.809553859208344 
1262	 0.809565723562063 
1263	 0.809545657823102 
1264	 0.809520707529816 
1265	 0.809440264185426 
1266	 0.809404926926832 
1267	 0.809388013767427 
1268	 0.809364886994909 
1269	 0.809364221146025 
1270	 0.809310447891652 
1271	 0.809208766517316 
1272	 0.80916138073603 
1273	 0.809095431220271 
1274	 0.809064382123701 
1275	 0.80910407531779 
1276	 0.809102059943778 
1277	 0.809095061918239 
1278	 0.809070564452475 
1279	 0.808996431435572 
1280	 0.808980877412713 
1281	 0.809013219251489 
1282	 0.809000056933747 
1283	 0.808969447295373 
1284	 0.80898272814322 
1285	 0.809002174434824 
1286	 0.808989059996756 
1287	 0.809008212620664 
1288	 0.809085784853178 
1289	 0.80913192458039 
1290	 0.809154081719105 
1291	 0.809186226522652 
1292	 0.809249147854609 
1293	 0.809271893992272 
1294	 0.809267737616669 
1295	 0.809260082509744 
1296	 0.809261733122238 
1297	 0.809214156376928 
1298	 0.809092771939759 
1299	 0.809045051714477 
1300	 0.809007738189134 
1301	 0.808966257923262 
1302	 0.809001640940052 
1303	 0.808965254994562 
1304	 0.808832863709507 
1305	 0.808769700102857 
1306	 0.808758392659375 
1307	 0.808688234650602 
1308	 0.808612123957786 
1309	 0.80855472422174 
1310	 0.808428778098831 
1311	 0.80821305271329 
1312	 0.808076881947867 
1313	 0.80794292336031 
1314	 0.807838090871721 
1315	 0.807764747466221 
1316	 0.80768413412302 
1317	 0.807610735661115 
1318	 0.807554632189963 
1319	 0.80751749541716 
1320	 0.807463993836729 
1321	 0.807449302118267 
1322	 0.807366809935948 
1323	 0.807208085560092 
1324	 0.807115557376124 
1325	 0.807046229489229 
1326	 0.806935070757639 
1327	 0.806860944297909 
1328	 0.806737809802384 
1329	 0.806532607567291 
1330	 0.806356289966622 
1331	 0.806187416202387 
1332	 0.806008921699764 
1333	 0.805807313239511 
1334	 0.805623242848111 
1335	 0.805486384864348 
1336	 0.805374860740871 
1337	 0.805243269760291 
1338	 0.80518310690401 
1339	 0.804987438654334 
1340	 0.804712328350984 
1341	 0.804462238103615 
1342	 0.804152731506261 
1343	 0.803883512011914 
1344	 0.803636065068032 
1345	 0.80337500594463 
1346	 0.803107854098039 
1347	 0.802843596162102 
1348	 0.802604874209412 
1349	 0.802312067917641 
1350	 0.801979036496591 
1351	 0.801665240309907 
1352	 0.801311452000288 
1353	 0.800992359787662 
1354	 0.800735726788033 
1355	 0.80041929438399 
1356	 0.800077377842651 
1357	 0.799731709824939 
1358	 0.799357348010576 
1359	 0.798972711628289 
1360	 0.798579015118504 
1361	 0.798178023208604 
1362	 0.797760387509023 
1363	 0.797409480321272 
1364	 0.797051337352322 
1365	 0.796737161718089 
1366	 0.79637595899189 
1367	 0.795997477223904 
1368	 0.795636803482165 
1369	 0.795304637308124 
1370	 0.794886047534362 
1371	 0.794469738819756 
1372	 0.793975529640781 
1373	 0.793369944598738 
1374	 0.792811075206364 
1375	 0.792242884519337 
1376	 0.791648606302647 
1377	 0.79101680119454 
1378	 0.790419837553732 
1379	 0.789809053103005 
1380	 0.789205034882064 
1381	 0.788652102008339 
1382	 0.788033816733309 
1383	 0.787377194334797 
1384	 0.78670706033222 
1385	 0.786035545842189 
1386	 0.785309582272795 
1387	 0.784572583150332 
1388	 0.78379242353919 
1389	 0.782997400330249 
1390	 0.782120466128469 
1391	 0.781219205245658 
1392	 0.780194594323334 
1393	 0.779157052489737 
1394	 0.778072139021998 
1395	 0.776998742617769 
1396	 0.775930952168672 
1397	 0.774814905576569 
1398	 0.773683689980617 
1399	 0.772496600687137 
1400	 0.771284436833762 
1401	 0.769993140623128 
1402	 0.768722562606331 
1403	 0.76721058868256 
1404	 0.765637572869796 
1405	 0.763821607809735 
1406	 0.761836024819112 
1407	 0.759626115494616 
1408	 0.757056902684401 
1409	 0.754652590488063 
1410	 0.75188693722057 
1411	 0.749640089399294 
1412	 0.747381592059832 
1413	 0.745795054044329 
1414	 0.74455124047036 
1415	 0.743826232693339 
1416	 0.743812399847936 
1417	 0.743880900934163 
1418	 0.744533548077072 
1419	 0.744996644771035 
1420	 0.745724883532867 
1421	 0.746163532397629 
1422	 0.746500307834072 
1423	 0.746672636866574 
1424	 0.74664216023939 
1425	 0.746488527894339 
1426	 0.746279337415082 
1427	 0.745991861216633 
1428	 0.745668157722683 
1429	 0.745326903308313 
1430	 0.745000487960068 
1431	 0.744649806485928 
1432	 0.74430056162902 
1433	 0.743959070480325 
1434	 0.743620370214471 
1435	 0.74324738068473 
1436	 0.742935645498607 
1437	 0.742664892135882 
1438	 0.742387339961138 
1439	 0.742142317294562 
1440	 0.741863803764739 
1441	 0.741590239048064 
1442	 0.741282771157821 
1443	 0.740926177032759 
1444	 0.740618531235834 
1445	 0.740298825515526 
1446	 0.740015543987172 
1447	 0.739773105855784 
1448	 0.739529126849576 
1449	 0.73928479414302 
1450	 0.739072445315248 
1451	 0.738914480075787 
1452	 0.738712393174801 
1453	 0.738493314021756 
1454	 0.738300016964561 
1455	 0.738088597949917 
1456	 0.73789383582766 
1457	 0.737740671731681 
1458	 0.737572395762368 
1459	 0.737375929462596 
1460	 0.737213935874085 
1461	 0.737084302618453 
1462	 0.736945214178313 
1463	 0.736821790475665 
1464	 0.736690017362492 
1465	 0.736542720115133 
1466	 0.736397406613685 
1467	 0.736261602731712 
1468	 0.736168786091561 
1469	 0.736120866541031 
1470	 0.736063185553793 
1471	 0.736007800466017 
1472	 0.735975311142514 
1473	 0.735920468080877 
1474	 0.735847593770972 
1475	 0.735791931224563 
1476	 0.735737031855242 
1477	 0.735692423160576 
1478	 0.735679341950589 
1479	 0.735595656431293 
1480	 0.735504131296589 
1481	 0.735368459646716 
1482	 0.73515985899735 
1483	 0.734983728534126 
1484	 0.734797261743233 
1485	 0.734616074035699 
1486	 0.734424537951189 
1487	 0.734260055408877 
1488	 0.734123661104235 
1489	 0.73395341526535 
1490	 0.733759466504108 
1491	 0.733610638509535 
1492	 0.733455314576676 
1493	 0.733326989215552 
1494	 0.73324939958992 
1495	 0.733166919024414 
1496	 0.733064668942571 
1497	 0.733010564273742 
1498	 0.732987757968772 
1499	 0.732990743944626 
1500	 0.733022648095335 
1501	 0.733076593803238 
1502	 0.733159736564546 
1503	 0.733262670348282 
1504	 0.733408989168639 
1505	 0.733539499073791 
1506	 0.733678403358187 
1507	 0.733822746878048 
1508	 0.733961964046124 
1509	 0.734111379783238 
1510	 0.734303475312298 
1511	 0.73444688904598 
1512	 0.734545286047987 
1513	 0.734673035362032 
1514	 0.734785517647441 
1515	 0.734907845869222 
1516	 0.735039447952985 
1517	 0.735200733980427 
1518	 0.735375237626873 
1519	 0.735556337144417 
1520	 0.735785896869897 
1521	 0.735994856408313 
1522	 0.736175248305283 
1523	 0.736371977576501 
1524	 0.736614882347834 
1525	 0.736878566825795 
1526	 0.737153322238266 
1527	 0.737470831118337 
1528	 0.737774501917729 
1529	 0.738068935660291 
1530	 0.738391398745939 
1531	 0.738738966194946 
1532	 0.739080058629257 
1533	 0.739426496684033 
1534	 0.739782407122902 
1535	 0.74013200180759 
1536	 0.740525961407931 
1537	 0.740967251446398 
1538	 0.741350871815378 
1539	 0.741764955810378 
1540	 0.742095670078694 
1541	 0.742353490964203 
1542	 0.742624302160294 
1543	 0.742864084557905 
1544	 0.743105161756783 
1545	 0.743335949431915 
1546	 0.743561119860013 
1547	 0.743765714220243 
1548	 0.743992344774153 
1549	 0.744233250112881 
1550	 0.744449810305151 
1551	 0.744694128148056 
1552	 0.744862404121274 
1553	 0.744990409367702 
1554	 0.745086565430405 
1555	 0.745110231263748 
1556	 0.745171095542055 
1557	 0.745252719278867 
1558	 0.745260590494676 
1559	 0.745227158546747 
1560	 0.745214642293257 
1561	 0.745123796753703 
1562	 0.745117332547044 
1563	 0.745180224967839 
1564	 0.745225146131337 
1565	 0.745276174407082 
1566	 0.745349883986646 
1567	 0.745445288587175 
1568	 0.745537340187489 
1569	 0.745648458260286 
1570	 0.745755330368221 
1571	 0.745831905055936 
1572	 0.745968299669226 
1573	 0.746144063556529 
1574	 0.746316998183002 
1575	 0.74654543039402 
1576	 0.746727772832625 
1577	 0.74686783786115 
1578	 0.747047302767358 
1579	 0.7472467877244 
1580	 0.747419715366283 
1581	 0.747605213613839 
1582	 0.747774371916743 
1583	 0.747888502489134 
1584	 0.748053326237252 
1585	 0.748246133881464 
1586	 0.748438762319731 
1587	 0.748681332004852 
1588	 0.748864164121735 
1589	 0.749018651201502 
1590	 0.749171681364303 
1591	 0.749279428350439 
1592	 0.749411019180319 
1593	 0.74955163898415 
1594	 0.74969397847393 
1595	 0.749843323150793 
1596	 0.749988293616636 
1597	 0.750117441209152 
1598	 0.750284429914973 
1599	 0.750490817403056 
1600	 0.750658987807511 
1601	 0.750841173596962 
1602	 0.75100002213431 
1603	 0.751120415152849 
1604	 0.751239563488275 
1605	 0.751339110240274 
1606	 0.75146405738957 
1607	 0.751550952829426 
1608	 0.751710047885814 
1609	 0.751980146255683 
1610	 0.752164001394863 
1611	 0.752336316140665 
1612	 0.75250620823491 
1613	 0.75262403440496 
1614	 0.752749211713435 
1615	 0.752908736004109 
1616	 0.753033192593652 
1617	 0.753104993246574 
1618	 0.753197795764201 
1619	 0.753306667347974 
1620	 0.753391385730062 
1621	 0.753469913794871 
1622	 0.753540361636827 
1623	 0.753573511675804 
1624	 0.753629454293249 
1625	 0.753691281939863 
1626	 0.7537612930925 
1627	 0.753867866349795 
1628	 0.753936227641409 
1629	 0.753988364489495 
1630	 0.754031255681756 
1631	 0.754031768825484 
1632	 0.754060609520553 
1633	 0.754100739506845 
1634	 0.754148238181769 
1635	 0.754222850610164 
1636	 0.754271945308218 
1637	 0.754281358943751 
1638	 0.754341375709247 
1639	 0.754431093885371 
1640	 0.754498731746799 
1641	 0.754628520510711 
1642	 0.754687664715703 
1643	 0.754696423992932 
1644	 0.754681608694412 
1645	 0.754608038678161 
1646	 0.754552864898271 
1647	 0.754495397407759 
1648	 0.7544053427225 
1649	 0.754327277731633 
1650	 0.754189823405359 
1651	 0.753968893667076 
1652	 0.753795763315571 
1653	 0.753623453271492 
1654	 0.753434140257571 
1655	 0.753262643576594 
1656	 0.753061451827553 
1657	 0.752826646115449 
1658	 0.752583962674864 
1659	 0.752347676376862 
1660	 0.752079027161959 
1661	 0.751780601089134 
1662	 0.751467034375502 
1663	 0.751138936893806 
1664	 0.75077001361739 
1665	 0.750402925698279 
1666	 0.749946637157242 
1667	 0.749432816905204 
1668	 0.748881484721229 
1669	 0.748281490934832 
1670	 0.747588170205405 
1671	 0.746816319643349 
1672	 0.746003272457742 
1673	 0.745120644592808 
1674	 0.744190302140427 
1675	 0.743234330829739 
1676	 0.742211809451071 
1677	 0.741068281583581 
1678	 0.739947095682395 
1679	 0.738785118136826 
1680	 0.737639286216204 
1681	 0.736506872690541 
1682	 0.735339458231129 
1683	 0.734146274515843 
1684	 0.732994951106207 
1685	 0.731803712346441 
1686	 0.730679906810082 
1687	 0.729617105047806 
1688	 0.728538911641324 
1689	 0.72745247735388 
1690	 0.72645033575898 
1691	 0.725495087761003 
1692	 0.724574989364898 
1693	 0.723726173542595 
1694	 0.722881462238387 
1695	 0.722046608673562 
1696	 0.721234016859232 
1697	 0.720500974935763 
1698	 0.719653865423332 
1699	 0.718776546770087 
1700	 0.717900725016538 
1701	 0.716950695182015 
1702	 0.716064363242579 
1703	 0.715214566070928 
1704	 0.714321060601661 
1705	 0.713395315608333 
1706	 0.712491212886424 
1707	 0.711692128685972 
1708	 0.710903539087323 
1709	 0.710096590288349 
1710	 0.709336898253157 
1711	 0.708481237550877 
1712	 0.707592745733656 
1713	 0.706742422308874 
1714	 0.705816806634813 
1715	 0.704858403120837 
1716	 0.703871796790405 
1717	 0.702916158776247 
1718	 0.701926503200719 
1719	 0.700878562600192 
1720	 0.699922011875893 
1721	 0.698909926299407 
1722	 0.697851958080481 
1723	 0.696944882147683 
1724	 0.696009456285626 
1725	 0.695143526542077 
1726	 0.694476360825512 
1727	 0.693932385268698 
1728	 0.69359552174276 
1729	 0.693406551673361 
1730	 0.693429858813876 
1731	 0.693623928435417 
1732	 0.69395096018083 
1733	 0.694437474745383 
1734	 0.695067386398489 
1735	 0.695788660294758 
1736	 0.696543427095232 
1737	 0.69738508733788 
1738	 0.698142228547136 
1739	 0.698849824093479 
1740	 0.699549759116817 
1741	 0.700172878473817 
1742	 0.700762987357974 
1743	 0.701312462009762 
1744	 0.701824997898477 
1745	 0.702254664900822 
1746	 0.702580042542054 
1747	 0.702879465892155 
1748	 0.703149500501922 
1749	 0.703329895170155 
1750	 0.703486700010296 
1751	 0.703529609211389 
1752	 0.703388677310846 
1753	 0.703334151774839 
1754	 0.703267632315947 
1755	 0.703176164266453 
1756	 0.70309514862789 
1757	 0.702953700929345 
1758	 0.702765039176643 
1759	 0.702638866071309 
1760	 0.702604634983478 
1761	 0.702657052104518 
1762	 0.702827801862645 
1763	 0.703069055797427 
1764	 0.703325543672574 
1765	 0.703674340071722 
1766	 0.70411191919834 
1767	 0.704600166802338 
1768	 0.70523977224746 
1769	 0.705895557854874 
1770	 0.706486480966402 
1771	 0.707128597273614 
1772	 0.707678603508982 
1773	 0.708234774608957 
1774	 0.708844458508442 
1775	 0.709347309043062 
1776	 0.709839109952378 
1777	 0.710294132271389 
1778	 0.710665184489559 
1779	 0.711030558678662 
1780	 0.711403830215131 
1781	 0.71169886020239 
1782	 0.711939144757361 
1783	 0.712169310155959 
1784	 0.712368438618821 
1785	 0.712634825226904 
1786	 0.712832047765764 
1787	 0.713039733925452 
1788	 0.713173700038168 
1789	 0.713214851013075 
1790	 0.713261870414714 
1791	 0.713229590853971 
1792	 0.713266277720787 
1793	 0.713324217579116 
1794	 0.713346426976617 
1795	 0.713449865929404 
1796	 0.713549193623818 
1797	 0.713597566847502 
1798	 0.713686383527619 
1799	 0.713817773080437 
1800	 0.713857933735807 
1801	 0.711856653500782 
1802	 0.712082358106369 
1803	 0.712337293321846 
1804	 0.712656637280847 
1805	 0.713002144232595 
1806	 0.713290954192194 
1807	 0.71357885341279 
1808	 0.713814379614763 
1809	 0.714062060180928 
1810	 0.714204002917264 
1811	 0.714237741484316 
1812	 0.714309841592658 
1813	 0.714315548009007 
1814	 0.714319906810051 
1815	 0.714436298192061 
1816	 0.714610379128041 
1817	 0.714705974800363 
1818	 0.714774815449194 
1819	 0.714889334844061 
1820	 0.714969407037475 
1821	 0.715081171024292 
1822	 0.715234038971423 
1823	 0.71544733982374 
1824	 0.715577848217447 
1825	 0.715685115628342 
1826	 0.715851550100214 
1827	 0.716074057779435 
1828	 0.716228140599401 
1829	 0.716424633888506 
1830	 0.716531932072767 
1831	 0.716579183770943 
1832	 0.71656776354612 
1833	 0.716573205054216 
1834	 0.716577532284254 
1835	 0.716639795255037 
1836	 0.716739698959619 
1837	 0.716779715778438 
1838	 0.716825269932211 
1839	 0.716838691938052 
1840	 0.716768874368748 
1841	 0.716752584342618 
1842	 0.716730402676262 
1843	 0.716772771488492 
1844	 0.716838094350515 
1845	 0.716850817700882 
1846	 0.716832808517834 
1847	 0.716785884340917 
1848	 0.716785538806793 
1849	 0.716806761314623 
1850	 0.716804950214834 
1851	 0.716848118839841 
1852	 0.716828673380569 
1853	 0.716733638041922 
1854	 0.716602336565527 
1855	 0.716475294562828 
1856	 0.716345670552811 
1857	 0.716197143901201 
1858	 0.716003054022948 
1859	 0.715754854978143 
1860	 0.7154872709149 
1861	 0.715123904655248 
1862	 0.714689834398187 
1863	 0.714202145834018 
1864	 0.713656800125216 
1865	 0.713083496553688 
1866	 0.712523967481962 
1867	 0.711889591833091 
1868	 0.711204303080648 
1869	 0.71045295319212 
1870	 0.709617878472199 
1871	 0.70866822337183 
1872	 0.707730113819416 
1873	 0.706728024603206 
1874	 0.705735459485383 
1875	 0.704750865675867 
1876	 0.70363835907117 
1877	 0.702557647503828 
1878	 0.701413487774044 
1879	 0.70014858495256 
1880	 0.698946693190705 
1881	 0.697602415673479 
1882	 0.69617781183477 
1883	 0.69460942962049 
1884	 0.692943275304879 
1885	 0.691147011445757 
1886	 0.689354203965705 
1887	 0.687339105197377 
1888	 0.685195547801433 
1889	 0.683102407871074 
1890	 0.680752837210241 
1891	 0.678421620893054 
1892	 0.676063426706962 
1893	 0.673472331701452 
1894	 0.67064172741953 
1895	 0.66785297526609 
1896	 0.664892488295324 
1897	 0.661787004603538 
1898	 0.658932156287615 
1899	 0.655883308267218 
1900	 0.652819802456406 
1901	 0.649857282798245 
1902	 0.646577812640056 
1903	 0.643348895572599 
1904	 0.640168762054204 
1905	 0.636955714907176 
1906	 0.633756628233584 
1907	 0.630852079836527 
1908	 0.627903563282661 
1909	 0.625008175143737 
1910	 0.62213837671541 
1911	 0.619098620631271 
1912	 0.616274348544129 
1913	 0.613401067084619 
1914	 0.610479730611233 
1915	 0.607794936844864 
1916	 0.605310965766701 
1917	 0.602709070964803 
1918	 0.60027474423495 
1919	 0.598054614987261 
1920	 0.595641018139969 
1921	 0.593348793835372 
1922	 0.591122762287771 
1923	 0.588825387943512 
1924	 0.58671890802348 
1925	 0.584679733844232 
1926	 0.582712605300207 
1927	 0.580885035179626 
1928	 0.579015825071175 
1929	 0.577146775842313 
1930	 0.575390993923325 
1931	 0.573638213054002 
1932	 0.572006207645813 
1933	 0.570667604034355 
1934	 0.569350738354403 
1935	 0.568166413811845 
1936	 0.567063397730602 
1937	 0.565975105473318 
1938	 0.564885421575271 
1939	 0.563999123505984 
1940	 0.563195463893046 
1941	 0.562482211100868 
1942	 0.561996025190355 
1943	 0.561541846421727 
1944	 0.561126758450202 
1945	 0.560828727915589 
1946	 0.560617355268024 
1947	 0.560483494548104 
1948	 0.560483471530771 
1949	 0.560572123923552 
1950	 0.560676623929084 
1951	 0.560850326727333 
1952	 0.561066578279023 
1953	 0.561290767258352 
1954	 0.561606663208605 
1955	 0.562028747551975 
1956	 0.562481816158478 
1957	 0.563049871915424 
1958	 0.563599461727558 
1959	 0.564145072198268 
1960	 0.564704104752015 
1961	 0.565256978270594 
1962	 0.565761020841015 
1963	 0.566359934992259 
1964	 0.567025124669813 
1965	 0.567651672107475 
1966	 0.56830618894208 
1967	 0.568964269369556 
1968	 0.569563059320721 
1969	 0.570237991546396 
1970	 0.570868255455235 
1971	 0.571531435720444 
1972	 0.572254587735608 
1973	 0.572872052806102 
1974	 0.573574490730648 
1975	 0.574371836064516 
1976	 0.575083598641686 
1977	 0.575777651122566 
1978	 0.576491846315425 
1979	 0.577161931751984 
1980	 0.577866278757021 
1981	 0.578660218668253 
1982	 0.579442995229401 
1983	 0.580235176394981 
1984	 0.581008879365074 
1985	 0.581708668884353 
1986	 0.582375390276537 
1987	 0.583021854420133 
1988	 0.583605594024915 
1989	 0.584236059168932 
1990	 0.58485286680527 
1991	 0.585483236287229 
1992	 0.586152914877041 
1993	 0.586803832586597 
1994	 0.587389119133744 
1995	 0.588081051157445 
1996	 0.588702439869308 
1997	 0.589312534287304 
1998	 0.589948620467036 
1999	 0.590531035506772 
2000	 0.591206729994626 
2001	 0.591996803066839 
2002	 0.592696009222738 
2003	 0.59342071860734 
2004	 0.594134968936937 
2005	 0.594763874293763 
2006	 0.595444921360565 
2007	 0.596193804129685 
2008	 0.596867604502235 
2009	 0.597603893662781 
2010	 0.59829712164126 
2011	 0.59891455757531 
2012	 0.599536370599625 
2013	 0.600073875359177 
2014	 0.60049896206814 
2015	 0.600964568331072 
2016	 0.601415508027799 
2017	 0.601823289710421 
2018	 0.602280035132873 
2019	 0.602595908071169 
2020	 0.602821638028082 
2021	 0.602998860988576 
2022	 0.603047542331858 
2023	 0.603037602470992 
2024	 0.603040913574942 
2025	 0.603039843140763 
2026	 0.602942490554045 
2027	 0.602821428081267 
2028	 0.602611867065051 
2029	 0.602279752829451 
2030	 0.60195364422976 
2031	 0.601609419451059 
2032	 0.601206447171922 
2033	 0.600722263536514 
2034	 0.60024363926754 
2035	 0.599710935562987 
2036	 0.599181599370487 
2037	 0.598690380292209 
2038	 0.598203877639729 
2039	 0.597797238217451 
2040	 0.597424895391093 
2041	 0.597132813792384 
2042	 0.596889173506278 
2043	 0.596745030085652 
2044	 0.596645523366497 
2045	 0.596691609006552 
2046	 0.59689617228437 
2047	 0.597112368803163 
2048	 0.597429416763546 
2049	 0.597780315464507 
2050	 0.598168708880357 
2051	 0.598608134633632 
2052	 0.59909887605852 
2053	 0.599674701298144 
2054	 0.600250832208955 
2055	 0.600851848183297 
2056	 0.601480057192103 
2057	 0.60215392253375 
2058	 0.602837529974096 
2059	 0.6035014659393 
2060	 0.604267599388246 
2061	 0.605126989001854 
2062	 0.605955665790832 
2063	 0.606854651309166 
2064	 0.607731827541377 
2065	 0.608594571588062 
2066	 0.609429306554562 
2067	 0.610324867202692 
2068	 0.61119687010177 
2069	 0.612092146880261 
2070	 0.613046467575331 
2071	 0.613881574486857 
2072	 0.614697061236932 
2073	 0.615448375276751 
2074	 0.616067252000926 
2075	 0.616756404591153 
2076	 0.617422394695923 
2077	 0.618137189004887 
2078	 0.618948476976966 
2079	 0.619652544616724 
2080	 0.620344352552818 
2081	 0.62098080899101 
2082	 0.621541494303099 
2083	 0.622064217852093 
2084	 0.622569651348277 
2085	 0.623031660229638 
2086	 0.62343710953638 
2087	 0.62375761088061 
2088	 0.624105870355925 
2089	 0.624447877980739 
2090	 0.624735557097716 
2091	 0.624955132795451 
2092	 0.625236082889656 
2093	 0.625531749120649 
2094	 0.625768423926258 
2095	 0.626045777572 
2096	 0.626264629660497 
2097	 0.626416420697293 
2098	 0.626486017520779 
2099	 0.626595675098735 
2100	 0.626833261847205 
2101	 0.626973906802438 
2102	 0.627094382385246 
2103	 0.627224408861454 
2104	 0.627354320157664 
2105	 0.627416866412771 
2106	 0.627470596175275 
2107	 0.627506515909388 
2108	 0.627455185899117 
2109	 0.627442945528977 
2110	 0.627486910726307 
2111	 0.627458811722825 
2112	 0.627394407691223 
2113	 0.6273158217392 
2114	 0.627177379161513 
2115	 0.627050848374338 
2116	 0.626884656543322 
2117	 0.626772971923117 
2118	 0.626673294444698 
2119	 0.626583418066042 
2120	 0.626518501597099 
2121	 0.62650534976239 
2122	 0.626446891292235 
2123	 0.626432036666574 
2124	 0.626301552289543 
2125	 0.626129807610047 
2126	 0.625894349122949 
2127	 0.625570141895973 
2128	 0.625223242199862 
2129	 0.624774561710464 
2130	 0.624384487920043 
2131	 0.624009046033252 
2132	 0.623588480768615 
2133	 0.623191184214711 
2134	 0.622784154047797 
2135	 0.622209803919307 
2136	 0.621609409192705 
2137	 0.620929042372218 
2138	 0.620127054875247 
2139	 0.619387943971603 
2140	 0.61861964546931 
2141	 0.617831057824201 
2142	 0.617138160186292 
2143	 0.616209780430351 
2144	 0.615097012647608 
2145	 0.614078434275123 
2146	 0.612907595228306 
2147	 0.611854228147706 
2148	 0.610963886533694 
2149	 0.609948997142276 
2150	 0.608927464989375 
2151	 0.607837335472456 
2152	 0.606671559648438 
2153	 0.605484604867655 
2154	 0.604213828228628 
2155	 0.602910819271098 
2156	 0.601741364193209 
2157	 0.600609442998696 
2158	 0.599476069319638 
2159	 0.598490404398403 
2160	 0.59731603078171 
2161	 0.596003060534812 
2162	 0.594800716022249 
2163	 0.593536892630272 
2164	 0.592379443130655 
2165	 0.591306722253161 
2166	 0.590246179415523 
2167	 0.589207215217819 
2168	 0.588222151590068 
2169	 0.587317414375618 
2170	 0.586407406427223 
2171	 0.585473345965851 
2172	 0.584648659169855 
2173	 0.583890188877271 
2174	 0.583099636274275 
2175	 0.582639094451122 
2176	 0.5822294107272 
2177	 0.581733759381117 
2178	 0.581296220748436 
2179	 0.580908263179013 
2180	 0.580415593839503 
2181	 0.580131067323599 
2182	 0.580041148001099 
2183	 0.579916945315425 
2184	 0.579799940724611 
2185	 0.579795033740325 
2186	 0.57992956259631 
2187	 0.580018819629843 
2188	 0.580197753736128 
2189	 0.580305788316129 
2190	 0.580330373684222 
2191	 0.580431010003604 
2192	 0.580535095060947 
2193	 0.580692695599252 
2194	 0.580934133395956 
2195	 0.581153467915724 
2196	 0.58141786976993 
2197	 0.581641285484122 
2198	 0.581826216499826 
2199	 0.582051985401022 
2200	 0.582198625891793 
2201	 0.582273205138592 
2202	 0.582420589627712 
2203	 0.582544896732582 
2204	 0.582701719911722 
2205	 0.582924189696029 
2206	 0.583087689809088 
2207	 0.583270473455593 
2208	 0.583370255243998 
2209	 0.583322705537015 
2210	 0.583454074238014 
2211	 0.58361653642238 
2212	 0.583801958514746 
2213	 0.584204045086133 
2214	 0.584403536244724 
2215	 0.584466749429201 
2216	 0.584549362690131 
2217	 0.584587509430526 
2218	 0.58459991070929 
2219	 0.584569346551497 
2220	 0.584565459166964 
2221	 0.584602839350839 
2222	 0.584491886630217 
2223	 0.584367422452605 
2224	 0.584341973413555 
2225	 0.584381674279612 
2226	 0.584444938190475 
2227	 0.584290482489162 
2228	 0.584135084161635 
2229	 0.583875461839993 
2230	 0.58337204372033 
2231	 0.582932468995397 
2232	 0.582569826299705 
2233	 0.582068808704377 
2234	 0.581466280246712 
2235	 0.580754057520243 
2236	 0.579956566414343 
2237	 0.579112862299982 
2238	 0.578180012782728 
2239	 0.577133759819539 
2240	 0.576019301425593 
2241	 0.574860900171185 
2242	 0.573641026730637 
2243	 0.572215950897887 
2244	 0.570626095900949 
2245	 0.569088601026348 
2246	 0.567406063187218 
2247	 0.565684779235723 
2248	 0.564065328792936 
2249	 0.562279762810285 
2250	 0.560235689792872 
2251	 0.558313130321089 
2252	 0.556303396504754 
2253	 0.554446258234888 
2254	 0.552572925312147 
2255	 0.550487899077892 
2256	 0.548398446327899 
2257	 0.546212234872638 
2258	 0.544192641313051 
2259	 0.542265786588385 
2260	 0.540223922681962 
2261	 0.538211419289047 
2262	 0.53620821989097 
2263	 0.533992116577443 
2264	 0.532095183125719 
2265	 0.530393610432939 
2266	 0.528732603499608 
2267	 0.527248207776494 
2268	 0.525713913086193 
2269	 0.524231807169268 
2270	 0.522757151707493 
2271	 0.521199955294945 
2272	 0.519832715095525 
2273	 0.518622437218159 
2274	 0.517364751262213 
2275	 0.516303959445349 
2276	 0.515045205672892 
2277	 0.513597347874416 
2278	 0.512273996607847 
2279	 0.510815495647798 
2280	 0.509559302955448 
2281	 0.508562959928811 
2282	 0.50742407790763 
2283	 0.506312413007485 
2284	 0.505200625842997 
2285	 0.503967333304282 
2286	 0.502856907978535 
2287	 0.501662565534506 
2288	 0.500648462677859 
2289	 0.49973369136747 
2290	 0.49857700471629 
2291	 0.49761937274823 
2292	 0.49652944359371 
2293	 0.495263828924699 
2294	 0.494320705996349 
2295	 0.49329263725612 
2296	 0.49212004518818 
2297	 0.490872954342368 
2298	 0.489507201675844 
2299	 0.488199293248882 
2300	 0.486806982815279 
2301	 0.485432569030918 
2302	 0.484031541425634 
2303	 0.482863928395375 
2304	 0.48166123073486 
2305	 0.480744445589712 
2306	 0.480130927076477 
2307	 0.479540498978232 
2308	 0.478861477064756 
2309	 0.47875942528757 
2310	 0.478966638637227 
2311	 0.479443871419986 
2312	 0.480484717600316 
2313	 0.481481010300549 
2314	 0.482655667820469 
2315	 0.483955149202653 
2316	 0.48542334704993 
2317	 0.486962751780889 
2318	 0.488930711514279 
2319	 0.490389159858714 
2320	 0.491777336236568 
2321	 0.49285220033524 
2322	 0.493437509224648 
2323	 0.494059813853022 
2324	 0.494624685181696 
2325	 0.494963482823569 
2326	 0.495135255942821 
2327	 0.495141895797331 
2328	 0.494796175544723 
2329	 0.494576557477729 
2330	 0.494334521951284 
2331	 0.493999562591592 
2332	 0.493733293891562 
2333	 0.493343538428769 
2334	 0.492472632147706 
2335	 0.491424863035628 
2336	 0.490088070307486 
2337	 0.488702004102245 
2338	 0.487532839154935 
2339	 0.486350507872825 
2340	 0.485311301100879 
2341	 0.484022882776642 
2342	 0.482528857414962 
2343	 0.481078815456913 
2344	 0.479641480211054 
2345	 0.47849253347109 
2346	 0.477748536926698 
2347	 0.47691123518438 
2348	 0.476079300537469 
2349	 0.475836522599306 
2350	 0.475657304867465 
2351	 0.475853631868494 
2352	 0.476776940923146 
2353	 0.477696924018466 
2354	 0.47872646898595 
2355	 0.480182539174284 
2356	 0.481548458230813 
2357	 0.482885665830185 
2358	 0.484352226131449 
2359	 0.485527569523229 
2360	 0.486744991791804 
2361	 0.487888168906378 
2362	 0.488678830628583 
2363	 0.489590508348736 
2364	 0.490212049456095 
2365	 0.490450477226791 
2366	 0.49066203737023 
2367	 0.490811867989205 
2368	 0.491168559955709 
2369	 0.491317121481613 
2370	 0.491363731938609 
2371	 0.491702641572807 
2372	 0.491836015554305 
2373	 0.491897925370634 
2374	 0.49203068243094 
2375	 0.492077070432438 
2376	 0.491927150284761 
2377	 0.491748263863303 
2378	 0.491722657043809 
2379	 0.491607335769463 
2380	 0.49148682144237 
2381	 0.491513099820711 
2382	 0.491406689027431 
2383	 0.49111524361008 
2384	 0.490980342822354 
2385	 0.490898565351312 
2386	 0.490800970492097 
2387	 0.490807706100082 
2388	 0.490877395089211 
2389	 0.490909083992178 
2390	 0.490905296045773 
2391	 0.491075547525383 
2392	 0.491070902194752 
2393	 0.49092097203239 
2394	 0.490881194702626 
2395	 0.490803271112461 
2396	 0.490549893335446 
2397	 0.490292616746497 
2398	 0.489878602440539 
2399	 0.48910555134877 
2400	 0.488956429124809 
2401	 0.489048796497013 
2402	 0.489087623664651 
2403	 0.489336604986374 
2404	 0.489319973463354 
2405	 0.489120116881561 
2406	 0.48893849893645 
2407	 0.488693571911354 
2408	 0.488696655585485 
2409	 0.488737262867924 
2410	 0.488577800785271 
2411	 0.488526692710356 
2412	 0.488310035478859 
2413	 0.487977949789985 
2414	 0.487777989101032 
2415	 0.487635369286793 
2416	 0.487338101827831 
2417	 0.487182325950749 
2418	 0.487333294506849 
2419	 0.487526210329521 
2420	 0.487345340524735 
2421	 0.486785852371647 
2422	 0.48649496268084 
2423	 0.486193385118639 
2424	 0.486138734481766 
2425	 0.486282346143455 
2426	 0.486233497095571 
2427	 0.486260173443669 
2428	 0.486159608229481 
2429	 0.485511457009741 
2430	 0.485051030130365 
2431	 0.484946562278141 
2432	 0.484385172213376 
2433	 0.484395150477827 
2434	 0.484074617508998 
2435	 0.482726571438999 
2436	 0.481704410032707 
2437	 0.480962548391745 
2438	 0.480639868360229 
2439	 0.480331716586951 
2440	 0.479667682855427 
2441	 0.478912515076598 
2442	 0.47763675705583 
2443	 0.476101027362476 
2444	 0.475003094146281 
2445	 0.474243587646316 
2446	 0.47382675439086 
2447	 0.474202828025299 
2448	 0.474293064596781 
2449	 0.473405830043867 
2450	 0.47232999311796 
2451	 0.470935031365818 
2452	 0.469968607863779 
2453	 0.469712621268771 
2454	 0.469588150601666 
2455	 0.469364512318122 
2456	 0.468750923570342 
2457	 0.468116197399344 
2458	 0.466892330987766 
2459	 0.465531923141186 
2460	 0.464876153245251 
2461	 0.463999308420303 
2462	 0.463615856324168 
2463	 0.463571871317275 
2464	 0.462701505676025 
2465	 0.462379929252495 
2466	 0.462143793219179 
2467	 0.461326030331169 
2468	 0.460938209261832 
2469	 0.460039149473428 
2470	 0.458949063122719 
2471	 0.458585020516555 
2472	 0.458285504296149 
2473	 0.458034240587763 
2474	 0.45778057666968 
2475	 0.456970398052051 
2476	 0.456349611270963 
2477	 0.45539152705188 
2478	 0.454109245010175 
2479	 0.454298656594673 
2480	 0.453558870167585 
2481	 0.453269699300904 
2482	 0.453363078207804 
2483	 0.45300216170373 
2484	 0.453123973864014 
2485	 0.451971509475554 
2486	 0.451622228278396 
2487	 0.451542620873627 
2488	 0.450659272090994 
2489	 0.451051894574376 
2490	 0.450931206791178 
2491	 0.449269641784047 
2492	 0.448439728162675 
2493	 0.447468514154531 
2494	 0.446733440542037 
2495	 0.446820861103892 
2496	 0.446178635333052 
2497	 0.444778888638548 
2498	 0.44368690741708 
2499	 0.442785222246244 
2500	 0.442033233243184 
