Wavelength	ProbetaAcolman00020.asd
350	 0.549298906194739 
351	 0.544256159140681 
352	 0.525644043265874 
353	 0.500282420555945 
354	 0.49923758536035 
355	 0.491565065643779 
356	 0.477332633301649 
357	 0.465118797002786 
358	 0.470743152700813 
359	 0.467277450844635 
360	 0.451017133238259 
361	 0.432454190779417 
362	 0.420575719906027 
363	 0.42497317958766 
364	 0.432023186431188 
365	 0.398578896041005 
366	 0.396903385771567 
367	 0.403989436176616 
368	 0.392836724613999 
369	 0.400962194639959 
370	 0.392300299490055 
371	 0.376556128308818 
372	 0.383133013777315 
373	 0.370793190682262 
374	 0.36443180084631 
375	 0.369693366090838 
376	 0.357538459272907 
377	 0.354230680559702 
378	 0.356421509615695 
379	 0.355032349293499 
380	 0.347310180019132 
381	 0.345968353507102 
382	 0.350533662875373 
383	 0.352200289807536 
384	 0.34653035781058 
385	 0.341201776127416 
386	 0.340694373423494 
387	 0.343489226760431 
388	 0.341825820894288 
389	 0.337855234610513 
390	 0.335193290328031 
391	 0.331620462418579 
392	 0.329125194442235 
393	 0.327906529243569 
394	 0.326662833421374 
395	 0.322881508306669 
396	 0.322073830700499 
397	 0.324546118870494 
398	 0.321051492647503 
399	 0.319676156091642 
400	 0.320401830475275 
401	 0.320326277248419 
402	 0.314322431473348 
403	 0.310116125599843 
404	 0.309663448179555 
405	 0.310307848016263 
406	 0.310572524128582 
407	 0.307273654092924 
408	 0.301193587161387 
409	 0.300402161062409 
410	 0.300456111773768 
411	 0.301039332561251 
412	 0.302091902971888 
413	 0.298822317944628 
414	 0.296296916223423 
415	 0.296142914147499 
416	 0.296564846046114 
417	 0.295559546271482 
418	 0.293618947027201 
419	 0.291621619462489 
420	 0.290217340460138 
421	 0.287788443431184 
422	 0.286238698046316 
423	 0.287591312022961 
424	 0.285634865169051 
425	 0.284251764600548 
426	 0.284105072846332 
427	 0.281639382233012 
428	 0.280109188485604 
429	 0.279111088461364 
430	 0.277678532996949 
431	 0.275470467478375 
432	 0.273838126216604 
433	 0.273066957655353 
434	 0.27269741334254 
435	 0.271441948615452 
436	 0.270075547189685 
437	 0.269031827951121 
438	 0.267893691101712 
439	 0.266650070896571 
440	 0.265456743569947 
441	 0.264376846588968 
442	 0.262897757380332 
443	 0.261366971384092 
444	 0.259827583418239 
445	 0.258066480903393 
446	 0.255785442175624 
447	 0.254186049444361 
448	 0.253559067883814 
449	 0.25191300505148 
450	 0.249459367936323 
451	 0.247282515884658 
452	 0.246342550653105 
453	 0.244553427874938 
454	 0.242560712331354 
455	 0.240645256887665 
456	 0.238503037274676 
457	 0.236201357264119 
458	 0.233913797782016 
459	 0.231854477015079 
460	 0.23036240235651 
461	 0.228552561822107 
462	 0.226380740128552 
463	 0.224280155942063 
464	 0.222547621854981 
465	 0.220445306207717 
466	 0.217908496865841 
467	 0.216062248000843 
468	 0.213931402654216 
469	 0.211433878911071 
470	 0.208810141350036 
471	 0.206476338589351 
472	 0.204264966743125 
473	 0.20180311942968 
474	 0.198694238167699 
475	 0.19641138259776 
476	 0.194118394880625 
477	 0.191319597561285 
478	 0.189055190185861 
479	 0.186795240682489 
480	 0.184519542911698 
481	 0.182359927136117 
482	 0.180194374629198 
483	 0.178217733444151 
484	 0.176499703835603 
485	 0.174946172267293 
486	 0.173233296159368 
487	 0.17153639078841 
488	 0.17009603575907 
489	 0.168991418241213 
490	 0.167868797648086 
491	 0.166724144460109 
492	 0.165745147070577 
493	 0.164772820040273 
494	 0.164011525678566 
495	 0.163394893652261 
496	 0.162348051993188 
497	 0.161424129712116 
498	 0.160627935424811 
499	 0.159823247949785 
500	 0.159068090492458 
501	 0.158177159525116 
502	 0.157116814657117 
503	 0.155987411587244 
504	 0.154732184212399 
505	 0.153338091806554 
506	 0.151874571175091 
507	 0.150616171564002 
508	 0.149102496022018 
509	 0.147481663438978 
510	 0.14607901054651 
511	 0.144434020321066 
512	 0.142748675558279 
513	 0.141150845167155 
514	 0.13959354998366 
515	 0.138144010475628 
516	 0.136901858106257 
517	 0.135859183395312 
518	 0.134606200507108 
519	 0.133662426321163 
520	 0.133103216138069 
521	 0.132685957827391 
522	 0.132329337644331 
523	 0.132219518439038 
524	 0.132416732682519 
525	 0.132653127330112 
526	 0.133130199767031 
527	 0.13385484034166 
528	 0.134773869662418 
529	 0.135912781496295 
530	 0.137131500043944 
531	 0.138453008437072 
532	 0.140066911668236 
533	 0.1417543600796 
534	 0.143445707675485 
535	 0.145123364176229 
536	 0.146808765184376 
537	 0.148558912359727 
538	 0.150239290973669 
539	 0.151636731565932 
540	 0.152846948358231 
541	 0.153833570745407 
542	 0.15458005892388 
543	 0.155117256557642 
544	 0.155430067200991 
545	 0.155435245610126 
546	 0.155088081284184 
547	 0.15459974571509 
548	 0.153850748454 
549	 0.152853211490312 
550	 0.151742850297432 
551	 0.150493907021324 
552	 0.14914974377516 
553	 0.147772903746442 
554	 0.146443210577651 
555	 0.145159162140165 
556	 0.144025975622811 
557	 0.143160740396192 
558	 0.142380003595379 
559	 0.141847178728134 
560	 0.141650523095508 
561	 0.141737707101337 
562	 0.142043245503101 
563	 0.142583202138833 
564	 0.14341392828202 
565	 0.144608237487772 
566	 0.146253430513587 
567	 0.148411356822591 
568	 0.151125203107207 
569	 0.154530879248352 
570	 0.158401245285357 
571	 0.162622494834527 
572	 0.167412203495386 
573	 0.172647958858762 
574	 0.178309830423355 
575	 0.184417958064955 
576	 0.190920184837083 
577	 0.19786445544408 
578	 0.205333692975002 
579	 0.213438400298097 
580	 0.222137508859862 
581	 0.231333785828062 
582	 0.241005415391606 
583	 0.251348781536706 
584	 0.262287233366156 
585	 0.273833632866323 
586	 0.286046030835962 
587	 0.298880774790306 
588	 0.312131179639583 
589	 0.325689235617379 
590	 0.339639001773534 
591	 0.353639499541623 
592	 0.367662943405435 
593	 0.38175533833727 
594	 0.395720331512304 
595	 0.409566580958676 
596	 0.423375786342737 
597	 0.437257106439941 
598	 0.451099859560344 
599	 0.464701819496073 
600	 0.478005765430586 
601	 0.49130735661877 
602	 0.504127123452626 
603	 0.516340805554874 
604	 0.528009080353066 
605	 0.539402204482124 
606	 0.550351837048683 
607	 0.560705453271464 
608	 0.570362905954599 
609	 0.579642628115059 
610	 0.588437569795778 
611	 0.596639225012289 
612	 0.6043763503807 
613	 0.611946249120384 
614	 0.619218177188942 
615	 0.625834838723188 
616	 0.632070848231307 
617	 0.63822686270209 
618	 0.64431291591243 
619	 0.649833902162498 
620	 0.65505221277358 
621	 0.660140935363483 
622	 0.665150338061487 
623	 0.669646309299514 
624	 0.673986948635858 
625	 0.678311577755611 
626	 0.682509684974201 
627	 0.68634687560888 
628	 0.689921979193733 
629	 0.693414699896402 
630	 0.697066809720823 
631	 0.700348227423313 
632	 0.703319572711343 
633	 0.706286506663872 
634	 0.709202775063363 
635	 0.712010382817164 
636	 0.714665945349448 
637	 0.717147251840446 
638	 0.7197156327901 
639	 0.722207780742163 
640	 0.724446421026613 
641	 0.726571090455332 
642	 0.728659005353838 
643	 0.730726796552823 
644	 0.732741345296373 
645	 0.734569476250003 
646	 0.73636750244606 
647	 0.738202358507576 
648	 0.73994560096693 
649	 0.741535121289025 
650	 0.743009195131144 
651	 0.744466847021544 
652	 0.746099571258154 
653	 0.747603630101996 
654	 0.748924203658268 
655	 0.750221526453109 
656	 0.75153805763674 
657	 0.752778565124312 
658	 0.753940930672963 
659	 0.755288783593878 
660	 0.756507256320732 
661	 0.757572193984045 
662	 0.758581722277012 
663	 0.759634086624289 
664	 0.760721490600948 
665	 0.761803126637019 
666	 0.762819697291527 
667	 0.76387738180382 
668	 0.764863412319937 
669	 0.765724290171443 
670	 0.766680314188471 
671	 0.76754825652631 
672	 0.768347851190478 
673	 0.769187059294237 
674	 0.770092789135971 
675	 0.77094086490975 
676	 0.771695373096035 
677	 0.772442844519191 
678	 0.773266743864734 
679	 0.774064738738724 
680	 0.774749511841912 
681	 0.775411352245063 
682	 0.776116707142217 
683	 0.776882570753454 
684	 0.777679763471476 
685	 0.778396157897143 
686	 0.779029719551493 
687	 0.779610008258959 
688	 0.78018868411035 
689	 0.780798183821308 
690	 0.781473000516817 
691	 0.782195693323565 
692	 0.782786327610442 
693	 0.783357740594948 
694	 0.783970091653368 
695	 0.784634530978023 
696	 0.785264558223554 
697	 0.785901921457665 
698	 0.786516641902391 
699	 0.78693614101342 
700	 0.787467543028058 
701	 0.788071059033861 
702	 0.788631317249137 
703	 0.789170391645357 
704	 0.789674395241515 
705	 0.790170187983269 
706	 0.790695687075737 
707	 0.791077726327525 
708	 0.791540286212006 
709	 0.79213221623303 
710	 0.792526154290417 
711	 0.792925635557785 
712	 0.793395625095379 
713	 0.793906560480006 
714	 0.794211895459417 
715	 0.794605087919325 
716	 0.795069826402391 
717	 0.795383804439452 
718	 0.795749586114307 
719	 0.796131746440598 
720	 0.79650395072426 
721	 0.796915987823577 
722	 0.797210618084248 
723	 0.797466784987238 
724	 0.797788748194575 
725	 0.79806364580943 
726	 0.79838514430389 
727	 0.798763953833917 
728	 0.7991388827032 
729	 0.79938597251607 
730	 0.799689243861832 
731	 0.800103555398247 
732	 0.800411222123077 
733	 0.800617376204221 
734	 0.800800613556881 
735	 0.801054708267198 
736	 0.80142638755996 
737	 0.801766499210044 
738	 0.802053100125158 
739	 0.802347234133803 
740	 0.802610969127622 
741	 0.802810843277167 
742	 0.803005396948511 
743	 0.803386275239986 
744	 0.803756937363541 
745	 0.803937267505604 
746	 0.80393221251965 
747	 0.804329328396025 
748	 0.804645123187027 
749	 0.804908658280579 
750	 0.805381211516202 
751	 0.805624366001029 
752	 0.805790966283747 
753	 0.805991463280048 
754	 0.806198883893317 
755	 0.806443204148698 
756	 0.806686448552204 
757	 0.80689159656175 
758	 0.807070664116056 
759	 0.807200681545841 
760	 0.807401464974579 
761	 0.807801680886819 
762	 0.808168406407865 
763	 0.808391416133165 
764	 0.808511672303921 
765	 0.808710773822266 
766	 0.808887630973222 
767	 0.809133714535849 
768	 0.809479109845239 
769	 0.809739450797844 
770	 0.809984737400544 
771	 0.810226235713423 
772	 0.810463157392505 
773	 0.810734737467124 
774	 0.810899504169342 
775	 0.811024644973191 
776	 0.811322512383719 
777	 0.811554206243986 
778	 0.811730340296084 
779	 0.811905286973775 
780	 0.812138517360855 
781	 0.81246291163546 
782	 0.812752338910406 
783	 0.81289612822573 
784	 0.812989867118757 
785	 0.813164610742695 
786	 0.813428827924218 
787	 0.813706999621009 
788	 0.813922528706147 
789	 0.814177924196498 
790	 0.814481027384675 
791	 0.814710941801403 
792	 0.814865911526974 
793	 0.815016286303572 
794	 0.81521370167663 
795	 0.815428842665076 
796	 0.815616399535648 
797	 0.8157502763184 
798	 0.81584797624392 
799	 0.816074853351 
800	 0.816279077628354 
801	 0.816407349263988 
802	 0.816509324298858 
803	 0.816734249029478 
804	 0.81691359647097 
805	 0.81702593518307 
806	 0.817329274672346 
807	 0.817513062752533 
808	 0.817584041639449 
809	 0.817651482593715 
810	 0.817868507510442 
811	 0.818076360672337 
812	 0.818273671975036 
813	 0.818508069898054 
814	 0.818674874008695 
815	 0.818796411221274 
816	 0.818944025789269 
817	 0.819197744383918 
818	 0.819303596691336 
819	 0.819371103617473 
820	 0.81951113674877 
821	 0.819740281434582 
822	 0.81987017246834 
823	 0.81997437812299 
824	 0.82013825874774 
825	 0.820235884957654 
826	 0.820403101007104 
827	 0.820620992219226 
828	 0.820794652730234 
829	 0.820852159723141 
830	 0.820972522840915 
831	 0.821166627658062 
832	 0.821294845692864 
833	 0.821430024651188 
834	 0.821564161779398 
835	 0.82167715014798 
836	 0.821748297651552 
837	 0.821758391995534 
838	 0.821876655291025 
839	 0.822148076903198 
840	 0.822145405694561 
841	 0.822168288123638 
842	 0.822246686196581 
843	 0.822311497601474 
844	 0.822364551500167 
845	 0.822520197019396 
846	 0.822716444930287 
847	 0.82278475726115 
848	 0.822855294319235 
849	 0.822941069831203 
850	 0.823014311188005 
851	 0.82301825475945 
852	 0.823024592151341 
853	 0.823081342885136 
854	 0.823170873903202 
855	 0.823147247881906 
856	 0.823214100300579 
857	 0.823317823053896 
858	 0.823379241783016 
859	 0.823554944467891 
860	 0.823643740900773 
861	 0.823654163177769 
862	 0.823709122229568 
863	 0.823874207495034 
864	 0.824001245272259 
865	 0.824037420806948 
866	 0.824037839087491 
867	 0.824092776885177 
868	 0.824212090829695 
869	 0.824304324309274 
870	 0.824178506354938 
871	 0.824138491834665 
872	 0.824232926046985 
873	 0.8244226191272 
874	 0.824629948067773 
875	 0.824688732467609 
876	 0.824660178910557 
877	 0.824664942109769 
878	 0.824705179242971 
879	 0.824932275671825 
880	 0.825163957879652 
881	 0.825127000019117 
882	 0.824986509465259 
883	 0.825017714555306 
884	 0.825155611348894 
885	 0.82512146644429 
886	 0.825234735180795 
887	 0.825330431693169 
888	 0.825345988891793 
889	 0.825391791392505 
890	 0.82538676789549 
891	 0.825417782700027 
892	 0.825518754088953 
893	 0.825589429392434 
894	 0.825542426309538 
895	 0.8255091929146 
896	 0.825579332486016 
897	 0.825586606023245 
898	 0.825543891320511 
899	 0.825502973232025 
900	 0.825505490278518 
901	 0.825475653719745 
902	 0.825541650812616 
903	 0.82563778594926 
904	 0.825641296791533 
905	 0.825706535450128 
906	 0.825670775089512 
907	 0.825560378880721 
908	 0.825530174281252 
909	 0.82550258537095 
910	 0.825530417304497 
911	 0.825626057558195 
912	 0.825741609304554 
913	 0.825751035379298 
914	 0.82580003483108 
915	 0.825894535200156 
916	 0.82581482222792 
917	 0.825980037616173 
918	 0.826087025358171 
919	 0.825963205663562 
920	 0.825945671725889 
921	 0.826031258788147 
922	 0.826114548478072 
923	 0.826121135369218 
924	 0.82613805062151 
925	 0.826230187545912 
926	 0.826286691541866 
927	 0.826219360933374 
928	 0.826208703603603 
929	 0.826323628266646 
930	 0.826436716673001 
931	 0.826406292223991 
932	 0.826407180134662 
933	 0.826562868069388 
934	 0.82674575793611 
935	 0.826748430952964 
936	 0.826725747797914 
937	 0.826786445223307 
938	 0.826907132145855 
939	 0.826982149252758 
940	 0.827020247624167 
941	 0.827147607160443 
942	 0.827271653873199 
943	 0.827169107069869 
944	 0.827222874930163 
945	 0.827336075211995 
946	 0.827393338952404 
947	 0.82734115577913 
948	 0.827286745429873 
949	 0.827306834156008 
950	 0.827383325613573 
951	 0.827393418239536 
952	 0.827321426785007 
953	 0.827138164403753 
954	 0.826980944420173 
955	 0.827183601903558 
956	 0.82728763397685 
957	 0.827110375140926 
958	 0.826753725459083 
959	 0.826660006912049 
960	 0.826505479887159 
961	 0.826399296750967 
962	 0.826380296497662 
963	 0.826165560417384 
964	 0.82612567560572 
965	 0.826244632997207 
966	 0.82638262239052 
967	 0.826378254705014 
968	 0.826479476378311 
969	 0.826596711910219 
970	 0.82664465165054 
971	 0.826804966954186 
972	 0.82690862387309 
973	 0.826879835285252 
974	 0.826760540253539 
975	 0.826806817380101 
976	 0.826918615235409 
977	 0.827029529684532 
978	 0.827080835658811 
979	 0.827012064167061 
980	 0.826978858636906 
981	 0.826945125441143 
982	 0.826879106348146 
983	 0.826991016052821 
984	 0.827062581372414 
985	 0.827127576922939 
986	 0.827256210293332 
987	 0.827338254590264 
988	 0.827295243727804 
989	 0.827175064557267 
990	 0.827095411113243 
991	 0.827217733562337 
992	 0.827288360961867 
993	 0.827243554627669 
994	 0.827152927864806 
995	 0.827250215723047 
996	 0.827217319410549 
997	 0.827214667215447 
998	 0.827453723185705 
999	 0.827738836241175 
1000	 0.827742906133153 
1001	 0.830040989894377 
1002	 0.830047246926353 
1003	 0.830042552150502 
1004	 0.830059776361551 
1005	 0.830116070379076 
1006	 0.830131441889828 
1007	 0.830151805125327 
1008	 0.830146309973746 
1009	 0.83010186643143 
1010	 0.83008298808973 
1011	 0.830025079057387 
1012	 0.830023088824794 
1013	 0.830092999327379 
1014	 0.830127349107136 
1015	 0.830222892197469 
1016	 0.830205604049742 
1017	 0.830107819425278 
1018	 0.830077711357018 
1019	 0.830041040557214 
1020	 0.830002764181694 
1021	 0.829994154359839 
1022	 0.830023118690577 
1023	 0.830043565885843 
1024	 0.830072765385478 
1025	 0.830107753324634 
1026	 0.830195786995302 
1027	 0.830205958137978 
1028	 0.830156189562703 
1029	 0.83013652902509 
1030	 0.830145241335852 
1031	 0.830126875077017 
1032	 0.830137229914823 
1033	 0.830187866600557 
1034	 0.830287139826917 
1035	 0.830346563627634 
1036	 0.830360829079681 
1037	 0.830395289553165 
1038	 0.830402070937166 
1039	 0.830297764577966 
1040	 0.830296443309813 
1041	 0.83035643650355 
1042	 0.830368384332684 
1043	 0.830369402803211 
1044	 0.830414827604381 
1045	 0.830416419156854 
1046	 0.830450635490649 
1047	 0.830473980548749 
1048	 0.830472072920745 
1049	 0.830496720440662 
1050	 0.830548003715661 
1051	 0.830669861824109 
1052	 0.830725220141673 
1053	 0.830781176030456 
1054	 0.830836396576276 
1055	 0.830915929116894 
1056	 0.830989788747441 
1057	 0.831074899627514 
1058	 0.831208247740221 
1059	 0.831230868119825 
1060	 0.831289171240512 
1061	 0.831415579220733 
1062	 0.831531714826313 
1063	 0.831694994602738 
1064	 0.83184593256577 
1065	 0.831942239172691 
1066	 0.832064141090327 
1067	 0.832154071168386 
1068	 0.832193001109715 
1069	 0.832234205653556 
1070	 0.832279609101991 
1071	 0.832302764904394 
1072	 0.832333369855715 
1073	 0.832403408852318 
1074	 0.832489678418729 
1075	 0.832544835341566 
1076	 0.832610867851162 
1077	 0.832705837191486 
1078	 0.832757096124206 
1079	 0.832784597054888 
1080	 0.832828120531467 
1081	 0.832846839263808 
1082	 0.832867016705082 
1083	 0.832921266465773 
1084	 0.832961868403732 
1085	 0.832995181026755 
1086	 0.833054140288916 
1087	 0.833120501789716 
1088	 0.833202072282583 
1089	 0.833308053063111 
1090	 0.833393133168007 
1091	 0.833419225615239 
1092	 0.833393569809282 
1093	 0.833380340564765 
1094	 0.833387411696953 
1095	 0.833376281831243 
1096	 0.83341636561278 
1097	 0.833434221604094 
1098	 0.833379781132891 
1099	 0.833391605851272 
1100	 0.833401544946158 
1101	 0.833402225655708 
1102	 0.833487833330358 
1103	 0.833510324702406 
1104	 0.833515842087187 
1105	 0.833492486003623 
1106	 0.833482542959166 
1107	 0.83340681623774 
1108	 0.833351229458878 
1109	 0.833325394877732 
1110	 0.833271942103894 
1111	 0.83324987849494 
1112	 0.833214861193601 
1113	 0.833145731328387 
1114	 0.833105328549102 
1115	 0.833039767716332 
1116	 0.832978897447856 
1117	 0.832969036276707 
1118	 0.832949777812931 
1119	 0.832943789805669 
1120	 0.832905883691261 
1121	 0.832867672304199 
1122	 0.832813935707808 
1123	 0.832714724925391 
1124	 0.832613541403276 
1125	 0.832531829885921 
1126	 0.83240359464845 
1127	 0.832249027508799 
1128	 0.832069652244675 
1129	 0.831869364761804 
1130	 0.83168549557864 
1131	 0.831506547650872 
1132	 0.831344956049635 
1133	 0.831192469243531 
1134	 0.831025102810967 
1135	 0.830810036636736 
1136	 0.830556088484399 
1137	 0.830314621912067 
1138	 0.830036978697815 
1139	 0.829760121143853 
1140	 0.829492085257813 
1141	 0.829234096476844 
1142	 0.82892744227022 
1143	 0.828605922237184 
1144	 0.828295724472366 
1145	 0.827951816002066 
1146	 0.827607680895301 
1147	 0.827287394045648 
1148	 0.826946547349192 
1149	 0.826639634324444 
1150	 0.826345980099071 
1151	 0.826018920325671 
1152	 0.825672053251203 
1153	 0.825309879960571 
1154	 0.824931187974038 
1155	 0.824519176027733 
1156	 0.824119355830382 
1157	 0.823727050216097 
1158	 0.823319204452181 
1159	 0.822904253155269 
1160	 0.822472799011355 
1161	 0.822025145772991 
1162	 0.821562509693947 
1163	 0.821144339207815 
1164	 0.820709213089244 
1165	 0.82025438546964 
1166	 0.81986170635596 
1167	 0.819447979100371 
1168	 0.819049103985416 
1169	 0.818676440350166 
1170	 0.818334281934479 
1171	 0.817990368865177 
1172	 0.817648130011469 
1173	 0.817334207738381 
1174	 0.817032624648316 
1175	 0.816777362332193 
1176	 0.816580136429334 
1177	 0.816355877288197 
1178	 0.81614359215222 
1179	 0.815937748877613 
1180	 0.815749316030813 
1181	 0.815507085072819 
1182	 0.815281263253876 
1183	 0.815054993409239 
1184	 0.814762830901194 
1185	 0.814530955220395 
1186	 0.814311523674814 
1187	 0.814104540289252 
1188	 0.813918753715178 
1189	 0.81375041178571 
1190	 0.813609321093412 
1191	 0.81348561880843 
1192	 0.813396783882872 
1193	 0.813353002784396 
1194	 0.813304946312144 
1195	 0.813297028093091 
1196	 0.813260002442042 
1197	 0.813213992554696 
1198	 0.81316676686258 
1199	 0.81309473456173 
1200	 0.813052344464644 
1201	 0.813062391840212 
1202	 0.813056763569418 
1203	 0.813067421748013 
1204	 0.813103899320374 
1205	 0.813132138799706 
1206	 0.813146313521364 
1207	 0.813193598079271 
1208	 0.813253941408546 
1209	 0.813329932883328 
1210	 0.813427410881253 
1211	 0.813522589453542 
1212	 0.813613474345889 
1213	 0.81375173347626 
1214	 0.813894521248246 
1215	 0.814084097504915 
1216	 0.814312463038889 
1217	 0.814575252431857 
1218	 0.814878064302894 
1219	 0.815208005877647 
1220	 0.815552858168072 
1221	 0.815934723688281 
1222	 0.816301924525801 
1223	 0.816682891307971 
1224	 0.817079527868457 
1225	 0.817514518802641 
1226	 0.81789403339863 
1227	 0.818274043630552 
1228	 0.818621714875907 
1229	 0.81892334088208 
1230	 0.819243028538743 
1231	 0.819573535661344 
1232	 0.819868313087544 
1233	 0.820144301453485 
1234	 0.820405608602068 
1235	 0.820631259750488 
1236	 0.820862964538514 
1237	 0.82108088115236 
1238	 0.821311526727404 
1239	 0.821550637453438 
1240	 0.821786964802793 
1241	 0.82201328260341 
1242	 0.822201983538274 
1243	 0.822355695195769 
1244	 0.822446901275532 
1245	 0.822587392263973 
1246	 0.822731507065388 
1247	 0.822850839084705 
1248	 0.822972460394415 
1249	 0.82309218183386 
1250	 0.823184537881272 
1251	 0.823282939533397 
1252	 0.823418526219177 
1253	 0.823501049484318 
1254	 0.823545403936658 
1255	 0.823588507600749 
1256	 0.823619524115869 
1257	 0.823628914366691 
1258	 0.823619032381643 
1259	 0.823599932186064 
1260	 0.823531960490588 
1261	 0.823499225008623 
1262	 0.823482489877869 
1263	 0.82346749104229 
1264	 0.823447130534833 
1265	 0.823440748047862 
1266	 0.823428142291884 
1267	 0.823419942400701 
1268	 0.823371523407601 
1269	 0.823307216503775 
1270	 0.823251188656547 
1271	 0.823139490645947 
1272	 0.823094131693489 
1273	 0.823103458705934 
1274	 0.82308895432883 
1275	 0.823077504106276 
1276	 0.823080232217981 
1277	 0.82307995051986 
1278	 0.823095434234403 
1279	 0.823150227784776 
1280	 0.823177421850961 
1281	 0.823179313518745 
1282	 0.823210406631598 
1283	 0.823223065775651 
1284	 0.823274593563735 
1285	 0.823353796125916 
1286	 0.82348137999002 
1287	 0.823567901585404 
1288	 0.823668249609151 
1289	 0.82374662546754 
1290	 0.823792749172175 
1291	 0.82387156961482 
1292	 0.823963073720692 
1293	 0.824046819152653 
1294	 0.824150916730056 
1295	 0.824220576781988 
1296	 0.824264166156421 
1297	 0.824321477317233 
1298	 0.824375633397011 
1299	 0.824417441040914 
1300	 0.824464532397925 
1301	 0.824497379194798 
1302	 0.824511723845392 
1303	 0.824520662122925 
1304	 0.824552947512884 
1305	 0.824531186227245 
1306	 0.824457629567128 
1307	 0.824396719787186 
1308	 0.824307550893204 
1309	 0.824218389823844 
1310	 0.824130899820482 
1311	 0.824057969696096 
1312	 0.823967336403245 
1313	 0.823854198215991 
1314	 0.823767927799734 
1315	 0.823703406117151 
1316	 0.823604635407862 
1317	 0.82350554956579 
1318	 0.823390885823673 
1319	 0.823242929092735 
1320	 0.823114057556544 
1321	 0.822993547521391 
1322	 0.822863224583301 
1323	 0.822741400141815 
1324	 0.822594766612102 
1325	 0.822446996519237 
1326	 0.822268231100437 
1327	 0.822034211225542 
1328	 0.821840532335744 
1329	 0.821663058859723 
1330	 0.821460829013471 
1331	 0.821268414569976 
1332	 0.821070060184565 
1333	 0.820849790275234 
1334	 0.820625323064733 
1335	 0.820384670434498 
1336	 0.820152171849143 
1337	 0.819888651607144 
1338	 0.819598342474727 
1339	 0.819296513810128 
1340	 0.818983816607322 
1341	 0.818660065772137 
1342	 0.818300774072884 
1343	 0.81797002533867 
1344	 0.817659440137526 
1345	 0.817317505969839 
1346	 0.816983063410763 
1347	 0.816613052721393 
1348	 0.816221418157013 
1349	 0.815800456908852 
1350	 0.815346980662985 
1351	 0.814887194414372 
1352	 0.814411946801338 
1353	 0.813907692084922 
1354	 0.813375292648757 
1355	 0.812846761040816 
1356	 0.8122842870586 
1357	 0.811733518182036 
1358	 0.811167613776527 
1359	 0.810637737175344 
1360	 0.810129364222975 
1361	 0.809620736254034 
1362	 0.809111846709901 
1363	 0.808655128852397 
1364	 0.808188385186906 
1365	 0.807716041527059 
1366	 0.807267506202363 
1367	 0.806845761873033 
1368	 0.806418467839955 
1369	 0.806012177615278 
1370	 0.805562953671737 
1371	 0.805120149688626 
1372	 0.804633651405036 
1373	 0.804118172027185 
1374	 0.80356204437028 
1375	 0.803006918576987 
1376	 0.802346007250312 
1377	 0.8016028376357 
1378	 0.800827676695767 
1379	 0.799937782207096 
1380	 0.79909321596245 
1381	 0.798223800382303 
1382	 0.797367918808823 
1383	 0.796519395653266 
1384	 0.79567035638948 
1385	 0.794868925837132 
1386	 0.79399862500308 
1387	 0.793122974996509 
1388	 0.792213158579692 
1389	 0.791272438162776 
1390	 0.790278838619984 
1391	 0.789286443732098 
1392	 0.788180808005997 
1393	 0.787078301879221 
1394	 0.785942649115673 
1395	 0.784778387028482 
1396	 0.783596759357326 
1397	 0.782398519736569 
1398	 0.781169887582976 
1399	 0.779910469277779 
1400	 0.778666093495232 
1401	 0.777309662116269 
1402	 0.775936191406071 
1403	 0.774386057613156 
1404	 0.772791637188196 
1405	 0.770971442888399 
1406	 0.768996002675881 
1407	 0.766854820472329 
1408	 0.764400423407474 
1409	 0.762092142418977 
1410	 0.759475367105607 
1411	 0.757348849638928 
1412	 0.755199281258102 
1413	 0.753686388845143 
1414	 0.752532589820189 
1415	 0.751838454349023 
1416	 0.751807496349707 
1417	 0.751826486984002 
1418	 0.752382816719773 
1419	 0.752744268673619 
1420	 0.753302707717695 
1421	 0.75361905131907 
1422	 0.753849475578692 
1423	 0.753919925941936 
1424	 0.753797362973904 
1425	 0.753583886069786 
1426	 0.753283345842511 
1427	 0.752918015403207 
1428	 0.752564141609422 
1429	 0.752187659544325 
1430	 0.751821555119721 
1431	 0.751442660225947 
1432	 0.751089863915199 
1433	 0.750741028014488 
1434	 0.750402379544902 
1435	 0.750082821805534 
1436	 0.7497567453306 
1437	 0.74943460363367 
1438	 0.749108514934487 
1439	 0.748774563778385 
1440	 0.748465587591501 
1441	 0.748143992319585 
1442	 0.747871823957816 
1443	 0.747642676841897 
1444	 0.747406324836761 
1445	 0.747199357815239 
1446	 0.746983717284876 
1447	 0.746764174185183 
1448	 0.746553447948361 
1449	 0.746343568741128 
1450	 0.746146372768359 
1451	 0.745974658169892 
1452	 0.74577563028784 
1453	 0.745565777214945 
1454	 0.745368571760658 
1455	 0.745146183996086 
1456	 0.744953211714643 
1457	 0.744789041832671 
1458	 0.74462429885827 
1459	 0.744483501426896 
1460	 0.744321417877787 
1461	 0.74415519725673 
1462	 0.743986136197357 
1463	 0.743792480903409 
1464	 0.743615132192831 
1465	 0.743447780207106 
1466	 0.743274275659293 
1467	 0.743131262781095 
1468	 0.742990062974368 
1469	 0.742873268883333 
1470	 0.742791408510742 
1471	 0.742707203446664 
1472	 0.742648486887099 
1473	 0.74256178572863 
1474	 0.742477101527127 
1475	 0.742373795689809 
1476	 0.742251124764277 
1477	 0.742134746780919 
1478	 0.742014110268546 
1479	 0.741889178828631 
1480	 0.74176988742546 
1481	 0.741622327322964 
1482	 0.741469045851947 
1483	 0.741283434726314 
1484	 0.741058081802267 
1485	 0.740850917013729 
1486	 0.740630159265916 
1487	 0.740412177275037 
1488	 0.740202633743937 
1489	 0.739983727569834 
1490	 0.739738659314912 
1491	 0.739526747808389 
1492	 0.739316670752327 
1493	 0.739136289201987 
1494	 0.738986747169306 
1495	 0.73884102792672 
1496	 0.73869757231373 
1497	 0.738593955951965 
1498	 0.738502227778103 
1499	 0.738450355317659 
1500	 0.738448054825908 
1501	 0.738456065136842 
1502	 0.73848664547389 
1503	 0.738539245409093 
1504	 0.738617967405159 
1505	 0.738708899435773 
1506	 0.73882026664116 
1507	 0.738949020180543 
1508	 0.739095924890088 
1509	 0.739255435221791 
1510	 0.739445223300474 
1511	 0.739625437371983 
1512	 0.739809633572988 
1513	 0.739997202333199 
1514	 0.7401693715069 
1515	 0.740371142102105 
1516	 0.740598668356591 
1517	 0.740823589474304 
1518	 0.741079089696371 
1519	 0.74131426185379 
1520	 0.741535585789143 
1521	 0.741745430896839 
1522	 0.74198142937435 
1523	 0.742242056762678 
1524	 0.742494852603684 
1525	 0.742768768133925 
1526	 0.743041895740533 
1527	 0.743306333401538 
1528	 0.743582325544528 
1529	 0.743877036241848 
1530	 0.744167433443889 
1531	 0.744449243633092 
1532	 0.744752094981527 
1533	 0.745067864225382 
1534	 0.745395100807592 
1535	 0.745725879426438 
1536	 0.746081160655971 
1537	 0.746468930612432 
1538	 0.746830151641441 
1539	 0.74720637296188 
1540	 0.747551675578412 
1541	 0.747873477753303 
1542	 0.74819519861881 
1543	 0.748521171978205 
1544	 0.74880163064998 
1545	 0.749055990508646 
1546	 0.749302665138807 
1547	 0.749513417498948 
1548	 0.749730817211464 
1549	 0.749959850628343 
1550	 0.750149242034112 
1551	 0.750311836086479 
1552	 0.750467051916993 
1553	 0.750595227790343 
1554	 0.750727546254755 
1555	 0.750861454127399 
1556	 0.750971263605421 
1557	 0.751063652361904 
1558	 0.751154484786165 
1559	 0.751236413455469 
1560	 0.751299211249731 
1561	 0.751335636405578 
1562	 0.751401135673821 
1563	 0.751445012204112 
1564	 0.751530240720408 
1565	 0.751674043347022 
1566	 0.751777416688094 
1567	 0.751863097834861 
1568	 0.751977537039451 
1569	 0.752092299799852 
1570	 0.752212721516656 
1571	 0.75236369501184 
1572	 0.752499602910606 
1573	 0.752616475863824 
1574	 0.752750582094787 
1575	 0.752896980517044 
1576	 0.75304176791725 
1577	 0.753185414240699 
1578	 0.753340545631558 
1579	 0.75349592900593 
1580	 0.753668489191824 
1581	 0.753867111919753 
1582	 0.754050145811319 
1583	 0.754242006664703 
1584	 0.754421827105977 
1585	 0.754580591776779 
1586	 0.754754666320583 
1587	 0.754939142888734 
1588	 0.755111713920827 
1589	 0.755283101698632 
1590	 0.755454937195012 
1591	 0.755614385482277 
1592	 0.755782707452815 
1593	 0.755968763370266 
1594	 0.756135393510603 
1595	 0.756287184286689 
1596	 0.756450784337562 
1597	 0.756608386289315 
1598	 0.756769742678682 
1599	 0.756942717944615 
1600	 0.757110397559659 
1601	 0.757276658719128 
1602	 0.757440129429726 
1603	 0.757607094262475 
1604	 0.757764077463796 
1605	 0.757900200879615 
1606	 0.758056798646158 
1607	 0.758224594827085 
1608	 0.758385501278559 
1609	 0.758558839364066 
1610	 0.75872163624349 
1611	 0.758864929967729 
1612	 0.759021303133225 
1613	 0.759197284145903 
1614	 0.759346855137817 
1615	 0.759488674518776 
1616	 0.759624897017725 
1617	 0.759733313752127 
1618	 0.7598560068347 
1619	 0.759998372551346 
1620	 0.760113902381166 
1621	 0.760218315824913 
1622	 0.760318170648048 
1623	 0.760400850194819 
1624	 0.760480313367065 
1625	 0.760555085520178 
1626	 0.760628910271032 
1627	 0.760699116419256 
1628	 0.760757585554825 
1629	 0.760821650171092 
1630	 0.760863135178827 
1631	 0.760873607592244 
1632	 0.760895547427655 
1633	 0.760912352600991 
1634	 0.760924528736248 
1635	 0.760935098354193 
1636	 0.760946432723803 
1637	 0.760945450371989 
1638	 0.760960007129136 
1639	 0.760993051396898 
1640	 0.761015015057367 
1641	 0.761048528453617 
1642	 0.761057462924064 
1643	 0.761054485006662 
1644	 0.761038172320117 
1645	 0.761008054394288 
1646	 0.760958604933465 
1647	 0.760895726055392 
1648	 0.760813909099915 
1649	 0.76070690244322 
1650	 0.760593621678845 
1651	 0.760457720753808 
1652	 0.760322453167452 
1653	 0.760207122372955 
1654	 0.76003897116143 
1655	 0.75984089695934 
1656	 0.759632948025707 
1657	 0.759394632579244 
1658	 0.759121959444881 
1659	 0.758849800364812 
1660	 0.758526274036892 
1661	 0.758144304377369 
1662	 0.757749802158364 
1663	 0.757332832665687 
1664	 0.756866400034704 
1665	 0.756375536402926 
1666	 0.755821643183994 
1667	 0.755190498105264 
1668	 0.754575947238575 
1669	 0.753969302198817 
1670	 0.753266539376484 
1671	 0.752548438405254 
1672	 0.751721099503604 
1673	 0.750782640488008 
1674	 0.749782152359844 
1675	 0.748694515370198 
1676	 0.747599397022512 
1677	 0.746423667458718 
1678	 0.745262526857897 
1679	 0.744088158744743 
1680	 0.742889962030006 
1681	 0.741674344073198 
1682	 0.740422503859425 
1683	 0.739154491784787 
1684	 0.73787449294976 
1685	 0.736541380916509 
1686	 0.735241617926095 
1687	 0.733916928891646 
1688	 0.732637008523786 
1689	 0.731367253698199 
1690	 0.7301583624634 
1691	 0.728990051343757 
1692	 0.727888263305667 
1693	 0.726876756722575 
1694	 0.725829988691617 
1695	 0.724817050700266 
1696	 0.723775212703253 
1697	 0.722711883857697 
1698	 0.721641104425944 
1699	 0.720597257742867 
1700	 0.719522104801064 
1701	 0.718424302967198 
1702	 0.717304931563725 
1703	 0.716146728970649 
1704	 0.714980104400635 
1705	 0.713776000221844 
1706	 0.712566438789363 
1707	 0.711470066644303 
1708	 0.710376538011313 
1709	 0.709318297908631 
1710	 0.708330566400101 
1711	 0.707284773936755 
1712	 0.706310333593505 
1713	 0.705314156316725 
1714	 0.704255068336425 
1715	 0.703241897734547 
1716	 0.702127445586109 
1717	 0.701028789074269 
1718	 0.699968346840548 
1719	 0.698811078945297 
1720	 0.697712178806479 
1721	 0.696655318080517 
1722	 0.695567716150697 
1723	 0.694633979030208 
1724	 0.693781220930841 
1725	 0.693001564421787 
1726	 0.692412511957907 
1727	 0.691963957831332 
1728	 0.691732525756659 
1729	 0.69172945455881 
1730	 0.691935617912259 
1731	 0.692353220881367 
1732	 0.692957542243205 
1733	 0.693654370127554 
1734	 0.694498693373687 
1735	 0.695486663769351 
1736	 0.696496925116638 
1737	 0.697575135011713 
1738	 0.698610143118397 
1739	 0.699535209447861 
1740	 0.70041679429042 
1741	 0.701203977750215 
1742	 0.701930242038471 
1743	 0.702578538292897 
1744	 0.703149287162447 
1745	 0.703610059305585 
1746	 0.703971673657955 
1747	 0.704231726308926 
1748	 0.704371169163203 
1749	 0.704449177402697 
1750	 0.704423637062459 
1751	 0.704362177843554 
1752	 0.704222360958136 
1753	 0.70407522075057 
1754	 0.703872844450714 
1755	 0.70367668037202 
1756	 0.703451965958439 
1757	 0.70320163746514 
1758	 0.702946769902658 
1759	 0.702729239764812 
1760	 0.702600938141022 
1761	 0.702558303418472 
1762	 0.7026354071414 
1763	 0.702823009836285 
1764	 0.703027088213008 
1765	 0.703346048607889 
1766	 0.703823835272021 
1767	 0.704391149769152 
1768	 0.705070725399706 
1769	 0.705781829347043 
1770	 0.706443148326628 
1771	 0.70711992996878 
1772	 0.707780316419643 
1773	 0.708441638519094 
1774	 0.709104643424433 
1775	 0.709666968369211 
1776	 0.710200560645025 
1777	 0.710710932536063 
1778	 0.711124539931849 
1779	 0.711516326763379 
1780	 0.711896861248867 
1781	 0.712199653489733 
1782	 0.71247099440864 
1783	 0.712707231280774 
1784	 0.712905122692301 
1785	 0.71304307639711 
1786	 0.71321528112791 
1787	 0.713390174959841 
1788	 0.713547439902391 
1789	 0.71373477776957 
1790	 0.713887655228506 
1791	 0.714007761074897 
1792	 0.714117349231354 
1793	 0.714190491301204 
1794	 0.714249025921083 
1795	 0.714335283922232 
1796	 0.714387585984 
1797	 0.714441341990411 
1798	 0.714492953838262 
1799	 0.714496464023931 
1800	 0.714515516460483 
1801	 0.71069928552548 
1802	 0.710985637680121 
1803	 0.711310416191166 
1804	 0.711713560993216 
1805	 0.712210755212362 
1806	 0.712655622276327 
1807	 0.713141075872233 
1808	 0.71357521901585 
1809	 0.714029686026221 
1810	 0.7144052609417 
1811	 0.714754406130918 
1812	 0.715049089406534 
1813	 0.715272326777375 
1814	 0.715491212896649 
1815	 0.715679601713287 
1816	 0.715848575700099 
1817	 0.715968500535909 
1818	 0.716049234979061 
1819	 0.716119584777201 
1820	 0.716108695344491 
1821	 0.716157179904393 
1822	 0.716222391883969 
1823	 0.716285323638292 
1824	 0.716381337293631 
1825	 0.716491095746846 
1826	 0.716596768799259 
1827	 0.716725350986268 
1828	 0.716825720249597 
1829	 0.716927568416028 
1830	 0.717003817597304 
1831	 0.717055555113085 
1832	 0.717111917651683 
1833	 0.717154672899084 
1834	 0.717183181566031 
1835	 0.717231198825206 
1836	 0.717290117244131 
1837	 0.717359538953948 
1838	 0.717441931907926 
1839	 0.717524339210764 
1840	 0.717620509524503 
1841	 0.717709561928658 
1842	 0.717789071767129 
1843	 0.717889076327273 
1844	 0.718008554244873 
1845	 0.718081181018138 
1846	 0.718145567902202 
1847	 0.718203709614778 
1848	 0.718232070236977 
1849	 0.71822122418412 
1850	 0.718227506250526 
1851	 0.718230964544837 
1852	 0.718221353268292 
1853	 0.718197822618478 
1854	 0.718144906732361 
1855	 0.718040800303762 
1856	 0.717872320217209 
1857	 0.717677009644731 
1858	 0.717476628891549 
1859	 0.717251277040485 
1860	 0.717024852574188 
1861	 0.716740744469735 
1862	 0.716440822444716 
1863	 0.716073846918742 
1864	 0.715639628327131 
1865	 0.71514028389519 
1866	 0.714546510247091 
1867	 0.713857490407624 
1868	 0.713118247743442 
1869	 0.712304762166918 
1870	 0.711420348312852 
1871	 0.71044904950381 
1872	 0.709486378205284 
1873	 0.708459504309327 
1874	 0.707403291613916 
1875	 0.706414531320721 
1876	 0.705338109614002 
1877	 0.704288802771663 
1878	 0.703169342575619 
1879	 0.701961327113684 
1880	 0.700789205250898 
1881	 0.699471520104708 
1882	 0.698049563788925 
1883	 0.696568810943761 
1884	 0.694960235523799 
1885	 0.693071834448353 
1886	 0.69112085388667 
1887	 0.688978786372158 
1888	 0.686615562314499 
1889	 0.684318262273121 
1890	 0.681803652144686 
1891	 0.679213775488275 
1892	 0.676603564969035 
1893	 0.673761565293902 
1894	 0.670685986704651 
1895	 0.667635506011742 
1896	 0.664418729329176 
1897	 0.661048881751488 
1898	 0.657913562851304 
1899	 0.654617894068777 
1900	 0.651327704377262 
1901	 0.648094020678224 
1902	 0.64457960207134 
1903	 0.6411837766497 
1904	 0.637810030242745 
1905	 0.634393682535889 
1906	 0.631007677169761 
1907	 0.6279513725855 
1908	 0.624824613404535 
1909	 0.621814655274069 
1910	 0.61895768914458 
1911	 0.615925635982535 
1912	 0.613050821921061 
1913	 0.610177184848721 
1914	 0.607275252933346 
1915	 0.604586539755132 
1916	 0.602088384200354 
1917	 0.59953708748756 
1918	 0.597112373988304 
1919	 0.594821669856166 
1920	 0.592375073852151 
1921	 0.590102443365645 
1922	 0.587872636529361 
1923	 0.585639115178227 
1924	 0.583698400858444 
1925	 0.581788482163696 
1926	 0.579952422617144 
1927	 0.578280876109507 
1928	 0.576597432695893 
1929	 0.574904280638247 
1930	 0.573343778112154 
1931	 0.571856643916397 
1932	 0.570454116082886 
1933	 0.569265517652054 
1934	 0.568126062602299 
1935	 0.56708674594206 
1936	 0.566174509960537 
1937	 0.565294728319582 
1938	 0.56445016557944 
1939	 0.563747109199279 
1940	 0.563126919284443 
1941	 0.562596292599973 
1942	 0.562218851799225 
1943	 0.56192075603168 
1944	 0.561699280425989 
1945	 0.561562059162194 
1946	 0.561498084850779 
1947	 0.561510480797876 
1948	 0.56158850634138 
1949	 0.561722903277849 
1950	 0.561919907664706 
1951	 0.562190654922533 
1952	 0.562499214524719 
1953	 0.562854526145532 
1954	 0.563280719193596 
1955	 0.563773598251949 
1956	 0.564252920006592 
1957	 0.564802733818941 
1958	 0.565416309944792 
1959	 0.565999757739013 
1960	 0.566642488761599 
1961	 0.567298721908466 
1962	 0.567970307440834 
1963	 0.568664079589982 
1964	 0.569391235961029 
1965	 0.57012295275795 
1966	 0.570886349895298 
1967	 0.571652550297356 
1968	 0.572373399418824 
1969	 0.573096212958787 
1970	 0.573778780355053 
1971	 0.574460472580066 
1972	 0.575195141720769 
1973	 0.575908021597841 
1974	 0.576627220904638 
1975	 0.577364366219917 
1976	 0.578084145232546 
1977	 0.57878028954866 
1978	 0.579515118759891 
1979	 0.580260016164089 
1980	 0.581004927292016 
1981	 0.581821722801171 
1982	 0.582598167600451 
1983	 0.583388306201089 
1984	 0.584221983268937 
1985	 0.584987757721594 
1986	 0.585757124846516 
1987	 0.586512846275718 
1988	 0.587226280214079 
1989	 0.587975747979963 
1990	 0.588724174269892 
1991	 0.589486158606086 
1992	 0.590275657618694 
1993	 0.591086717104767 
1994	 0.591803849335974 
1995	 0.592573589818313 
1996	 0.593300252062241 
1997	 0.593985620708294 
1998	 0.594744287733926 
1999	 0.595551330985673 
2000	 0.596320433351653 
2001	 0.597161476999307 
2002	 0.597895452081753 
2003	 0.598540485371852 
2004	 0.599217288736483 
2005	 0.599842825285875 
2006	 0.600488840964755 
2007	 0.60114308910857 
2008	 0.60183405063667 
2009	 0.602506066332162 
2010	 0.603143300069741 
2011	 0.60374371726916 
2012	 0.604337903424292 
2013	 0.604876612939038 
2014	 0.605348306439607 
2015	 0.6058344761751 
2016	 0.606314322544528 
2017	 0.606737731114125 
2018	 0.607183313062099 
2019	 0.607519789536224 
2020	 0.607775664418262 
2021	 0.607985911246349 
2022	 0.608106778666881 
2023	 0.608168399792521 
2024	 0.608218152685192 
2025	 0.608184356797617 
2026	 0.608063855744053 
2027	 0.607870948453423 
2028	 0.607618270269555 
2029	 0.607235711871647 
2030	 0.606875993111583 
2031	 0.606474556833268 
2032	 0.606069195377934 
2033	 0.605646152693211 
2034	 0.605205947998492 
2035	 0.604729182758282 
2036	 0.604256816760913 
2037	 0.603821272980586 
2038	 0.603372162726916 
2039	 0.602990253492362 
2040	 0.602652016182761 
2041	 0.602367072772536 
2042	 0.602086410099607 
2043	 0.601928597664933 
2044	 0.601880943082273 
2045	 0.601849374093847 
2046	 0.60191580791042 
2047	 0.601978447839022 
2048	 0.602019543359126 
2049	 0.602152401292121 
2050	 0.602347413057481 
2051	 0.60257553910445 
2052	 0.602886985304765 
2053	 0.603268179639782 
2054	 0.603656437946992 
2055	 0.604071201488249 
2056	 0.604545257040719 
2057	 0.605035380367774 
2058	 0.605630731392296 
2059	 0.60630564535239 
2060	 0.607016550973886 
2061	 0.607861160575257 
2062	 0.608641956365365 
2063	 0.609401790586496 
2064	 0.610230557919458 
2065	 0.611091507745388 
2066	 0.611913998505303 
2067	 0.612897910970027 
2068	 0.61386097178638 
2069	 0.61481962124276 
2070	 0.615825638726583 
2071	 0.6167691993636 
2072	 0.61768156190639 
2073	 0.618589491572751 
2074	 0.619461032513323 
2075	 0.620346449644577 
2076	 0.62124463848917 
2077	 0.622102547831214 
2078	 0.622981099426435 
2079	 0.623788063849586 
2080	 0.624541970756836 
2081	 0.625266995890479 
2082	 0.625943782856246 
2083	 0.626578261211251 
2084	 0.627230501664703 
2085	 0.627813520374574 
2086	 0.628372442494068 
2087	 0.628915926511518 
2088	 0.629402109445998 
2089	 0.629823649918314 
2090	 0.630244206210328 
2091	 0.630626210583375 
2092	 0.630992852051265 
2093	 0.631348873579473 
2094	 0.631668261761061 
2095	 0.63196401687044 
2096	 0.632229581018255 
2097	 0.632463473222884 
2098	 0.63266646955952 
2099	 0.632843862674109 
2100	 0.632972668413488 
2101	 0.633089325835166 
2102	 0.633174018043446 
2103	 0.633237974063976 
2104	 0.63326732949225 
2105	 0.633308380711598 
2106	 0.633326682262348 
2107	 0.633354886365847 
2108	 0.633401655920105 
2109	 0.633415173271902 
2110	 0.633415157002117 
2111	 0.633396031473178 
2112	 0.633347979091706 
2113	 0.633302206879928 
2114	 0.633237286154908 
2115	 0.633180344468023 
2116	 0.633130884726321 
2117	 0.633074999351024 
2118	 0.632990356505031 
2119	 0.632906541091778 
2120	 0.632776176427191 
2121	 0.632600945442775 
2122	 0.632422984316416 
2123	 0.632232330394121 
2124	 0.632011097258078 
2125	 0.631766634965971 
2126	 0.631511402049512 
2127	 0.631248510482496 
2128	 0.630923856620913 
2129	 0.63056727553783 
2130	 0.63018561380864 
2131	 0.629769908568964 
2132	 0.629300884310553 
2133	 0.628845718241836 
2134	 0.628279022136945 
2135	 0.62756674987631 
2136	 0.626865455913403 
2137	 0.626073195812414 
2138	 0.625175185881536 
2139	 0.624272406819768 
2140	 0.623339982323341 
2141	 0.622332962998742 
2142	 0.621265800963777 
2143	 0.620168096555817 
2144	 0.618981413629657 
2145	 0.617826768686371 
2146	 0.616597918249803 
2147	 0.615471959222098 
2148	 0.614433840742391 
2149	 0.613332493395898 
2150	 0.612286726350336 
2151	 0.61118436792243 
2152	 0.610008235871595 
2153	 0.608838157431289 
2154	 0.607646572782331 
2155	 0.606411793339416 
2156	 0.605188435634375 
2157	 0.603923881318386 
2158	 0.60268733805958 
2159	 0.601504962920199 
2160	 0.60021476461178 
2161	 0.59887477976355 
2162	 0.597538794507028 
2163	 0.596078224501949 
2164	 0.594763925224052 
2165	 0.593515136111162 
2166	 0.592276513136913 
2167	 0.591114570736805 
2168	 0.589940814747132 
2169	 0.588703219573289 
2170	 0.587608638764421 
2171	 0.586547313836486 
2172	 0.585601521427628 
2173	 0.584803406797691 
2174	 0.584036385908827 
2175	 0.583363857638848 
2176	 0.582742183130447 
2177	 0.5821486500067 
2178	 0.581602660624283 
2179	 0.581126494579462 
2180	 0.580683928372174 
2181	 0.580325136540806 
2182	 0.580072243336457 
2183	 0.579797322709746 
2184	 0.579561260802924 
2185	 0.579365723113262 
2186	 0.57917531731532 
2187	 0.579065844527513 
2188	 0.579037228707285 
2189	 0.579019602020383 
2190	 0.579070271471949 
2191	 0.579112833056205 
2192	 0.579174921544248 
2193	 0.579247423305044 
2194	 0.579338828585773 
2195	 0.579438591762391 
2196	 0.579550561170955 
2197	 0.579673454420469 
2198	 0.57986197559467 
2199	 0.579979289513555 
2200	 0.580075306291358 
2201	 0.580157998651719 
2202	 0.580249014524754 
2203	 0.580282772547787 
2204	 0.580372380786845 
2205	 0.580514213121752 
2206	 0.580610879477674 
2207	 0.580710098105237 
2208	 0.580773332350338 
2209	 0.580799075780462 
2210	 0.580840707075315 
2211	 0.580868273082496 
2212	 0.580890641393684 
2213	 0.580904815188854 
2214	 0.580940468223168 
2215	 0.580969159764965 
2216	 0.581005212442824 
2217	 0.581078764189124 
2218	 0.581128264090058 
2219	 0.581161389482077 
2220	 0.581194920894926 
2221	 0.581232747601958 
2222	 0.581254662181686 
2223	 0.581278963663066 
2224	 0.581258488793464 
2225	 0.581209919852823 
2226	 0.581087497414056 
2227	 0.580929092638881 
2228	 0.580737904583856 
2229	 0.580458836254752 
2230	 0.580107129035258 
2231	 0.579720471616912 
2232	 0.579260002856534 
2233	 0.578757212042486 
2234	 0.578266279702005 
2235	 0.577604873852536 
2236	 0.576845698240584 
2237	 0.575983761181554 
2238	 0.57493652756242 
2239	 0.573923357992246 
2240	 0.572892408589029 
2241	 0.571738131192444 
2242	 0.570574428622422 
2243	 0.569246650913914 
2244	 0.567742575691199 
2245	 0.566205148519116 
2246	 0.564542063356102 
2247	 0.562850754722653 
2248	 0.561115982810228 
2249	 0.55930341092902 
2250	 0.557420519003272 
2251	 0.555519029590593 
2252	 0.553432176109491 
2253	 0.551376411694307 
2254	 0.549215487201596 
2255	 0.546985540032742 
2256	 0.54491791869435 
2257	 0.542802278838663 
2258	 0.540776050915907 
2259	 0.538851536520397 
2260	 0.53688717956942 
2261	 0.534900881864341 
2262	 0.533033549297744 
2263	 0.531171069245454 
2264	 0.529449605966201 
2265	 0.527851776401308 
2266	 0.52629089161873 
2267	 0.524864759890349 
2268	 0.523387848451519 
2269	 0.521941431847071 
2270	 0.520520780858659 
2271	 0.519021877469936 
2272	 0.517697739678374 
2273	 0.516502245412655 
2274	 0.51531424399086 
2275	 0.514284299487949 
2276	 0.513169965237072 
2277	 0.512020965301117 
2278	 0.510898012823877 
2279	 0.509734556412125 
2280	 0.508624787253059 
2281	 0.507580832711319 
2282	 0.506492838391163 
2283	 0.505400966809579 
2284	 0.504341578202099 
2285	 0.503173874042455 
2286	 0.502100817664981 
2287	 0.501014025851637 
2288	 0.499913930977752 
2289	 0.498933713032966 
2290	 0.497903209661382 
2291	 0.496917935569831 
2292	 0.495907055350321 
2293	 0.494738904229237 
2294	 0.493568597878321 
2295	 0.492237873001245 
2296	 0.490827100538833 
2297	 0.489436231768869 
2298	 0.488001553449238 
2299	 0.486513689895129 
2300	 0.485018135059779 
2301	 0.48345577277415 
2302	 0.481760996066891 
2303	 0.480224916647898 
2304	 0.478586897637112 
2305	 0.477281131389513 
2306	 0.476064339434041 
2307	 0.475182358262537 
2308	 0.474509508584355 
2309	 0.47425309475728 
2310	 0.474253343832295 
2311	 0.474771559919588 
2312	 0.475881661131555 
2313	 0.477096282598196 
2314	 0.478812348532288 
2315	 0.480512724291482 
2316	 0.482441499130123 
2317	 0.484296903027689 
2318	 0.486413771518151 
2319	 0.488147080260997 
2320	 0.489841503382572 
2321	 0.491165262756009 
2322	 0.492146833408842 
2323	 0.492999555490668 
2324	 0.493546202001573 
2325	 0.493983729478108 
2326	 0.494248492321263 
2327	 0.494390741976282 
2328	 0.494296419319432 
2329	 0.494215455850374 
2330	 0.494088363504407 
2331	 0.493800237567322 
2332	 0.493441558916899 
2333	 0.493062403900554 
2334	 0.492501704474496 
2335	 0.491824057626894 
2336	 0.490994135647344 
2337	 0.489923799292754 
2338	 0.488777571752174 
2339	 0.487461364770121 
2340	 0.486091097319388 
2341	 0.484703351232836 
2342	 0.483126679000865 
2343	 0.481577561908641 
2344	 0.480092738835103 
2345	 0.478593387199613 
2346	 0.477291938811776 
2347	 0.476243554889507 
2348	 0.475468856941691 
2349	 0.475176447186249 
2350	 0.475334284997572 
2351	 0.475829083812398 
2352	 0.476684571620953 
2353	 0.477919882114126 
2354	 0.479253703764117 
2355	 0.480760785611365 
2356	 0.482339843970847 
2357	 0.483889051295167 
2358	 0.485508482911372 
2359	 0.486962144453426 
2360	 0.488186592377263 
2361	 0.489175102209792 
2362	 0.48995993011393 
2363	 0.490558444448149 
2364	 0.491037123823562 
2365	 0.491466496542725 
2366	 0.491832494838017 
2367	 0.49213347531666 
2368	 0.492478880154896 
2369	 0.492780901711861 
2370	 0.492990955823038 
2371	 0.493245951529418 
2372	 0.493432433674213 
2373	 0.493590060739973 
2374	 0.493762340359839 
2375	 0.493836610651834 
2376	 0.493896489002296 
2377	 0.493894216970687 
2378	 0.493782289866573 
2379	 0.493749265699621 
2380	 0.49374720530817 
2381	 0.493741292679969 
2382	 0.493703123484463 
2383	 0.493657196937345 
2384	 0.493579927936626 
2385	 0.493446047873175 
2386	 0.493384195825324 
2387	 0.493382181159955 
2388	 0.493350896333849 
2389	 0.493290152546347 
2390	 0.493252940690492 
2391	 0.493231789602064 
2392	 0.493199530111496 
2393	 0.49321326414769 
2394	 0.493159039748498 
2395	 0.493022676261239 
2396	 0.49294270905701 
2397	 0.492828127327223 
2398	 0.492823493903854 
2399	 0.492974705001113 
2400	 0.49295048652488 
2401	 0.492892323025656 
2402	 0.492789678477978 
2403	 0.492622710249034 
2404	 0.492531408084813 
2405	 0.492399858728693 
2406	 0.492240156548094 
2407	 0.492163319168962 
2408	 0.492205963635441 
2409	 0.492278587646701 
2410	 0.492218730948147 
2411	 0.492073897705933 
2412	 0.491951847566397 
2413	 0.491896290979238 
2414	 0.491816618626185 
2415	 0.491768057565271 
2416	 0.491629067499406 
2417	 0.491327358868434 
2418	 0.491182521937917 
2419	 0.491021496467693 
2420	 0.490862149712133 
2421	 0.490839642172758 
2422	 0.490701393153144 
2423	 0.49056185372669 
2424	 0.490290749559138 
2425	 0.489902288965212 
2426	 0.489595358009712 
2427	 0.489287283323418 
2428	 0.489112969629811 
2429	 0.488948084779695 
2430	 0.48875924330611 
2431	 0.488506385098588 
2432	 0.488078629503511 
2433	 0.487677887606218 
2434	 0.48721936750099 
2435	 0.486678259636452 
2436	 0.486335702105517 
2437	 0.486034059041819 
2438	 0.485481970222392 
2439	 0.485118198287733 
2440	 0.484736917310088 
2441	 0.483986361175363 
2442	 0.483459499560864 
2443	 0.48276786463598 
2444	 0.481861144810221 
2445	 0.481294419130521 
2446	 0.480564325584871 
2447	 0.479763762772519 
2448	 0.479124328198904 
2449	 0.478395852051335 
2450	 0.477791752858601 
2451	 0.477144779295378 
2452	 0.476397839113159 
2453	 0.475584373691789 
2454	 0.474542810647434 
2455	 0.473727489460649 
2456	 0.472949652376194 
2457	 0.471855492336669 
2458	 0.470955540118103 
2459	 0.470243081230839 
2460	 0.469642215660769 
2461	 0.469142671659009 
2462	 0.468605733196385 
2463	 0.46822791374886 
2464	 0.467626243035375 
2465	 0.46700678751843 
2466	 0.46663188828063 
2467	 0.465981464706457 
2468	 0.465397206737707 
2469	 0.465003006992848 
2470	 0.464583543930107 
2471	 0.46425982496044 
2472	 0.46367358082866 
2473	 0.463086272807978 
2474	 0.462579545536445 
2475	 0.461824369699238 
2476	 0.461131258550519 
2477	 0.460405506006314 
2478	 0.46013436572388 
2479	 0.459763531284267 
2480	 0.459355439128516 
2481	 0.459140297151139 
2482	 0.458600685174941 
2483	 0.458915179854747 
2484	 0.459000089715653 
2485	 0.458849572024924 
2486	 0.458628591141241 
2487	 0.458012579901258 
2488	 0.457582421210277 
2489	 0.45740104562242 
2490	 0.457419175019179 
2491	 0.45722004136741 
2492	 0.456542922037121 
2493	 0.456353398506316 
2494	 0.456002460981152 
2495	 0.45553324729209 
2496	 0.455579186534916 
2497	 0.455025750310413 
2498	 0.454601963738473 
2499	 0.454802547975382 
2500	 0.45475188362931 
