Wavelength	ProbetaAcolman00009.asd
350	 0.386459424277855 
351	 0.374410943214476 
352	 0.35719937260811 
353	 0.346620090220472 
354	 0.339200002146697 
355	 0.332535184941746 
356	 0.330200274099744 
357	 0.334110474889812 
358	 0.34019493906394 
359	 0.330418661373179 
360	 0.319986540004464 
361	 0.331334715305637 
362	 0.301233576642567 
363	 0.284325487869302 
364	 0.296147342569312 
365	 0.284752232256407 
366	 0.291171572834337 
367	 0.297840491097739 
368	 0.287744797966276 
369	 0.288392248920587 
370	 0.283313341376695 
371	 0.275392274653381 
372	 0.276940782308434 
373	 0.281710880723725 
374	 0.278775039964253 
375	 0.268904473393725 
376	 0.268987498939506 
377	 0.276500866242097 
378	 0.28287560629506 
379	 0.280690684082718 
380	 0.270630297976512 
381	 0.265140910085904 
382	 0.268473570858653 
383	 0.277218912460895 
384	 0.275146572912627 
385	 0.274218801672789 
386	 0.27869487377856 
387	 0.27710759595452 
388	 0.27751367808844 
389	 0.278722575030224 
390	 0.278786502288385 
391	 0.281888009042335 
392	 0.283863765474667 
393	 0.285179566379634 
394	 0.288793565431534 
395	 0.2883177554905 
396	 0.289355279595381 
397	 0.293284185860651 
398	 0.292194230085257 
399	 0.296089107306385 
400	 0.300231806143084 
401	 0.299079586144728 
402	 0.299841223361064 
403	 0.303008336619957 
404	 0.307863466493956 
405	 0.31284857171272 
406	 0.316152797864698 
407	 0.31820475298743 
408	 0.319669584625039 
409	 0.320807888079058 
410	 0.322157018267787 
411	 0.325840135842663 
412	 0.332361457464125 
413	 0.332635651108672 
414	 0.335358944294515 
415	 0.340981794174338 
416	 0.342574129399619 
417	 0.345139677102515 
418	 0.348567236788517 
419	 0.352105638150772 
420	 0.355912516166063 
421	 0.357495777999001 
422	 0.359121536254145 
423	 0.363824425373322 
424	 0.367192154635523 
425	 0.370338080148356 
426	 0.373755669639735 
427	 0.37682512408581 
428	 0.379707049697019 
429	 0.382491678661748 
430	 0.385319591172775 
431	 0.388501332530101 
432	 0.39128202566037 
433	 0.39401152946112 
434	 0.397450377959279 
435	 0.40044053426776 
436	 0.403436375667135 
437	 0.406508089099687 
438	 0.408894213128133 
439	 0.41102521428159 
440	 0.413504050662976 
441	 0.416623202560803 
442	 0.419377230297208 
443	 0.421525930454481 
444	 0.423491999235146 
445	 0.426076678106765 
446	 0.428132588743593 
447	 0.430325862283004 
448	 0.433003648499312 
449	 0.43532153025891 
450	 0.437076684102742 
451	 0.438702998208072 
452	 0.440723245950341 
453	 0.442472010701887 
454	 0.444257902304649 
455	 0.446115765567931 
456	 0.447729853657784 
457	 0.449052630587861 
458	 0.450366868283174 
459	 0.45189500533849 
460	 0.453511823722872 
461	 0.454886901428921 
462	 0.456149875826052 
463	 0.457589160898807 
464	 0.458426342163827 
465	 0.459312250295535 
466	 0.460420723250164 
467	 0.460965778886336 
468	 0.461854122635943 
469	 0.462783640452314 
470	 0.463357466347913 
471	 0.464271227892133 
472	 0.465016588937707 
473	 0.465534957633928 
474	 0.466151523582927 
475	 0.467139134169413 
476	 0.468001711007584 
477	 0.468469111308635 
478	 0.469003810934839 
479	 0.469452745588464 
480	 0.470034096563818 
481	 0.470906035435128 
482	 0.471062732142088 
483	 0.471399242328584 
484	 0.472079501534302 
485	 0.472329184918219 
486	 0.472702800470809 
487	 0.473143502580566 
488	 0.47355271085439 
489	 0.474161110005235 
490	 0.474510484816477 
491	 0.474711625061036 
492	 0.475143664533122 
493	 0.475326402795359 
494	 0.475659688725781 
495	 0.476270326387455 
496	 0.47670703886451 
497	 0.476914473818366 
498	 0.47704393863298 
499	 0.477280770864284 
500	 0.477584731514947 
501	 0.477938260899987 
502	 0.478180827268309 
503	 0.47805943964612 
504	 0.477855848103106 
505	 0.477748911527284 
506	 0.47777825387244 
507	 0.477738030989611 
508	 0.477610156490517 
509	 0.47736568123954 
510	 0.477004888931302 
511	 0.476707294477904 
512	 0.476278809232779 
513	 0.475687149184841 
514	 0.475142379799048 
515	 0.47437308958084 
516	 0.473539266913588 
517	 0.472788554142562 
518	 0.471847119341807 
519	 0.470820022232528 
520	 0.469763041040749 
521	 0.468682133245624 
522	 0.467409438369028 
523	 0.466117123896723 
524	 0.464887553532051 
525	 0.463544546341321 
526	 0.462072407857581 
527	 0.460496197548093 
528	 0.458876803334211 
529	 0.457355529234802 
530	 0.455672757769267 
531	 0.453815538546479 
532	 0.452051365648171 
533	 0.450281320442673 
534	 0.448430316455058 
535	 0.446469546238416 
536	 0.444483306551259 
537	 0.442491867384313 
538	 0.440477577420019 
539	 0.438412276846636 
540	 0.436424338467838 
541	 0.434410756899733 
542	 0.432326212876774 
543	 0.430262916777957 
544	 0.428220728733758 
545	 0.426227283376097 
546	 0.424290376916984 
547	 0.422316540719017 
548	 0.420286011325824 
549	 0.418259106370356 
550	 0.416358148907635 
551	 0.414530013485839 
552	 0.41261507408724 
553	 0.410554679516517 
554	 0.408593911461041 
555	 0.406558002806149 
556	 0.404455691417926 
557	 0.402369251852138 
558	 0.400228142550967 
559	 0.398115573938857 
560	 0.396093134698062 
561	 0.394176703773267 
562	 0.392237846021166 
563	 0.390354982921443 
564	 0.388582336135403 
565	 0.386673222487467 
566	 0.384794268501542 
567	 0.382962545690829 
568	 0.381090204513405 
569	 0.379376326937767 
570	 0.377747567332623 
571	 0.376105604535698 
572	 0.374397407812584 
573	 0.37277886081687 
574	 0.371143030268719 
575	 0.369346872943598 
576	 0.367701355320543 
577	 0.366171989092498 
578	 0.364663978905159 
579	 0.36304844316536 
580	 0.361447388003126 
581	 0.359819430257721 
582	 0.358154017455858 
583	 0.356658935560283 
584	 0.355190946007114 
585	 0.353666152886009 
586	 0.352062325383608 
587	 0.350569244626638 
588	 0.349077928480515 
589	 0.347569947608969 
590	 0.34624466002174 
591	 0.344745578604784 
592	 0.343214336237669 
593	 0.341850340465045 
594	 0.340405702073684 
595	 0.338890999912265 
596	 0.337354775962197 
597	 0.335873393773852 
598	 0.334508364326586 
599	 0.333130897055695 
600	 0.331699785850901 
601	 0.330483943255311 
602	 0.329273433883251 
603	 0.327985739081966 
604	 0.326644371684986 
605	 0.325560097331979 
606	 0.324497925337319 
607	 0.323362584323717 
608	 0.322289874827234 
609	 0.321202664818067 
610	 0.320161600290339 
611	 0.319208894842995 
612	 0.318220824053297 
613	 0.317338163220848 
614	 0.316509842519787 
615	 0.315579713374737 
616	 0.314686669318577 
617	 0.313921754600366 
618	 0.31325272058481 
619	 0.312433644964828 
620	 0.311761542891851 
621	 0.31119579537178 
622	 0.310600637505057 
623	 0.30996935369215 
624	 0.309370219410679 
625	 0.308864619192067 
626	 0.308490580883023 
627	 0.308059565188989 
628	 0.307617457331011 
629	 0.307247119984816 
630	 0.307021204632792 
631	 0.306715321810423 
632	 0.306391240411286 
633	 0.306211335902223 
634	 0.306036912296716 
635	 0.305912198819841 
636	 0.305813330458415 
637	 0.305618020700563 
638	 0.305603104514409 
639	 0.305671940859826 
640	 0.30569330969943 
641	 0.305752217999984 
642	 0.305792420726896 
643	 0.305893161418948 
644	 0.306173955705957 
645	 0.306304237435568 
646	 0.306463958496427 
647	 0.3067390614363 
648	 0.306956717318751 
649	 0.307234143754427 
650	 0.307546469704973 
651	 0.307861840676769 
652	 0.308308983641149 
653	 0.308746249575927 
654	 0.309155682677526 
655	 0.309622876633929 
656	 0.310121876834833 
657	 0.310661627639173 
658	 0.311240702612192 
659	 0.311832638185835 
660	 0.31238990402347 
661	 0.312943447723609 
662	 0.313545037695857 
663	 0.314163393899282 
664	 0.314841608457521 
665	 0.315579140011813 
666	 0.316329156516078 
667	 0.317090184456093 
668	 0.317849260533915 
669	 0.318603396476015 
670	 0.31937587562334 
671	 0.320193478231789 
672	 0.321029986680596 
673	 0.321846638227014 
674	 0.322697211190204 
675	 0.323603453248711 
676	 0.324540334030602 
677	 0.325434054394724 
678	 0.326290893703695 
679	 0.327154815343558 
680	 0.328059916916371 
681	 0.328972678282506 
682	 0.329957118521478 
683	 0.330984779144261 
684	 0.331980337539916 
685	 0.332939254019329 
686	 0.333889323117666 
687	 0.334859337215263 
688	 0.335873772812345 
689	 0.336903843325217 
690	 0.337927668803335 
691	 0.338940924318139 
692	 0.339986184128626 
693	 0.341030788310869 
694	 0.342081473547062 
695	 0.343161513665988 
696	 0.344191716508342 
697	 0.345249872349335 
698	 0.346340453297188 
699	 0.347321498817234 
700	 0.348384304413198 
701	 0.34947259012416 
702	 0.35050393106287 
703	 0.351585654329786 
704	 0.352661843547883 
705	 0.353727019457184 
706	 0.354803449108917 
707	 0.355786803601028 
708	 0.356798641934892 
709	 0.357880620218174 
710	 0.35889149170934 
711	 0.359867768161379 
712	 0.360884716981282 
713	 0.361970107195821 
714	 0.362907012041574 
715	 0.363871685757281 
716	 0.364894674155818 
717	 0.365896019500222 
718	 0.366886710415602 
719	 0.367879289643923 
720	 0.368876170809234 
721	 0.369865133282697 
722	 0.370769624911892 
723	 0.371624229900391 
724	 0.372500248873369 
725	 0.373461212234352 
726	 0.374441726836795 
727	 0.375382862691111 
728	 0.37624788383434 
729	 0.377147288600559 
730	 0.37803872773234 
731	 0.378892689384334 
732	 0.379733586986764 
733	 0.380600324186257 
734	 0.381468117681399 
735	 0.382299712789208 
736	 0.383092884004206 
737	 0.383869077275279 
738	 0.384668597895526 
739	 0.385521736711805 
740	 0.386294253649736 
741	 0.386966945698753 
742	 0.387614091390323 
743	 0.388420545441496 
744	 0.389289778795449 
745	 0.390052848776859 
746	 0.390630260131404 
747	 0.39128771972549 
748	 0.392012299740466 
749	 0.392773455822049 
750	 0.393521808395097 
751	 0.394185535926626 
752	 0.394828247688315 
753	 0.395479227055695 
754	 0.396102922952871 
755	 0.396725161038572 
756	 0.397357344090391 
757	 0.39799214870361 
758	 0.398568104236069 
759	 0.399203442192393 
760	 0.39987134979766 
761	 0.400483472303005 
762	 0.401052068507282 
763	 0.401619623163309 
764	 0.402208078620765 
765	 0.40281265959725 
766	 0.40335033573246 
767	 0.403903720020404 
768	 0.404518959970169 
769	 0.405079123496424 
770	 0.405669523320738 
771	 0.406254854332674 
772	 0.406787977493022 
773	 0.407390576627476 
774	 0.407943504291333 
775	 0.408445525547093 
776	 0.408995911258214 
777	 0.409582785342579 
778	 0.410141907184263 
779	 0.410650260153176 
780	 0.41116371616944 
781	 0.411727549889187 
782	 0.41231489777786 
783	 0.412882114960357 
784	 0.413415432255559 
785	 0.413935010260441 
786	 0.414461288010206 
787	 0.415015081419692 
788	 0.415629619634855 
789	 0.416271869229656 
790	 0.416876415891851 
791	 0.417359635237612 
792	 0.4178810166132 
793	 0.418453043979903 
794	 0.419055228132261 
795	 0.419679138606119 
796	 0.42024644944844 
797	 0.420767290643817 
798	 0.421296272225 
799	 0.421900599723279 
800	 0.422543152934425 
801	 0.423179893566784 
802	 0.423780345669032 
803	 0.424463047885897 
804	 0.425110699536293 
805	 0.425679169427869 
806	 0.426279039857913 
807	 0.42693206677948 
808	 0.427581311633331 
809	 0.428195905652243 
810	 0.428894666161953 
811	 0.429564992013855 
812	 0.430235786047816 
813	 0.430977224954778 
814	 0.431706195993719 
815	 0.432393032064752 
816	 0.433097217370847 
817	 0.433925345985743 
818	 0.434595820286955 
819	 0.435292227174646 
820	 0.436102023508924 
821	 0.436838498426411 
822	 0.437599824296815 
823	 0.438366609104496 
824	 0.439127049427069 
825	 0.439991850037117 
826	 0.440815924739929 
827	 0.441608093171405 
828	 0.442442472869025 
829	 0.443302798416541 
830	 0.444226178887837 
831	 0.445149425847277 
832	 0.445951484459084 
833	 0.446884139387411 
834	 0.447850104477833 
835	 0.448767999061816 
836	 0.449666166944261 
837	 0.450550810799605 
838	 0.451512510050348 
839	 0.452576933825862 
840	 0.453536699022999 
841	 0.454544921264146 
842	 0.45556948779357 
843	 0.456540847860306 
844	 0.457579084767457 
845	 0.458675918629161 
846	 0.45981740148758 
847	 0.460981328716498 
848	 0.462084734655569 
849	 0.463223111355437 
850	 0.464410074620267 
851	 0.465536866140833 
852	 0.466755167558416 
853	 0.467956607284615 
854	 0.469094897431723 
855	 0.470370515202899 
856	 0.471667618936744 
857	 0.472955175095808 
858	 0.474249299387879 
859	 0.475660384416601 
860	 0.477000377827591 
861	 0.478301094676142 
862	 0.479692293912101 
863	 0.481128751883527 
864	 0.482607036268032 
865	 0.484099874839025 
866	 0.485568359712967 
867	 0.487043822209872 
868	 0.488542092083335 
869	 0.490048910826042 
870	 0.491515967924979 
871	 0.493132625306516 
872	 0.494758673435622 
873	 0.496311271731081 
874	 0.498004240572164 
875	 0.499687780972023 
876	 0.501356986830345 
877	 0.503044744806536 
878	 0.504725649957764 
879	 0.506558475263874 
880	 0.508423371057693 
881	 0.51012026636729 
882	 0.511816021485102 
883	 0.513591533887964 
884	 0.515417731028529 
885	 0.517206831501783 
886	 0.519104137751481 
887	 0.521028845906881 
888	 0.522950452279044 
889	 0.52491647773942 
890	 0.526778938952492 
891	 0.528746699511092 
892	 0.530843858053858 
893	 0.532682953350185 
894	 0.534616263817138 
895	 0.53663103345349 
896	 0.538641462418351 
897	 0.540620756253103 
898	 0.542583146893191 
899	 0.544634289454963 
900	 0.546831071078056 
901	 0.548929972494005 
902	 0.55107118881702 
903	 0.553218584193474 
904	 0.555290771688961 
905	 0.557476529279665 
906	 0.559654838603413 
907	 0.561809473485107 
908	 0.564010066955666 
909	 0.56626295651245 
910	 0.568513594551352 
911	 0.570728618085468 
912	 0.572917073588875 
913	 0.575199476350798 
914	 0.577517218005125 
915	 0.579793323122098 
916	 0.58197859791808 
917	 0.584203277703004 
918	 0.586473768568862 
919	 0.588781315299016 
920	 0.591141219833033 
921	 0.593543784060782 
922	 0.595876957797078 
923	 0.598112333692115 
924	 0.600497920657462 
925	 0.602851961031127 
926	 0.605125579422345 
927	 0.607348371401155 
928	 0.609643457218298 
929	 0.611991204275701 
930	 0.614333329771795 
931	 0.616619126168177 
932	 0.618922472213849 
933	 0.621268039622516 
934	 0.623618461957721 
935	 0.625929038694772 
936	 0.628323173264259 
937	 0.630637978855742 
938	 0.632854318755724 
939	 0.635070467965397 
940	 0.637362008759772 
941	 0.63970244099831 
942	 0.642039628468447 
943	 0.644319880496396 
944	 0.646538174560792 
945	 0.648760001921853 
946	 0.650980583044066 
947	 0.653128678295282 
948	 0.65532318062669 
949	 0.657540119039752 
950	 0.659695332645532 
951	 0.661682642452748 
952	 0.663751425298704 
953	 0.665879496137727 
954	 0.668017880672254 
955	 0.670154930241165 
956	 0.672141646693777 
957	 0.674084944008598 
958	 0.676048518085796 
959	 0.677928766102261 
960	 0.679790097973351 
961	 0.681749653631851 
962	 0.683778994462526 
963	 0.685553354836951 
964	 0.687414218479722 
965	 0.689469789968552 
966	 0.691622490372161 
967	 0.693489896759632 
968	 0.695423704074278 
969	 0.697436701722423 
970	 0.69946228344994 
971	 0.701504672113681 
972	 0.703346944269687 
973	 0.705095465988191 
974	 0.706915490957748 
975	 0.708825169293996 
976	 0.710606436180984 
977	 0.712298959402977 
978	 0.713999539920825 
979	 0.715672634175018 
980	 0.717464873301515 
981	 0.719241695835806 
982	 0.720896823880054 
983	 0.722760685233064 
984	 0.724435109526565 
985	 0.726049855128631 
986	 0.727788011854604 
987	 0.729341561874055 
988	 0.731019615046438 
989	 0.732565226176199 
990	 0.733762280155259 
991	 0.735192854120141 
992	 0.7369145353845 
993	 0.738536268220594 
994	 0.739776981987756 
995	 0.741318435852174 
996	 0.742803765923977 
997	 0.744153806269027 
998	 0.745456855432371 
999	 0.746981882849861 
1000	 0.748586615414878 
1001	 0.751552076926519 
1002	 0.75296555571928 
1003	 0.754425255199542 
1004	 0.755754697189114 
1005	 0.757050596172231 
1006	 0.758312538283729 
1007	 0.759468546109241 
1008	 0.760714632635926 
1009	 0.761969837806505 
1010	 0.763216381754018 
1011	 0.764534384582313 
1012	 0.765730464771871 
1013	 0.766874446594144 
1014	 0.768032403460555 
1015	 0.769176404967658 
1016	 0.770191608773796 
1017	 0.77131747380496 
1018	 0.772381753345111 
1019	 0.773435958402069 
1020	 0.774535123966124 
1021	 0.775609304579253 
1022	 0.776683025840086 
1023	 0.777770884943204 
1024	 0.778855703292368 
1025	 0.779946291366037 
1026	 0.781055176126301 
1027	 0.782099153297485 
1028	 0.783103704062352 
1029	 0.78416609881351 
1030	 0.785117344458742 
1031	 0.786139153382757 
1032	 0.787147209309745 
1033	 0.788096029565937 
1034	 0.789148212027767 
1035	 0.790144361705197 
1036	 0.79112402169107 
1037	 0.792160096921447 
1038	 0.793090638558852 
1039	 0.793922063100235 
1040	 0.794810844213669 
1041	 0.795648928597123 
1042	 0.796510171129672 
1043	 0.79741050315433 
1044	 0.798288042302647 
1045	 0.799148605537931 
1046	 0.800044705716428 
1047	 0.800813974229191 
1048	 0.801583211637037 
1049	 0.802325102168905 
1050	 0.80300514339137 
1051	 0.803826915021678 
1052	 0.804583779025884 
1053	 0.805277361489315 
1054	 0.805956266180952 
1055	 0.806615869582112 
1056	 0.807168688663311 
1057	 0.807799419314096 
1058	 0.808476232870363 
1059	 0.809085015304373 
1060	 0.809737965780901 
1061	 0.810358350586255 
1062	 0.810981402237173 
1063	 0.811626460104589 
1064	 0.812204979917849 
1065	 0.812757330174098 
1066	 0.813256811525381 
1067	 0.813722046153676 
1068	 0.814181576219528 
1069	 0.814613721529391 
1070	 0.815087393848152 
1071	 0.815589759585151 
1072	 0.816070984137369 
1073	 0.816515555861489 
1074	 0.816979419568721 
1075	 0.817382350605558 
1076	 0.817757020324951 
1077	 0.818198967550863 
1078	 0.818639610335214 
1079	 0.81903397521925 
1080	 0.819459939489052 
1081	 0.819863185809725 
1082	 0.820256762250102 
1083	 0.820687375847734 
1084	 0.821105673161172 
1085	 0.821483021293421 
1086	 0.821831528565306 
1087	 0.822134923531243 
1088	 0.822473331359539 
1089	 0.822830168302364 
1090	 0.823162926783743 
1091	 0.823499108692555 
1092	 0.823800823898382 
1093	 0.824093814494537 
1094	 0.824406935798528 
1095	 0.824736441958328 
1096	 0.825090388183556 
1097	 0.825410885718988 
1098	 0.825683077637962 
1099	 0.825985146148285 
1100	 0.826273648988903 
1101	 0.826548121463721 
1102	 0.826914300033692 
1103	 0.827233984062865 
1104	 0.827561444574274 
1105	 0.827838179424812 
1106	 0.828097250963351 
1107	 0.828305868117946 
1108	 0.828580975890335 
1109	 0.828891664353793 
1110	 0.829180351926736 
1111	 0.829500312559484 
1112	 0.829749393921826 
1113	 0.829965531275807 
1114	 0.830242175613365 
1115	 0.830468117487152 
1116	 0.830678045850717 
1117	 0.830942248984726 
1118	 0.831213983628837 
1119	 0.831517784517874 
1120	 0.83178565779955 
1121	 0.832063552158389 
1122	 0.832318677313553 
1123	 0.832530016462024 
1124	 0.832735940441147 
1125	 0.832961256050019 
1126	 0.83312396028861 
1127	 0.833312168973786 
1128	 0.833506708213727 
1129	 0.833658651069017 
1130	 0.833877872559131 
1131	 0.834037264494015 
1132	 0.834133763948162 
1133	 0.834281174656981 
1134	 0.83440270371143 
1135	 0.834495276826374 
1136	 0.834593755207289 
1137	 0.834656779400492 
1138	 0.834657645831528 
1139	 0.834672287968265 
1140	 0.834674952833124 
1141	 0.834694046480903 
1142	 0.834702320789352 
1143	 0.834684478315568 
1144	 0.834653486423524 
1145	 0.834595148201679 
1146	 0.834512581927843 
1147	 0.834457018318768 
1148	 0.834378881870512 
1149	 0.834288342527365 
1150	 0.834209847740741 
1151	 0.83410240199749 
1152	 0.833991151271001 
1153	 0.83388527592583 
1154	 0.833754809209398 
1155	 0.833602861775806 
1156	 0.833445185310781 
1157	 0.833294708120332 
1158	 0.833103483156817 
1159	 0.832884949257828 
1160	 0.832649409590194 
1161	 0.832394675271432 
1162	 0.83213488720774 
1163	 0.831895931094176 
1164	 0.831638125408323 
1165	 0.831376104835 
1166	 0.831143938331559 
1167	 0.830900971431046 
1168	 0.830673848143859 
1169	 0.830466424753468 
1170	 0.830273153403389 
1171	 0.830085078959031 
1172	 0.829913492784433 
1173	 0.829753228094811 
1174	 0.829597124481888 
1175	 0.829462741465439 
1176	 0.829368178352387 
1177	 0.829249644878824 
1178	 0.829129687563704 
1179	 0.829009582572862 
1180	 0.828914982070454 
1181	 0.828755950011256 
1182	 0.828608267518226 
1183	 0.828477823426694 
1184	 0.828299308268516 
1185	 0.828148473281447 
1186	 0.828005358234901 
1187	 0.827874968676632 
1188	 0.827740923015619 
1189	 0.827594754126622 
1190	 0.827495251645001 
1191	 0.827398398818712 
1192	 0.827347082435574 
1193	 0.827343991472701 
1194	 0.827351967767542 
1195	 0.82739997340789 
1196	 0.827440650659144 
1197	 0.827494749242349 
1198	 0.827562857146517 
1199	 0.827602331697745 
1200	 0.827638051634844 
1201	 0.827706453303594 
1202	 0.827748551686958 
1203	 0.827817065983411 
1204	 0.827910867955041 
1205	 0.827981511892562 
1206	 0.82802678792661 
1207	 0.828129303374277 
1208	 0.828239320778382 
1209	 0.828376243093028 
1210	 0.82854872863661 
1211	 0.828735567265072 
1212	 0.828918100834352 
1213	 0.829158936321903 
1214	 0.829425820228381 
1215	 0.829754471901341 
1216	 0.830113430343782 
1217	 0.830542979961941 
1218	 0.831055616143707 
1219	 0.831594031904716 
1220	 0.832150935224517 
1221	 0.832791341818554 
1222	 0.833388323197352 
1223	 0.834004277412213 
1224	 0.834643740708289 
1225	 0.835328142759574 
1226	 0.835938703556226 
1227	 0.836553480037469 
1228	 0.83712929098138 
1229	 0.837647922358325 
1230	 0.838180962192448 
1231	 0.838745922610496 
1232	 0.839226176949011 
1233	 0.83963960767642 
1234	 0.8400583128809 
1235	 0.840433679845775 
1236	 0.840800817114307 
1237	 0.841170061101701 
1238	 0.841524794067194 
1239	 0.841856027515199 
1240	 0.842166020391789 
1241	 0.842487024128011 
1242	 0.842765737689731 
1243	 0.843035070833181 
1244	 0.843264364123316 
1245	 0.843529691827786 
1246	 0.843801416494218 
1247	 0.84405960209624 
1248	 0.844318070587707 
1249	 0.844588748805906 
1250	 0.844846793646792 
1251	 0.845117450396134 
1252	 0.845434416510092 
1253	 0.845698426751424 
1254	 0.845935431720625 
1255	 0.846172858524651 
1256	 0.846397569759602 
1257	 0.84660495866242 
1258	 0.846809053700985 
1259	 0.846989427382766 
1260	 0.847127087760363 
1261	 0.847280730567321 
1262	 0.847423591669658 
1263	 0.847586412126485 
1264	 0.84772013410329 
1265	 0.847852429770874 
1266	 0.847972764567429 
1267	 0.848082411656191 
1268	 0.848164089449703 
1269	 0.848238381073325 
1270	 0.848288170213164 
1271	 0.848286829569474 
1272	 0.848316207610479 
1273	 0.848352995283257 
1274	 0.848378916222109 
1275	 0.848400505917512 
1276	 0.848425766894946 
1277	 0.848456318127314 
1278	 0.848467536990074 
1279	 0.848484274542213 
1280	 0.848477949663705 
1281	 0.84842502271356 
1282	 0.848399872548718 
1283	 0.848368668673603 
1284	 0.848354528193717 
1285	 0.848353899407702 
1286	 0.848373653781143 
1287	 0.848389783212087 
1288	 0.848416954233084 
1289	 0.848437815889437 
1290	 0.848464142187281 
1291	 0.848480484620882 
1292	 0.848491740093755 
1293	 0.848502632769952 
1294	 0.848529321202997 
1295	 0.848509388189413 
1296	 0.848459218316044 
1297	 0.848421872450205 
1298	 0.848358202780505 
1299	 0.84830304150367 
1300	 0.848261476940443 
1301	 0.848215083177403 
1302	 0.848153866383962 
1303	 0.848101185092253 
1304	 0.848060675825417 
1305	 0.848015545357726 
1306	 0.847963694817253 
1307	 0.847918042411585 
1308	 0.847878336296065 
1309	 0.847842975906381 
1310	 0.847783113387457 
1311	 0.8477214704973 
1312	 0.847640490310838 
1313	 0.847523342123128 
1314	 0.847447977370294 
1315	 0.847380729853579 
1316	 0.84731489098007 
1317	 0.847259621608186 
1318	 0.847216358609498 
1319	 0.847164875338932 
1320	 0.847144620426994 
1321	 0.847160636031376 
1322	 0.847163476957319 
1323	 0.847180561712605 
1324	 0.847186279450171 
1325	 0.847198976367623 
1326	 0.847188307863364 
1327	 0.847156270203008 
1328	 0.847133612858272 
1329	 0.847117523134628 
1330	 0.847071729615259 
1331	 0.847020913066522 
1332	 0.846956464408438 
1333	 0.846861053607384 
1334	 0.846762147579618 
1335	 0.84665272805688 
1336	 0.846537865564286 
1337	 0.846424312081322 
1338	 0.846298016904359 
1339	 0.846174654217881 
1340	 0.846040752350899 
1341	 0.845945306488544 
1342	 0.845861361414358 
1343	 0.845778004961952 
1344	 0.845746260873154 
1345	 0.845652359784332 
1346	 0.845521861618663 
1347	 0.845398762669771 
1348	 0.845259056500029 
1349	 0.845115904638493 
1350	 0.844968788020826 
1351	 0.844817614351551 
1352	 0.844677118417712 
1353	 0.844495693841951 
1354	 0.844299628116587 
1355	 0.844084251314507 
1356	 0.843832415931248 
1357	 0.843570395232594 
1358	 0.843282057006951 
1359	 0.843004747502568 
1360	 0.842712666949528 
1361	 0.842424270603216 
1362	 0.842143295699078 
1363	 0.841894393282373 
1364	 0.841631356640587 
1365	 0.841371742302006 
1366	 0.841107411818225 
1367	 0.840848517933338 
1368	 0.840573554737707 
1369	 0.840310348287683 
1370	 0.839992597926955 
1371	 0.839648580896683 
1372	 0.839287898017359 
1373	 0.838894576571551 
1374	 0.838481140107336 
1375	 0.838061995723642 
1376	 0.837595756380251 
1377	 0.83708250925932 
1378	 0.836554047054955 
1379	 0.835997311402582 
1380	 0.835414103180099 
1381	 0.834818150388722 
1382	 0.834166066704944 
1383	 0.83348050482372 
1384	 0.832745331341651 
1385	 0.832002496629489 
1386	 0.831155349010873 
1387	 0.830259520626386 
1388	 0.829285272749644 
1389	 0.828190968756798 
1390	 0.82708448117522 
1391	 0.825957321319318 
1392	 0.824715983113406 
1393	 0.823557419123018 
1394	 0.822367229353967 
1395	 0.82116797900971 
1396	 0.819981496196916 
1397	 0.818767656745857 
1398	 0.817546536607802 
1399	 0.816251323148927 
1400	 0.814963653369326 
1401	 0.813537539021402 
1402	 0.812078783192958 
1403	 0.810397705565051 
1404	 0.808647784714107 
1405	 0.806645353275121 
1406	 0.80443189249954 
1407	 0.802069103723965 
1408	 0.799391022607068 
1409	 0.796836543820333 
1410	 0.79395925014275 
1411	 0.791561598663752 
1412	 0.789086960406977 
1413	 0.787315681154442 
1414	 0.785895740600607 
1415	 0.78500249909417 
1416	 0.784809530507819 
1417	 0.784730562229552 
1418	 0.785258578017178 
1419	 0.78561017411504 
1420	 0.786225628695866 
1421	 0.786601508810427 
1422	 0.786913482140437 
1423	 0.787070821034075 
1424	 0.787057509422681 
1425	 0.786956588876891 
1426	 0.786765417095925 
1427	 0.786498943313667 
1428	 0.786206320394317 
1429	 0.785879513332582 
1430	 0.785545631779691 
1431	 0.785165598186793 
1432	 0.784820214164723 
1433	 0.784471441165784 
1434	 0.784137618014331 
1435	 0.783807923743139 
1436	 0.783500213105031 
1437	 0.783210523371749 
1438	 0.782916332202724 
1439	 0.782628310863765 
1440	 0.782361958683727 
1441	 0.782090689143134 
1442	 0.781854365181243 
1443	 0.781658773788165 
1444	 0.781451894277742 
1445	 0.781255320088905 
1446	 0.781066690940294 
1447	 0.780892985228226 
1448	 0.780704731660326 
1449	 0.780506936273033 
1450	 0.780330318327923 
1451	 0.780154884669273 
1452	 0.779982109788606 
1453	 0.779848277812838 
1454	 0.779675926238917 
1455	 0.779475884288453 
1456	 0.779281130206304 
1457	 0.779063126764289 
1458	 0.77886059610293 
1459	 0.778679100320996 
1460	 0.77847576705383 
1461	 0.778253530019621 
1462	 0.778053020723513 
1463	 0.77784224410628 
1464	 0.777646781378551 
1465	 0.777504811629499 
1466	 0.777314477805223 
1467	 0.777116559706129 
1468	 0.776915424250068 
1469	 0.776689781899094 
1470	 0.776486690746203 
1471	 0.776267172500133 
1472	 0.776066579152836 
1473	 0.775800417291703 
1474	 0.775507947726468 
1475	 0.775184696857742 
1476	 0.774804653310624 
1477	 0.77444965073753 
1478	 0.774102404679966 
1479	 0.773706156213166 
1480	 0.773300465247337 
1481	 0.772851215249492 
1482	 0.772353647503803 
1483	 0.771837124664145 
1484	 0.771304670712546 
1485	 0.770727367828732 
1486	 0.770095398319684 
1487	 0.76947460835462 
1488	 0.768812451788705 
1489	 0.768182904939075 
1490	 0.767539290335676 
1491	 0.766946796430231 
1492	 0.766353673379247 
1493	 0.765839504608192 
1494	 0.765367083765948 
1495	 0.764967822910139 
1496	 0.764622648056082 
1497	 0.764356347938652 
1498	 0.764163014532798 
1499	 0.764033866008224 
1500	 0.76397542004783 
1501	 0.763988896812153 
1502	 0.764030486286458 
1503	 0.76421591811754 
1504	 0.764473509361803 
1505	 0.764885215064722 
1506	 0.765456421584925 
1507	 0.766116980588892 
1508	 0.766941810022332 
1509	 0.767800288404536 
1510	 0.768833605750061 
1511	 0.769765766870519 
1512	 0.770757043981145 
1513	 0.771637347355187 
1514	 0.772437006938717 
1515	 0.773174866393655 
1516	 0.773822222210956 
1517	 0.774438935601371 
1518	 0.774970357566417 
1519	 0.775499383228921 
1520	 0.775987584107307 
1521	 0.776468294935264 
1522	 0.77697883531908 
1523	 0.777535256115108 
1524	 0.778090826903287 
1525	 0.778687122084149 
1526	 0.779268492993726 
1527	 0.77985016320582 
1528	 0.780419565207069 
1529	 0.780997326683281 
1530	 0.781561680430329 
1531	 0.782106449742188 
1532	 0.782661582980492 
1533	 0.783221122501939 
1534	 0.783780201266403 
1535	 0.78432978335173 
1536	 0.784894219891984 
1537	 0.785473095115597 
1538	 0.786039656661416 
1539	 0.786610847115623 
1540	 0.787170630441899 
1541	 0.787711359386999 
1542	 0.788279810358865 
1543	 0.788875262890138 
1544	 0.789416890272065 
1545	 0.789956004528377 
1546	 0.790469806613472 
1547	 0.79094660369804 
1548	 0.791404863229278 
1549	 0.791861066522489 
1550	 0.792279380131456 
1551	 0.792655550792933 
1552	 0.793014189646837 
1553	 0.793355725218381 
1554	 0.793670828135519 
1555	 0.793938019467382 
1556	 0.794223904455809 
1557	 0.794491382404048 
1558	 0.794778935235067 
1559	 0.795097495627497 
1560	 0.795366279503999 
1561	 0.795624545907851 
1562	 0.795865643807416 
1563	 0.796046902358161 
1564	 0.796277527971665 
1565	 0.796528123615501 
1566	 0.796774198371212 
1567	 0.797044475259304 
1568	 0.797291626198653 
1569	 0.797506910942941 
1570	 0.797762782906353 
1571	 0.79803567781532 
1572	 0.798302712573107 
1573	 0.798590512879368 
1574	 0.798874665126996 
1575	 0.799152869079679 
1576	 0.799428215849301 
1577	 0.799701782960144 
1578	 0.799992505640819 
1579	 0.800285109380174 
1580	 0.800577669586253 
1581	 0.800892825527525 
1582	 0.801195049732412 
1583	 0.801476226149542 
1584	 0.801775171857497 
1585	 0.802076292649101 
1586	 0.802394493543437 
1587	 0.80272931442821 
1588	 0.803062169295029 
1589	 0.80340719627936 
1590	 0.803752410892071 
1591	 0.804108467687822 
1592	 0.80444622156481 
1593	 0.804781902010807 
1594	 0.805110107462115 
1595	 0.805416816536744 
1596	 0.805729925736983 
1597	 0.806045901574356 
1598	 0.806357119947102 
1599	 0.806646725536696 
1600	 0.806968870627366 
1601	 0.80732166306536 
1602	 0.807652538869994 
1603	 0.807998794984331 
1604	 0.808327007103262 
1605	 0.808614834890761 
1606	 0.808929303824232 
1607	 0.809274127390813 
1608	 0.809587634797043 
1609	 0.809906354846406 
1610	 0.810196137748241 
1611	 0.810439577655814 
1612	 0.810697467344031 
1613	 0.810952986763117 
1614	 0.811198262086441 
1615	 0.811441287490458 
1616	 0.811680208507696 
1617	 0.811901240544676 
1618	 0.812132798815656 
1619	 0.812384519217333 
1620	 0.812606418003591 
1621	 0.812819889870453 
1622	 0.813020176724057 
1623	 0.813194398420636 
1624	 0.813368632746223 
1625	 0.813534340084058 
1626	 0.813697225979522 
1627	 0.813855144634482 
1628	 0.814003305632827 
1629	 0.814146589973656 
1630	 0.814284448794024 
1631	 0.814411123128565 
1632	 0.814539774820677 
1633	 0.814657327181144 
1634	 0.814788382086175 
1635	 0.814925606568283 
1636	 0.815057792289458 
1637	 0.815199939351254 
1638	 0.815335984711676 
1639	 0.815474972416383 
1640	 0.815598186611081 
1641	 0.815709648082353 
1642	 0.815821923077902 
1643	 0.815939301816093 
1644	 0.81602401037391 
1645	 0.816109132876595 
1646	 0.816151479722852 
1647	 0.816142327911795 
1648	 0.816132658769261 
1649	 0.816102165240266 
1650	 0.816064861156074 
1651	 0.816010554379861 
1652	 0.815952215267763 
1653	 0.815916756589434 
1654	 0.815809243342513 
1655	 0.815687038684815 
1656	 0.815499909856699 
1657	 0.815242465768554 
1658	 0.814940438577528 
1659	 0.814589903114025 
1660	 0.814205526910533 
1661	 0.813763194372868 
1662	 0.813296497250132 
1663	 0.812786959871097 
1664	 0.812247424520293 
1665	 0.811692176885214 
1666	 0.811069696210903 
1667	 0.81039894244907 
1668	 0.809707679159813 
1669	 0.808979371144362 
1670	 0.808184295159254 
1671	 0.807367587714783 
1672	 0.806458095066941 
1673	 0.805484695402385 
1674	 0.804396257458708 
1675	 0.803200565210873 
1676	 0.801986890639383 
1677	 0.800669451909873 
1678	 0.799351268951493 
1679	 0.798013249212959 
1680	 0.796623997564995 
1681	 0.795184866353061 
1682	 0.793701770098048 
1683	 0.792190872573086 
1684	 0.790657929277493 
1685	 0.789069475385773 
1686	 0.787471369187226 
1687	 0.785828614197448 
1688	 0.784188154347072 
1689	 0.782503007909759 
1690	 0.780878701689531 
1691	 0.779257970740092 
1692	 0.777739324762278 
1693	 0.776299993210281 
1694	 0.774856392832203 
1695	 0.77346733673573 
1696	 0.772071225719811 
1697	 0.770686857127538 
1698	 0.769274746802534 
1699	 0.767931000056439 
1700	 0.766481710825308 
1701	 0.764971330772716 
1702	 0.76341459045548 
1703	 0.76177287857049 
1704	 0.760119208777335 
1705	 0.758397144893492 
1706	 0.756686867370366 
1707	 0.755079056480241 
1708	 0.753496559635475 
1709	 0.752001487961021 
1710	 0.750568819536592 
1711	 0.749064804706979 
1712	 0.747648038843711 
1713	 0.746182662129791 
1714	 0.744666357472517 
1715	 0.74327616908733 
1716	 0.741794339610525 
1717	 0.740303304560186 
1718	 0.738863120387067 
1719	 0.737337872605742 
1720	 0.735871144487719 
1721	 0.734449754711005 
1722	 0.733049807750059 
1723	 0.731816616330408 
1724	 0.730647872524352 
1725	 0.7296246474841 
1726	 0.728831924388266 
1727	 0.728207025100219 
1728	 0.727868731850277 
1729	 0.727868821999079 
1730	 0.728201185259463 
1731	 0.728843084496212 
1732	 0.729859369040669 
1733	 0.731125378251932 
1734	 0.732639191183535 
1735	 0.73441563107653 
1736	 0.73624915305127 
1737	 0.738104715364301 
1738	 0.739912346119385 
1739	 0.741504131290788 
1740	 0.742985586651418 
1741	 0.744323939865715 
1742	 0.745552915458742 
1743	 0.746587989241197 
1744	 0.747447422160852 
1745	 0.748174991115524 
1746	 0.748705574409585 
1747	 0.74911361193212 
1748	 0.749388526836791 
1749	 0.749536491304969 
1750	 0.749494974196224 
1751	 0.749415186311193 
1752	 0.749227498258953 
1753	 0.74899850676777 
1754	 0.748663286652679 
1755	 0.748365593108044 
1756	 0.747997974340038 
1757	 0.747695252373529 
1758	 0.74743198416146 
1759	 0.74720629238246 
1760	 0.747135391537547 
1761	 0.747195953398654 
1762	 0.747358888117257 
1763	 0.747734446890885 
1764	 0.748195379567902 
1765	 0.74883374899594 
1766	 0.749744764186261 
1767	 0.750742170120111 
1768	 0.751927361905967 
1769	 0.75323536711282 
1770	 0.754451279594071 
1771	 0.755729326529517 
1772	 0.756999192501406 
1773	 0.75819670532969 
1774	 0.759402922464885 
1775	 0.760481650778281 
1776	 0.761543478399174 
1777	 0.762574745239968 
1778	 0.76341570409114 
1779	 0.764214174030568 
1780	 0.764907615240905 
1781	 0.765435296794165 
1782	 0.766000830551807 
1783	 0.766549970140009 
1784	 0.76704159089031 
1785	 0.767478500169587 
1786	 0.767866735557645 
1787	 0.768225055031873 
1788	 0.768512804218275 
1789	 0.768734298184027 
1790	 0.768947100801636 
1791	 0.769068292988575 
1792	 0.769240243925395 
1793	 0.769425550478609 
1794	 0.769618072559354 
1795	 0.769802734187094 
1796	 0.769901213609607 
1797	 0.770019295758715 
1798	 0.77018392661633 
1799	 0.770335757169133 
1800	 0.77053143141021 
1801	 0.763128499219952 
1802	 0.763282796257748 
1803	 0.763462610658107 
1804	 0.763647103813034 
1805	 0.763885937171025 
1806	 0.764101285296309 
1807	 0.764337323723416 
1808	 0.764553184007648 
1809	 0.764772057469046 
1810	 0.764964638490255 
1811	 0.765142631726316 
1812	 0.765320512231354 
1813	 0.765478037934809 
1814	 0.765642110936997 
1815	 0.765805866810626 
1816	 0.765981205465722 
1817	 0.766144970091119 
1818	 0.766296392861031 
1819	 0.766466781207357 
1820	 0.766632342310647 
1821	 0.766808281170346 
1822	 0.766991027352484 
1823	 0.767193109853417 
1824	 0.767391331477009 
1825	 0.767627805630024 
1826	 0.767872830201609 
1827	 0.768166240099298 
1828	 0.768399018382386 
1829	 0.768620378588911 
1830	 0.768831952336161 
1831	 0.769015624336336 
1832	 0.769203650876388 
1833	 0.769364044947086 
1834	 0.769565359772039 
1835	 0.769762662958312 
1836	 0.769930026890013 
1837	 0.770130235555895 
1838	 0.770354721533338 
1839	 0.770572044276764 
1840	 0.770812339691258 
1841	 0.771019495295216 
1842	 0.77121893474727 
1843	 0.771427482409674 
1844	 0.771568638628614 
1845	 0.771687370062573 
1846	 0.771812724449154 
1847	 0.771887130615378 
1848	 0.771952406493205 
1849	 0.772026413287191 
1850	 0.772036497517244 
1851	 0.772003179346934 
1852	 0.771955327887611 
1853	 0.771854589436581 
1854	 0.771751627451622 
1855	 0.77165076060527 
1856	 0.771495510463306 
1857	 0.77132654550745 
1858	 0.771139527311066 
1859	 0.770894245256213 
1860	 0.770603563937498 
1861	 0.770275457428348 
1862	 0.769910518801906 
1863	 0.769502392320962 
1864	 0.76903524309463 
1865	 0.768529042318471 
1866	 0.767951218606756 
1867	 0.767281421598242 
1868	 0.766578417498246 
1869	 0.765763062059433 
1870	 0.764867746153243 
1871	 0.76390954618672 
1872	 0.762866159374014 
1873	 0.76171108672163 
1874	 0.760530634915108 
1875	 0.759290457037062 
1876	 0.757849869595347 
1877	 0.756414171558961 
1878	 0.754821584403851 
1879	 0.753051083752761 
1880	 0.751331126734434 
1881	 0.749454006260012 
1882	 0.747429669656513 
1883	 0.745347896651597 
1884	 0.74315821485975 
1885	 0.740619452254592 
1886	 0.738021330633188 
1887	 0.735207390907829 
1888	 0.732169695066316 
1889	 0.729269392484668 
1890	 0.726116834388751 
1891	 0.722861252112281 
1892	 0.71957509577226 
1893	 0.716014951012284 
1894	 0.71216521500101 
1895	 0.70837173581961 
1896	 0.704361783852804 
1897	 0.700144984670873 
1898	 0.696242955405485 
1899	 0.692097906055991 
1900	 0.687968380810351 
1901	 0.68394091154226 
1902	 0.679534521276223 
1903	 0.675273741469946 
1904	 0.671027658510873 
1905	 0.666719651127787 
1906	 0.662444217541101 
1907	 0.658570179024529 
1908	 0.654584397901568 
1909	 0.650782217991409 
1910	 0.647168823982764 
1911	 0.643329245726675 
1912	 0.639743365833706 
1913	 0.636181333484483 
1914	 0.632601495948488 
1915	 0.629313867101928 
1916	 0.626299185846326 
1917	 0.623233328545642 
1918	 0.620352063381705 
1919	 0.617666344222036 
1920	 0.614788155519148 
1921	 0.61214453453045 
1922	 0.60956852268223 
1923	 0.606960464977338 
1924	 0.604715009476925 
1925	 0.602502472769191 
1926	 0.600373972209982 
1927	 0.598401176262421 
1928	 0.596471862060377 
1929	 0.594548741281158 
1930	 0.592821693707089 
1931	 0.591197880835838 
1932	 0.589656439325771 
1933	 0.58837198369455 
1934	 0.587146563519624 
1935	 0.586024917653924 
1936	 0.585096701265399 
1937	 0.584194965092828 
1938	 0.583331793109692 
1939	 0.582636475606554 
1940	 0.582058080692824 
1941	 0.581542481684951 
1942	 0.581208135485824 
1943	 0.580972511443802 
1944	 0.580785882606021 
1945	 0.580729125507416 
1946	 0.580754165191068 
1947	 0.580867819456055 
1948	 0.581096734815889 
1949	 0.581379715042864 
1950	 0.581712982136709 
1951	 0.582124167551757 
1952	 0.582578622180538 
1953	 0.583069485609076 
1954	 0.58363213268657 
1955	 0.584304077673937 
1956	 0.584941366408612 
1957	 0.585608981573049 
1958	 0.586329868287705 
1959	 0.586991701416402 
1960	 0.587711183168877 
1961	 0.588445657943813 
1962	 0.589201436347907 
1963	 0.589969194737794 
1964	 0.590768185119789 
1965	 0.591552872461191 
1966	 0.592364940502482 
1967	 0.593154168661135 
1968	 0.593890910419317 
1969	 0.594654719033598 
1970	 0.595366996401176 
1971	 0.596083421475888 
1972	 0.596870319730215 
1973	 0.597627482818453 
1974	 0.598394209554637 
1975	 0.599191951028758 
1976	 0.599972606792643 
1977	 0.600721671528781 
1978	 0.601510525079417 
1979	 0.602309974585816 
1980	 0.603112206762526 
1981	 0.604004429315038 
1982	 0.604892013122554 
1983	 0.605833466224965 
1984	 0.606852963197739 
1985	 0.607800866143833 
1986	 0.608799605772463 
1987	 0.609785433447761 
1988	 0.610747587873706 
1989	 0.611745726278077 
1990	 0.612785542410854 
1991	 0.613784002281934 
1992	 0.614798152370849 
1993	 0.615805307372331 
1994	 0.616701726405966 
1995	 0.617629727448128 
1996	 0.618520293393322 
1997	 0.619383360148685 
1998	 0.620302479633054 
1999	 0.621267161646235 
2000	 0.622177830933742 
2001	 0.623126149754917 
2002	 0.624004646433746 
2003	 0.624828706636528 
2004	 0.625641080307701 
2005	 0.62638926237612 
2006	 0.627165702994214 
2007	 0.627962034989894 
2008	 0.628715244443222 
2009	 0.629446142985877 
2010	 0.630189772391791 
2011	 0.63081682530751 
2012	 0.631420733174367 
2013	 0.631990802511894 
2014	 0.632516397047488 
2015	 0.633014209442996 
2016	 0.633505159937908 
2017	 0.633910559065644 
2018	 0.634282684651048 
2019	 0.634578295957446 
2020	 0.634795971054551 
2021	 0.63495715423355 
2022	 0.635069160345495 
2023	 0.635104981707473 
2024	 0.635080020224181 
2025	 0.634949315954888 
2026	 0.634720426730725 
2027	 0.634360648403053 
2028	 0.633989853237319 
2029	 0.633520070830859 
2030	 0.633043207027313 
2031	 0.632565328130551 
2032	 0.631991906554388 
2033	 0.631343230377313 
2034	 0.630659999497875 
2035	 0.629889605698888 
2036	 0.629094759416604 
2037	 0.628341484678772 
2038	 0.62752875880708 
2039	 0.626740704707786 
2040	 0.62595837835677 
2041	 0.625181756213735 
2042	 0.624343733224553 
2043	 0.6236457576044 
2044	 0.622955155820428 
2045	 0.622408662422418 
2046	 0.621980541232757 
2047	 0.62162723093068 
2048	 0.621366699660678 
2049	 0.621200385946278 
2050	 0.621138609292431 
2051	 0.621141955573711 
2052	 0.621223775715921 
2053	 0.621397767642945 
2054	 0.62163115605895 
2055	 0.621927700083319 
2056	 0.622296600344155 
2057	 0.622711610046631 
2058	 0.623275558294302 
2059	 0.623903277635803 
2060	 0.624688424795027 
2061	 0.625679630124717 
2062	 0.626681961166954 
2063	 0.627773452039701 
2064	 0.628953614490707 
2065	 0.630213141114578 
2066	 0.631510461557718 
2067	 0.633002325369603 
2068	 0.634470158958992 
2069	 0.635967264342815 
2070	 0.637568375070922 
2071	 0.639066234796442 
2072	 0.640549669155408 
2073	 0.642000983162049 
2074	 0.643390705447749 
2075	 0.644799481318698 
2076	 0.646238394913561 
2077	 0.647576591373771 
2078	 0.648930467991501 
2079	 0.650158360253011 
2080	 0.651248159839982 
2081	 0.65233126410741 
2082	 0.653355756693857 
2083	 0.654309188489607 
2084	 0.655299618478251 
2085	 0.656181506678966 
2086	 0.65701863903753 
2087	 0.657828236926555 
2088	 0.658530480510425 
2089	 0.659124356267143 
2090	 0.659703890861385 
2091	 0.660182014640745 
2092	 0.660684449758456 
2093	 0.661187664014734 
2094	 0.66163477789139 
2095	 0.662076988332557 
2096	 0.662448435695249 
2097	 0.662749315452968 
2098	 0.663023843977248 
2099	 0.663228929832628 
2100	 0.663396126127124 
2101	 0.663552706783222 
2102	 0.663670525280824 
2103	 0.663765758286662 
2104	 0.663847072444085 
2105	 0.663889552362338 
2106	 0.663897633123653 
2107	 0.663872948694341 
2108	 0.66381710557073 
2109	 0.663736130177722 
2110	 0.663603323508589 
2111	 0.663470360699965 
2112	 0.663321490805971 
2113	 0.663156254638631 
2114	 0.662973360231115 
2115	 0.662777287996286 
2116	 0.662573068837163 
2117	 0.662355159222371 
2118	 0.662073939610731 
2119	 0.661752971886488 
2120	 0.661425699042686 
2121	 0.661029000855622 
2122	 0.660671571407727 
2123	 0.660339834231595 
2124	 0.659971427275918 
2125	 0.659616441464385 
2126	 0.659198184696108 
2127	 0.658763197544389 
2128	 0.65825580463178 
2129	 0.657650527114902 
2130	 0.657067224952475 
2131	 0.656475245359284 
2132	 0.655827890963805 
2133	 0.65521308585317 
2134	 0.654497721273119 
2135	 0.653599038195552 
2136	 0.652664484216733 
2137	 0.651615799537701 
2138	 0.650401952179917 
2139	 0.649214564923201 
2140	 0.647987984450543 
2141	 0.646685466050114 
2142	 0.645314439664053 
2143	 0.643928428407837 
2144	 0.642436803119689 
2145	 0.641023159203647 
2146	 0.639581274125052 
2147	 0.638219744245188 
2148	 0.636937343366935 
2149	 0.635627813341339 
2150	 0.63439497467822 
2151	 0.633096556323693 
2152	 0.631734620389437 
2153	 0.630409396648513 
2154	 0.629066750123543 
2155	 0.627683694738154 
2156	 0.626334156820905 
2157	 0.625028173396909 
2158	 0.623617848290541 
2159	 0.622198756997889 
2160	 0.620689503677396 
2161	 0.619048105012058 
2162	 0.617502287541241 
2163	 0.615889268369899 
2164	 0.614395492235853 
2165	 0.612956231671219 
2166	 0.611578670590566 
2167	 0.610284752484103 
2168	 0.60901606435339 
2169	 0.607770320317302 
2170	 0.606627184656421 
2171	 0.605494617941084 
2172	 0.604504279954385 
2173	 0.603644841828489 
2174	 0.60286855779361 
2175	 0.602213845290103 
2176	 0.601638470430857 
2177	 0.601063598033937 
2178	 0.600547824482825 
2179	 0.600078594617846 
2180	 0.599611549371275 
2181	 0.599259497733212 
2182	 0.599023298186832 
2183	 0.598771663873594 
2184	 0.598569888933836 
2185	 0.598408245252914 
2186	 0.598254913806973 
2187	 0.598180945465458 
2188	 0.598185833282636 
2189	 0.598222194514174 
2190	 0.598323642265835 
2191	 0.598444279808577 
2192	 0.59863077227068 
2193	 0.598801560678957 
2194	 0.599022801689037 
2195	 0.599203931924504 
2196	 0.599380763279146 
2197	 0.599517310774373 
2198	 0.599680939628647 
2199	 0.599776673181854 
2200	 0.599845474843034 
2201	 0.599907360660495 
2202	 0.599904422987734 
2203	 0.59983086214638 
2204	 0.599747145929379 
2205	 0.599620435098951 
2206	 0.599473517394794 
2207	 0.599307334479141 
2208	 0.599098286866176 
2209	 0.598809352956581 
2210	 0.59859563280769 
2211	 0.598335194138732 
2212	 0.598169427963233 
2213	 0.598064687327762 
2214	 0.598021548251874 
2215	 0.598008601975598 
2216	 0.598100867197401 
2217	 0.598323407865173 
2218	 0.598538462770898 
2219	 0.598883068138504 
2220	 0.599140076449507 
2221	 0.599404902015293 
2222	 0.599600496526519 
2223	 0.599728399140222 
2224	 0.599728213614166 
2225	 0.599646665853894 
2226	 0.599481744802109 
2227	 0.599232301030966 
2228	 0.598908189761958 
2229	 0.598485938088764 
2230	 0.597964072388252 
2231	 0.59735440589032 
2232	 0.596665333545566 
2233	 0.59584518529197 
2234	 0.594943371031951 
2235	 0.593872019297622 
2236	 0.592629126294943 
2237	 0.591326800919248 
2238	 0.589844656270904 
2239	 0.588368657909092 
2240	 0.586867985589081 
2241	 0.585247429832442 
2242	 0.583615883835986 
2243	 0.581786934312068 
2244	 0.579783438441788 
2245	 0.577722116263307 
2246	 0.57543609820609 
2247	 0.573206389925706 
2248	 0.570989450586375 
2249	 0.568673537834491 
2250	 0.566313957027955 
2251	 0.563956652932769 
2252	 0.561347373567396 
2253	 0.558762895263091 
2254	 0.55608116710278 
2255	 0.55333347705379 
2256	 0.55078288077118 
2257	 0.54815610859233 
2258	 0.545617462272008 
2259	 0.543193853639932 
2260	 0.540678963366999 
2261	 0.538146530646179 
2262	 0.535647818184772 
2263	 0.533062215362585 
2264	 0.530646929603285 
2265	 0.528353006101833 
2266	 0.525999321691726 
2267	 0.523822262232839 
2268	 0.521398199930532 
2269	 0.518876918399132 
2270	 0.51627136644544 
2271	 0.513477786579327 
2272	 0.510718702079408 
2273	 0.508016511968379 
2274	 0.50505943336795 
2275	 0.50211622486396 
2276	 0.498810227407151 
2277	 0.49508207978865 
2278	 0.491424462432529 
2279	 0.487306816634589 
2280	 0.483604864540296 
2281	 0.479989260468419 
2282	 0.476598991705356 
2283	 0.473312418450581 
2284	 0.470519905273341 
2285	 0.46786279591567 
2286	 0.465684793022737 
2287	 0.46397031850083 
2288	 0.462662907198197 
2289	 0.461789187398153 
2290	 0.46127278996868 
2291	 0.461100714081593 
2292	 0.461120037069149 
2293	 0.461238416006282 
2294	 0.461362588003181 
2295	 0.461331693688027 
2296	 0.461235371263593 
2297	 0.460905531874102 
2298	 0.460431994306684 
2299	 0.459665630318218 
2300	 0.458661424025407 
2301	 0.457444282954273 
2302	 0.455887771053288 
2303	 0.454358456227816 
2304	 0.452470526292588 
2305	 0.450993332880273 
2306	 0.449417508971619 
2307	 0.448379794073127 
2308	 0.447534903535081 
2309	 0.44738520675766 
2310	 0.447595064285774 
2311	 0.448573646674253 
2312	 0.450415397942916 
2313	 0.452504529613112 
2314	 0.455340435389677 
2315	 0.458240439824953 
2316	 0.461613861688445 
2317	 0.464853164652551 
2318	 0.468553224276007 
2319	 0.471592485144494 
2320	 0.474588301295252 
2321	 0.476938852262499 
2322	 0.478740313983193 
2323	 0.480204388873069 
2324	 0.481130197483886 
2325	 0.481802854027964 
2326	 0.48206647773692 
2327	 0.482086720323782 
2328	 0.481785018737 
2329	 0.481214098264422 
2330	 0.480384019512309 
2331	 0.479169726803372 
2332	 0.477657700915848 
2333	 0.475829745048747 
2334	 0.473456689826467 
2335	 0.470768758480462 
2336	 0.46755349199829 
2337	 0.463792531293078 
2338	 0.459969854722319 
2339	 0.455727648780761 
2340	 0.451427649029163 
2341	 0.446997206103889 
2342	 0.442040763023979 
2343	 0.437282879053377 
2344	 0.432620011936334 
2345	 0.42820107635407 
2346	 0.424721732948802 
2347	 0.421913055541906 
2348	 0.419712608332458 
2349	 0.418431022093764 
2350	 0.417694185026179 
2351	 0.417431178303473 
2352	 0.417593880482806 
2353	 0.418060795522231 
2354	 0.418734997655251 
2355	 0.419541854854619 
2356	 0.420777446007483 
2357	 0.422462653614692 
2358	 0.424831481519391 
2359	 0.427852177341541 
2360	 0.431448950213556 
2361	 0.435830608457436 
2362	 0.440236165077747 
2363	 0.44497988333536 
2364	 0.449695974453618 
2365	 0.454025524868863 
2366	 0.45846796461663 
2367	 0.462258695942471 
2368	 0.465621256144169 
2369	 0.46853236893465 
2370	 0.470616719697619 
2371	 0.472390605897544 
2372	 0.473908920460394 
2373	 0.475097605054 
2374	 0.476124119989885 
2375	 0.476920956730102 
2376	 0.47754747816216 
2377	 0.477945140707962 
2378	 0.478222177792712 
2379	 0.478534459769182 
2380	 0.478631869431494 
2381	 0.478659725676193 
2382	 0.478704596373233 
2383	 0.478680328972034 
2384	 0.478644025785938 
2385	 0.478601267618128 
2386	 0.478619680550931 
2387	 0.478582539316013 
2388	 0.478657968749045 
2389	 0.4788587902745 
2390	 0.479018470480674 
2391	 0.47919620132965 
2392	 0.479420069636734 
2393	 0.479701979128724 
2394	 0.479904211796294 
2395	 0.480140175456838 
2396	 0.480258925021764 
2397	 0.480245723077718 
2398	 0.480283640241942 
2399	 0.480267462170367 
2400	 0.480320231520231 
2401	 0.480415678186279 
2402	 0.480547701282828 
2403	 0.480680195896406 
2404	 0.480970351276082 
2405	 0.481259370785142 
2406	 0.481449067149903 
2407	 0.481703259318595 
2408	 0.48188805875404 
2409	 0.481959025055572 
2410	 0.482061812985979 
2411	 0.482128120849592 
2412	 0.482132957955617 
2413	 0.4821937261331 
2414	 0.482253233640109 
2415	 0.482339357343841 
2416	 0.482435640054047 
2417	 0.482455450263063 
2418	 0.482392092524255 
2419	 0.482121845977537 
2420	 0.481880861916779 
2421	 0.481673431833402 
2422	 0.481436173839053 
2423	 0.481379428066214 
2424	 0.481207693800411 
2425	 0.480829327347478 
2426	 0.480518137088697 
2427	 0.480263277372804 
2428	 0.480018000276558 
2429	 0.479840024098519 
2430	 0.479722571682547 
2431	 0.479542158418904 
2432	 0.479238107191259 
2433	 0.479055885062527 
2434	 0.478764376798987 
2435	 0.478260026925477 
2436	 0.477901864826088 
2437	 0.477453562724559 
2438	 0.47688720881178 
2439	 0.476326239348198 
2440	 0.475728661000576 
2441	 0.475048195123207 
2442	 0.474369836046956 
2443	 0.473809472141609 
2444	 0.473117043129233 
2445	 0.472521653888606 
2446	 0.471936952680253 
2447	 0.471282379975862 
2448	 0.470856956898476 
2449	 0.470120003076817 
2450	 0.469255173315565 
2451	 0.468503629726265 
2452	 0.467608281539907 
2453	 0.466663295200115 
2454	 0.465668604636925 
2455	 0.464795957313894 
2456	 0.46401970130312 
2457	 0.463340741658458 
2458	 0.462791033755858 
2459	 0.462260561229755 
2460	 0.461668460386662 
2461	 0.460881259963012 
2462	 0.460326025903078 
2463	 0.45978791838719 
2464	 0.458923408292879 
2465	 0.458479471796037 
2466	 0.458006825813297 
2467	 0.457394510648227 
2468	 0.457099867871156 
2469	 0.456663309872454 
2470	 0.45638631463379 
2471	 0.456220264421824 
2472	 0.455850609421667 
2473	 0.455584730160875 
2474	 0.455283320930043 
2475	 0.454793267916558 
2476	 0.454646453468971 
2477	 0.454620479974507 
2478	 0.45435109042171 
2479	 0.454555681802589 
2480	 0.45460326630949 
2481	 0.45454846189664 
2482	 0.454549194463951 
2483	 0.454410326962937 
2484	 0.454305858832118 
2485	 0.454250063398274 
2486	 0.45418914544589 
2487	 0.454200124390369 
2488	 0.454355464843548 
2489	 0.454390581386026 
2490	 0.4547527512872 
2491	 0.454822853838837 
2492	 0.454225859765113 
2493	 0.453950772419104 
2494	 0.453567624286774 
2495	 0.453063325069341 
2496	 0.453188034254642 
2497	 0.453308382564263 
2498	 0.452850629502989 
2499	 0.452694160437747 
2500	 0.452851055511309 
