Wavelength	ProbetaAcolman00022.asd
350	 0.903405152980707 
351	 0.899335866352386 
352	 0.90800480108408 
353	 0.913485994477887 
354	 0.917615357908958 
355	 0.907008221839584 
356	 0.89947293769839 
357	 0.906763074450031 
358	 0.903402773293261 
359	 0.892183281834803 
360	 0.885023162732503 
361	 0.892249148626885 
362	 0.881182879514536 
363	 0.871726482880811 
364	 0.87208063686546 
365	 0.867394380812895 
366	 0.873531752444665 
367	 0.874351544198442 
368	 0.859833518954247 
369	 0.860998918241679 
370	 0.863113587125916 
371	 0.864099047230201 
372	 0.867315043042716 
373	 0.858754371583037 
374	 0.846423047594316 
375	 0.839590702279381 
376	 0.847017457511701 
377	 0.852390840973763 
378	 0.85214249159004 
379	 0.847426103870499 
380	 0.840761030144618 
381	 0.835335102247012 
382	 0.83431670623174 
383	 0.838730033711072 
384	 0.837647567956045 
385	 0.837371992960209 
386	 0.838390390171849 
387	 0.829693566971233 
388	 0.828536327290803 
389	 0.82975588037497 
390	 0.826370278613864 
391	 0.827686149099675 
392	 0.821591630452295 
393	 0.813569340586556 
394	 0.817472321589622 
395	 0.815481951073493 
396	 0.813212889138058 
397	 0.814181080821655 
398	 0.813840048461676 
399	 0.816573216410594 
400	 0.81973358099989 
401	 0.820119434681483 
402	 0.819569929957612 
403	 0.821348266320702 
404	 0.824242804389295 
405	 0.824546869587603 
406	 0.830814805353936 
407	 0.836090054360968 
408	 0.836821232560716 
409	 0.839053775985622 
410	 0.843075252438293 
411	 0.847657021748149 
412	 0.851117264949404 
413	 0.852406011385852 
414	 0.856241591432197 
415	 0.861973190551423 
416	 0.864493416674486 
417	 0.868778103152506 
418	 0.872400900773512 
419	 0.873830366642166 
420	 0.87629126887674 
421	 0.878056370238224 
422	 0.880029275382667 
423	 0.883367960580978 
424	 0.884366504213641 
425	 0.886366312689909 
426	 0.889674066448881 
427	 0.890872730696427 
428	 0.891172377285381 
429	 0.891988697341146 
430	 0.893797420019222 
431	 0.894300647175703 
432	 0.894465949779799 
433	 0.895149827324481 
434	 0.896769825262276 
435	 0.896669150900873 
436	 0.896375767512692 
437	 0.896703036706921 
438	 0.89676106375234 
439	 0.89605541553297 
440	 0.895691224713338 
441	 0.896434902364251 
442	 0.895785486549107 
443	 0.895474288288262 
444	 0.895616095885106 
445	 0.895042156790625 
446	 0.893907426250015 
447	 0.893099866815269 
448	 0.892946452298286 
449	 0.892387929174977 
450	 0.891784835325645 
451	 0.891400724686102 
452	 0.891227895266963 
453	 0.88974220697237 
454	 0.888733949018072 
455	 0.88849565769798 
456	 0.887523484002051 
457	 0.886246119805078 
458	 0.884961485805631 
459	 0.883905833809718 
460	 0.883205976265701 
461	 0.882367000513413 
462	 0.881441491558417 
463	 0.880724697083094 
464	 0.879816406401517 
465	 0.879056961974208 
466	 0.878438589095887 
467	 0.877338823567597 
468	 0.875879954523399 
469	 0.874791354149663 
470	 0.874596677063461 
471	 0.874392125650297 
472	 0.873745773765277 
473	 0.872809365444841 
474	 0.872158680354892 
475	 0.871742991315151 
476	 0.871533515274176 
477	 0.871355130316907 
478	 0.870658054459493 
479	 0.87046787686639 
480	 0.870502621819906 
481	 0.87013124175264 
482	 0.869929429726393 
483	 0.869770307045942 
484	 0.869777292205931 
485	 0.870382567797635 
486	 0.870774039527806 
487	 0.871076688410655 
488	 0.871552537365837 
489	 0.87217790092959 
490	 0.872968059574023 
491	 0.873735172452895 
492	 0.874268438841264 
493	 0.875274978964838 
494	 0.87647671435876 
495	 0.877582476455977 
496	 0.878455778571642 
497	 0.87948453473901 
498	 0.880866158755148 
499	 0.882604523919925 
500	 0.884205475548275 
501	 0.885926265507662 
502	 0.887692887620241 
503	 0.889168282452655 
504	 0.891092045459777 
505	 0.89303451728508 
506	 0.894721148977583 
507	 0.896758638539699 
508	 0.898720899034088 
509	 0.900679251940125 
510	 0.902853873732293 
511	 0.904949457308089 
512	 0.906917148431728 
513	 0.908874543476323 
514	 0.911127828545516 
515	 0.913065777555929 
516	 0.914922871929621 
517	 0.916984753865588 
518	 0.918907680534299 
519	 0.920860025345846 
520	 0.922816143466919 
521	 0.924628116235913 
522	 0.926483248508347 
523	 0.928242006516222 
524	 0.929842598640878 
525	 0.931459046253267 
526	 0.933061114264804 
527	 0.934623269200301 
528	 0.936128812160103 
529	 0.937628154993344 
530	 0.939085684396087 
531	 0.940478293493089 
532	 0.941797226999181 
533	 0.942990213749094 
534	 0.94415048872086 
535	 0.945337895275405 
536	 0.94642483236846 
537	 0.947486528741655 
538	 0.948548996659723 
539	 0.949616136308423 
540	 0.95074355460359 
541	 0.951867952849694 
542	 0.95290165618046 
543	 0.95372645877642 
544	 0.954549454415194 
545	 0.955395440456099 
546	 0.956229505844874 
547	 0.957029019097109 
548	 0.957853958506857 
549	 0.958673349836025 
550	 0.959388343377485 
551	 0.960310132181506 
552	 0.961172290016428 
553	 0.961817904720005 
554	 0.962647845733421 
555	 0.963383439343396 
556	 0.964070007859275 
557	 0.964867288260837 
558	 0.965601990929379 
559	 0.966319718464093 
560	 0.967039643812791 
561	 0.967717267463345 
562	 0.968467565268025 
563	 0.969177704054162 
564	 0.969730371203783 
565	 0.970218265617365 
566	 0.970673883892765 
567	 0.97112224930286 
568	 0.971588267043512 
569	 0.972181259722698 
570	 0.972765897747492 
571	 0.973231398077105 
572	 0.973568250418334 
573	 0.974083268777762 
574	 0.974635835162202 
575	 0.974981965466292 
576	 0.975426221210577 
577	 0.975934939347344 
578	 0.976433957993543 
579	 0.976834895226594 
580	 0.977325598579957 
581	 0.977699349501188 
582	 0.977854440442265 
583	 0.978286136656345 
584	 0.978754504145096 
585	 0.979184806488491 
586	 0.979622945671431 
587	 0.980294010596206 
588	 0.980846888132895 
589	 0.981236165077303 
590	 0.982029325358488 
591	 0.982571129977718 
592	 0.982932719989947 
593	 0.983397981329068 
594	 0.984161096562705 
595	 0.984680413965389 
596	 0.984976481063782 
597	 0.985558135389894 
598	 0.986200652614543 
599	 0.986639329735902 
600	 0.986890023325927 
601	 0.987693864683912 
602	 0.988306763203728 
603	 0.988611559323274 
604	 0.98884323683176 
605	 0.989585085060701 
606	 0.99030367686969 
607	 0.99073351584837 
608	 0.991058646715352 
609	 0.991605666933305 
610	 0.992182427581153 
611	 0.992553796407999 
612	 0.992771790901927 
613	 0.993329527229367 
614	 0.994043927527294 
615	 0.99434645279951 
616	 0.994579029068538 
617	 0.99507163035015 
618	 0.99577844319902 
619	 0.995984298854898 
620	 0.996291396114942 
621	 0.996828058878762 
622	 0.997469246398451 
623	 0.997679076310741 
624	 0.997952585130799 
625	 0.998473496535409 
626	 0.999070020877439 
627	 0.999316298050027 
628	 0.999483864219831 
629	 0.999853030654873 
630	 1.00040696980921 
631	 1.00076524472044 
632	 1.00095625074172 
633	 1.00121046016719 
634	 1.00166824363391 
635	 1.00208920970394 
636	 1.00236233055235 
637	 1.00258051593118 
638	 1.00293514735614 
639	 1.00332030734505 
640	 1.00361035566816 
641	 1.00388455617632 
642	 1.00415942325639 
643	 1.00447990526872 
644	 1.00487295907225 
645	 1.00504889185632 
646	 1.00516438591992 
647	 1.00539968066945 
648	 1.00589609335292 
649	 1.00616119913624 
650	 1.00626155686883 
651	 1.006436634305 
652	 1.00683933676435 
653	 1.00713179565919 
654	 1.00727087325029 
655	 1.00745949302821 
656	 1.0076231777887 
657	 1.00788793729286 
658	 1.00826853487329 
659	 1.00849250879764 
660	 1.00867274202509 
661	 1.00885194089914 
662	 1.00904348670883 
663	 1.00920223060597 
664	 1.00940680544251 
665	 1.0096802348926 
666	 1.00998074739268 
667	 1.0102630133726 
668	 1.0104934139301 
669	 1.0106753680149 
670	 1.01088775148696 
671	 1.01112887227017 
672	 1.01135106943472 
673	 1.01151561770639 
674	 1.0118220692929 
675	 1.01201753740683 
676	 1.01208703601707 
677	 1.01233768861624 
678	 1.01250175043034 
679	 1.01264804108415 
680	 1.01287745937049 
681	 1.01315242242156 
682	 1.01342686235465 
683	 1.01365642008347 
684	 1.0138171470091 
685	 1.01400825304715 
686	 1.01420704135088 
687	 1.01438811571935 
688	 1.01454207528243 
689	 1.01469120442674 
690	 1.01487374822482 
691	 1.01510896597074 
692	 1.01534486567656 
693	 1.01557431057049 
694	 1.0158016318575 
695	 1.01603149933049 
696	 1.01617870338027 
697	 1.01641468288814 
698	 1.01674790322651 
699	 1.01688837796821 
700	 1.01703593820893 
701	 1.01725528375219 
702	 1.01753503060025 
703	 1.01773304346255 
704	 1.01791766071862 
705	 1.01813233353281 
706	 1.01838407445242 
707	 1.0185212429907 
708	 1.01867000627545 
709	 1.01889248892627 
710	 1.01908589713415 
711	 1.01920070329656 
712	 1.01936066612129 
713	 1.01963896183304 
714	 1.01967919257304 
715	 1.01976887654662 
716	 1.01996690813061 
717	 1.02014825683908 
718	 1.02020060158834 
719	 1.02034048186516 
720	 1.02062390973343 
721	 1.02076714740355 
722	 1.02079983487302 
723	 1.02081577108408 
724	 1.02091055513233 
725	 1.02107325635841 
726	 1.02124312615685 
727	 1.02140446529284 
728	 1.02156864170487 
729	 1.02163958160542 
730	 1.02179874628493 
731	 1.022061619924 
732	 1.02211643773287 
733	 1.02218722456297 
734	 1.02231228506605 
735	 1.02247246672261 
736	 1.0226494344852 
737	 1.02279099749625 
738	 1.02288644041099 
739	 1.02296141959163 
740	 1.02309777474378 
741	 1.02314684439389 
742	 1.02312069423468 
743	 1.02330477946086 
744	 1.02362681538897 
745	 1.02378519022249 
746	 1.02364569621238 
747	 1.02383650386892 
748	 1.02399658763431 
749	 1.02417348362192 
750	 1.02457378201299 
751	 1.02468763376969 
752	 1.02471417048887 
753	 1.02478409573141 
754	 1.02484054144121 
755	 1.02498262463614 
756	 1.0251524131229 
757	 1.02526180166608 
758	 1.0252349174514 
759	 1.02525785605521 
760	 1.02541815795768 
761	 1.02570335022455 
762	 1.02585221418434 
763	 1.02599522022012 
764	 1.02613875900231 
765	 1.02614008287419 
766	 1.02624285110981 
767	 1.02642784200612 
768	 1.0266241703567 
769	 1.02677499583627 
770	 1.02687686948674 
771	 1.02696320635168 
772	 1.02709112499804 
773	 1.02735628872544 
774	 1.02751472309373 
775	 1.02758046739692 
776	 1.02776525238702 
777	 1.02784121370872 
778	 1.0279040261957 
779	 1.02802215352541 
780	 1.0281387499973 
781	 1.02827071002367 
782	 1.02841140120705 
783	 1.02853718791662 
784	 1.02857216152761 
785	 1.02870601005502 
786	 1.02895755458481 
787	 1.02921562902503 
788	 1.02924899438722 
789	 1.02935812176419 
790	 1.02958516551064 
791	 1.02962215409358 
792	 1.02972225783907 
793	 1.02981311513962 
794	 1.02984019809937 
795	 1.02995951208415 
796	 1.03002086024787 
797	 1.03005129133187 
798	 1.03013972591239 
799	 1.03034070111487 
800	 1.03044874835995 
801	 1.03048947214771 
802	 1.03064960102756 
803	 1.03072290774308 
804	 1.03078193219291 
805	 1.03089818340487 
806	 1.03108459142931 
807	 1.03115730725994 
808	 1.03118302483171 
809	 1.03126006269479 
810	 1.03137537217802 
811	 1.0314572375667 
812	 1.03152851440312 
813	 1.03165012399017 
814	 1.03183316203439 
815	 1.03190552183122 
816	 1.03194810188027 
817	 1.03222693375269 
818	 1.03230695559008 
819	 1.03236979907498 
820	 1.03250594307096 
821	 1.03250117831235 
822	 1.03258072614211 
823	 1.0326843599149 
824	 1.03271867059797 
825	 1.03273304513216 
826	 1.03275195191353 
827	 1.03278978373193 
828	 1.03285399659 
829	 1.03295290739837 
830	 1.03308020436485 
831	 1.03324704482644 
832	 1.03346074545076 
833	 1.03349989161813 
834	 1.03351809517939 
835	 1.03360102088117 
836	 1.03364214525886 
837	 1.03357448606431 
838	 1.03355838208209 
839	 1.03369183928306 
840	 1.03374474857934 
841	 1.0337319193623 
842	 1.03363515586806 
843	 1.0334926375428 
844	 1.03361402128096 
845	 1.03382190058838 
846	 1.03394185048555 
847	 1.0338706483482 
848	 1.03389666853693 
849	 1.03398144860071 
850	 1.03401647083092 
851	 1.03387704218144 
852	 1.03389534653774 
853	 1.03394440944683 
854	 1.03392252582145 
855	 1.03399471986294 
856	 1.03406460261876 
857	 1.03409151748389 
858	 1.03408864642759 
859	 1.03420123404726 
860	 1.03424083962725 
861	 1.0342398739861 
862	 1.03433280759915 
863	 1.03450876559936 
864	 1.03461139975412 
865	 1.03459115051769 
866	 1.03451615774941 
867	 1.03452445466482 
868	 1.03454844879785 
869	 1.03455224763122 
870	 1.03458365407618 
871	 1.03450270314879 
872	 1.03451995702657 
873	 1.03471289020294 
874	 1.03470462709302 
875	 1.0347008654278 
876	 1.03468464771692 
877	 1.0346291798988 
878	 1.03469242659828 
879	 1.03491734826672 
880	 1.03508873832119 
881	 1.03495527202686 
882	 1.03475943264207 
883	 1.03474235466758 
884	 1.03483342232234 
885	 1.03476757443146 
886	 1.03480887324264 
887	 1.03481171969692 
888	 1.03474461302051 
889	 1.03474496518982 
890	 1.03464676245131 
891	 1.03466709049789 
892	 1.03483274910848 
893	 1.03474999932694 
894	 1.03469392246281 
895	 1.03467086434231 
896	 1.03462438123832 
897	 1.03451212243908 
898	 1.03437547397858 
899	 1.03429458186183 
900	 1.0343256871364 
901	 1.03440605477065 
902	 1.03440349634047 
903	 1.03434912237294 
904	 1.03435610556957 
905	 1.03448255804721 
906	 1.03444742374429 
907	 1.03432829896373 
908	 1.03441005206242 
909	 1.03435610696228 
910	 1.03424470217444 
911	 1.03420610663181 
912	 1.0343456773649 
913	 1.03440469581142 
914	 1.03444101038292 
915	 1.03446529131639 
916	 1.03437050155265 
917	 1.03443957582996 
918	 1.0345299520162 
919	 1.03453674684728 
920	 1.03459268636651 
921	 1.03464954207277 
922	 1.03467554459362 
923	 1.03467094048717 
924	 1.03470374928987 
925	 1.03478078492984 
926	 1.03476957627825 
927	 1.03461162990715 
928	 1.03462601271618 
929	 1.0347902534389 
930	 1.03491584066942 
931	 1.03481422948399 
932	 1.03458961217073 
933	 1.0346634229229 
934	 1.03490106160722 
935	 1.03493128752574 
936	 1.03495181412124 
937	 1.03511918483031 
938	 1.03525408572012 
939	 1.03505339942149 
940	 1.03499404270564 
941	 1.03503733474504 
942	 1.03510987940612 
943	 1.03515553380221 
944	 1.03522218979157 
945	 1.03514570722015 
946	 1.03495128547195 
947	 1.03486862167132 
948	 1.03487617379266 
949	 1.03489076424407 
950	 1.03482645188283 
951	 1.03463733921943 
952	 1.03464646263511 
953	 1.03455399402536 
954	 1.03431569875665 
955	 1.03439248919327 
956	 1.03440439724767 
957	 1.03415707996019 
958	 1.0337085663116 
959	 1.03345003061029 
960	 1.03326092480051 
961	 1.03306592385633 
962	 1.03283656278435 
963	 1.03262372547787 
964	 1.03268298641004 
965	 1.03288072196878 
966	 1.03302176507085 
967	 1.03303833663578 
968	 1.03314822192352 
969	 1.03322988206254 
970	 1.03322349147863 
971	 1.03347663347712 
972	 1.03367880039733 
973	 1.0337019182443 
974	 1.03357960748922 
975	 1.03358384628055 
976	 1.03382422656689 
977	 1.03397683903546 
978	 1.03380133736428 
979	 1.03376182389842 
980	 1.03366385561443 
981	 1.03366264383091 
982	 1.03387418637233 
983	 1.03395171422897 
984	 1.03397469786037 
985	 1.03408567081951 
986	 1.03431269795337 
987	 1.03424144311247 
988	 1.03408773206146 
989	 1.03399120000863 
990	 1.03402426083373 
991	 1.03413945257558 
992	 1.03425457292795 
993	 1.03434363711383 
994	 1.0344188696802 
995	 1.03455038549414 
996	 1.03438552288427 
997	 1.0341907524387 
998	 1.03429672643802 
999	 1.0344412363169 
1000	 1.0346422087464 
1001	 1.03417614512217 
1002	 1.03417314795875 
1003	 1.03416479803595 
1004	 1.0341611673186 
1005	 1.03425755613549 
1006	 1.03426523722854 
1007	 1.03418503558366 
1008	 1.034169890843 
1009	 1.03418405040895 
1010	 1.03417608293997 
1011	 1.03417837762274 
1012	 1.03415429017508 
1013	 1.03409000179946 
1014	 1.03407793994528 
1015	 1.03410756119138 
1016	 1.0340752423181 
1017	 1.03405981372097 
1018	 1.03404639292063 
1019	 1.03395752481531 
1020	 1.03389616997628 
1021	 1.03387853077253 
1022	 1.03389501716065 
1023	 1.03391507884071 
1024	 1.0339897803824 
1025	 1.03400951504357 
1026	 1.03400488450485 
1027	 1.03400999917247 
1028	 1.03399427704366 
1029	 1.03399526984454 
1030	 1.03403407637413 
1031	 1.03399794079904 
1032	 1.03397820763351 
1033	 1.03401201186673 
1034	 1.03409837456666 
1035	 1.03422888140678 
1036	 1.03427508931354 
1037	 1.03433108275945 
1038	 1.03433932696518 
1039	 1.03421115305017 
1040	 1.03421167124638 
1041	 1.03428726992932 
1042	 1.03432477597287 
1043	 1.03439551611528 
1044	 1.03442876460241 
1045	 1.03446957680876 
1046	 1.03449336029909 
1047	 1.03443243502085 
1048	 1.03442927131369 
1049	 1.03439737775054 
1050	 1.03434087965546 
1051	 1.03441507023017 
1052	 1.03444379830636 
1053	 1.03445807121524 
1054	 1.03447044010005 
1055	 1.03450524941374 
1056	 1.03450378443309 
1057	 1.03457654714428 
1058	 1.03474461625703 
1059	 1.03480907056676 
1060	 1.03484752064568 
1061	 1.034855179371 
1062	 1.0347956992254 
1063	 1.03482402528023 
1064	 1.03487372644605 
1065	 1.03488883355608 
1066	 1.03494029441721 
1067	 1.03498782928383 
1068	 1.03497289169617 
1069	 1.03490426349706 
1070	 1.03488186622821 
1071	 1.03485928940169 
1072	 1.03480999312938 
1073	 1.03481235797998 
1074	 1.03489102291454 
1075	 1.03490873068349 
1076	 1.03491147321088 
1077	 1.03492275859348 
1078	 1.03494589970872 
1079	 1.03499547081091 
1080	 1.03500164437153 
1081	 1.03498756084692 
1082	 1.03499969125624 
1083	 1.03500853372782 
1084	 1.03500731771805 
1085	 1.03498989991174 
1086	 1.03498523044933 
1087	 1.03496145951397 
1088	 1.03495585576987 
1089	 1.03499794726604 
1090	 1.03505278070116 
1091	 1.03508281957297 
1092	 1.03512254249137 
1093	 1.03514819482857 
1094	 1.03515999653724 
1095	 1.03516619004118 
1096	 1.03512432708998 
1097	 1.03509083216567 
1098	 1.03507634360608 
1099	 1.03504292028707 
1100	 1.03500636510999 
1101	 1.03496952811229 
1102	 1.03495544511704 
1103	 1.03493097639881 
1104	 1.03492872594512 
1105	 1.03490135233409 
1106	 1.03485343945216 
1107	 1.03476906393029 
1108	 1.03467314028156 
1109	 1.03465834508005 
1110	 1.03463241272805 
1111	 1.0345594231399 
1112	 1.03451027602856 
1113	 1.0344547039856 
1114	 1.03442947608487 
1115	 1.03441601962493 
1116	 1.03437182531575 
1117	 1.03432912520989 
1118	 1.0342936487764 
1119	 1.03425209419482 
1120	 1.03419546424504 
1121	 1.03415238569802 
1122	 1.03408668236176 
1123	 1.03398828846311 
1124	 1.03391259314473 
1125	 1.03384348901583 
1126	 1.033740768714 
1127	 1.03361586818023 
1128	 1.03342639927885 
1129	 1.03322732570007 
1130	 1.03306990029238 
1131	 1.03286432941544 
1132	 1.03267178012452 
1133	 1.03250901784069 
1134	 1.0322984801189 
1135	 1.03206722381987 
1136	 1.03181830557944 
1137	 1.03157887646368 
1138	 1.03131010744861 
1139	 1.0310382630876 
1140	 1.03076746486606 
1141	 1.03053429856293 
1142	 1.03023668852363 
1143	 1.02993975291056 
1144	 1.02967932419712 
1145	 1.02933586248097 
1146	 1.02899088422819 
1147	 1.02869513366389 
1148	 1.02836515050606 
1149	 1.02804233048226 
1150	 1.02775987455337 
1151	 1.02749723759396 
1152	 1.027188495469 
1153	 1.02688012969742 
1154	 1.02654481653576 
1155	 1.02616260958323 
1156	 1.02576966364976 
1157	 1.02537598273081 
1158	 1.02497512676739 
1159	 1.0245486821001 
1160	 1.02412431640327 
1161	 1.02370015642019 
1162	 1.02322893203522 
1163	 1.0227989230362 
1164	 1.02235850794743 
1165	 1.02187589782874 
1166	 1.02145969677768 
1167	 1.02101753933366 
1168	 1.02057537130244 
1169	 1.02016937244318 
1170	 1.019798423698 
1171	 1.01942092834426 
1172	 1.01905434911314 
1173	 1.01870162992577 
1174	 1.01833084400494 
1175	 1.01803683522109 
1176	 1.01780941389881 
1177	 1.01756014216482 
1178	 1.01733192121409 
1179	 1.01712991123038 
1180	 1.01695418698789 
1181	 1.01673580595091 
1182	 1.01654803050669 
1183	 1.01638260276943 
1184	 1.01613212657303 
1185	 1.01588780080448 
1186	 1.01569493370222 
1187	 1.01552596805197 
1188	 1.01535526229465 
1189	 1.0152093601037 
1190	 1.01508595765349 
1191	 1.01495132966966 
1192	 1.01486461693441 
1193	 1.01483030738147 
1194	 1.01479737199277 
1195	 1.01479053967577 
1196	 1.01477728242487 
1197	 1.01476745612061 
1198	 1.01478145390489 
1199	 1.01478908149769 
1200	 1.01481343271535 
1201	 1.01488002917562 
1202	 1.01492214705205 
1203	 1.01494419054405 
1204	 1.01500463510269 
1205	 1.0150713118884 
1206	 1.01513861125003 
1207	 1.01522628242438 
1208	 1.01534739350542 
1209	 1.01544910210777 
1210	 1.01553814784449 
1211	 1.01564467854424 
1212	 1.01575115337726 
1213	 1.01588319039487 
1214	 1.01602564403262 
1215	 1.01619560743188 
1216	 1.01638700157036 
1217	 1.01659358579843 
1218	 1.01681349463929 
1219	 1.01707272924603 
1220	 1.01732696466848 
1221	 1.01760765209444 
1222	 1.01789868762215 
1223	 1.01819692015752 
1224	 1.01849523264823 
1225	 1.01881865083015 
1226	 1.01909128016552 
1227	 1.01932994365789 
1228	 1.01960024724668 
1229	 1.01985621759107 
1230	 1.02012651265729 
1231	 1.02046899268092 
1232	 1.02071456705087 
1233	 1.02089538460394 
1234	 1.02109344026766 
1235	 1.02124474163203 
1236	 1.02141023782439 
1237	 1.02159187935498 
1238	 1.02176618463915 
1239	 1.02193502430117 
1240	 1.02209306513672 
1241	 1.02226998826856 
1242	 1.02242039092826 
1243	 1.02253225615861 
1244	 1.02260997715588 
1245	 1.02269969633969 
1246	 1.02275495031116 
1247	 1.02283386334852 
1248	 1.0229286635691 
1249	 1.02301217642989 
1250	 1.02310125137739 
1251	 1.0231632696103 
1252	 1.0232094754328 
1253	 1.02326016884579 
1254	 1.02330042630277 
1255	 1.02332871179436 
1256	 1.02337484716053 
1257	 1.02338353139909 
1258	 1.02336351001519 
1259	 1.0233240236803 
1260	 1.02323081475233 
1261	 1.02317010038728 
1262	 1.0231026651145 
1263	 1.02304136935462 
1264	 1.02300551565909 
1265	 1.02300653376002 
1266	 1.02298518063773 
1267	 1.02298265527138 
1268	 1.02293233486315 
1269	 1.02285738162919 
1270	 1.02278736624818 
1271	 1.022680531254 
1272	 1.02260405788727 
1273	 1.0225516219875 
1274	 1.02248161838788 
1275	 1.02240038374577 
1276	 1.02233487574329 
1277	 1.02227498021067 
1278	 1.02221233960162 
1279	 1.02217216371677 
1280	 1.0221066050709 
1281	 1.02200069917825 
1282	 1.02193136421148 
1283	 1.02184622550658 
1284	 1.02180394224965 
1285	 1.02179222793774 
1286	 1.02182701091861 
1287	 1.02183864316242 
1288	 1.02187603658735 
1289	 1.02188695176259 
1290	 1.02188961243803 
1291	 1.02188206424422 
1292	 1.02186894156041 
1293	 1.02184456155682 
1294	 1.02181329429041 
1295	 1.02176233550575 
1296	 1.02168225183181 
1297	 1.02162727987468 
1298	 1.02157097023824 
1299	 1.02151105542084 
1300	 1.02147565751699 
1301	 1.02141378384621 
1302	 1.02133045754237 
1303	 1.02124418612277 
1304	 1.02115122958885 
1305	 1.02105115369038 
1306	 1.02094320044374 
1307	 1.02082779185577 
1308	 1.02071579007486 
1309	 1.02058412127188 
1310	 1.02042802183202 
1311	 1.02024144991355 
1312	 1.0200902664354 
1313	 1.01992425056941 
1314	 1.01978385226413 
1315	 1.01969034757158 
1316	 1.01954612475277 
1317	 1.01938819605358 
1318	 1.01921816517613 
1319	 1.0190111172504 
1320	 1.01883980759762 
1321	 1.018674822997 
1322	 1.0185130430518 
1323	 1.01839155041962 
1324	 1.01822103271966 
1325	 1.01802744155584 
1326	 1.0178278835013 
1327	 1.01756924839853 
1328	 1.01736989567452 
1329	 1.0172229269086 
1330	 1.01703419615853 
1331	 1.01685410311385 
1332	 1.01666881412967 
1333	 1.01646759072505 
1334	 1.01624245942818 
1335	 1.01600280240839 
1336	 1.01577709185702 
1337	 1.01549709945938 
1338	 1.01516322419407 
1339	 1.01485266962726 
1340	 1.01453576296682 
1341	 1.01420454515975 
1342	 1.01386303375401 
1343	 1.01352171719002 
1344	 1.01318301602842 
1345	 1.01280923428516 
1346	 1.01242998290265 
1347	 1.01202361505947 
1348	 1.01158238978345 
1349	 1.01113270970729 
1350	 1.01066755347025 
1351	 1.01019061143465 
1352	 1.00970217358181 
1353	 1.00918679244477 
1354	 1.00864499822957 
1355	 1.00810754689579 
1356	 1.00755917315273 
1357	 1.00698983969062 
1358	 1.00638594705857 
1359	 1.005815825781 
1360	 1.00523760510611 
1361	 1.00466513134807 
1362	 1.00412801085194 
1363	 1.00363866767771 
1364	 1.00316382637897 
1365	 1.00270795156072 
1366	 1.00227070017522 
1367	 1.00187235969733 
1368	 1.00146378395388 
1369	 1.00109039885703 
1370	 1.00064290578077 
1371	 1.00018662479451 
1372	 0.999689233526747 
1373	 0.999155152347216 
1374	 0.998563220670252 
1375	 0.997969767533119 
1376	 0.99725717109301 
1377	 0.996417014894531 
1378	 0.99558941066132 
1379	 0.994688722042049 
1380	 0.993787603852541 
1381	 0.992880411141861 
1382	 0.991932892726831 
1383	 0.990917956975779 
1384	 0.989933066437791 
1385	 0.988976491654215 
1386	 0.987967576979803 
1387	 0.987007699182869 
1388	 0.985951642250906 
1389	 0.984872020388479 
1390	 0.983676760384032 
1391	 0.982433321302159 
1392	 0.981023039500433 
1393	 0.979603279836018 
1394	 0.978063363914712 
1395	 0.976496033732359 
1396	 0.974874100411139 
1397	 0.973230533319278 
1398	 0.971547584088272 
1399	 0.969788681500538 
1400	 0.968012369623994 
1401	 0.966113080416661 
1402	 0.964192824479252 
1403	 0.962003021005925 
1404	 0.959774365424302 
1405	 0.957182347898008 
1406	 0.954327451213623 
1407	 0.951250864020823 
1408	 0.947703734288566 
1409	 0.944400255847668 
1410	 0.940646122290618 
1411	 0.937643945367493 
1412	 0.934628636561253 
1413	 0.932576057836468 
1414	 0.931083708725096 
1415	 0.9302706107592 
1416	 0.930466074221173 
1417	 0.930725833371718 
1418	 0.931793221892437 
1419	 0.932549478450979 
1420	 0.933593089781603 
1421	 0.934258408383684 
1422	 0.934774139136591 
1423	 0.93504686339593 
1424	 0.93502382664143 
1425	 0.934851723089489 
1426	 0.93456271481713 
1427	 0.934156359722057 
1428	 0.933729083289978 
1429	 0.933268076849573 
1430	 0.932808518949189 
1431	 0.932301005905223 
1432	 0.931827393100201 
1433	 0.931360229822371 
1434	 0.930895196513829 
1435	 0.93042628507924 
1436	 0.929975245177177 
1437	 0.929531986234668 
1438	 0.929100616075781 
1439	 0.928684378911213 
1440	 0.928270987277604 
1441	 0.927857209436534 
1442	 0.927467006584789 
1443	 0.927087339828395 
1444	 0.926721017886502 
1445	 0.926373833395888 
1446	 0.92603859534295 
1447	 0.925709423711089 
1448	 0.92540128098675 
1449	 0.925114070283423 
1450	 0.924834131160837 
1451	 0.924582148980939 
1452	 0.924314032082076 
1453	 0.924033746705824 
1454	 0.923780382647167 
1455	 0.923526111407524 
1456	 0.923291732456184 
1457	 0.923103328988397 
1458	 0.922887833298636 
1459	 0.922675219018423 
1460	 0.922447582993501 
1461	 0.922183041672962 
1462	 0.921949607142369 
1463	 0.921706769389939 
1464	 0.921496676747855 
1465	 0.921324442728025 
1466	 0.921158978557269 
1467	 0.921003022648136 
1468	 0.920830048282129 
1469	 0.920662446837748 
1470	 0.920532890460408 
1471	 0.920421325666821 
1472	 0.920348981545535 
1473	 0.920251658144564 
1474	 0.920171355130945 
1475	 0.920059180892441 
1476	 0.919927241131592 
1477	 0.91980186931487 
1478	 0.919673294716779 
1479	 0.919529303862336 
1480	 0.919389908069468 
1481	 0.919215224305349 
1482	 0.919020739382658 
1483	 0.918796673949982 
1484	 0.918532016946494 
1485	 0.91828448589867 
1486	 0.918005282612627 
1487	 0.917764255206246 
1488	 0.917542023175704 
1489	 0.91732662525084 
1490	 0.917121202355515 
1491	 0.91692955057931 
1492	 0.916744833381267 
1493	 0.91658130523791 
1494	 0.916432285726839 
1495	 0.916306883168761 
1496	 0.91620078741571 
1497	 0.916114605676769 
1498	 0.916029779089319 
1499	 0.916002527425621 
1500	 0.916010047687484 
1501	 0.916050286579794 
1502	 0.916156938738507 
1503	 0.916258468245639 
1504	 0.916369332799759 
1505	 0.916507981730129 
1506	 0.916661440321758 
1507	 0.916843295715334 
1508	 0.917072715871832 
1509	 0.917292578806633 
1510	 0.917522197393897 
1511	 0.917761660519695 
1512	 0.917994959993209 
1513	 0.918251869213375 
1514	 0.918549602278698 
1515	 0.918828269441049 
1516	 0.919101050826806 
1517	 0.91938715520845 
1518	 0.919680769564803 
1519	 0.919960545986818 
1520	 0.92024473604429 
1521	 0.920518334174941 
1522	 0.920802752802775 
1523	 0.921124161200887 
1524	 0.921450758301364 
1525	 0.921817784040317 
1526	 0.922164849249381 
1527	 0.922507847386344 
1528	 0.92284997134847 
1529	 0.923192121703827 
1530	 0.923553350361885 
1531	 0.923905075619424 
1532	 0.924302614781327 
1533	 0.924733698732352 
1534	 0.925169757453156 
1535	 0.92563175492068 
1536	 0.926084735719631 
1537	 0.926548510712538 
1538	 0.927007956449315 
1539	 0.927476797011809 
1540	 0.927920925897956 
1541	 0.928358104013457 
1542	 0.928786773904914 
1543	 0.92921159212748 
1544	 0.929595932394068 
1545	 0.929964849661049 
1546	 0.930311534052099 
1547	 0.93062852248617 
1548	 0.930914884688204 
1549	 0.931192842029966 
1550	 0.931422865117302 
1551	 0.931599331597919 
1552	 0.931764736046385 
1553	 0.931897494102638 
1554	 0.932025589025527 
1555	 0.932126075992484 
1556	 0.932230231117359 
1557	 0.932319681523877 
1558	 0.93242303093766 
1559	 0.932535555968277 
1560	 0.932628547568332 
1561	 0.932718336133711 
1562	 0.932807252953191 
1563	 0.932858031763406 
1564	 0.93296170298726 
1565	 0.933097629654268 
1566	 0.933230919752121 
1567	 0.933382985308245 
1568	 0.93354501284274 
1569	 0.933705998323506 
1570	 0.933888799770417 
1571	 0.934112614725616 
1572	 0.934307603043385 
1573	 0.934492326835389 
1574	 0.934690368932766 
1575	 0.934889262905263 
1576	 0.935080831863366 
1577	 0.935273053178387 
1578	 0.93547716283177 
1579	 0.935670108570283 
1580	 0.93587965751861 
1581	 0.936123104725025 
1582	 0.93634435069182 
1583	 0.936559806321645 
1584	 0.936771855907959 
1585	 0.936977442204423 
1586	 0.937178997462971 
1587	 0.937374159928398 
1588	 0.937569747122636 
1589	 0.937744728153187 
1590	 0.937952301297604 
1591	 0.938180872375141 
1592	 0.938405366884444 
1593	 0.938659001918481 
1594	 0.938889156827954 
1595	 0.939105380007084 
1596	 0.939317960015355 
1597	 0.939520576130195 
1598	 0.939721497602711 
1599	 0.93990020484015 
1600	 0.940107927596105 
1601	 0.94032659170344 
1602	 0.940555161389482 
1603	 0.940823352011255 
1604	 0.941059643647029 
1605	 0.941278340005008 
1606	 0.941503477948756 
1607	 0.941730118882422 
1608	 0.941937635403996 
1609	 0.942158667967258 
1610	 0.942339563534367 
1611	 0.942455142560589 
1612	 0.942609178442564 
1613	 0.942769791931241 
1614	 0.942918541712332 
1615	 0.943087662280717 
1616	 0.943239206606205 
1617	 0.943350992721679 
1618	 0.9434916870154 
1619	 0.943670321078568 
1620	 0.943806492265608 
1621	 0.943937927604495 
1622	 0.944046653566824 
1623	 0.944104301441108 
1624	 0.944181255568752 
1625	 0.944255867679273 
1626	 0.944337405785748 
1627	 0.944435401597604 
1628	 0.944510431533175 
1629	 0.944576260453868 
1630	 0.94464001681993 
1631	 0.944689698211259 
1632	 0.944740185296629 
1633	 0.944793648519434 
1634	 0.94483935856029 
1635	 0.944855936798024 
1636	 0.944904049967175 
1637	 0.944987206896118 
1638	 0.945039435033624 
1639	 0.945103314835378 
1640	 0.945146998241326 
1641	 0.945145861223551 
1642	 0.945161322293911 
1643	 0.945206493256195 
1644	 0.945202646246808 
1645	 0.945175420003726 
1646	 0.945134873505365 
1647	 0.945032546768378 
1648	 0.944976213146636 
1649	 0.944972060579431 
1650	 0.944904008351806 
1651	 0.944827731441552 
1652	 0.944722989295497 
1653	 0.94457035048011 
1654	 0.94439593879451 
1655	 0.944217843713829 
1656	 0.943998348426361 
1657	 0.943716033914034 
1658	 0.943442254888292 
1659	 0.943186364258144 
1660	 0.942857465233908 
1661	 0.942499187035291 
1662	 0.942094890772274 
1663	 0.941622868548498 
1664	 0.941113355045617 
1665	 0.940583295732691 
1666	 0.939980264117544 
1667	 0.939296126269838 
1668	 0.938614326659051 
1669	 0.937934914893665 
1670	 0.937140859576979 
1671	 0.93629485591532 
1672	 0.935367975707451 
1673	 0.934329502417751 
1674	 0.933235679168894 
1675	 0.932084025061734 
1676	 0.930905611962142 
1677	 0.929641223323464 
1678	 0.928377263107779 
1679	 0.927077213359693 
1680	 0.925767534179273 
1681	 0.924418386909786 
1682	 0.923084399322326 
1683	 0.921741046313997 
1684	 0.920450680399449 
1685	 0.91916256822192 
1686	 0.917924825443706 
1687	 0.916726502890329 
1688	 0.915548108149992 
1689	 0.914364505169288 
1690	 0.913295837343259 
1691	 0.912282761062032 
1692	 0.911376452808075 
1693	 0.910627589798621 
1694	 0.909817568412809 
1695	 0.909043671832375 
1696	 0.908263298868796 
1697	 0.907484968530874 
1698	 0.906671668645017 
1699	 0.905898380319242 
1700	 0.905062708608985 
1701	 0.904162169080691 
1702	 0.903274662827445 
1703	 0.902360441216063 
1704	 0.90143274778783 
1705	 0.900485697483267 
1706	 0.899496642200706 
1707	 0.898580978657153 
1708	 0.897621737294428 
1709	 0.89669790177625 
1710	 0.895823005312813 
1711	 0.894864032535241 
1712	 0.893960337445192 
1713	 0.893017225473637 
1714	 0.892016789669176 
1715	 0.891044596081574 
1716	 0.889924091030988 
1717	 0.888779540221762 
1718	 0.887606665949153 
1719	 0.886314482953588 
1720	 0.885071335101701 
1721	 0.883835408528126 
1722	 0.882611671911901 
1723	 0.881538403873473 
1724	 0.880523716600439 
1725	 0.879628312718784 
1726	 0.878881789067344 
1727	 0.878242051329993 
1728	 0.877838961390894 
1729	 0.877633203705178 
1730	 0.877632663899939 
1731	 0.877814617136642 
1732	 0.878159704997805 
1733	 0.878641244140792 
1734	 0.87924875238123 
1735	 0.879980391544795 
1736	 0.880738024718679 
1737	 0.881481186822613 
1738	 0.882161137358559 
1739	 0.882795294434844 
1740	 0.88338735429804 
1741	 0.883948498119457 
1742	 0.884503531668906 
1743	 0.884982966489026 
1744	 0.88540248201465 
1745	 0.885777628453261 
1746	 0.886108992975169 
1747	 0.886345718648267 
1748	 0.886509727439493 
1749	 0.886628236798445 
1750	 0.886655010182806 
1751	 0.886659808405772 
1752	 0.886629183374578 
1753	 0.886559612167237 
1754	 0.886422232818254 
1755	 0.886303023572992 
1756	 0.886154871651094 
1757	 0.886013010660155 
1758	 0.885844440576308 
1759	 0.885702427167609 
1760	 0.885642217461145 
1761	 0.885602633294663 
1762	 0.885647348031202 
1763	 0.885771254741184 
1764	 0.885924020725783 
1765	 0.886201640217292 
1766	 0.886576540459048 
1767	 0.887009289767376 
1768	 0.887526814374474 
1769	 0.888041337206119 
1770	 0.888526292797176 
1771	 0.88903933610189 
1772	 0.889548074279148 
1773	 0.890065694070232 
1774	 0.890601065349806 
1775	 0.891084365957607 
1776	 0.891535302384492 
1777	 0.891963635420624 
1778	 0.892305399861219 
1779	 0.892571923758307 
1780	 0.892792454884961 
1781	 0.892941846955648 
1782	 0.893065008160314 
1783	 0.893207694266057 
1784	 0.893338193652689 
1785	 0.893404533636782 
1786	 0.893498083285816 
1787	 0.893578375201251 
1788	 0.893644670078333 
1789	 0.893738133860816 
1790	 0.893816888664971 
1791	 0.893872783811163 
1792	 0.893939993543771 
1793	 0.89401835127642 
1794	 0.894015295420708 
1795	 0.893992755278233 
1796	 0.893924774732321 
1797	 0.893881982490442 
1798	 0.893922400739573 
1799	 0.893931498657674 
1800	 0.893935302572795 
1801	 0.884607260119507 
1802	 0.88488394662938 
1803	 0.885223095741274 
1804	 0.885665848523972 
1805	 0.886187562576316 
1806	 0.886650851881976 
1807	 0.887188275850432 
1808	 0.887637718780067 
1809	 0.888082046812559 
1810	 0.888430673352115 
1811	 0.888737890846368 
1812	 0.888987733234823 
1813	 0.889146562983624 
1814	 0.889288732519054 
1815	 0.889406567002509 
1816	 0.8895084295988 
1817	 0.889584162085105 
1818	 0.889625058504423 
1819	 0.889671736659945 
1820	 0.889690111147848 
1821	 0.889715475853818 
1822	 0.889736468042611 
1823	 0.889764923458887 
1824	 0.889789941595276 
1825	 0.889824806362067 
1826	 0.889858595382382 
1827	 0.889909025809857 
1828	 0.889929470226349 
1829	 0.889942432498184 
1830	 0.889947942568239 
1831	 0.889952461209253 
1832	 0.889923754253191 
1833	 0.889882198695513 
1834	 0.889839949141556 
1835	 0.88972101846289 
1836	 0.88962714687698 
1837	 0.889572006104981 
1838	 0.889509372673634 
1839	 0.889486135502449 
1840	 0.889524205097859 
1841	 0.889542606126541 
1842	 0.889569168550102 
1843	 0.889601051708969 
1844	 0.889655522629499 
1845	 0.889703083044372 
1846	 0.88969878927435 
1847	 0.889664826784427 
1848	 0.889599782579377 
1849	 0.889472816908133 
1850	 0.889352796799712 
1851	 0.889222917388575 
1852	 0.889081535587526 
1853	 0.888888474548932 
1854	 0.888681193342626 
1855	 0.888470684494788 
1856	 0.888206918885961 
1857	 0.887896045549405 
1858	 0.887546358241812 
1859	 0.887156339200579 
1860	 0.886709285450965 
1861	 0.886211501881072 
1862	 0.885682787862434 
1863	 0.885140911657196 
1864	 0.884456826234043 
1865	 0.883688522316098 
1866	 0.882834891997497 
1867	 0.881812326401058 
1868	 0.880703883034588 
1869	 0.879504573776159 
1870	 0.878243559181191 
1871	 0.876866499015202 
1872	 0.875518016683848 
1873	 0.874103117926303 
1874	 0.872718921262451 
1875	 0.871383138449662 
1876	 0.86989841779251 
1877	 0.86850266034184 
1878	 0.866998461259041 
1879	 0.865357798853539 
1880	 0.863796289652567 
1881	 0.86207701306573 
1882	 0.860230615601128 
1883	 0.858338939451225 
1884	 0.856337501732252 
1885	 0.854000843149382 
1886	 0.8515922847004 
1887	 0.848920794043534 
1888	 0.845974357464266 
1889	 0.843145252034629 
1890	 0.840048542950623 
1891	 0.836867738183041 
1892	 0.833660432231256 
1893	 0.830178067823987 
1894	 0.826410154795954 
1895	 0.822690043176378 
1896	 0.818737849804755 
1897	 0.814613487622452 
1898	 0.810764911707596 
1899	 0.806659772271419 
1900	 0.802593915329932 
1901	 0.798590226436125 
1902	 0.79419937324872 
1903	 0.789958062965778 
1904	 0.785768055406872 
1905	 0.78152241589399 
1906	 0.777341200717355 
1907	 0.773604736259242 
1908	 0.769792574756889 
1909	 0.766122195706742 
1910	 0.762630920964196 
1911	 0.758873080497562 
1912	 0.755316210139477 
1913	 0.751800521834909 
1914	 0.748215381481428 
1915	 0.744897979302228 
1916	 0.741827498104657 
1917	 0.738708386405367 
1918	 0.73570247036687 
1919	 0.732872126786129 
1920	 0.729866153166568 
1921	 0.727048142290741 
1922	 0.724278558258794 
1923	 0.721464998704625 
1924	 0.718997713243613 
1925	 0.716598283027493 
1926	 0.714288662940663 
1927	 0.712184419428604 
1928	 0.710076775498076 
1929	 0.70797350262001 
1930	 0.706016632141379 
1931	 0.704157361313181 
1932	 0.70239542307204 
1933	 0.700893569621875 
1934	 0.699421247937264 
1935	 0.698044216036059 
1936	 0.696824036169042 
1937	 0.695646381478824 
1938	 0.694511877692642 
1939	 0.693538700898208 
1940	 0.692672138061315 
1941	 0.691885126684689 
1942	 0.691288442377805 
1943	 0.690790834164838 
1944	 0.690376775317552 
1945	 0.690097977113732 
1946	 0.689915542587945 
1947	 0.68982249140938 
1948	 0.689841676220739 
1949	 0.689947509114823 
1950	 0.690111154795203 
1951	 0.690353597202409 
1952	 0.690655857104489 
1953	 0.691018146923885 
1954	 0.691455088088779 
1955	 0.691992309391443 
1956	 0.692525678784117 
1957	 0.693121013254987 
1958	 0.693797249458629 
1959	 0.694450204434559 
1960	 0.695172612253944 
1961	 0.6959253717334 
1962	 0.696717160999375 
1963	 0.697527107733537 
1964	 0.698386650545037 
1965	 0.699243671448659 
1966	 0.700139398027248 
1967	 0.701025467670219 
1968	 0.701848168405815 
1969	 0.702696252946796 
1970	 0.703505234364476 
1971	 0.704321766808247 
1972	 0.705230325423681 
1973	 0.706080776172753 
1974	 0.706944772132757 
1975	 0.707831293333206 
1976	 0.708696211599692 
1977	 0.709539012074017 
1978	 0.710410931944382 
1979	 0.71129150132137 
1980	 0.71214181486985 
1981	 0.713083466049527 
1982	 0.71398798508746 
1983	 0.714926274192097 
1984	 0.715929670556439 
1985	 0.716825469700256 
1986	 0.717738270387946 
1987	 0.718636150186682 
1988	 0.719470499511632 
1989	 0.720360627022957 
1990	 0.72130061485616 
1991	 0.722188644598432 
1992	 0.723071029676245 
1993	 0.72398253142558 
1994	 0.724782284870687 
1995	 0.725607276844442 
1996	 0.726425879817843 
1997	 0.727215039982202 
1998	 0.728068258860632 
1999	 0.72895813334381 
2000	 0.729835539695668 
2001	 0.730767303226964 
2002	 0.731651975669341 
2003	 0.73252029811209 
2004	 0.73337877138441 
2005	 0.734184764474116 
2006	 0.735036503777625 
2007	 0.73593647886515 
2008	 0.736775016055658 
2009	 0.737616182459039 
2010	 0.738461649417019 
2011	 0.739174299770447 
2012	 0.739884607902672 
2013	 0.740559550525962 
2014	 0.741190958185292 
2015	 0.741805379377832 
2016	 0.742415725986667 
2017	 0.742950532731345 
2018	 0.743477860359391 
2019	 0.74390560047912 
2020	 0.744253029170057 
2021	 0.744544841809239 
2022	 0.744758528136721 
2023	 0.744882712321415 
2024	 0.744962769735335 
2025	 0.744942484105505 
2026	 0.744832145853772 
2027	 0.744612182790328 
2028	 0.744365607048593 
2029	 0.744029893134311 
2030	 0.743655896212477 
2031	 0.743232361247351 
2032	 0.742768783446485 
2033	 0.742186399094107 
2034	 0.741663117135377 
2035	 0.74111042848834 
2036	 0.740596777175418 
2037	 0.740135287832269 
2038	 0.739714397033264 
2039	 0.739368285843547 
2040	 0.739060048648986 
2041	 0.738872200716415 
2042	 0.738746375485112 
2043	 0.738748365818916 
2044	 0.738890836362362 
2045	 0.739077907619767 
2046	 0.739379456237303 
2047	 0.739715120457791 
2048	 0.740080323217284 
2049	 0.740545804209604 
2050	 0.741120740232663 
2051	 0.741702090649913 
2052	 0.742379836951233 
2053	 0.743142218854696 
2054	 0.743882891849098 
2055	 0.744638605513348 
2056	 0.745451833820854 
2057	 0.746266082590488 
2058	 0.747180965679581 
2059	 0.748197022232123 
2060	 0.749192858285229 
2061	 0.750282932903467 
2062	 0.751310510232153 
2063	 0.752288619637234 
2064	 0.753319696985944 
2065	 0.75433907607383 
2066	 0.755385890240733 
2067	 0.756585143984382 
2068	 0.75770927940244 
2069	 0.758824191328801 
2070	 0.760003846637534 
2071	 0.76105817971628 
2072	 0.762011618676634 
2073	 0.762999096479801 
2074	 0.763935134205986 
2075	 0.764896881499688 
2076	 0.765893031231999 
2077	 0.76682038669637 
2078	 0.767770421725091 
2079	 0.768617969933728 
2080	 0.769355166106612 
2081	 0.770107491201171 
2082	 0.770818064540711 
2083	 0.771477609985848 
2084	 0.772200496881836 
2085	 0.772867604672031 
2086	 0.773499810065803 
2087	 0.774117460315441 
2088	 0.774684431811603 
2089	 0.775189907729758 
2090	 0.775686389904562 
2091	 0.776136061249577 
2092	 0.776588582452111 
2093	 0.777046827135034 
2094	 0.777452774913489 
2095	 0.77785921377613 
2096	 0.778198674892518 
2097	 0.778477292398974 
2098	 0.778695754657212 
2099	 0.778917503629606 
2100	 0.77913897722073 
2101	 0.779350878489743 
2102	 0.779581631461858 
2103	 0.779747046857625 
2104	 0.779875526205473 
2105	 0.779985942624429 
2106	 0.78004763326591 
2107	 0.780125879554668 
2108	 0.780179985277163 
2109	 0.780255900817257 
2110	 0.780352516837974 
2111	 0.780417649151598 
2112	 0.780491407224369 
2113	 0.780541095344667 
2114	 0.78053906645395 
2115	 0.780559665594565 
2116	 0.780604227302764 
2117	 0.780605944525696 
2118	 0.780607640874914 
2119	 0.780613989043926 
2120	 0.780607824057744 
2121	 0.780579270970878 
2122	 0.780548428830962 
2123	 0.780552346185202 
2124	 0.780464419684799 
2125	 0.780346543576068 
2126	 0.780171592959884 
2127	 0.77994876907103 
2128	 0.779651570788855 
2129	 0.779270240677265 
2130	 0.778878564697826 
2131	 0.778431048235684 
2132	 0.777948226848965 
2133	 0.777486742530719 
2134	 0.776925895344973 
2135	 0.77621017269691 
2136	 0.775491132835125 
2137	 0.774653640566467 
2138	 0.773678927524412 
2139	 0.772705989966414 
2140	 0.771686827665632 
2141	 0.770590728658587 
2142	 0.76944047986674 
2143	 0.768229776376064 
2144	 0.766921676659734 
2145	 0.76562477341393 
2146	 0.764230821693456 
2147	 0.762917526004123 
2148	 0.761661413026773 
2149	 0.760335954931673 
2150	 0.759075872080053 
2151	 0.757701757132174 
2152	 0.756194194888046 
2153	 0.754727005888179 
2154	 0.753176418078152 
2155	 0.751573889433978 
2156	 0.750041024981237 
2157	 0.748517951661813 
2158	 0.746969493305813 
2159	 0.745474989360468 
2160	 0.743881917869051 
2161	 0.742206240933035 
2162	 0.740582906713014 
2163	 0.738875355884355 
2164	 0.737300538313113 
2165	 0.73580326786324 
2166	 0.734307349202076 
2167	 0.732876794263523 
2168	 0.731461624883975 
2169	 0.729994141423211 
2170	 0.728673197191496 
2171	 0.727410057573286 
2172	 0.726251586274226 
2173	 0.725230669439298 
2174	 0.724242016001025 
2175	 0.723374341320955 
2176	 0.72259531341813 
2177	 0.721835184395915 
2178	 0.721134442752655 
2179	 0.720530131460016 
2180	 0.719974803673567 
2181	 0.719501471131452 
2182	 0.719164023389997 
2183	 0.71880812357084 
2184	 0.718466946263312 
2185	 0.718202077502155 
2186	 0.71798709694674 
2187	 0.717835251986481 
2188	 0.717757470832622 
2189	 0.717722253573407 
2190	 0.717762567444209 
2191	 0.71781854899503 
2192	 0.717911403622209 
2193	 0.718047694459222 
2194	 0.718279461335127 
2195	 0.71845600207287 
2196	 0.718641196099648 
2197	 0.718830680930026 
2198	 0.718998366222204 
2199	 0.719137713149493 
2200	 0.719317039014147 
2201	 0.719533409147574 
2202	 0.719735177361674 
2203	 0.719950302480496 
2204	 0.720118686923718 
2205	 0.720275643922029 
2206	 0.720419502816686 
2207	 0.720517265717381 
2208	 0.72064040991918 
2209	 0.720781742652183 
2210	 0.720891577851225 
2211	 0.720993259875787 
2212	 0.72106914271961 
2213	 0.721131693537988 
2214	 0.721169285849204 
2215	 0.721139197163669 
2216	 0.721170245469567 
2217	 0.721222941604806 
2218	 0.721251109686002 
2219	 0.721323699627896 
2220	 0.721356927014191 
2221	 0.721331349942225 
2222	 0.721338191179589 
2223	 0.721328302908175 
2224	 0.721264566830074 
2225	 0.721210268538362 
2226	 0.721087663991291 
2227	 0.720946033054204 
2228	 0.720802939845805 
2229	 0.720566067231972 
2230	 0.720283286618717 
2231	 0.719908060300229 
2232	 0.719438817082846 
2233	 0.718930514765178 
2234	 0.718392725753009 
2235	 0.717707561965014 
2236	 0.716970851536387 
2237	 0.716076054064667 
2238	 0.714966961218453 
2239	 0.713864952406266 
2240	 0.712691457265527 
2241	 0.711422641826082 
2242	 0.710163028590591 
2243	 0.708702687060593 
2244	 0.707069518616384 
2245	 0.705366379168749 
2246	 0.703457545371126 
2247	 0.70156254324931 
2248	 0.6996443101988 
2249	 0.69762930106928 
2250	 0.695568527167944 
2251	 0.693456536082787 
2252	 0.691074069604162 
2253	 0.688761264577898 
2254	 0.686336670078673 
2255	 0.683804842166957 
2256	 0.681513282551616 
2257	 0.679148826704698 
2258	 0.676874979389162 
2259	 0.674686976670064 
2260	 0.672516485742617 
2261	 0.670329071257836 
2262	 0.668308972389819 
2263	 0.66634442648317 
2264	 0.664538949031259 
2265	 0.662887855311562 
2266	 0.661290490892954 
2267	 0.659865650952897 
2268	 0.658386025110359 
2269	 0.656937435006316 
2270	 0.655541908001796 
2271	 0.65412478053937 
2272	 0.65284007203161 
2273	 0.651710820257824 
2274	 0.650509789075329 
2275	 0.649404135823189 
2276	 0.648191095126878 
2277	 0.646864504617173 
2278	 0.64561992458033 
2279	 0.644360599478701 
2280	 0.643118757146228 
2281	 0.641922726256224 
2282	 0.640719234531311 
2283	 0.639488221985558 
2284	 0.638305179248783 
2285	 0.637142583001683 
2286	 0.636064677715523 
2287	 0.634975962766667 
2288	 0.63393151482169 
2289	 0.632993401059581 
2290	 0.632080346884933 
2291	 0.631267913280326 
2292	 0.630477511129068 
2293	 0.629575006170277 
2294	 0.628620278577748 
2295	 0.627550616894381 
2296	 0.626398121850667 
2297	 0.625316798113314 
2298	 0.62424023171417 
2299	 0.623120061152654 
2300	 0.622004009930286 
2301	 0.620884597025763 
2302	 0.619681015273214 
2303	 0.61858570796882 
2304	 0.6174695946797 
2305	 0.616581504893642 
2306	 0.615710307359505 
2307	 0.615163359850943 
2308	 0.614852554053258 
2309	 0.614787924436209 
2310	 0.614916819801783 
2311	 0.615406244450122 
2312	 0.616316774194039 
2313	 0.617258351558273 
2314	 0.618536469092485 
2315	 0.619823261401585 
2316	 0.621289760336093 
2317	 0.62259009459557 
2318	 0.62406301441133 
2319	 0.625194494482929 
2320	 0.62616898639878 
2321	 0.626889060253682 
2322	 0.627335844190541 
2323	 0.627679812712759 
2324	 0.627745893099252 
2325	 0.627776046753122 
2326	 0.627695179902378 
2327	 0.627542566857946 
2328	 0.627239791195756 
2329	 0.626928810712331 
2330	 0.626593660591346 
2331	 0.626144422822186 
2332	 0.625627611001303 
2333	 0.625064171181813 
2334	 0.624307915861918 
2335	 0.623433519335378 
2336	 0.622381212128164 
2337	 0.621228288038405 
2338	 0.6201068409702 
2339	 0.618841304607193 
2340	 0.617585539466499 
2341	 0.616254477011109 
2342	 0.614738509602908 
2343	 0.613362430012235 
2344	 0.612089472410493 
2345	 0.610869992150663 
2346	 0.609915342070746 
2347	 0.60914523982621 
2348	 0.608614032823818 
2349	 0.608483512307933 
2350	 0.608684340586491 
2351	 0.60914313841804 
2352	 0.609809562975254 
2353	 0.610861116383619 
2354	 0.612030342735667 
2355	 0.613350296944367 
2356	 0.614801415254186 
2357	 0.616136459338718 
2358	 0.617486083086708 
2359	 0.618713907167514 
2360	 0.619774306098253 
2361	 0.620690014419407 
2362	 0.621419795192266 
2363	 0.622000042999426 
2364	 0.62252387932208 
2365	 0.622997554717116 
2366	 0.623463802025562 
2367	 0.623859549476311 
2368	 0.624182752696432 
2369	 0.62445415041006 
2370	 0.624623514091724 
2371	 0.624812161461038 
2372	 0.624948191096199 
2373	 0.625040637235697 
2374	 0.625140919840308 
2375	 0.625152120829747 
2376	 0.625144492950903 
2377	 0.625127299355944 
2378	 0.625038829547838 
2379	 0.624940785673069 
2380	 0.624850783647871 
2381	 0.624745398460148 
2382	 0.624647180961068 
2383	 0.624572048118651 
2384	 0.624436736903075 
2385	 0.624234568097301 
2386	 0.624128933193198 
2387	 0.624054886806755 
2388	 0.62393064854504 
2389	 0.623832094104439 
2390	 0.623768539723592 
2391	 0.62369312027299 
2392	 0.623564523304325 
2393	 0.623490003833975 
2394	 0.623353469049895 
2395	 0.62306321386105 
2396	 0.622882392286514 
2397	 0.622774699342993 
2398	 0.622625846730544 
2399	 0.62250178522826 
2400	 0.622352396382046 
2401	 0.622175407039847 
2402	 0.621974636353593 
2403	 0.621783818896026 
2404	 0.621664610720193 
2405	 0.621444399551783 
2406	 0.621159669604815 
2407	 0.621000600560485 
2408	 0.620808176295193 
2409	 0.620634112561224 
2410	 0.620507780311719 
2411	 0.620258772083959 
2412	 0.619885939208537 
2413	 0.619619348816797 
2414	 0.619422672071339 
2415	 0.619196049621678 
2416	 0.619050364558474 
2417	 0.618872071267267 
2418	 0.618653815096188 
2419	 0.618406795878297 
2420	 0.618122621686827 
2421	 0.617730513478782 
2422	 0.61723751096145 
2423	 0.616804067481231 
2424	 0.616309265938743 
2425	 0.615856320146611 
2426	 0.615482151362283 
2427	 0.615131086589334 
2428	 0.614914219547836 
2429	 0.614607876083626 
2430	 0.614157540870937 
2431	 0.613644482577217 
2432	 0.613102879759551 
2433	 0.612566910927468 
2434	 0.611965163309396 
2435	 0.611310281986451 
2436	 0.610616706925573 
2437	 0.609902185239147 
2438	 0.609222528168105 
2439	 0.608484353558332 
2440	 0.607684257109237 
2441	 0.606764310001162 
2442	 0.605695154199054 
2443	 0.60482603828616 
2444	 0.604014888377773 
2445	 0.603207285572398 
2446	 0.602455818959658 
2447	 0.601496844060262 
2448	 0.600426552033857 
2449	 0.599272253614139 
2450	 0.598335887324858 
2451	 0.597648240986343 
2452	 0.596682707873529 
2453	 0.595599454139262 
2454	 0.594350139852851 
2455	 0.59290823902768 
2456	 0.591891058840912 
2457	 0.591069818182235 
2458	 0.590190842496567 
2459	 0.589539078920651 
2460	 0.588865078485807 
2461	 0.587861835941926 
2462	 0.586866282499501 
2463	 0.586016763121472 
2464	 0.585000625662476 
2465	 0.584152124614144 
2466	 0.583457151265665 
2467	 0.582567128546673 
2468	 0.581779240403164 
2469	 0.581014857306849 
2470	 0.580134956810961 
2471	 0.57937397989846 
2472	 0.578381235055048 
2473	 0.577227871785264 
2474	 0.57654359885931 
2475	 0.575826604316722 
2476	 0.574965519108919 
2477	 0.574254680227806 
2478	 0.573550959946111 
2479	 0.572826709355367 
2480	 0.572466414585411 
2481	 0.572101699649339 
2482	 0.571548346489592 
2483	 0.571176294940167 
2484	 0.570783930107067 
2485	 0.570202308328533 
2486	 0.569728634349807 
2487	 0.568791797888786 
2488	 0.567668723444283 
2489	 0.566785672730559 
2490	 0.566034778294135 
2491	 0.56537757032915 
2492	 0.564839130487473 
2493	 0.564360903817675 
2494	 0.563429753340106 
2495	 0.56286292065995 
2496	 0.562877414770263 
2497	 0.562098122390731 
2498	 0.561411249946047 
2499	 0.561098352089327 
2500	 0.560305907514828 
