Wavelength	ProbetaAcolman00024.asd
350	 0.618686007164945 
351	 0.621388411468302 
352	 0.617466287563532 
353	 0.599625769316062 
354	 0.590306465900045 
355	 0.594499591762826 
356	 0.586078905374017 
357	 0.554854376625519 
358	 0.563000710214265 
359	 0.563773774558801 
360	 0.555028693505505 
361	 0.55539207542521 
362	 0.538745543782325 
363	 0.531789381316334 
364	 0.540382118618831 
365	 0.536283437601215 
366	 0.527256252789075 
367	 0.526385667678146 
368	 0.538772254668364 
369	 0.543968701696389 
370	 0.530768219170118 
371	 0.516107073379645 
372	 0.526429273200699 
373	 0.525615744772161 
374	 0.51316953501929 
375	 0.499564456068363 
376	 0.505527033583957 
377	 0.509773815911581 
378	 0.509388475040736 
379	 0.507153253942887 
380	 0.506920015608434 
381	 0.508424625306751 
382	 0.510225745494878 
383	 0.510400392073587 
384	 0.50753958390839 
385	 0.508262282390728 
386	 0.513406041151304 
387	 0.514700391886598 
388	 0.513089535841128 
389	 0.512193095940177 
390	 0.514928079998232 
391	 0.519960704927178 
392	 0.51834783733373 
393	 0.514468399427873 
394	 0.519477753229835 
395	 0.523708330973461 
396	 0.52424850160538 
397	 0.522224370545733 
398	 0.523090378315709 
399	 0.524732661544216 
400	 0.528263324975155 
401	 0.533629369613074 
402	 0.532732030150738 
403	 0.535249068319526 
404	 0.540558454966429 
405	 0.541115371813049 
406	 0.545318173610391 
407	 0.549050953186486 
408	 0.549696143837397 
409	 0.54977883804358 
410	 0.554287265136183 
411	 0.560806286918399 
412	 0.565127390519576 
413	 0.566949491487561 
414	 0.569881277224643 
415	 0.574400080867339 
416	 0.578218881718034 
417	 0.583356914169399 
418	 0.586802113641984 
419	 0.587445088943031 
420	 0.590091243101588 
421	 0.592335395742392 
422	 0.594982359228754 
423	 0.599145411803523 
424	 0.600199339039839 
425	 0.601644987142322 
426	 0.604391947458445 
427	 0.605954752788477 
428	 0.607434138489114 
429	 0.609243342023661 
430	 0.611126403508926 
431	 0.61107643250284 
432	 0.612058022424604 
433	 0.614330958995077 
434	 0.616497288570231 
435	 0.616766829019034 
436	 0.617027803230166 
437	 0.618160491955551 
438	 0.618977634929115 
439	 0.619589716013859 
440	 0.620261328050148 
441	 0.621082263773323 
442	 0.621167902974073 
443	 0.621174767946364 
444	 0.621330498779303 
445	 0.6214693009508 
446	 0.621232776806873 
447	 0.620741875535448 
448	 0.62041080908682 
449	 0.621266138046839 
450	 0.621253508868137 
451	 0.620627056550151 
452	 0.620326565365919 
453	 0.619629057772261 
454	 0.61917303174717 
455	 0.618948882661139 
456	 0.618194141233339 
457	 0.617278371627438 
458	 0.616494895892236 
459	 0.615994612272557 
460	 0.615640924808607 
461	 0.614856433258764 
462	 0.613980762237848 
463	 0.613672493153359 
464	 0.612723035566615 
465	 0.611722111556574 
466	 0.610944474190795 
467	 0.609918152812783 
468	 0.608698165847761 
469	 0.607716250278815 
470	 0.607241881569744 
471	 0.606491076545235 
472	 0.605567498239336 
473	 0.604630917133123 
474	 0.603855734025889 
475	 0.603317999132214 
476	 0.602574160550626 
477	 0.601504184889526 
478	 0.600865466527873 
479	 0.600042144566459 
480	 0.599080735607622 
481	 0.598249243144304 
482	 0.597516354527699 
483	 0.596935386898581 
484	 0.596458716943568 
485	 0.59592951975581 
486	 0.595432546412789 
487	 0.594962186850901 
488	 0.594504610210024 
489	 0.594073644607467 
490	 0.593656030694119 
491	 0.593339246367184 
492	 0.593210876177544 
493	 0.592799792117799 
494	 0.592381774865308 
495	 0.592114044266455 
496	 0.591823725919503 
497	 0.59148580876208 
498	 0.591130526888623 
499	 0.59082117756725 
500	 0.590684482321547 
501	 0.590406628435886 
502	 0.589967731821025 
503	 0.589608434208457 
504	 0.589277268962954 
505	 0.589036156401872 
506	 0.588842663084682 
507	 0.588357353561839 
508	 0.587953390490993 
509	 0.587538123671948 
510	 0.58689985731503 
511	 0.586512867040484 
512	 0.586039254118519 
513	 0.585407544800387 
514	 0.584966353131102 
515	 0.584382356417337 
516	 0.583692425819196 
517	 0.582967793820156 
518	 0.582032060253408 
519	 0.581232231685741 
520	 0.580516116620585 
521	 0.579583394449484 
522	 0.578672468830258 
523	 0.577736416633962 
524	 0.576739612801874 
525	 0.575747209923575 
526	 0.57467176661472 
527	 0.573561457415887 
528	 0.572500516952115 
529	 0.571499469769542 
530	 0.570416248498452 
531	 0.569231171368056 
532	 0.568062192482483 
533	 0.566858462875699 
534	 0.565603115099726 
535	 0.564325587767958 
536	 0.563175935708592 
537	 0.561985071480861 
538	 0.560733050461929 
539	 0.55948987315997 
540	 0.558327284596264 
541	 0.557211831939728 
542	 0.55608884345687 
543	 0.554890046935328 
544	 0.553761158842776 
545	 0.552702588835578 
546	 0.551676635690492 
547	 0.550704406224529 
548	 0.549733185889786 
549	 0.54874666686298 
550	 0.547768248182384 
551	 0.546899047217597 
552	 0.546003835495104 
553	 0.54500606185378 
554	 0.54408758871398 
555	 0.543183492936668 
556	 0.542241846275357 
557	 0.541233202712617 
558	 0.540253355845775 
559	 0.5393174645292 
560	 0.538404601201239 
561	 0.537456963698859 
562	 0.536565988284154 
563	 0.535778404697469 
564	 0.53506244366515 
565	 0.534164936858343 
566	 0.533228913837409 
567	 0.532272911884406 
568	 0.531216003715272 
569	 0.530037832230082 
570	 0.528846197939747 
571	 0.527706531301447 
572	 0.526562336097581 
573	 0.525448021122118 
574	 0.524301389360112 
575	 0.523065321872825 
576	 0.521947983884558 
577	 0.520882245289467 
578	 0.519796795953927 
579	 0.518640408464263 
580	 0.517442449890815 
581	 0.516112058943986 
582	 0.514629639859849 
583	 0.513265157264538 
584	 0.511948079577171 
585	 0.510603129793633 
586	 0.509188249049331 
587	 0.508023402329949 
588	 0.506875176912239 
589	 0.505645479933792 
590	 0.504572102576914 
591	 0.503358873467602 
592	 0.502039898141235 
593	 0.500755484970565 
594	 0.49964596694882 
595	 0.498423060857053 
596	 0.497130240193853 
597	 0.496094064208491 
598	 0.495117328799803 
599	 0.493976023693212 
600	 0.49267068035447 
601	 0.491772805351022 
602	 0.490756881717518 
603	 0.489540246409808 
604	 0.488278245958736 
605	 0.487284547784172 
606	 0.486382803375166 
607	 0.485405020103287 
608	 0.484254856739642 
609	 0.483277269370792 
610	 0.482331879513762 
611	 0.481260445303495 
612	 0.480274170893037 
613	 0.479417803755446 
614	 0.478561669129514 
615	 0.477489480842877 
616	 0.476336646832176 
617	 0.47535561997756 
618	 0.474542848005989 
619	 0.473417302149634 
620	 0.47229211771485 
621	 0.47126564631493 
622	 0.470316978145632 
623	 0.469210208299705 
624	 0.468024089515016 
625	 0.466896299090682 
626	 0.465978111420321 
627	 0.464878235861748 
628	 0.46367211504774 
629	 0.462513433001292 
630	 0.461529702669187 
631	 0.460484891524482 
632	 0.459388201712639 
633	 0.45835222982193 
634	 0.457344137921981 
635	 0.456395240760128 
636	 0.455478856415859 
637	 0.454495824360398 
638	 0.453630906926919 
639	 0.45286793827413 
640	 0.452131874261169 
641	 0.451328418731452 
642	 0.450594015828333 
643	 0.449953370242644 
644	 0.449352200016499 
645	 0.448733294797873 
646	 0.448166767870371 
647	 0.447706713775584 
648	 0.447361379015916 
649	 0.446934288841249 
650	 0.446509643576481 
651	 0.446240354222105 
652	 0.446170096674281 
653	 0.446063133795507 
654	 0.445918590297178 
655	 0.445926803332349 
656	 0.446038968284941 
657	 0.446262468909581 
658	 0.446596022714197 
659	 0.447014186186347 
660	 0.447461922663384 
661	 0.448001732931043 
662	 0.448716170158196 
663	 0.449522387979312 
664	 0.450439238378933 
665	 0.451512757452826 
666	 0.452802821915862 
667	 0.454171704483216 
668	 0.455623070649286 
669	 0.457194282185237 
670	 0.458935928853913 
671	 0.46079846255303 
672	 0.462801831836306 
673	 0.464991974179339 
674	 0.467351375447643 
675	 0.469849904279849 
676	 0.472489135497946 
677	 0.475312251562538 
678	 0.47828831119677 
679	 0.48144696626292 
680	 0.484804642478755 
681	 0.488290501164965 
682	 0.492002336949059 
683	 0.49592409561535 
684	 0.499993394637326 
685	 0.504302052340321 
686	 0.508756719818197 
687	 0.513333934502646 
688	 0.518136570810554 
689	 0.523197497825317 
690	 0.528458741273885 
691	 0.533875220190097 
692	 0.539524936576508 
693	 0.545335548255789 
694	 0.551343457624708 
695	 0.557633567444876 
696	 0.564043604211398 
697	 0.570628145182645 
698	 0.577382895086863 
699	 0.584164076118526 
700	 0.591179086120108 
701	 0.598381255821672 
702	 0.605657256809594 
703	 0.612950342370061 
704	 0.620356565826377 
705	 0.62787331522672 
706	 0.635421227873166 
707	 0.64287852016411 
708	 0.650343879687457 
709	 0.657852193232865 
710	 0.665256199113706 
711	 0.672608857121326 
712	 0.679852020855908 
713	 0.686918415883671 
714	 0.693824216234409 
715	 0.700591885581117 
716	 0.707212085442774 
717	 0.713644880439189 
718	 0.719842222240421 
719	 0.725843949475618 
720	 0.731656870060592 
721	 0.737214931751759 
722	 0.742507651979597 
723	 0.747495341318242 
724	 0.75217991257884 
725	 0.756760234295776 
726	 0.761184026854248 
727	 0.765395516311449 
728	 0.769341456846656 
729	 0.773022999676889 
730	 0.776529152460986 
731	 0.77988388019758 
732	 0.782988984379408 
733	 0.785861223381361 
734	 0.788543184025047 
735	 0.791094045455937 
736	 0.793607950895402 
737	 0.795900113539843 
738	 0.797998755838487 
739	 0.800043557863708 
740	 0.801818242767464 
741	 0.803444612159471 
742	 0.805040135506988 
743	 0.80665624779954 
744	 0.808195446994288 
745	 0.809525277441072 
746	 0.810634520200448 
747	 0.811932811888317 
748	 0.813081981610511 
749	 0.81418215467722 
750	 0.815493942057915 
751	 0.816414818542735 
752	 0.817188928797448 
753	 0.817985623362409 
754	 0.818757279589335 
755	 0.819591317401221 
756	 0.820398058453038 
757	 0.821097196273857 
758	 0.821750354508343 
759	 0.822356357811589 
760	 0.823022503125751 
761	 0.823837932279422 
762	 0.824489215776154 
763	 0.824973527846661 
764	 0.825388862728877 
765	 0.825905433227651 
766	 0.82649871083626 
767	 0.827076458336385 
768	 0.827583567560557 
769	 0.828084866113144 
770	 0.828557297494541 
771	 0.829008556348751 
772	 0.829460836627795 
773	 0.829959269569051 
774	 0.830401474566375 
775	 0.830791979902824 
776	 0.831220884433639 
777	 0.831633225930713 
778	 0.832028836963944 
779	 0.832405127643238 
780	 0.832738119494289 
781	 0.833172990984579 
782	 0.833605571504171 
783	 0.833915705871024 
784	 0.834184812614537 
785	 0.834521581326337 
786	 0.834927512689195 
787	 0.835329180419878 
788	 0.835635367701989 
789	 0.836010935999446 
790	 0.836454276600103 
791	 0.836751741119889 
792	 0.837111873963848 
793	 0.837442707851577 
794	 0.837674066069339 
795	 0.837921745073615 
796	 0.838307668342348 
797	 0.838659277309101 
798	 0.838811696139407 
799	 0.839220381182443 
800	 0.839661603447265 
801	 0.840035923622425 
802	 0.840367099392312 
803	 0.840654241856169 
804	 0.840961710292647 
805	 0.841317437612338 
806	 0.841684099167041 
807	 0.841988243042064 
808	 0.842269018262592 
809	 0.842591294314444 
810	 0.843004318868148 
811	 0.843388574109739 
812	 0.843760753549129 
813	 0.844183393528497 
814	 0.844591922698099 
815	 0.844963131490755 
816	 0.845311164482818 
817	 0.845677902296368 
818	 0.846047326930267 
819	 0.846387025480529 
820	 0.846706895789315 
821	 0.847088846624394 
822	 0.847380084434284 
823	 0.847696772460098 
824	 0.84813494383232 
825	 0.848503153015596 
826	 0.848858995054134 
827	 0.849212326956497 
828	 0.849552748974133 
829	 0.849856773865043 
830	 0.850294933281032 
831	 0.850810756970175 
832	 0.851169362987862 
833	 0.851568542262826 
834	 0.85196515292381 
835	 0.852310947023328 
836	 0.852604394046532 
837	 0.852891554628458 
838	 0.853260512037288 
839	 0.853733078393583 
840	 0.854141569838841 
841	 0.854462844065194 
842	 0.854779243545643 
843	 0.855188042570253 
844	 0.855590943212438 
845	 0.856101432363971 
846	 0.85664740343463 
847	 0.857046462044273 
848	 0.85744054760415 
849	 0.857937935549666 
850	 0.85847605352784 
851	 0.858807678872205 
852	 0.859279921385953 
853	 0.859804399204829 
854	 0.860288589994977 
855	 0.860833454024672 
856	 0.861351663293871 
857	 0.861824673364813 
858	 0.862298334369622 
859	 0.862967933259759 
860	 0.863590724281255 
861	 0.864165495855176 
862	 0.864800938142311 
863	 0.865424766035615 
864	 0.866030130739178 
865	 0.866612119471661 
866	 0.86716120178636 
867	 0.867602757529046 
868	 0.868073808342095 
869	 0.868664269413109 
870	 0.869351058677283 
871	 0.869955258396833 
872	 0.870570962870835 
873	 0.871279052600585 
874	 0.87200029669172 
875	 0.872604832549015 
876	 0.873108592344738 
877	 0.873627919293856 
878	 0.87440175991447 
879	 0.875335797847035 
880	 0.876143975332914 
881	 0.876579413017204 
882	 0.877059044180301 
883	 0.877744720868245 
884	 0.878492131513379 
885	 0.879004451070073 
886	 0.879687271271541 
887	 0.880448025955815 
888	 0.88116071902667 
889	 0.881744812523313 
890	 0.882324423197915 
891	 0.8830963818929 
892	 0.884013044518723 
893	 0.884617577035049 
894	 0.885233277073164 
895	 0.885920377018999 
896	 0.886642636697001 
897	 0.887281484693698 
898	 0.888028612436213 
899	 0.888794940375661 
900	 0.889474102429232 
901	 0.890275292273299 
902	 0.891103565246865 
903	 0.891947668897365 
904	 0.89281057324247 
905	 0.893541955047614 
906	 0.894232354919708 
907	 0.894987151580413 
908	 0.89586226837701 
909	 0.896563309883287 
910	 0.897341966208658 
911	 0.898233214518154 
912	 0.899022403445599 
913	 0.899881691826264 
914	 0.900817430761968 
915	 0.901741529459845 
916	 0.902491745477416 
917	 0.903290355462768 
918	 0.904067201529354 
919	 0.904805111113891 
920	 0.905688511273027 
921	 0.906666825013482 
922	 0.907558716094572 
923	 0.908283417501981 
924	 0.909093957603555 
925	 0.909924735347746 
926	 0.910725422506934 
927	 0.911471304922711 
928	 0.912211823854254 
929	 0.913021083748966 
930	 0.913865464747664 
931	 0.914661347441528 
932	 0.915332870105349 
933	 0.916151128272686 
934	 0.91708031170248 
935	 0.917940552042748 
936	 0.918825781056821 
937	 0.919677953179958 
938	 0.920472083858811 
939	 0.921221994144771 
940	 0.921990674114369 
941	 0.922744546931489 
942	 0.923530113137954 
943	 0.924430017180532 
944	 0.92517894562675 
945	 0.925869893930297 
946	 0.926543317764203 
947	 0.927146700506043 
948	 0.927734029136898 
949	 0.928394346153351 
950	 0.929086009464547 
951	 0.929628722063482 
952	 0.930330008290302 
953	 0.930953692109708 
954	 0.931462906630452 
955	 0.932223421217863 
956	 0.932801869206027 
957	 0.933220455566062 
958	 0.933591976163153 
959	 0.934003836666437 
960	 0.934438303335104 
961	 0.934878796177468 
962	 0.935326431981566 
963	 0.935813949548276 
964	 0.936557008952894 
965	 0.937364272745703 
966	 0.93804955256224 
967	 0.938700067599033 
968	 0.939407325522802 
969	 0.940142926139009 
970	 0.940873175824837 
971	 0.941662560429705 
972	 0.942312032713283 
973	 0.942835825312063 
974	 0.943349755548892 
975	 0.944026973437442 
976	 0.944733477584753 
977	 0.945398932858653 
978	 0.945961289900965 
979	 0.946295754893035 
980	 0.946836526985959 
981	 0.947400805649373 
982	 0.947798948889128 
983	 0.948567188418094 
984	 0.949127843814046 
985	 0.949629774259175 
986	 0.950345600095982 
987	 0.951063287460481 
988	 0.95165105946155 
989	 0.952000082178898 
990	 0.952172080825191 
991	 0.952670840034172 
992	 0.953225572411207 
993	 0.953729273791211 
994	 0.954159346873551 
995	 0.95455449640074 
996	 0.955043620177017 
997	 0.955484466519614 
998	 0.955823705999824 
999	 0.956660115699747 
1000	 0.957230926181217 
1001	 0.95372422848064 
1002	 0.954021782352014 
1003	 0.954433045281233 
1004	 0.954815132844468 
1005	 0.955280065611206 
1006	 0.955615103033621 
1007	 0.955868112722155 
1008	 0.956169975513063 
1009	 0.956427987403797 
1010	 0.956713790987886 
1011	 0.957052633821122 
1012	 0.95735886241069 
1013	 0.957672328007215 
1014	 0.957943094802766 
1015	 0.958209197709412 
1016	 0.958386344138473 
1017	 0.958635624507256 
1018	 0.958889309983703 
1019	 0.9590817683539 
1020	 0.959348449114276 
1021	 0.959625796352187 
1022	 0.95986437242576 
1023	 0.960156551303715 
1024	 0.960544442380128 
1025	 0.960879870913081 
1026	 0.961182853670427 
1027	 0.961503745826441 
1028	 0.961815193696033 
1029	 0.962182100318725 
1030	 0.96251614110062 
1031	 0.962850542293836 
1032	 0.96322796523796 
1033	 0.963582050265742 
1034	 0.964017415071544 
1035	 0.964458589855037 
1036	 0.964800016617243 
1037	 0.965111926729587 
1038	 0.96539780011193 
1039	 0.96554779716671 
1040	 0.965820914846084 
1041	 0.966148908641649 
1042	 0.966465879685507 
1043	 0.966819946167864 
1044	 0.967164529995407 
1045	 0.967484939572072 
1046	 0.967817502438183 
1047	 0.968064052097577 
1048	 0.968317630251579 
1049	 0.968581711661287 
1050	 0.968817746965074 
1051	 0.969109377134606 
1052	 0.969314013784658 
1053	 0.969510549843857 
1054	 0.969672931915964 
1055	 0.96985150754904 
1056	 0.969989213572059 
1057	 0.970218782934855 
1058	 0.970533569519104 
1059	 0.970728398653885 
1060	 0.970940346176842 
1061	 0.971092678168092 
1062	 0.971163809009603 
1063	 0.971284770545037 
1064	 0.971441356952461 
1065	 0.971601757881535 
1066	 0.971742473891356 
1067	 0.971854887362578 
1068	 0.971926342994867 
1069	 0.971991405175534 
1070	 0.972082800130005 
1071	 0.972183454478278 
1072	 0.972284099264231 
1073	 0.972411585603612 
1074	 0.972512165884635 
1075	 0.972547659622357 
1076	 0.972583167684996 
1077	 0.972654292751736 
1078	 0.972709064762395 
1079	 0.972810868649272 
1080	 0.972956311078773 
1081	 0.973015495711485 
1082	 0.973091148109781 
1083	 0.973181792351339 
1084	 0.973238448120032 
1085	 0.973287797177034 
1086	 0.973356457780049 
1087	 0.973427748350727 
1088	 0.973526004575633 
1089	 0.973635116886138 
1090	 0.973763399688766 
1091	 0.973856427207932 
1092	 0.97388797729402 
1093	 0.973918675536554 
1094	 0.973984834787094 
1095	 0.974043680896131 
1096	 0.974101308618276 
1097	 0.974163859184135 
1098	 0.974163083155766 
1099	 0.97416491706655 
1100	 0.974176749927378 
1101	 0.97421013708107 
1102	 0.974311022468922 
1103	 0.974372726365141 
1104	 0.974442233366126 
1105	 0.974512392583182 
1106	 0.974558833816394 
1107	 0.974548384640398 
1108	 0.974571355222259 
1109	 0.974622889076422 
1110	 0.974647504755796 
1111	 0.974625709453948 
1112	 0.974587788869427 
1113	 0.974572557680892 
1114	 0.974571562276476 
1115	 0.974578017723999 
1116	 0.974626342174987 
1117	 0.974692271323943 
1118	 0.974738312510323 
1119	 0.974811328139796 
1120	 0.974824358615506 
1121	 0.97481612678567 
1122	 0.974765571175783 
1123	 0.974680177868932 
1124	 0.974607074165944 
1125	 0.974541065043175 
1126	 0.974431977165415 
1127	 0.974320555806596 
1128	 0.974198330171474 
1129	 0.974082601063161 
1130	 0.973991136408271 
1131	 0.973872106573954 
1132	 0.973710815344094 
1133	 0.973534587378523 
1134	 0.97335138610833 
1135	 0.97311000085052 
1136	 0.972810662034165 
1137	 0.972541840664842 
1138	 0.972239814641206 
1139	 0.971927201334634 
1140	 0.971611618030109 
1141	 0.971340704489514 
1142	 0.97101657652611 
1143	 0.970684361977391 
1144	 0.970379368573325 
1145	 0.970030261149759 
1146	 0.969652536891589 
1147	 0.969281141500171 
1148	 0.968853942483648 
1149	 0.968426314530467 
1150	 0.96803476825412 
1151	 0.967622932008454 
1152	 0.967193750006549 
1153	 0.966785065609697 
1154	 0.966327018010989 
1155	 0.965829867486812 
1156	 0.965311278745017 
1157	 0.964778600551983 
1158	 0.964226876176063 
1159	 0.963626637416615 
1160	 0.96304373303132 
1161	 0.96247334202169 
1162	 0.961846114196313 
1163	 0.961263483300762 
1164	 0.960654918845375 
1165	 0.960030675278275 
1166	 0.959486676258252 
1167	 0.958946148059037 
1168	 0.958423582385024 
1169	 0.957909853772457 
1170	 0.95740305353625 
1171	 0.956923178721833 
1172	 0.956445511386733 
1173	 0.956013208569826 
1174	 0.955622930686872 
1175	 0.95525541718118 
1176	 0.95494216679956 
1177	 0.954601314338268 
1178	 0.954275348367488 
1179	 0.95393504666488 
1180	 0.953601798300486 
1181	 0.953231780633119 
1182	 0.952843801816917 
1183	 0.952472663004103 
1184	 0.952079791243464 
1185	 0.951710838468004 
1186	 0.951356398902925 
1187	 0.951022702632622 
1188	 0.95070339082705 
1189	 0.950382670170227 
1190	 0.950100058828447 
1191	 0.94983017027636 
1192	 0.949613953456321 
1193	 0.949441064304108 
1194	 0.949287515254019 
1195	 0.949189835066905 
1196	 0.949082310526209 
1197	 0.948989804505417 
1198	 0.94889565410517 
1199	 0.948791740386701 
1200	 0.94874874809231 
1201	 0.94872287790697 
1202	 0.948666524054799 
1203	 0.948608369400674 
1204	 0.948569122351125 
1205	 0.948543772578761 
1206	 0.948506244759222 
1207	 0.948517176475777 
1208	 0.948567859408351 
1209	 0.948615305118123 
1210	 0.948646998678721 
1211	 0.948755793151478 
1212	 0.948868379733168 
1213	 0.949081267695641 
1214	 0.949377802773318 
1215	 0.949722968148186 
1216	 0.950135655927977 
1217	 0.950593826677876 
1218	 0.951115544768829 
1219	 0.951669292624569 
1220	 0.952260696480571 
1221	 0.952937419541802 
1222	 0.953613327255367 
1223	 0.954316698549965 
1224	 0.954981797434952 
1225	 0.955655361100961 
1226	 0.956279113440798 
1227	 0.956858181386849 
1228	 0.957452712245975 
1229	 0.958034830388327 
1230	 0.95861134852355 
1231	 0.959216743920811 
1232	 0.959756014660741 
1233	 0.960257698238077 
1234	 0.960734958973039 
1235	 0.961171921883239 
1236	 0.961586679624143 
1237	 0.9619765834336 
1238	 0.962349050798395 
1239	 0.962692940197945 
1240	 0.963019980803324 
1241	 0.963341464935882 
1242	 0.963607521106723 
1243	 0.963843050920061 
1244	 0.964021680112578 
1245	 0.964238313670819 
1246	 0.964429367764006 
1247	 0.964640949813551 
1248	 0.964884420588264 
1249	 0.965100893070714 
1250	 0.965307252424799 
1251	 0.965501009377274 
1252	 0.965692026612018 
1253	 0.965866434907058 
1254	 0.966028370922675 
1255	 0.966172364601373 
1256	 0.966301190645307 
1257	 0.966419398569635 
1258	 0.966511877219723 
1259	 0.966606594760279 
1260	 0.966683720102701 
1261	 0.966777297151089 
1262	 0.966888854720415 
1263	 0.966984225729277 
1264	 0.967060941296456 
1265	 0.9671385556496 
1266	 0.967200186914418 
1267	 0.967243931489409 
1268	 0.967260020316729 
1269	 0.967261975900268 
1270	 0.967257868301418 
1271	 0.967213358022953 
1272	 0.967187297090408 
1273	 0.967189406400828 
1274	 0.967149367986686 
1275	 0.967068850925008 
1276	 0.967014032785928 
1277	 0.966961828846699 
1278	 0.966893018493339 
1279	 0.966853985479869 
1280	 0.966763547562039 
1281	 0.966604186808202 
1282	 0.966480664095775 
1283	 0.966322675814045 
1284	 0.966211236923081 
1285	 0.966128419153373 
1286	 0.966087760328344 
1287	 0.966028194291755 
1288	 0.965996876776899 
1289	 0.965932785954844 
1290	 0.965853731095176 
1291	 0.965779405650917 
1292	 0.965702332896751 
1293	 0.965615150240058 
1294	 0.965530429945786 
1295	 0.965426740334662 
1296	 0.965289941245991 
1297	 0.965185520978478 
1298	 0.965106484551344 
1299	 0.964988877329074 
1300	 0.964869506242886 
1301	 0.96474182702745 
1302	 0.964568717234088 
1303	 0.964422335405751 
1304	 0.964314582689552 
1305	 0.96417015221667 
1306	 0.96400912715632 
1307	 0.963845734557609 
1308	 0.963665600334782 
1309	 0.963471701250112 
1310	 0.963297473488021 
1311	 0.963133451427179 
1312	 0.962960011722291 
1313	 0.962779991123801 
1314	 0.962622080471531 
1315	 0.962469794229274 
1316	 0.962320184852762 
1317	 0.962187804697215 
1318	 0.962049701372153 
1319	 0.961915612114599 
1320	 0.961765534000635 
1321	 0.961621556872032 
1322	 0.961458151189011 
1323	 0.961279254465768 
1324	 0.961086705605424 
1325	 0.960879284677019 
1326	 0.960669513908059 
1327	 0.960424985905059 
1328	 0.960213904346763 
1329	 0.96004929655334 
1330	 0.959833971802114 
1331	 0.959598679731684 
1332	 0.959371903085377 
1333	 0.95913961987886 
1334	 0.958866121481094 
1335	 0.958599144478751 
1336	 0.958356340045894 
1337	 0.958055060102909 
1338	 0.957713840371997 
1339	 0.957369260881078 
1340	 0.957004691779618 
1341	 0.956633406195201 
1342	 0.956239980731459 
1343	 0.955853552933608 
1344	 0.955466967952261 
1345	 0.955066391586896 
1346	 0.954675097929733 
1347	 0.954244296088184 
1348	 0.95380970882181 
1349	 0.953319027551418 
1350	 0.952786753975627 
1351	 0.952226784667853 
1352	 0.951624878726496 
1353	 0.950999079927011 
1354	 0.950332467864076 
1355	 0.949668216491123 
1356	 0.948966844636803 
1357	 0.948278644440621 
1358	 0.947564211812547 
1359	 0.946892320167878 
1360	 0.946232145551269 
1361	 0.945600086306207 
1362	 0.944970173427504 
1363	 0.94441398246034 
1364	 0.943877307061834 
1365	 0.943369418812455 
1366	 0.942878167102081 
1367	 0.942442021436514 
1368	 0.941973113040633 
1369	 0.941523358646264 
1370	 0.941016806778033 
1371	 0.940505408980419 
1372	 0.939944538282473 
1373	 0.93934400326895 
1374	 0.938700972620473 
1375	 0.938055157150783 
1376	 0.937293218114834 
1377	 0.936439576847004 
1378	 0.935551931330328 
1379	 0.934560001314834 
1380	 0.933573272797491 
1381	 0.932557590405868 
1382	 0.931512364363338 
1383	 0.930412439633864 
1384	 0.929325618027268 
1385	 0.928268350929742 
1386	 0.927141712273663 
1387	 0.926038314225252 
1388	 0.924849937965196 
1389	 0.923616471885455 
1390	 0.922295367407652 
1391	 0.920922612765332 
1392	 0.919422904904251 
1393	 0.917951186183918 
1394	 0.916394411207987 
1395	 0.91487868798211 
1396	 0.913374324886453 
1397	 0.911860768089138 
1398	 0.910364820205784 
1399	 0.90877929428496 
1400	 0.907214326068776 
1401	 0.905474573489953 
1402	 0.903695025945325 
1403	 0.901665662638306 
1404	 0.899551637141712 
1405	 0.897149754469673 
1406	 0.894526789434659 
1407	 0.891698305447999 
1408	 0.888471355168421 
1409	 0.885418263989486 
1410	 0.881967067565421 
1411	 0.879128868216183 
1412	 0.87624314918235 
1413	 0.874179388683957 
1414	 0.872569410074315 
1415	 0.87154467374985 
1416	 0.871372237226458 
1417	 0.871256102496529 
1418	 0.871803443958683 
1419	 0.872126590814714 
1420	 0.872695523848161 
1421	 0.872985207926749 
1422	 0.873186472249111 
1423	 0.873205061951156 
1424	 0.873004151548393 
1425	 0.872695767314439 
1426	 0.87232710724353 
1427	 0.871862054516139 
1428	 0.871372920891267 
1429	 0.870874480455833 
1430	 0.870371757389109 
1431	 0.869825001741615 
1432	 0.869311003502291 
1433	 0.868808177064089 
1434	 0.868308256310816 
1435	 0.867793960696031 
1436	 0.867324036608903 
1437	 0.866882561343327 
1438	 0.866444093907255 
1439	 0.86603393410855 
1440	 0.865614112620068 
1441	 0.865178869660777 
1442	 0.864782259126396 
1443	 0.864391149911514 
1444	 0.864037450412725 
1445	 0.863715378444767 
1446	 0.863419742420939 
1447	 0.863162543914122 
1448	 0.862903898112388 
1449	 0.862673874620302 
1450	 0.862435599846844 
1451	 0.862196324568262 
1452	 0.861966617276362 
1453	 0.861744698603306 
1454	 0.861526413073764 
1455	 0.861318711538759 
1456	 0.861104840686232 
1457	 0.860880389659501 
1458	 0.860672483164796 
1459	 0.860486528272534 
1460	 0.860278120020926 
1461	 0.860069224698021 
1462	 0.859860113059148 
1463	 0.859620412668351 
1464	 0.859402266365292 
1465	 0.859197539126371 
1466	 0.858996436466933 
1467	 0.858830656970203 
1468	 0.858647593287601 
1469	 0.858499409742004 
1470	 0.858385371453343 
1471	 0.85827198694729 
1472	 0.858189655212518 
1473	 0.858068243271796 
1474	 0.857946112950821 
1475	 0.857802567970011 
1476	 0.857634382461492 
1477	 0.857462091476338 
1478	 0.857297240921864 
1479	 0.857084725729534 
1480	 0.856840743099324 
1481	 0.856589740695701 
1482	 0.856312294106929 
1483	 0.856015889755181 
1484	 0.85571104673646 
1485	 0.855376934643343 
1486	 0.85499849613525 
1487	 0.85464090741442 
1488	 0.854264524731519 
1489	 0.853911079743553 
1490	 0.853553188100577 
1491	 0.853230280247647 
1492	 0.852914867703807 
1493	 0.852645789819098 
1494	 0.852417575657044 
1495	 0.8522075569892 
1496	 0.852019672338586 
1497	 0.851872857715771 
1498	 0.851744530981834 
1499	 0.851668510499045 
1500	 0.851626037113125 
1501	 0.851649014181261 
1502	 0.851726084085256 
1503	 0.851849656976797 
1504	 0.852037422917823 
1505	 0.852263493099546 
1506	 0.852527908109098 
1507	 0.852844437607074 
1508	 0.853231229991794 
1509	 0.853630330605561 
1510	 0.854098749087025 
1511	 0.854537894629568 
1512	 0.854996017320546 
1513	 0.855427953596629 
1514	 0.855847197092517 
1515	 0.856247375831962 
1516	 0.856616392101043 
1517	 0.856989186134443 
1518	 0.857349389168074 
1519	 0.857704065514154 
1520	 0.858045188593251 
1521	 0.858397165311851 
1522	 0.858760699740228 
1523	 0.859156207521917 
1524	 0.859545456391461 
1525	 0.859956960230485 
1526	 0.860378922874334 
1527	 0.860794019193775 
1528	 0.861239701587719 
1529	 0.861721456671208 
1530	 0.862192813721718 
1531	 0.862665290189132 
1532	 0.863156617517254 
1533	 0.863664498976851 
1534	 0.864169370576546 
1535	 0.864680217358338 
1536	 0.865199950350612 
1537	 0.86572806683225 
1538	 0.866250309721455 
1539	 0.866791062046784 
1540	 0.867299409715644 
1541	 0.867785059410983 
1542	 0.868282241871282 
1543	 0.868786141447163 
1544	 0.869248046497688 
1545	 0.869699860359511 
1546	 0.870132279134269 
1547	 0.870539889862363 
1548	 0.87091199180341 
1549	 0.871276165224823 
1550	 0.871595488793983 
1551	 0.871852552805335 
1552	 0.872116442971755 
1553	 0.872369914724593 
1554	 0.872595965295053 
1555	 0.872800835575362 
1556	 0.872986806921277 
1557	 0.873140121213967 
1558	 0.873297910157815 
1559	 0.873447213917366 
1560	 0.873580892980072 
1561	 0.873693409695471 
1562	 0.873823000425202 
1563	 0.873916923197171 
1564	 0.874077712804272 
1565	 0.874289394632842 
1566	 0.874488361664772 
1567	 0.874722764289837 
1568	 0.874941352172908 
1569	 0.875147487165012 
1570	 0.875362434353208 
1571	 0.875578061784909 
1572	 0.875808280022509 
1573	 0.876039106222568 
1574	 0.876287105458807 
1575	 0.876565272899954 
1576	 0.8768267184292 
1577	 0.877091684805509 
1578	 0.877350885432476 
1579	 0.877588164010714 
1580	 0.877853931287829 
1581	 0.878134874130697 
1582	 0.878415062471463 
1583	 0.878717090216329 
1584	 0.879005618388169 
1585	 0.879287556242851 
1586	 0.879567317465601 
1587	 0.879851711816674 
1588	 0.880118716384741 
1589	 0.880364163666885 
1590	 0.880625328205005 
1591	 0.880878710045856 
1592	 0.881143709556745 
1593	 0.881434037351564 
1594	 0.881704870666647 
1595	 0.881967773712854 
1596	 0.882229444654798 
1597	 0.882479028061792 
1598	 0.882735254909235 
1599	 0.882983948592579 
1600	 0.88325353733663 
1601	 0.883530461269709 
1602	 0.883820569011562 
1603	 0.884156977319562 
1604	 0.884446909755562 
1605	 0.884712561016223 
1606	 0.88498754911269 
1607	 0.885243907927024 
1608	 0.885500305603491 
1609	 0.885777487011862 
1610	 0.886030005636537 
1611	 0.886247216111569 
1612	 0.886481318176011 
1613	 0.886729761567536 
1614	 0.88695208344859 
1615	 0.887167985602521 
1616	 0.887375831694308 
1617	 0.887552867788654 
1618	 0.887740455755332 
1619	 0.887933986699036 
1620	 0.888123678988109 
1621	 0.888325213126218 
1622	 0.888500600632884 
1623	 0.888655270648081 
1624	 0.888814928933546 
1625	 0.888965622874955 
1626	 0.889101964492651 
1627	 0.889256765407366 
1628	 0.88936727024213 
1629	 0.889430466788043 
1630	 0.889500564160303 
1631	 0.889540052269728 
1632	 0.889596623637231 
1633	 0.889651851077843 
1634	 0.889720718069266 
1635	 0.88981682271531 
1636	 0.889885838791561 
1637	 0.889946371565121 
1638	 0.890011992124064 
1639	 0.890078018513941 
1640	 0.890116784162884 
1641	 0.890145692756246 
1642	 0.890174488351721 
1643	 0.890200736301509 
1644	 0.890184689499333 
1645	 0.890160508705245 
1646	 0.890107893112727 
1647	 0.889990359428873 
1648	 0.889890046709415 
1649	 0.889809930327909 
1650	 0.889683543656797 
1651	 0.889535183545036 
1652	 0.889359250802081 
1653	 0.889164537880717 
1654	 0.888922866427932 
1655	 0.888662684090653 
1656	 0.888337339110434 
1657	 0.887950582321302 
1658	 0.887516090854781 
1659	 0.887033968485218 
1660	 0.886505484326104 
1661	 0.885934078211364 
1662	 0.88530208046165 
1663	 0.884593126488453 
1664	 0.883858696106888 
1665	 0.883073756164496 
1666	 0.8822474065158 
1667	 0.88140292756876 
1668	 0.880500882225773 
1669	 0.879584660497787 
1670	 0.878534844389022 
1671	 0.877404223678751 
1672	 0.876168765981797 
1673	 0.874820414049907 
1674	 0.873369072002611 
1675	 0.871810942589501 
1676	 0.870215993879144 
1677	 0.868505569113489 
1678	 0.866779182811923 
1679	 0.865013168652885 
1680	 0.863182098656755 
1681	 0.861300816159664 
1682	 0.859342709779561 
1683	 0.857297398942318 
1684	 0.855289578343033 
1685	 0.85322025906715 
1686	 0.851174271008734 
1687	 0.84912856637723 
1688	 0.847091987529921 
1689	 0.845019762385688 
1690	 0.843023854464332 
1691	 0.841063909501393 
1692	 0.839204948916445 
1693	 0.837442516892015 
1694	 0.835656282969947 
1695	 0.833944587271161 
1696	 0.832156262540874 
1697	 0.830346858842258 
1698	 0.828476822782726 
1699	 0.826616665473692 
1700	 0.824673081420646 
1701	 0.822656648462302 
1702	 0.820600462194315 
1703	 0.818438820871883 
1704	 0.816300862496155 
1705	 0.814088459118225 
1706	 0.811916459922711 
1707	 0.809950933239855 
1708	 0.808002490815243 
1709	 0.806144161632176 
1710	 0.804440289792109 
1711	 0.802678624425288 
1712	 0.801041624824739 
1713	 0.799412206665579 
1714	 0.797724058192651 
1715	 0.796141161034503 
1716	 0.794471821931684 
1717	 0.792817134823842 
1718	 0.791186273463581 
1719	 0.789463050897582 
1720	 0.787825940758808 
1721	 0.786267937433519 
1722	 0.784739102350723 
1723	 0.783393053685403 
1724	 0.782161068530011 
1725	 0.78109612132864 
1726	 0.780294489641035 
1727	 0.779731951858028 
1728	 0.779506985018328 
1729	 0.779652037088134 
1730	 0.780191008997889 
1731	 0.781055067545452 
1732	 0.782276408664391 
1733	 0.783724689774282 
1734	 0.785425603576604 
1735	 0.787397807810382 
1736	 0.789429007715554 
1737	 0.791531600015272 
1738	 0.793608742489348 
1739	 0.795446857883999 
1740	 0.797197555762765 
1741	 0.798766427718269 
1742	 0.800193076904636 
1743	 0.80142137095279 
1744	 0.802492012904634 
1745	 0.803367618048657 
1746	 0.803998024523946 
1747	 0.804472996868644 
1748	 0.804765611307987 
1749	 0.804904760378039 
1750	 0.80483203014326 
1751	 0.804701302911227 
1752	 0.804411421400661 
1753	 0.804103706093139 
1754	 0.803680291323052 
1755	 0.803284604403042 
1756	 0.802839722828403 
1757	 0.802436463189461 
1758	 0.802017979662806 
1759	 0.801650744893458 
1760	 0.801363802692672 
1761	 0.801192625146577 
1762	 0.801228837260234 
1763	 0.801496495735705 
1764	 0.801904931663705 
1765	 0.802531863876338 
1766	 0.803389500293682 
1767	 0.804374066011999 
1768	 0.805577157607379 
1769	 0.80691214949638 
1770	 0.808173090581626 
1771	 0.809482140224254 
1772	 0.810771688962091 
1773	 0.812011673926995 
1774	 0.813305664383031 
1775	 0.814501658696688 
1776	 0.815633542065242 
1777	 0.816692701462724 
1778	 0.817597794336626 
1779	 0.818456815501513 
1780	 0.819220941919076 
1781	 0.819847804434876 
1782	 0.820459476680549 
1783	 0.821018236514128 
1784	 0.821527677914112 
1785	 0.821979183393804 
1786	 0.8224119899411 
1787	 0.822814249821586 
1788	 0.823163333707037 
1789	 0.823491436367428 
1790	 0.823792192208043 
1791	 0.82402193171517 
1792	 0.824279078584731 
1793	 0.824521561248188 
1794	 0.824731190326483 
1795	 0.824922918836347 
1796	 0.82505710575375 
1797	 0.825248417543409 
1798	 0.825470540402438 
1799	 0.825665434430263 
1800	 0.825859711718956 
1801	 0.813932499343896 
1802	 0.814439559593599 
1803	 0.814964433409814 
1804	 0.8155574337847 
1805	 0.816245411200196 
1806	 0.816885155114269 
1807	 0.817593303955934 
1808	 0.818224400866216 
1809	 0.818874782189092 
1810	 0.819415764148955 
1811	 0.819926066359814 
1812	 0.820363523333261 
1813	 0.820708941990317 
1814	 0.821020819113115 
1815	 0.821298108729841 
1816	 0.821532644848154 
1817	 0.821755124546401 
1818	 0.821945595999445 
1819	 0.822130372866115 
1820	 0.822262455555754 
1821	 0.822440858802317 
1822	 0.82263448131903 
1823	 0.822799159680454 
1824	 0.823028781191316 
1825	 0.823314916705539 
1826	 0.823552193567688 
1827	 0.823809000130244 
1828	 0.82402598957675 
1829	 0.82420714579832 
1830	 0.82438643328853 
1831	 0.824546496195003 
1832	 0.824719762160992 
1833	 0.824875603843856 
1834	 0.825021561645324 
1835	 0.825152490379313 
1836	 0.825277348753216 
1837	 0.825415200393557 
1838	 0.825540513116507 
1839	 0.825691805153988 
1840	 0.825853209615707 
1841	 0.826034689264014 
1842	 0.826230585523496 
1843	 0.826445301400922 
1844	 0.826682128289387 
1845	 0.82690052786465 
1846	 0.82711712069298 
1847	 0.827306807460261 
1848	 0.82745787171812 
1849	 0.827580177335836 
1850	 0.82767729602114 
1851	 0.827740667414591 
1852	 0.827794186942322 
1853	 0.827801899200024 
1854	 0.827777396964233 
1855	 0.827735816723375 
1856	 0.82762655197787 
1857	 0.827454820683377 
1858	 0.827261946922916 
1859	 0.827008867477232 
1860	 0.826692435733032 
1861	 0.826317930909253 
1862	 0.825917949108268 
1863	 0.825443319581642 
1864	 0.824829107000909 
1865	 0.824153856325797 
1866	 0.82335819283146 
1867	 0.822422883610615 
1868	 0.82141718269098 
1869	 0.820313571949355 
1870	 0.819142626346148 
1871	 0.817849432746931 
1872	 0.816585541536916 
1873	 0.815262994762952 
1874	 0.813945159398371 
1875	 0.8126749502978 
1876	 0.811244719168616 
1877	 0.809880172992597 
1878	 0.808412263542348 
1879	 0.806795056536414 
1880	 0.805219700361347 
1881	 0.803446644478391 
1882	 0.801528560748127 
1883	 0.799509011189575 
1884	 0.797286948395387 
1885	 0.794720134565191 
1886	 0.792065113342743 
1887	 0.789118061733548 
1888	 0.785939720759602 
1889	 0.782896193941491 
1890	 0.779571314601019 
1891	 0.776155778474434 
1892	 0.77270880617976 
1893	 0.768953561159517 
1894	 0.764878121642 
1895	 0.760850880579862 
1896	 0.756592542067323 
1897	 0.752123285545196 
1898	 0.747987739593527 
1899	 0.743604369998094 
1900	 0.739260338731563 
1901	 0.735017069137845 
1902	 0.730356384498091 
1903	 0.725871990244935 
1904	 0.721445072319647 
1905	 0.716972134045346 
1906	 0.712554185597743 
1907	 0.708602769838986 
1908	 0.70455130324302 
1909	 0.700641045496106 
1910	 0.696925824730613 
1911	 0.692961465482839 
1912	 0.689237461539711 
1913	 0.685535255424419 
1914	 0.681751452880311 
1915	 0.678256804941707 
1916	 0.675019540982649 
1917	 0.671716851939866 
1918	 0.6685531905513 
1919	 0.665576820896211 
1920	 0.662390601296722 
1921	 0.659406717860512 
1922	 0.656496534191904 
1923	 0.653580242479051 
1924	 0.65102596169088 
1925	 0.648530382307715 
1926	 0.646125833239378 
1927	 0.643910143824672 
1928	 0.641695975699439 
1929	 0.639488983627445 
1930	 0.637450942519433 
1931	 0.635486787186464 
1932	 0.633636574275357 
1933	 0.632067627026363 
1934	 0.630528148728851 
1935	 0.629094245433519 
1936	 0.627841265482937 
1937	 0.626646986319658 
1938	 0.625501851937326 
1939	 0.624548339521982 
1940	 0.62373035159533 
1941	 0.623004301210502 
1942	 0.622479715056394 
1943	 0.622056113689365 
1944	 0.621717789535615 
1945	 0.621540935817618 
1946	 0.621442191173448 
1947	 0.621447019994628 
1948	 0.621595755313019 
1949	 0.621777025922243 
1950	 0.622013969932752 
1951	 0.622329902988498 
1952	 0.622698294069977 
1953	 0.623094366700218 
1954	 0.623588992727181 
1955	 0.624199417626096 
1956	 0.624785019311393 
1957	 0.625452261600764 
1958	 0.626185571670538 
1959	 0.626891558628014 
1960	 0.627687233485636 
1961	 0.628495613072062 
1962	 0.62931905180054 
1963	 0.630197448969521 
1964	 0.631141685190156 
1965	 0.632068841615414 
1966	 0.633043599452286 
1967	 0.634016621992863 
1968	 0.634913077150136 
1969	 0.635809731944569 
1970	 0.636660124814769 
1971	 0.637498051805707 
1972	 0.63843061276218 
1973	 0.639336879879356 
1974	 0.640248379029523 
1975	 0.641203971971017 
1976	 0.642128048975112 
1977	 0.643010121106221 
1978	 0.643936182361649 
1979	 0.644878761983405 
1980	 0.645811455684837 
1981	 0.646812215733054 
1982	 0.647785503147849 
1983	 0.648805040795671 
1984	 0.649864551239076 
1985	 0.650837872116865 
1986	 0.651832730126944 
1987	 0.652819208692429 
1988	 0.653759361118802 
1989	 0.6547460614507 
1990	 0.655765427608042 
1991	 0.656764556958292 
1992	 0.657786854767114 
1993	 0.65879762836517 
1994	 0.659712090918981 
1995	 0.660681601558828 
1996	 0.661584633403952 
1997	 0.662444435712661 
1998	 0.663380732764364 
1999	 0.664360955552432 
2000	 0.66529419485161 
2001	 0.666274783899685 
2002	 0.667194470186024 
2003	 0.668064249988973 
2004	 0.668932758517897 
2005	 0.669758222144698 
2006	 0.670605616518331 
2007	 0.671477262159409 
2008	 0.67228878732521 
2009	 0.673105926549745 
2010	 0.673946248347972 
2011	 0.674658163596814 
2012	 0.675365475597951 
2013	 0.676050690891374 
2014	 0.676701641217412 
2015	 0.677320950928838 
2016	 0.677963668380956 
2017	 0.678484580723063 
2018	 0.678949940787184 
2019	 0.679335560443857 
2020	 0.679630907836043 
2021	 0.67986844055095 
2022	 0.680042323063157 
2023	 0.680122416635074 
2024	 0.680118749252228 
2025	 0.680048576481711 
2026	 0.679867981717971 
2027	 0.679564724925586 
2028	 0.679231520767634 
2029	 0.678802734988358 
2030	 0.678333915082348 
2031	 0.677821735344624 
2032	 0.677256017736574 
2033	 0.6765805000856 
2034	 0.675931449104654 
2035	 0.675246362434865 
2036	 0.674543635549775 
2037	 0.673891026769376 
2038	 0.673246943780597 
2039	 0.672668130381084 
2040	 0.672121774578319 
2041	 0.671651042724269 
2042	 0.671192064386405 
2043	 0.670885284196013 
2044	 0.670673635728214 
2045	 0.670553362679985 
2046	 0.670583407553316 
2047	 0.670641154753086 
2048	 0.670743972026626 
2049	 0.670941458257876 
2050	 0.671244619598649 
2051	 0.671563067993444 
2052	 0.671963144537717 
2053	 0.672470241311854 
2054	 0.672997716127432 
2055	 0.673549094287083 
2056	 0.674212750644241 
2057	 0.674939327805203 
2058	 0.675766769175141 
2059	 0.676706561117934 
2060	 0.677677577347027 
2061	 0.67877114788929 
2062	 0.679842364870482 
2063	 0.680919152600392 
2064	 0.682073695583312 
2065	 0.6832776781608 
2066	 0.684477699255506 
2067	 0.685846253819284 
2068	 0.687181221128744 
2069	 0.688519638283774 
2070	 0.689935924888468 
2071	 0.691239156259712 
2072	 0.692490356106033 
2073	 0.693728434195503 
2074	 0.694898555522716 
2075	 0.696097417476173 
2076	 0.697326469944581 
2077	 0.698471783172683 
2078	 0.699634477366612 
2079	 0.700686594735847 
2080	 0.701635456560571 
2081	 0.702555608707076 
2082	 0.703405042712988 
2083	 0.704188227116003 
2084	 0.70503955966391 
2085	 0.705799047455325 
2086	 0.706539824362072 
2087	 0.707315745285831 
2088	 0.707943740592705 
2089	 0.708452589804257 
2090	 0.708967665783949 
2091	 0.709404279550534 
2092	 0.709826254347756 
2093	 0.710235622885206 
2094	 0.710594514353332 
2095	 0.710917231133851 
2096	 0.711189059598352 
2097	 0.711406230946065 
2098	 0.711600319562959 
2099	 0.711754381683081 
2100	 0.711852946637418 
2101	 0.711951401551324 
2102	 0.712046907496352 
2103	 0.712073423548206 
2104	 0.712056488817321 
2105	 0.712016276764045 
2106	 0.711904660058324 
2107	 0.711822456893365 
2108	 0.711753850594517 
2109	 0.711635854230151 
2110	 0.711506943334403 
2111	 0.711337676402135 
2112	 0.711107627719219 
2113	 0.710883112491812 
2114	 0.710630045407555 
2115	 0.710380878875026 
2116	 0.710140363168269 
2117	 0.709876523825057 
2118	 0.709580029351737 
2119	 0.709264598913972 
2120	 0.708943297923644 
2121	 0.708578655980433 
2122	 0.708234212635452 
2123	 0.707915555487054 
2124	 0.707548171422194 
2125	 0.707148700156006 
2126	 0.70676168184946 
2127	 0.706394000100541 
2128	 0.705945294343881 
2129	 0.705483370064474 
2130	 0.704966761809212 
2131	 0.704389176464406 
2132	 0.703754933930827 
2133	 0.703133946188413 
2134	 0.702384486107157 
2135	 0.701451919869845 
2136	 0.700488647014239 
2137	 0.699417503997713 
2138	 0.698182397167288 
2139	 0.696975376638242 
2140	 0.695741293266872 
2141	 0.69441015405928 
2142	 0.693000607774137 
2143	 0.691579219236988 
2144	 0.690032885730598 
2145	 0.688594736364728 
2146	 0.687122162523076 
2147	 0.685766382977263 
2148	 0.684538281556538 
2149	 0.683258668311722 
2150	 0.682071588830518 
2151	 0.68081758714253 
2152	 0.679507230000111 
2153	 0.678203524055369 
2154	 0.676863870581814 
2155	 0.675467439947873 
2156	 0.674115012147334 
2157	 0.672763918934937 
2158	 0.671359998016501 
2159	 0.670000371189086 
2160	 0.668498167341285 
2161	 0.666865306541118 
2162	 0.665297491340539 
2163	 0.663625786943973 
2164	 0.662079494919124 
2165	 0.660576973034568 
2166	 0.659123518244662 
2167	 0.65774549559678 
2168	 0.656385942360238 
2169	 0.655031760313918 
2170	 0.653781377227812 
2171	 0.652524796758009 
2172	 0.651432371159392 
2173	 0.650509816495655 
2174	 0.649604794655339 
2175	 0.648838940248256 
2176	 0.648174805273333 
2177	 0.647521828802937 
2178	 0.646918336684966 
2179	 0.646395591377028 
2180	 0.645915844698641 
2181	 0.645532845754901 
2182	 0.645246622119329 
2183	 0.645006842366306 
2184	 0.644843994268209 
2185	 0.644736715087654 
2186	 0.644691221914046 
2187	 0.644713382928097 
2188	 0.644812449240407 
2189	 0.644961965891552 
2190	 0.645214941442888 
2191	 0.64545584816186 
2192	 0.645750755962923 
2193	 0.646042467124765 
2194	 0.646390264908759 
2195	 0.646672161417889 
2196	 0.646926992701428 
2197	 0.64718976819275 
2198	 0.647390335679401 
2199	 0.647533259959163 
2200	 0.647717510554889 
2201	 0.647916688021159 
2202	 0.648076112614825 
2203	 0.648227890498484 
2204	 0.648356546263252 
2205	 0.64845887982635 
2206	 0.648532620921309 
2207	 0.648580123308148 
2208	 0.648621782192805 
2209	 0.648645511353764 
2210	 0.648634428747435 
2211	 0.648588063103099 
2212	 0.648562448967698 
2213	 0.648502271384632 
2214	 0.648463347815982 
2215	 0.648420033609338 
2216	 0.648429007662802 
2217	 0.648479715044841 
2218	 0.648507529647394 
2219	 0.648602122406178 
2220	 0.648638774528394 
2221	 0.648639518106999 
2222	 0.64860747928605 
2223	 0.648558414784605 
2224	 0.648458456804955 
2225	 0.648306236955908 
2226	 0.648061648052794 
2227	 0.647755819489471 
2228	 0.647385105031877 
2229	 0.646944498432885 
2230	 0.646445100941753 
2231	 0.645828598932229 
2232	 0.645133458813761 
2233	 0.64432055134724 
2234	 0.643423852120802 
2235	 0.642352717653021 
2236	 0.641166732063128 
2237	 0.639828167773553 
2238	 0.638240360060439 
2239	 0.636678957194436 
2240	 0.635062175751355 
2241	 0.633303893476942 
2242	 0.63157251676709 
2243	 0.629561662211452 
2244	 0.627309734704258 
2245	 0.624977122161201 
2246	 0.622364935901864 
2247	 0.619786055879272 
2248	 0.617163236809339 
2249	 0.614457829151378 
2250	 0.611703170373172 
2251	 0.608947835684242 
2252	 0.605858586436157 
2253	 0.602831922665475 
2254	 0.599670251094635 
2255	 0.596356129231342 
2256	 0.593352568693115 
2257	 0.590277766285568 
2258	 0.587259515240135 
2259	 0.584355224498501 
2260	 0.581371225967773 
2261	 0.57830777663262 
2262	 0.575399648555039 
2263	 0.572456429584082 
2264	 0.569749030480991 
2265	 0.567235907019263 
2266	 0.564690626875142 
2267	 0.562345266600784 
2268	 0.559863917000353 
2269	 0.557298999709533 
2270	 0.554837213681559 
2271	 0.552311823402792 
2272	 0.549954186641218 
2273	 0.547776588960969 
2274	 0.545520441405713 
2275	 0.543400171380997 
2276	 0.541132819002399 
2277	 0.538744853769183 
2278	 0.53639675645984 
2279	 0.53391903286835 
2280	 0.53157454778912 
2281	 0.529288289341699 
2282	 0.527031311776845 
2283	 0.524817452123175 
2284	 0.52273557801532 
2285	 0.520503534259321 
2286	 0.518478932949296 
2287	 0.516542445012451 
2288	 0.514685526523393 
2289	 0.513143589222362 
2290	 0.511674714486034 
2291	 0.510261975111648 
2292	 0.508826734723373 
2293	 0.507185963599901 
2294	 0.505525222471585 
2295	 0.503737101660344 
2296	 0.501796088052931 
2297	 0.499793863914399 
2298	 0.497725473895962 
2299	 0.495473051831378 
2300	 0.493070067494576 
2301	 0.490598364710861 
2302	 0.487890576160714 
2303	 0.485397440502554 
2304	 0.482715918088646 
2305	 0.480512305542721 
2306	 0.478368186840001 
2307	 0.476844700783434 
2308	 0.47562816461697 
2309	 0.475150635040146 
2310	 0.475208266855616 
2311	 0.475983224092783 
2312	 0.477627831785182 
2313	 0.47953470539757 
2314	 0.482223485357047 
2315	 0.484953897852226 
2316	 0.488139785133832 
2317	 0.491220633793272 
2318	 0.494764017341115 
2319	 0.497690797132588 
2320	 0.500577427531031 
2321	 0.502909915545868 
2322	 0.50472487945363 
2323	 0.506281369967686 
2324	 0.507446185732149 
2325	 0.508303998840822 
2326	 0.508737896619916 
2327	 0.509030233853453 
2328	 0.508922565302496 
2329	 0.508773406808095 
2330	 0.508501955192262 
2331	 0.508058307940282 
2332	 0.507448818855867 
2333	 0.506600986719929 
2334	 0.505323601667731 
2335	 0.503837967124307 
2336	 0.501942219515489 
2337	 0.499697863298327 
2338	 0.497432449474766 
2339	 0.494737152314178 
2340	 0.491949866628285 
2341	 0.489119600960758 
2342	 0.485924948600891 
2343	 0.482887711903228 
2344	 0.479959497932999 
2345	 0.477081556341609 
2346	 0.474756607738394 
2347	 0.472814034326867 
2348	 0.471285754851485 
2349	 0.470490843963827 
2350	 0.470315106860733 
2351	 0.470768648232858 
2352	 0.471729540135891 
2353	 0.473220687597312 
2354	 0.474973844127208 
2355	 0.4769641696873 
2356	 0.479109750278275 
2357	 0.481417794582771 
2358	 0.483873754123601 
2359	 0.48609309877798 
2360	 0.488460435471786 
2361	 0.490748483645154 
2362	 0.492623314210054 
2363	 0.494554771447175 
2364	 0.49624602186378 
2365	 0.497608578747976 
2366	 0.498979205718101 
2367	 0.500135735596516 
2368	 0.501165988868987 
2369	 0.502055482565456 
2370	 0.502713402782479 
2371	 0.503343098426468 
2372	 0.503858975592855 
2373	 0.504227752491357 
2374	 0.504557838067459 
2375	 0.504774404467995 
2376	 0.504853353004265 
2377	 0.50488751318782 
2378	 0.504905431353581 
2379	 0.504900165183761 
2380	 0.504880188402418 
2381	 0.504807851256683 
2382	 0.504761557048724 
2383	 0.504690567950821 
2384	 0.504638405905681 
2385	 0.504632533318343 
2386	 0.504592516033016 
2387	 0.504522305590054 
2388	 0.504524696866609 
2389	 0.504507963913472 
2390	 0.504561153230892 
2391	 0.504729177003371 
2392	 0.504811174132105 
2393	 0.504906483310991 
2394	 0.504937512195928 
2395	 0.504885933205998 
2396	 0.504885542062892 
2397	 0.504895014829945 
2398	 0.504921467174926 
2399	 0.504941385150644 
2400	 0.504955596105627 
2401	 0.504990995852846 
2402	 0.504916453036606 
2403	 0.504944451899699 
2404	 0.50501689818468 
2405	 0.505003795251661 
2406	 0.505090717076291 
2407	 0.505251879789355 
2408	 0.505358254024037 
2409	 0.505429771751811 
2410	 0.505469649292741 
2411	 0.505530396194733 
2412	 0.505570129616887 
2413	 0.505548329087723 
2414	 0.505480246263036 
2415	 0.505428654808841 
2416	 0.505431291476595 
2417	 0.505431106586472 
2418	 0.505423497958935 
2419	 0.50536633334648 
2420	 0.505315605098465 
2421	 0.505304757377957 
2422	 0.505294135176363 
2423	 0.505351196908773 
2424	 0.505321165144365 
2425	 0.505098177250575 
2426	 0.504755233199542 
2427	 0.504343864596495 
2428	 0.504131117851828 
2429	 0.504034768566536 
2430	 0.503869222072187 
2431	 0.50373710748089 
2432	 0.503374135452606 
2433	 0.502834527192568 
2434	 0.50247599390518 
2435	 0.50220919951204 
2436	 0.502001145977338 
2437	 0.501779586375694 
2438	 0.501377113535054 
2439	 0.500917913007871 
2440	 0.500417558620481 
2441	 0.499898149771135 
2442	 0.499447647082127 
2443	 0.498886563483945 
2444	 0.498236308899241 
2445	 0.497591155092115 
2446	 0.496872019865858 
2447	 0.496269827308238 
2448	 0.495582197999458 
2449	 0.494755833009 
2450	 0.494018022826931 
2451	 0.49310936991252 
2452	 0.492283700508436 
2453	 0.491446200558706 
2454	 0.490467966024102 
2455	 0.489656301663268 
2456	 0.488704197980534 
2457	 0.487653599842702 
2458	 0.486807521777636 
2459	 0.486102806934431 
2460	 0.485591504140619 
2461	 0.484948096024243 
2462	 0.484178332602396 
2463	 0.483610777318574 
2464	 0.482794794299434 
2465	 0.482145324376626 
2466	 0.48188553648527 
2467	 0.481308484886694 
2468	 0.480774027890135 
2469	 0.480705925100889 
2470	 0.480510664440994 
2471	 0.480130816112153 
2472	 0.479903563435966 
2473	 0.479401297858678 
2474	 0.478798100718734 
2475	 0.478276805521389 
2476	 0.477552878418172 
2477	 0.476885394284567 
2478	 0.476331033402575 
2479	 0.476015002813831 
2480	 0.476134452397753 
2481	 0.476048713939424 
2482	 0.47600192804994 
2483	 0.475872368148817 
2484	 0.475620120371792 
2485	 0.475137303824722 
2486	 0.474676038568585 
2487	 0.474238500051818 
2488	 0.473879615605396 
2489	 0.473895592169592 
2490	 0.473967962396262 
2491	 0.473785919611202 
2492	 0.473477307542198 
2493	 0.47279316793677 
2494	 0.472393405099132 
2495	 0.472332848927594 
2496	 0.472253276847914 
2497	 0.472541501866475 
2498	 0.472507815984414 
2499	 0.472159211158821 
2500	 0.471812676463306 
