Wavelength	ProbetaAcolman00014.asd
350	 0.736983628712251 
351	 0.730452201791129 
352	 0.72805694182712 
353	 0.726083264254977 
354	 0.745197473815164 
355	 0.742567665386548 
356	 0.727745012525684 
357	 0.718157167561683 
358	 0.719153166537825 
359	 0.70242717777314 
360	 0.686258254337876 
361	 0.703004468277784 
362	 0.702943102465825 
363	 0.687187897395648 
364	 0.670489902809087 
365	 0.676891520927101 
366	 0.67576539449046 
367	 0.669755234760293 
368	 0.66784841843092 
369	 0.673532081224827 
370	 0.670846538129602 
371	 0.661962195968483 
372	 0.658550180637856 
373	 0.655615275849246 
374	 0.650378936445958 
375	 0.64493020063135 
376	 0.647997646812895 
377	 0.650496147099285 
378	 0.649002952289408 
379	 0.643438002340905 
380	 0.637910148144983 
381	 0.631836904239423 
382	 0.629595107041085 
383	 0.635079156305463 
384	 0.626374363694785 
385	 0.620466963637073 
386	 0.623453135308344 
387	 0.620199464511917 
388	 0.615949252425943 
389	 0.612865781206867 
390	 0.610838490677519 
391	 0.603217063155436 
392	 0.599588058774197 
393	 0.600792078659092 
394	 0.601704746598907 
395	 0.600702086443828 
396	 0.600293110898139 
397	 0.600200148536664 
398	 0.594349530775489 
399	 0.59481636820662 
400	 0.598252630585019 
401	 0.598337623356634 
402	 0.594977840626088 
403	 0.593366754875917 
404	 0.59517296451553 
405	 0.599046519344756 
406	 0.601576488035747 
407	 0.603835263476189 
408	 0.60622384552083 
409	 0.606267476505801 
410	 0.608047982080947 
411	 0.612005016407394 
412	 0.61673944212602 
413	 0.618378982498278 
414	 0.620963522364744 
415	 0.625248351263733 
416	 0.628854648610352 
417	 0.631743803595775 
418	 0.633451257374768 
419	 0.63421110882146 
420	 0.63595828145781 
421	 0.636584063648797 
422	 0.636948752095978 
423	 0.638527808013041 
424	 0.638941467313087 
425	 0.639883474466811 
426	 0.641399346088961 
427	 0.641498224623647 
428	 0.641636889075853 
429	 0.642220163741649 
430	 0.643043524714895 
431	 0.6428264864313 
432	 0.642651321278971 
433	 0.642904393214511 
434	 0.643475665713354 
435	 0.643657929629461 
436	 0.643502575043654 
437	 0.643235027353444 
438	 0.643215743532202 
439	 0.642613894560747 
440	 0.641800211666633 
441	 0.641228773130426 
442	 0.640260414935737 
443	 0.639086231713929 
444	 0.637915021281763 
445	 0.636912990447882 
446	 0.635689715854502 
447	 0.634454518884637 
448	 0.633314026741282 
449	 0.631947235340724 
450	 0.630550319732456 
451	 0.629472766709577 
452	 0.62893467640997 
453	 0.628095977252986 
454	 0.62719747976711 
455	 0.626512054197018 
456	 0.626243631693849 
457	 0.625718385953713 
458	 0.625396705434831 
459	 0.625627504959326 
460	 0.625716397989775 
461	 0.626060668258466 
462	 0.6264863641195 
463	 0.626602180778308 
464	 0.626880636389438 
465	 0.627376537132649 
466	 0.627866480186169 
467	 0.627772058769996 
468	 0.627880316506444 
469	 0.62800521154635 
470	 0.627873053439507 
471	 0.62810623555525 
472	 0.627836728668569 
473	 0.627133632210882 
474	 0.626782050402995 
475	 0.626537702911318 
476	 0.626118822749267 
477	 0.6253829022983 
478	 0.624401493224874 
479	 0.624002158858472 
480	 0.624034252021054 
481	 0.62400236124466 
482	 0.623991385747147 
483	 0.624149015672736 
484	 0.624619017881496 
485	 0.625523134964976 
486	 0.626577152474509 
487	 0.628013825883949 
488	 0.629920093605478 
489	 0.631605863478076 
490	 0.63349821271441 
491	 0.635654708194337 
492	 0.63794446447339 
493	 0.640646387988756 
494	 0.643651104019989 
495	 0.646789337705758 
496	 0.64986659830965 
497	 0.653043479632202 
498	 0.656389458258188 
499	 0.65988787590565 
500	 0.663261438530087 
501	 0.666683449219956 
502	 0.670198571353735 
503	 0.673732358926488 
504	 0.677430829918764 
505	 0.681125825997254 
506	 0.684694143944336 
507	 0.688245378763102 
508	 0.691810195158739 
509	 0.69528398811276 
510	 0.698579486762343 
511	 0.702202182220126 
512	 0.7056364855436 
513	 0.708752982751738 
514	 0.712026178542792 
515	 0.715169484969353 
516	 0.718245786013232 
517	 0.72137005463669 
518	 0.724543047851843 
519	 0.727534752156418 
520	 0.730387323739389 
521	 0.733310919974474 
522	 0.736232487281455 
523	 0.739059629320993 
524	 0.741745060367735 
525	 0.744319547033238 
526	 0.746986291635788 
527	 0.749653541701498 
528	 0.752138761492227 
529	 0.754392540776782 
530	 0.756757365929229 
531	 0.759238883987612 
532	 0.761469481350663 
533	 0.763521665539972 
534	 0.765581774052952 
535	 0.767740376196757 
536	 0.769735206775683 
537	 0.771712984184235 
538	 0.773674770822566 
539	 0.775559118316726 
540	 0.777485284902567 
541	 0.779372298832232 
542	 0.781125992282803 
543	 0.782649978598525 
544	 0.784161390370609 
545	 0.785657419096059 
546	 0.787077453129164 
547	 0.788448966090467 
548	 0.789752623995963 
549	 0.79093997770658 
550	 0.791950186828107 
551	 0.793015262475585 
552	 0.794032274383663 
553	 0.794917368529451 
554	 0.795800649332046 
555	 0.796620746526427 
556	 0.797413855937868 
557	 0.798237504753246 
558	 0.798952209284567 
559	 0.799728667987493 
560	 0.800591919872287 
561	 0.801334106351682 
562	 0.802246322213349 
563	 0.803207788159444 
564	 0.804039321892235 
565	 0.804773052842519 
566	 0.805462518916931 
567	 0.806058444766128 
568	 0.806462127888685 
569	 0.806980274821429 
570	 0.807520715427803 
571	 0.807996015170004 
572	 0.808468417678976 
573	 0.808893499768378 
574	 0.809293945356766 
575	 0.809726764682448 
576	 0.810262741342421 
577	 0.81088917562536 
578	 0.811488410886438 
579	 0.811844260585655 
580	 0.812217866350623 
581	 0.81250190143823 
582	 0.812669759081868 
583	 0.813223170746222 
584	 0.813699060347851 
585	 0.814015464244418 
586	 0.814352329424149 
587	 0.815005883936667 
588	 0.815613405121786 
589	 0.816070202483416 
590	 0.816826521320062 
591	 0.817409536241709 
592	 0.817834632214897 
593	 0.818265347522522 
594	 0.818819944824928 
595	 0.819231813613368 
596	 0.819472087515401 
597	 0.81973971087734 
598	 0.820279271337799 
599	 0.820643546158793 
600	 0.820694456042772 
601	 0.821362729051725 
602	 0.821946745796016 
603	 0.822275803549038 
604	 0.822478217792866 
605	 0.82304025098992 
606	 0.823641396855596 
607	 0.824040316616259 
608	 0.824184248886783 
609	 0.824649275005858 
610	 0.825214799671469 
611	 0.8255604055964 
612	 0.825710028106397 
613	 0.826181188579202 
614	 0.826817105967135 
615	 0.827071716662983 
616	 0.827267941847903 
617	 0.827696072902296 
618	 0.828312063933029 
619	 0.828483922744468 
620	 0.828687915098505 
621	 0.829108409767991 
622	 0.829709003175782 
623	 0.829893765060309 
624	 0.830090266254589 
625	 0.830477064578029 
626	 0.830945891913256 
627	 0.831318823419674 
628	 0.831589945924537 
629	 0.831839940444198 
630	 0.832284275065024 
631	 0.832590549233873 
632	 0.83276844137443 
633	 0.832981108646989 
634	 0.833250473125247 
635	 0.833633201648885 
636	 0.834040111747394 
637	 0.83420944326314 
638	 0.834503689520553 
639	 0.834826631515963 
640	 0.835048440085935 
641	 0.835321537481287 
642	 0.83554548635264 
643	 0.835779577093049 
644	 0.836141462876297 
645	 0.836308955006881 
646	 0.836457659620623 
647	 0.836709702913987 
648	 0.837006231010292 
649	 0.837180649681036 
650	 0.837295251376914 
651	 0.837474271308679 
652	 0.837756135407634 
653	 0.838032612889866 
654	 0.838229581174815 
655	 0.838324973733495 
656	 0.838532550509126 
657	 0.838783930031542 
658	 0.839007668591886 
659	 0.839237300192518 
660	 0.839379851994344 
661	 0.839521806703696 
662	 0.839764733805933 
663	 0.83989545176194 
664	 0.840011497563385 
665	 0.84020365264721 
666	 0.840527754406375 
667	 0.840870365505821 
668	 0.841061470987324 
669	 0.841087539707113 
670	 0.841353671053925 
671	 0.841574394994481 
672	 0.841735677062912 
673	 0.84193176999507 
674	 0.842109179287942 
675	 0.842258960742755 
676	 0.842400231971856 
677	 0.842579723515633 
678	 0.84268959908604 
679	 0.842840916725188 
680	 0.843107976729585 
681	 0.843302123564147 
682	 0.843482668262412 
683	 0.843675757072799 
684	 0.843888135879809 
685	 0.844126651596465 
686	 0.844262675187029 
687	 0.844310544103574 
688	 0.844497375119568 
689	 0.844693830278592 
690	 0.84485817097297 
691	 0.845003339476746 
692	 0.845256042459101 
693	 0.845497599976808 
694	 0.845676017610379 
695	 0.845802661146131 
696	 0.846010218999867 
697	 0.846309373626226 
698	 0.846586881609863 
699	 0.846558645458335 
700	 0.846701036769932 
701	 0.846963836800551 
702	 0.84717499113115 
703	 0.847333645657276 
704	 0.847501545532456 
705	 0.847718950687065 
706	 0.847980647935927 
707	 0.84799891185192 
708	 0.848044350505658 
709	 0.848256943769472 
710	 0.848439253426714 
711	 0.848591346704607 
712	 0.848743631617577 
713	 0.848905488697926 
714	 0.84892739216212 
715	 0.849047135464369 
716	 0.8492461640534 
717	 0.849332710833189 
718	 0.849421821798154 
719	 0.849581806946178 
720	 0.849814441645576 
721	 0.850035007518953 
722	 0.850009887148861 
723	 0.84989313029446 
724	 0.849922857052191 
725	 0.850136337341674 
726	 0.85033597865115 
727	 0.850506273834818 
728	 0.850741959539514 
729	 0.850791757866418 
730	 0.850813388242116 
731	 0.85094098024679 
732	 0.851185316988963 
733	 0.851314377722246 
734	 0.851350512992015 
735	 0.851398724479235 
736	 0.851540529649889 
737	 0.851726606479938 
738	 0.851866372195628 
739	 0.851869424173735 
740	 0.851878021260461 
741	 0.851888134526062 
742	 0.851947358166661 
743	 0.852206310777196 
744	 0.852491531861158 
745	 0.852586959709845 
746	 0.852440803379677 
747	 0.852539697482215 
748	 0.852730125271115 
749	 0.852973009652095 
750	 0.853257324065595 
751	 0.853279046145992 
752	 0.853245924691263 
753	 0.853296829455062 
754	 0.853406396428504 
755	 0.853626214496993 
756	 0.853813016658871 
757	 0.853869966360467 
758	 0.853960249147616 
759	 0.853987135810932 
760	 0.854074037193879 
761	 0.854374363316196 
762	 0.854574613610181 
763	 0.854639356508793 
764	 0.854639732210733 
765	 0.854728152917792 
766	 0.854852576158884 
767	 0.855061293347532 
768	 0.855329896166064 
769	 0.855428341911191 
770	 0.855524554921465 
771	 0.855681441834846 
772	 0.855892684475789 
773	 0.856019154549952 
774	 0.856109806765621 
775	 0.856174407028349 
776	 0.856198906147534 
777	 0.856355978762308 
778	 0.856528111537564 
779	 0.856643838295221 
780	 0.856781644588388 
781	 0.857004479959314 
782	 0.857173665670236 
783	 0.857162334171117 
784	 0.85705916648277 
785	 0.857241163542518 
786	 0.857564165490818 
787	 0.857635457878351 
788	 0.85767973290847 
789	 0.857934441917192 
790	 0.858293463982967 
791	 0.858276144217385 
792	 0.858287321668041 
793	 0.858347636047631 
794	 0.858416258102911 
795	 0.858504161063416 
796	 0.858571979458535 
797	 0.858601978926404 
798	 0.858621580999114 
799	 0.858811383672154 
800	 0.85903583023485 
801	 0.85917307532245 
802	 0.859162262610314 
803	 0.859287368888866 
804	 0.859468350930237 
805	 0.859596102017351 
806	 0.859601079090926 
807	 0.859749321645252 
808	 0.859858368023165 
809	 0.859805334160859 
810	 0.859981690490775 
811	 0.860280382169623 
812	 0.860512972339303 
813	 0.860527469803554 
814	 0.860613727289204 
815	 0.860707390521992 
816	 0.860824169170393 
817	 0.861038356719891 
818	 0.861030753829631 
819	 0.861011554395479 
820	 0.861121175782174 
821	 0.861248920702196 
822	 0.861337650283888 
823	 0.861409046325306 
824	 0.861505157996461 
825	 0.861650816611702 
826	 0.861780435533754 
827	 0.861849389502157 
828	 0.861849874913559 
829	 0.861885330607788 
830	 0.86198702633146 
831	 0.862153925534734 
832	 0.8623469846064 
833	 0.862399392331254 
834	 0.862423158250739 
835	 0.862482444053314 
836	 0.862500410437338 
837	 0.862486675669902 
838	 0.862551149825325 
839	 0.862710302248307 
840	 0.862649099260507 
841	 0.862619842231685 
842	 0.862668800217554 
843	 0.86274243561603 
844	 0.862736845020855 
845	 0.862848011615678 
846	 0.863015144670745 
847	 0.863016752808541 
848	 0.863053803529571 
849	 0.863135152457471 
850	 0.863206192232544 
851	 0.863172872654263 
852	 0.863235099793351 
853	 0.863307337538231 
854	 0.863322462582218 
855	 0.863380886406826 
856	 0.863458237307241 
857	 0.86358066922437 
858	 0.863737566609803 
859	 0.863748368851382 
860	 0.863727641505948 
861	 0.863742933708551 
862	 0.863831847063628 
863	 0.864049409170584 
864	 0.864125075937462 
865	 0.864071894370612 
866	 0.86413852622883 
867	 0.864134059676643 
868	 0.864124353664083 
869	 0.86415051507808 
870	 0.864173076809695 
871	 0.864123286978786 
872	 0.864164074536193 
873	 0.864379591082714 
874	 0.864589483790873 
875	 0.864587696896135 
876	 0.864462463805969 
877	 0.864385740516492 
878	 0.864399833850935 
879	 0.86457946551266 
880	 0.864790674277718 
881	 0.864821167329202 
882	 0.864632637202494 
883	 0.864499632011622 
884	 0.864506094753152 
885	 0.864557661189909 
886	 0.864554957665103 
887	 0.864555595455706 
888	 0.864616927715744 
889	 0.864757828000279 
890	 0.864786333453272 
891	 0.864797878590606 
892	 0.864832509035413 
893	 0.864746247551252 
894	 0.864708636374477 
895	 0.864674120866042 
896	 0.864596404818964 
897	 0.864582565867795 
898	 0.864433918811607 
899	 0.86438886736087 
900	 0.864659833276024 
901	 0.864803802493512 
902	 0.864827322836897 
903	 0.864768028448791 
904	 0.864683031368327 
905	 0.864588108454618 
906	 0.864550312694829 
907	 0.864576916654386 
908	 0.864618739492239 
909	 0.864578168629667 
910	 0.864568858339977 
911	 0.864667015113837 
912	 0.864860059583347 
913	 0.864872700203383 
914	 0.864844301503807 
915	 0.864880705039496 
916	 0.864947201681609 
917	 0.865127748922266 
918	 0.865136280180424 
919	 0.864913247814383 
920	 0.864930360365914 
921	 0.865060241385441 
922	 0.865182880216917 
923	 0.865206582858481 
924	 0.865114105903308 
925	 0.865167263267219 
926	 0.865264357951426 
927	 0.865248201549933 
928	 0.865204642169115 
929	 0.865345698270433 
930	 0.865510061660701 
931	 0.865467794617289 
932	 0.865433487922778 
933	 0.86549300422642 
934	 0.865616679989623 
935	 0.865709380961758 
936	 0.865718061382833 
937	 0.865776875988737 
938	 0.865823041592716 
939	 0.86572171202129 
940	 0.865869371625536 
941	 0.865973809636009 
942	 0.866019851843364 
943	 0.866223186265006 
944	 0.866183056082482 
945	 0.866108567128406 
946	 0.866077218182994 
947	 0.865974924263532 
948	 0.866041891221295 
949	 0.866082342850274 
950	 0.865982995494809 
951	 0.865831541943372 
952	 0.865856929562248 
953	 0.865946390853767 
954	 0.865935015547565 
955	 0.865708677640122 
956	 0.865600904614826 
957	 0.865466967657633 
958	 0.865252005629623 
959	 0.865217636620054 
960	 0.865086303649045 
961	 0.865009990294988 
962	 0.865022068144607 
963	 0.864734399255864 
964	 0.864842389934518 
965	 0.865060762026537 
966	 0.865073154884958 
967	 0.865106530066996 
968	 0.865154544155502 
969	 0.865209690412905 
970	 0.865303863745211 
971	 0.865593118955267 
972	 0.865669569430868 
973	 0.865563822114371 
974	 0.865479260385091 
975	 0.8656602974576 
976	 0.86582342670373 
977	 0.865862283686801 
978	 0.865782357965367 
979	 0.86569330467113 
980	 0.865865457439782 
981	 0.865989657246036 
982	 0.865819278427935 
983	 0.865978213932021 
984	 0.866131702859641 
985	 0.866203192168759 
986	 0.866256119140175 
987	 0.866512021966817 
988	 0.866635666586857 
989	 0.866510999559482 
990	 0.866233279648722 
991	 0.866230468567871 
992	 0.866379806580969 
993	 0.866498219304588 
994	 0.86645705028343 
995	 0.86639202317082 
996	 0.866365936814135 
997	 0.866239658231695 
998	 0.866008239384713 
999	 0.866346607450454 
1000	 0.866650019097039 
1001	 0.869065022320798 
1002	 0.869101557420376 
1003	 0.869135536967113 
1004	 0.869143030021614 
1005	 0.869175861270622 
1006	 0.869197662282897 
1007	 0.869185417680607 
1008	 0.869177915528434 
1009	 0.86920340267194 
1010	 0.869191579323887 
1011	 0.869133634085605 
1012	 0.869098736015668 
1013	 0.869053100907503 
1014	 0.869027617121869 
1015	 0.869031299336371 
1016	 0.869005449911215 
1017	 0.868950624726079 
1018	 0.868954171391088 
1019	 0.86890284484932 
1020	 0.868848548738306 
1021	 0.868859962658404 
1022	 0.868934045207445 
1023	 0.868967108463026 
1024	 0.869015265534104 
1025	 0.869068415591586 
1026	 0.869102336256371 
1027	 0.869148205413881 
1028	 0.869209877417379 
1029	 0.869285057416553 
1030	 0.869352472991139 
1031	 0.869412989826997 
1032	 0.869449723708565 
1033	 0.869534965127492 
1034	 0.869675774078817 
1035	 0.869780702458986 
1036	 0.869851555935084 
1037	 0.869933994507057 
1038	 0.870015786981021 
1039	 0.870029502266142 
1040	 0.87007168180896 
1041	 0.870143559570881 
1042	 0.870200451359691 
1043	 0.870212021157969 
1044	 0.870313823834176 
1045	 0.870435261873243 
1046	 0.870495376629178 
1047	 0.870525641277986 
1048	 0.870562196835821 
1049	 0.870575098307894 
1050	 0.870642543162354 
1051	 0.870752921629197 
1052	 0.870776967097695 
1053	 0.870790969217033 
1054	 0.870758922671602 
1055	 0.870775763592635 
1056	 0.870779821658904 
1057	 0.870829160667002 
1058	 0.870943958320783 
1059	 0.871016997455024 
1060	 0.871041621314574 
1061	 0.871066272956367 
1062	 0.871074084417852 
1063	 0.871100534372405 
1064	 0.871143212050159 
1065	 0.871148061938773 
1066	 0.87118524062704 
1067	 0.87122202012348 
1068	 0.871216453336438 
1069	 0.871221433529642 
1070	 0.871233179381696 
1071	 0.871234091436322 
1072	 0.871207034488879 
1073	 0.871240240944835 
1074	 0.871315965656085 
1075	 0.871366408603226 
1076	 0.87140943355622 
1077	 0.871433016587382 
1078	 0.871421818400699 
1079	 0.871387937641495 
1080	 0.871390023221177 
1081	 0.871452903386933 
1082	 0.871550445809815 
1083	 0.871624711275639 
1084	 0.871693563211939 
1085	 0.871748296295077 
1086	 0.871780412248288 
1087	 0.871769311985117 
1088	 0.871800931334328 
1089	 0.87184968064141 
1090	 0.871882283860902 
1091	 0.87191996283418 
1092	 0.871964351700238 
1093	 0.872003791078622 
1094	 0.872052795243801 
1095	 0.872065927947844 
1096	 0.872059737125214 
1097	 0.872077874494867 
1098	 0.872035959768209 
1099	 0.8720087390532 
1100	 0.871998599165252 
1101	 0.871963187329716 
1102	 0.871977627351752 
1103	 0.871968583875837 
1104	 0.871963907877631 
1105	 0.871947219172044 
1106	 0.871953003044747 
1107	 0.871923274156937 
1108	 0.871914530456032 
1109	 0.871949818294612 
1110	 0.871935056970827 
1111	 0.871893661502739 
1112	 0.87184860197556 
1113	 0.871793331956936 
1114	 0.871762185683563 
1115	 0.871720218776483 
1116	 0.871661517297679 
1117	 0.871608841254495 
1118	 0.871571488930565 
1119	 0.871539282905961 
1120	 0.87150535583254 
1121	 0.871497982992292 
1122	 0.871464870286156 
1123	 0.871369565202046 
1124	 0.871263657588536 
1125	 0.871160327705598 
1126	 0.871009116317188 
1127	 0.87088563090574 
1128	 0.870747254291812 
1129	 0.870581795426475 
1130	 0.870455691676488 
1131	 0.870292511537633 
1132	 0.870126957783073 
1133	 0.869988055961024 
1134	 0.869825945869313 
1135	 0.869631650596774 
1136	 0.869420184940852 
1137	 0.869207149705203 
1138	 0.868952496903983 
1139	 0.868706870086386 
1140	 0.868468936584113 
1141	 0.868250189279657 
1142	 0.86797134390695 
1143	 0.867686127160695 
1144	 0.867419914301235 
1145	 0.867123540836283 
1146	 0.866839756695649 
1147	 0.866584445570672 
1148	 0.866284451277838 
1149	 0.865989868723643 
1150	 0.865748840305801 
1151	 0.865496672481793 
1152	 0.865214969065162 
1153	 0.864958054856189 
1154	 0.864647351038245 
1155	 0.864273843837865 
1156	 0.86390332592586 
1157	 0.863523305566312 
1158	 0.863132674298532 
1159	 0.86271472416833 
1160	 0.862302416755371 
1161	 0.861891205142028 
1162	 0.861489451343018 
1163	 0.861110697570727 
1164	 0.860727520444378 
1165	 0.860354153585429 
1166	 0.859991686911365 
1167	 0.859640974206769 
1168	 0.859324989087623 
1169	 0.85900274069358 
1170	 0.858682497997796 
1171	 0.858391037492725 
1172	 0.858100146122258 
1173	 0.857844163170341 
1174	 0.857639417322379 
1175	 0.857427963199505 
1176	 0.85723926307514 
1177	 0.857033227804028 
1178	 0.85681719177272 
1179	 0.856616346530696 
1180	 0.856444308582055 
1181	 0.85621966103241 
1182	 0.85597680944838 
1183	 0.855740846320815 
1184	 0.855444755552592 
1185	 0.85518450445572 
1186	 0.854948796679253 
1187	 0.854721215668261 
1188	 0.854531679660354 
1189	 0.854368710613496 
1190	 0.854233176896304 
1191	 0.854139655425329 
1192	 0.854055178150997 
1193	 0.853991090952816 
1194	 0.853944850969083 
1195	 0.853934785222308 
1196	 0.853906259054758 
1197	 0.853896181855952 
1198	 0.853864422881552 
1199	 0.853802151625896 
1200	 0.853754586202129 
1201	 0.853758373511066 
1202	 0.853719455652758 
1203	 0.853658708069123 
1204	 0.853654033734964 
1205	 0.853652512548751 
1206	 0.853623978739674 
1207	 0.853668761074398 
1208	 0.853791191635771 
1209	 0.853860214969892 
1210	 0.853927807701942 
1211	 0.854004988083398 
1212	 0.854051711843529 
1213	 0.854157829440637 
1214	 0.854277173378301 
1215	 0.854454352399537 
1216	 0.854650720137041 
1217	 0.854917817012409 
1218	 0.855262030590508 
1219	 0.855640209235094 
1220	 0.856018090340301 
1221	 0.856452829317372 
1222	 0.856858928015076 
1223	 0.857256846549513 
1224	 0.85767258042922 
1225	 0.8581258780233 
1226	 0.858517313441356 
1227	 0.858896618410836 
1228	 0.859250177922564 
1229	 0.859549372114305 
1230	 0.85988530765416 
1231	 0.860253536060116 
1232	 0.86056070347535 
1233	 0.860847465252521 
1234	 0.861119836506205 
1235	 0.861339485697962 
1236	 0.861567079666834 
1237	 0.861804843932376 
1238	 0.862026751112399 
1239	 0.862239659663248 
1240	 0.862429468779371 
1241	 0.862616833336664 
1242	 0.862756719291965 
1243	 0.862877136887441 
1244	 0.862947145238249 
1245	 0.863055056175214 
1246	 0.863153316563436 
1247	 0.863261816924337 
1248	 0.863381436257813 
1249	 0.863507996600629 
1250	 0.863633367001294 
1251	 0.86376525524105 
1252	 0.863929581845076 
1253	 0.864059161012062 
1254	 0.864179896775313 
1255	 0.864282677206769 
1256	 0.864383929305613 
1257	 0.864444113655231 
1258	 0.864461085735933 
1259	 0.864485562374676 
1260	 0.86446490473451 
1261	 0.864471106494069 
1262	 0.864494149754093 
1263	 0.864516976370555 
1264	 0.864554532328468 
1265	 0.864613974114428 
1266	 0.864644079742751 
1267	 0.86469239516151 
1268	 0.864681631768232 
1269	 0.864616996254225 
1270	 0.864586324627793 
1271	 0.864545266562886 
1272	 0.864493686392337 
1273	 0.864455675342278 
1274	 0.864399126920261 
1275	 0.864297769778455 
1276	 0.864232557751439 
1277	 0.864185997391738 
1278	 0.864135397307901 
1279	 0.864097928310234 
1280	 0.864052770002379 
1281	 0.863992746874193 
1282	 0.863953526508467 
1283	 0.863908416132657 
1284	 0.863889891914811 
1285	 0.86389058560664 
1286	 0.863916897743092 
1287	 0.86393673584734 
1288	 0.863981879137408 
1289	 0.863995841496552 
1290	 0.863997107732278 
1291	 0.864005483079676 
1292	 0.864001650869523 
1293	 0.86400970934253 
1294	 0.864052165443779 
1295	 0.864033229255123 
1296	 0.863983297497464 
1297	 0.863940138696695 
1298	 0.863844954155218 
1299	 0.86379645556396 
1300	 0.863772167532762 
1301	 0.863754003553372 
1302	 0.863764435352258 
1303	 0.863755291747158 
1304	 0.863778287045106 
1305	 0.863745253050348 
1306	 0.863656845215345 
1307	 0.863587050429497 
1308	 0.863495124590546 
1309	 0.863397410513532 
1310	 0.86331801936936 
1311	 0.863256714922387 
1312	 0.863194680174415 
1313	 0.863135784944477 
1314	 0.863072224794752 
1315	 0.863030420837403 
1316	 0.862947388698317 
1317	 0.862846900099991 
1318	 0.862731765935878 
1319	 0.862588608271079 
1320	 0.862453271235428 
1321	 0.862303637323107 
1322	 0.86216404521077 
1323	 0.862032029227847 
1324	 0.861889915475559 
1325	 0.861741002593997 
1326	 0.861599966098263 
1327	 0.861464235972949 
1328	 0.861316192930729 
1329	 0.861181203803419 
1330	 0.861021054023003 
1331	 0.86084782574365 
1332	 0.860654228819096 
1333	 0.86045640619185 
1334	 0.860222000541348 
1335	 0.859963617440389 
1336	 0.85968102150485 
1337	 0.859376165481904 
1338	 0.859035238794259 
1339	 0.858706165746387 
1340	 0.858351424385215 
1341	 0.858027893116648 
1342	 0.857712241403959 
1343	 0.857402045821349 
1344	 0.857122464833701 
1345	 0.856801373289616 
1346	 0.856468611937397 
1347	 0.856126760754176 
1348	 0.855785408090673 
1349	 0.855395836266846 
1350	 0.854974365664227 
1351	 0.854549309314991 
1352	 0.85408792753037 
1353	 0.853618700245389 
1354	 0.853156116484245 
1355	 0.852670562243097 
1356	 0.852134842816779 
1357	 0.851624460961316 
1358	 0.851080750745719 
1359	 0.850594891590973 
1360	 0.850156429619142 
1361	 0.849717377068378 
1362	 0.849280286925892 
1363	 0.848893532139624 
1364	 0.848480326995084 
1365	 0.848058881711848 
1366	 0.847633510718358 
1367	 0.847213810694858 
1368	 0.846789213446722 
1369	 0.846355483331 
1370	 0.845914195876627 
1371	 0.845484095999265 
1372	 0.845029804139705 
1373	 0.844566973614666 
1374	 0.844065296195466 
1375	 0.84357608897183 
1376	 0.842986696089667 
1377	 0.842318160478199 
1378	 0.841633754478304 
1379	 0.840865999014662 
1380	 0.840114191610226 
1381	 0.839352512232669 
1382	 0.83856722565586 
1383	 0.837763884302091 
1384	 0.836939359082958 
1385	 0.836137955172209 
1386	 0.835253464496691 
1387	 0.83434054631821 
1388	 0.833378994353475 
1389	 0.832351367152582 
1390	 0.831290196039035 
1391	 0.830220124668721 
1392	 0.82904490870005 
1393	 0.827904419372946 
1394	 0.826737422258673 
1395	 0.825547315817921 
1396	 0.824357087237132 
1397	 0.823132286877006 
1398	 0.821886853519207 
1399	 0.820577146640029 
1400	 0.81926849701262 
1401	 0.817827312803184 
1402	 0.816358470291429 
1403	 0.81467092406705 
1404	 0.812915247538316 
1405	 0.810909345955578 
1406	 0.808700638643665 
1407	 0.806337900195429 
1408	 0.803641741511024 
1409	 0.801103255046341 
1410	 0.798248790110193 
1411	 0.795898218395974 
1412	 0.793503589563734 
1413	 0.791807936809643 
1414	 0.790494876201311 
1415	 0.789675894123848 
1416	 0.789588818828547 
1417	 0.789535198115902 
1418	 0.790037249325334 
1419	 0.790339096857506 
1420	 0.790839953599483 
1421	 0.791097308698666 
1422	 0.791276642754726 
1423	 0.79128320415966 
1424	 0.791094873208505 
1425	 0.790799718720569 
1426	 0.790417455859362 
1427	 0.789968769624342 
1428	 0.78951875159324 
1429	 0.789051872230221 
1430	 0.788597555675774 
1431	 0.788136537520337 
1432	 0.787666281775822 
1433	 0.787185207084788 
1434	 0.786730211235838 
1435	 0.786263077188934 
1436	 0.785828787314453 
1437	 0.785426698391937 
1438	 0.785030047836114 
1439	 0.784631635847983 
1440	 0.784272473901253 
1441	 0.783947946643113 
1442	 0.783620137520255 
1443	 0.783311621744454 
1444	 0.783009524461023 
1445	 0.782699973830047 
1446	 0.782429055275462 
1447	 0.782195138727848 
1448	 0.781950811917813 
1449	 0.781725151210933 
1450	 0.781495533350665 
1451	 0.781270490549754 
1452	 0.781032130242918 
1453	 0.780772407764587 
1454	 0.780549536222425 
1455	 0.780319586659385 
1456	 0.780122313822122 
1457	 0.779988218925908 
1458	 0.779823123927982 
1459	 0.779659056718395 
1460	 0.779488236747308 
1461	 0.77930474344156 
1462	 0.779123599423536 
1463	 0.778930976930891 
1464	 0.778754208330431 
1465	 0.778584760630159 
1466	 0.778408322905304 
1467	 0.778266026213848 
1468	 0.77813756812658 
1469	 0.778040920084115 
1470	 0.777980704029747 
1471	 0.777911469723044 
1472	 0.777872631029792 
1473	 0.777803338736943 
1474	 0.777729999180644 
1475	 0.777632172572749 
1476	 0.777518895848688 
1477	 0.777401463818216 
1478	 0.777263289973054 
1479	 0.777133115541855 
1480	 0.777015263391608 
1481	 0.776859712699876 
1482	 0.776689999911214 
1483	 0.776499529222493 
1484	 0.776276338378522 
1485	 0.776058139795807 
1486	 0.775831380295268 
1487	 0.775596325113992 
1488	 0.775336682392834 
1489	 0.775107665149607 
1490	 0.774878634057476 
1491	 0.774664639031908 
1492	 0.774471667682539 
1493	 0.774284941904705 
1494	 0.774094431097847 
1495	 0.773934359307836 
1496	 0.773789798585127 
1497	 0.773673719259141 
1498	 0.773579257966813 
1499	 0.773510389250672 
1500	 0.773458185921968 
1501	 0.773449240795656 
1502	 0.773492697277775 
1503	 0.773529201027826 
1504	 0.773584201638794 
1505	 0.773665442507882 
1506	 0.773743450444891 
1507	 0.773861778214915 
1508	 0.774035716450099 
1509	 0.774208038952106 
1510	 0.77440033413346 
1511	 0.774596843062379 
1512	 0.7748023912582 
1513	 0.775016378088388 
1514	 0.775224164716292 
1515	 0.775467196021815 
1516	 0.775759352709652 
1517	 0.776023016907431 
1518	 0.776305314480139 
1519	 0.77656804398515 
1520	 0.776794599354596 
1521	 0.777018230213806 
1522	 0.777265122281149 
1523	 0.777531647808628 
1524	 0.777822875699015 
1525	 0.778135801282588 
1526	 0.778475783847755 
1527	 0.778850365121529 
1528	 0.779204167548366 
1529	 0.7795822951489 
1530	 0.779926527500876 
1531	 0.780242322706197 
1532	 0.78058920705895 
1533	 0.780933755862887 
1534	 0.78129855496445 
1535	 0.781685044300703 
1536	 0.782064391518059 
1537	 0.782448429752084 
1538	 0.782837476801812 
1539	 0.783228102043736 
1540	 0.78362953940543 
1541	 0.784040491219914 
1542	 0.784453828494018 
1543	 0.784901642389839 
1544	 0.785275814727545 
1545	 0.78562499204331 
1546	 0.785958088100098 
1547	 0.786244564467754 
1548	 0.786528600138049 
1549	 0.786820605607387 
1550	 0.787066427731188 
1551	 0.787269164529261 
1552	 0.787467019523683 
1553	 0.787636491753946 
1554	 0.787810294024774 
1555	 0.787968230607857 
1556	 0.788132375093884 
1557	 0.788299072265961 
1558	 0.788456807481984 
1559	 0.788623352574281 
1560	 0.788756380314435 
1561	 0.788860426520217 
1562	 0.788977808205658 
1563	 0.789074131066542 
1564	 0.789186438585784 
1565	 0.789320901974544 
1566	 0.789436395958822 
1567	 0.789522678105287 
1568	 0.789653516116403 
1569	 0.789797149466824 
1570	 0.789952450062432 
1571	 0.790144033232317 
1572	 0.790327099445631 
1573	 0.790504045230826 
1574	 0.79069675674163 
1575	 0.790915115982181 
1576	 0.791112474414778 
1577	 0.791302573967475 
1578	 0.791500391129011 
1579	 0.791680513842639 
1580	 0.791886521602055 
1581	 0.792128405296665 
1582	 0.792341109789214 
1583	 0.792549595518212 
1584	 0.79275738561274 
1585	 0.792949421000044 
1586	 0.793144201619829 
1587	 0.793344122914625 
1588	 0.793541280360726 
1589	 0.793726662480049 
1590	 0.793922600411604 
1591	 0.794121111070916 
1592	 0.794329880117121 
1593	 0.794538657461204 
1594	 0.794765695373777 
1595	 0.795025746254887 
1596	 0.795261095330902 
1597	 0.795499516793431 
1598	 0.7957275406431 
1599	 0.795909555535552 
1600	 0.796141427598651 
1601	 0.79641046160802 
1602	 0.796662983958043 
1603	 0.796950077477312 
1604	 0.797202646316022 
1605	 0.797414980143271 
1606	 0.797643014903664 
1607	 0.797880535472428 
1608	 0.798095590880534 
1609	 0.798311538875355 
1610	 0.798507003590232 
1611	 0.798664818535103 
1612	 0.79883363996126 
1613	 0.799000697972814 
1614	 0.799160607240128 
1615	 0.799310672894618 
1616	 0.799473581043354 
1617	 0.79962485511616 
1618	 0.799799719260611 
1619	 0.80001961443466 
1620	 0.800199099010399 
1621	 0.800374452725825 
1622	 0.800535260824765 
1623	 0.800663839545298 
1624	 0.800794020240758 
1625	 0.800913649114134 
1626	 0.801042712973404 
1627	 0.801182699032921 
1628	 0.801294862985842 
1629	 0.801402422206728 
1630	 0.801499686264172 
1631	 0.801573971738769 
1632	 0.801642370126783 
1633	 0.801704585517843 
1634	 0.80176298562542 
1635	 0.801805534998819 
1636	 0.801844353877423 
1637	 0.801868105573028 
1638	 0.801914887057185 
1639	 0.801969912734534 
1640	 0.802023508025844 
1641	 0.802107851204366 
1642	 0.802165992257321 
1643	 0.802216953182231 
1644	 0.802239749863582 
1645	 0.802249828337312 
1646	 0.80223138873527 
1647	 0.802176105444037 
1648	 0.802114516762952 
1649	 0.80204564494101 
1650	 0.801945287576097 
1651	 0.80181128867832 
1652	 0.801674344242493 
1653	 0.801522177083949 
1654	 0.801344779659984 
1655	 0.801162131436909 
1656	 0.800953158283184 
1657	 0.800726259762274 
1658	 0.800447315194671 
1659	 0.800137919896427 
1660	 0.799798305339437 
1661	 0.799394919416502 
1662	 0.798996505429886 
1663	 0.798599787476892 
1664	 0.798145947063675 
1665	 0.797679228290479 
1666	 0.797141865645991 
1667	 0.796534420880532 
1668	 0.795910801943042 
1669	 0.795266768726016 
1670	 0.794538431139193 
1671	 0.793765826914962 
1672	 0.792918777383181 
1673	 0.791990083168722 
1674	 0.790994805977031 
1675	 0.7899200356876 
1676	 0.788844638080225 
1677	 0.787695800623059 
1678	 0.786555495113078 
1679	 0.785420041497131 
1680	 0.784228261302485 
1681	 0.783008656143503 
1682	 0.781734284708431 
1683	 0.780416173307967 
1684	 0.779086962547121 
1685	 0.777701920137857 
1686	 0.776321737796151 
1687	 0.774892790577555 
1688	 0.773516244997819 
1689	 0.772113821339627 
1690	 0.770814535521804 
1691	 0.769596270455204 
1692	 0.768413307388788 
1693	 0.767316786030295 
1694	 0.766185503463452 
1695	 0.765073897489039 
1696	 0.763937373358773 
1697	 0.762785432601064 
1698	 0.761635372941503 
1699	 0.760517027096993 
1700	 0.759346350652342 
1701	 0.758168030141329 
1702	 0.756930711981531 
1703	 0.755615374758432 
1704	 0.754313122476339 
1705	 0.752961819617734 
1706	 0.751613411186245 
1707	 0.75037821397927 
1708	 0.749130167028212 
1709	 0.747958059912714 
1710	 0.746862457587836 
1711	 0.745698997465113 
1712	 0.744624619645177 
1713	 0.743513523051119 
1714	 0.742356144716154 
1715	 0.741284282011031 
1716	 0.740136274009565 
1717	 0.738993300262792 
1718	 0.737871519782973 
1719	 0.736683951996092 
1720	 0.735544730899893 
1721	 0.734435009955092 
1722	 0.733344532965378 
1723	 0.732359512819914 
1724	 0.731411487803023 
1725	 0.730595264638819 
1726	 0.729947094606172 
1727	 0.729438049433723 
1728	 0.729164125447497 
1729	 0.729135459602467 
1730	 0.729372163713845 
1731	 0.729839568748165 
1732	 0.730582194241592 
1733	 0.731456569236519 
1734	 0.732483740181211 
1735	 0.733701869547917 
1736	 0.734904193330369 
1737	 0.73615258746129 
1738	 0.737355824910575 
1739	 0.738437705555484 
1740	 0.739492518510026 
1741	 0.740412213491077 
1742	 0.741247947629337 
1743	 0.741970676427193 
1744	 0.742571914529124 
1745	 0.743074623230949 
1746	 0.743455807842162 
1747	 0.743729074337086 
1748	 0.743877100768766 
1749	 0.743963481877441 
1750	 0.743941816306379 
1751	 0.743872042373876 
1752	 0.743714191432881 
1753	 0.74354484862821 
1754	 0.743310170579909 
1755	 0.743078647069073 
1756	 0.742803158917944 
1757	 0.742550354633851 
1758	 0.742284659844552 
1759	 0.742062146956183 
1760	 0.741982917711473 
1761	 0.74196218016423 
1762	 0.742034136438834 
1763	 0.742262264848845 
1764	 0.742547263056997 
1765	 0.742978200141416 
1766	 0.743571284655401 
1767	 0.74426808696964 
1768	 0.745064048227299 
1769	 0.745881937965512 
1770	 0.746663274836882 
1771	 0.7474343257854 
1772	 0.748196042292079 
1773	 0.748958351017741 
1774	 0.749722422877751 
1775	 0.75042790472781 
1776	 0.751110941230719 
1777	 0.751755232465197 
1778	 0.752278736576381 
1779	 0.75273041366782 
1780	 0.753132663082882 
1781	 0.753447797985791 
1782	 0.753762582845847 
1783	 0.754091119744838 
1784	 0.754365736026965 
1785	 0.754546602131924 
1786	 0.754777023358669 
1787	 0.755006938684941 
1788	 0.755199812325424 
1789	 0.75541897273257 
1790	 0.755586838731809 
1791	 0.75569503689105 
1792	 0.755815017981027 
1793	 0.755921436782254 
1794	 0.756021827181182 
1795	 0.756077530781016 
1796	 0.756085752710201 
1797	 0.756117817434546 
1798	 0.756161877802389 
1799	 0.75618443498707 
1800	 0.756233325887839 
1801	 0.75751207323726 
1802	 0.757714167835118 
1803	 0.757963155357146 
1804	 0.758271772303389 
1805	 0.758640669723099 
1806	 0.758976432951005 
1807	 0.759355357588747 
1808	 0.759693559203392 
1809	 0.760048038450225 
1810	 0.760325083805791 
1811	 0.760580340838487 
1812	 0.760799379764886 
1813	 0.760938806609579 
1814	 0.761094137201808 
1815	 0.76126378336215 
1816	 0.761397671255052 
1817	 0.761505330607481 
1818	 0.761583855213384 
1819	 0.761674240435277 
1820	 0.761701847637221 
1821	 0.761792130846758 
1822	 0.76191905734835 
1823	 0.762051259682938 
1824	 0.762182679066563 
1825	 0.762359704005992 
1826	 0.762523593100547 
1827	 0.762715694559132 
1828	 0.762845680376213 
1829	 0.762960218494773 
1830	 0.763067328997 
1831	 0.76313760994961 
1832	 0.763207511412934 
1833	 0.76327935590935 
1834	 0.763355848654368 
1835	 0.763442410403704 
1836	 0.763524391355868 
1837	 0.763628414836211 
1838	 0.763772921645896 
1839	 0.76388473502414 
1840	 0.763993804272584 
1841	 0.764095007562649 
1842	 0.764189331830047 
1843	 0.76427339999612 
1844	 0.764355124039342 
1845	 0.764431790708758 
1846	 0.764489278254345 
1847	 0.764508753739805 
1848	 0.764516786571402 
1849	 0.764490434744713 
1850	 0.764474615169639 
1851	 0.764453891946775 
1852	 0.764430540565773 
1853	 0.764368412490047 
1854	 0.764286470996653 
1855	 0.764156615564571 
1856	 0.763956238779152 
1857	 0.763728805899988 
1858	 0.763478846676531 
1859	 0.763194761282438 
1860	 0.762890203154243 
1861	 0.762519077217114 
1862	 0.762117843418042 
1863	 0.761664358341161 
1864	 0.761116792181356 
1865	 0.760518053861574 
1866	 0.759857675245724 
1867	 0.759068672666616 
1868	 0.758215773853874 
1869	 0.757318473395117 
1870	 0.75636416017169 
1871	 0.755344818294681 
1872	 0.754303308952723 
1873	 0.753222778399172 
1874	 0.752095259182797 
1875	 0.750928611221797 
1876	 0.749618060078712 
1877	 0.748340709689141 
1878	 0.746927389479895 
1879	 0.745357773339609 
1880	 0.743890007334786 
1881	 0.742251404124841 
1882	 0.740484315619275 
1883	 0.73861844596153 
1884	 0.736677020186761 
1885	 0.734403706137796 
1886	 0.732039617877764 
1887	 0.729486187368513 
1888	 0.726697250062977 
1889	 0.723993740907543 
1890	 0.721022265031438 
1891	 0.71797108719723 
1892	 0.714893499213794 
1893	 0.711560237407156 
1894	 0.70794886596599 
1895	 0.70443518595489 
1896	 0.700681002476643 
1897	 0.696724652655328 
1898	 0.693076629810846 
1899	 0.689146322773846 
1900	 0.685242537361425 
1901	 0.681433097629763 
1902	 0.67722917015877 
1903	 0.67317409532286 
1904	 0.669179204561094 
1905	 0.665146870790227 
1906	 0.661178030101417 
1907	 0.657627140877052 
1908	 0.654008268409748 
1909	 0.650514140295211 
1910	 0.647159179739797 
1911	 0.643578574897245 
1912	 0.640203390108189 
1913	 0.636852785514496 
1914	 0.633444518461396 
1915	 0.630302802580756 
1916	 0.627397539034231 
1917	 0.624438802685915 
1918	 0.621620917900224 
1919	 0.619003861798125 
1920	 0.616230207691995 
1921	 0.613662809287068 
1922	 0.611147945491948 
1923	 0.608639466234234 
1924	 0.606455423742758 
1925	 0.604296158463378 
1926	 0.602236418547537 
1927	 0.600375179718077 
1928	 0.598486215546 
1929	 0.596596202240941 
1930	 0.594845021596104 
1931	 0.593146143460992 
1932	 0.591534684627095 
1933	 0.590170318623708 
1934	 0.588866224791914 
1935	 0.587682463310072 
1936	 0.586633605069215 
1937	 0.585637189714202 
1938	 0.58469960629953 
1939	 0.583906581276509 
1940	 0.583206485007863 
1941	 0.582611044775683 
1942	 0.582183176539276 
1943	 0.581834629059711 
1944	 0.581566806219264 
1945	 0.581413089342553 
1946	 0.581335622796855 
1947	 0.581308469331688 
1948	 0.581362197736453 
1949	 0.58147445880415 
1950	 0.581655706379155 
1951	 0.581894735031639 
1952	 0.582217889683967 
1953	 0.582613633496945 
1954	 0.583090422047257 
1955	 0.583655421401577 
1956	 0.584216744076963 
1957	 0.584819934853559 
1958	 0.585479127312564 
1959	 0.58609487651197 
1960	 0.586758872527271 
1961	 0.58744726446489 
1962	 0.588131353023248 
1963	 0.588873924128477 
1964	 0.589703419283419 
1965	 0.59049148798596 
1966	 0.591304507401516 
1967	 0.592116626141782 
1968	 0.592878003947142 
1969	 0.593621653201234 
1970	 0.594345389926504 
1971	 0.595100056336603 
1972	 0.595912039248859 
1973	 0.596681508024692 
1974	 0.597483253722328 
1975	 0.598332399353296 
1976	 0.599158972719524 
1977	 0.599972957589856 
1978	 0.600817061737106 
1979	 0.601680463263699 
1980	 0.602513254277947 
1981	 0.603422302253061 
1982	 0.604313910772889 
1983	 0.605223974775011 
1984	 0.606168614401195 
1985	 0.607028215865443 
1986	 0.607900413409508 
1987	 0.608762434607777 
1988	 0.609567356541375 
1989	 0.610433662280041 
1990	 0.61133539543029 
1991	 0.612216904881524 
1992	 0.613103975047224 
1993	 0.614047677841452 
1994	 0.614889874602335 
1995	 0.615753990043381 
1996	 0.616602989272661 
1997	 0.617413052146261 
1998	 0.618279618558279 
1999	 0.619171192806251 
2000	 0.620054040291235 
2001	 0.621004763629849 
2002	 0.621864143987627 
2003	 0.622688567985939 
2004	 0.623499270673061 
2005	 0.624218512275005 
2006	 0.624988914338405 
2007	 0.625803212960491 
2008	 0.6265722391738 
2009	 0.627312422128402 
2010	 0.628060632994138 
2011	 0.628683507157292 
2012	 0.629280562252548 
2013	 0.629877474396064 
2014	 0.630450286525324 
2015	 0.631007109035054 
2016	 0.631588350592563 
2017	 0.632071664168216 
2018	 0.632526620095362 
2019	 0.632903251258939 
2020	 0.633189734100714 
2021	 0.633452259897131 
2022	 0.633661708798938 
2023	 0.633780839003209 
2024	 0.63385772095153 
2025	 0.633857379815991 
2026	 0.633776853058744 
2027	 0.633610219672007 
2028	 0.633393005405601 
2029	 0.633086367379218 
2030	 0.632749943619967 
2031	 0.632364278493742 
2032	 0.631927248333814 
2033	 0.631414964705412 
2034	 0.630891046088114 
2035	 0.630305584211295 
2036	 0.629704232161251 
2037	 0.629137045183243 
2038	 0.628605417887478 
2039	 0.628111749158861 
2040	 0.627656909422159 
2041	 0.627243274492032 
2042	 0.626840571405596 
2043	 0.626516523236184 
2044	 0.626251166520572 
2045	 0.62604363315112 
2046	 0.625910411297662 
2047	 0.625811123457158 
2048	 0.625756518393877 
2049	 0.625748731982145 
2050	 0.625790947737749 
2051	 0.625865301862525 
2052	 0.625990915402269 
2053	 0.626203714245334 
2054	 0.626465084949236 
2055	 0.626758363009625 
2056	 0.627169394995753 
2057	 0.627653142736648 
2058	 0.628245146471964 
2059	 0.628952507001437 
2060	 0.629717704100329 
2061	 0.630614444184188 
2062	 0.631502625493232 
2063	 0.632434039832364 
2064	 0.633427287158456 
2065	 0.634466633078641 
2066	 0.635510297969951 
2067	 0.636730012148081 
2068	 0.637919823990974 
2069	 0.639145240525814 
2070	 0.640474593283044 
2071	 0.641700996434705 
2072	 0.642909395813738 
2073	 0.64408274032813 
2074	 0.645189452553498 
2075	 0.646324093787841 
2076	 0.64747558850355 
2077	 0.648560562652883 
2078	 0.649672493851786 
2079	 0.650682759013985 
2080	 0.651586643254625 
2081	 0.65248875814332 
2082	 0.653373156260931 
2083	 0.654153503369989 
2084	 0.654948670693576 
2085	 0.655672535085523 
2086	 0.656350243695917 
2087	 0.656975256557005 
2088	 0.657547020254492 
2089	 0.658054336048285 
2090	 0.658541957541248 
2091	 0.65894327450188 
2092	 0.659387870595875 
2093	 0.659858593970453 
2094	 0.660257808842469 
2095	 0.660661598422252 
2096	 0.661001820752428 
2097	 0.661271677945534 
2098	 0.661499835077052 
2099	 0.661719942821972 
2100	 0.661874636228966 
2101	 0.662007272957827 
2102	 0.66209748489221 
2103	 0.662165500703026 
2104	 0.66217898134728 
2105	 0.662222030891751 
2106	 0.662253033182794 
2107	 0.662275743944168 
2108	 0.662317661653986 
2109	 0.662321161922482 
2110	 0.662290801696165 
2111	 0.662257660388947 
2112	 0.662218339439397 
2113	 0.662155152476403 
2114	 0.662056613333673 
2115	 0.661969683621843 
2116	 0.661895870319568 
2117	 0.661776890604781 
2118	 0.661643032342996 
2119	 0.66151373160818 
2120	 0.661336256636337 
2121	 0.661083683165697 
2122	 0.660892966604677 
2123	 0.660733399328679 
2124	 0.660517934242157 
2125	 0.660310673808349 
2126	 0.660066766195026 
2127	 0.659806832743034 
2128	 0.659460115454966 
2129	 0.659075006726862 
2130	 0.658643562698035 
2131	 0.658127010617751 
2132	 0.657574541481268 
2133	 0.657027681303019 
2134	 0.656396943601804 
2135	 0.655590434612191 
2136	 0.654766733280843 
2137	 0.653820861579155 
2138	 0.652728797324664 
2139	 0.651628625171273 
2140	 0.650460761370036 
2141	 0.649245013789789 
2142	 0.647964572260919 
2143	 0.646659444103352 
2144	 0.645267482213544 
2145	 0.643929990563876 
2146	 0.6425262101088 
2147	 0.641227656512806 
2148	 0.640026230083631 
2149	 0.638782038900304 
2150	 0.637608162107124 
2151	 0.636375852363145 
2152	 0.635103153777345 
2153	 0.633814494500318 
2154	 0.632485250276653 
2155	 0.631112093528744 
2156	 0.629782856836273 
2157	 0.628448780897474 
2158	 0.627077772030051 
2159	 0.625763876305775 
2160	 0.624313826616232 
2161	 0.622736352189683 
2162	 0.621233783598756 
2163	 0.619634246469785 
2164	 0.618172758672378 
2165	 0.616790312389832 
2166	 0.615418570616845 
2167	 0.614110075876078 
2168	 0.612824051310056 
2169	 0.611483959782509 
2170	 0.610319113005368 
2171	 0.609220874969975 
2172	 0.608246732129139 
2173	 0.607435082580466 
2174	 0.606694374750171 
2175	 0.606023831421242 
2176	 0.605427733053181 
2177	 0.604862363677009 
2178	 0.604352990502182 
2179	 0.603894000059117 
2180	 0.603484353263112 
2181	 0.603129569002576 
2182	 0.602829944758383 
2183	 0.602582488072879 
2184	 0.602389947634995 
2185	 0.602244978809136 
2186	 0.602158486512977 
2187	 0.60212661195623 
2188	 0.602156339184792 
2189	 0.602222303984917 
2190	 0.602356170472065 
2191	 0.602511153582782 
2192	 0.602727964022161 
2193	 0.602934855131863 
2194	 0.603177479095659 
2195	 0.603411541288178 
2196	 0.60363080231366 
2197	 0.603881712686528 
2198	 0.604141349551246 
2199	 0.604398200802179 
2200	 0.60461208538718 
2201	 0.604804911778783 
2202	 0.605001180465118 
2203	 0.605162897857718 
2204	 0.60533136113855 
2205	 0.605536434049376 
2206	 0.605658914660393 
2207	 0.605715748677295 
2208	 0.605808076219037 
2209	 0.605876002445956 
2210	 0.605936322721618 
2211	 0.606012382375656 
2212	 0.606057106790845 
2213	 0.606059673173863 
2214	 0.606078748316268 
2215	 0.606072592809986 
2216	 0.606111420209242 
2217	 0.606181786054471 
2218	 0.60623633748236 
2219	 0.606308291096173 
2220	 0.606389288989263 
2221	 0.606485630566016 
2222	 0.606553581887145 
2223	 0.606631042041642 
2224	 0.606617875017276 
2225	 0.606494630198636 
2226	 0.606289007330033 
2227	 0.606059865996749 
2228	 0.605777533425969 
2229	 0.605423326229743 
2230	 0.605036039078284 
2231	 0.604535360109095 
2232	 0.603922489108975 
2233	 0.603266940382954 
2234	 0.602570132649133 
2235	 0.601741183717421 
2236	 0.600837270355792 
2237	 0.599815073544456 
2238	 0.598620576570208 
2239	 0.59740595516459 
2240	 0.596114923323829 
2241	 0.59476013390217 
2242	 0.593406373847808 
2243	 0.591878239723052 
2244	 0.590234221618517 
2245	 0.588491356289097 
2246	 0.586503599955109 
2247	 0.58458832969037 
2248	 0.582665103336558 
2249	 0.580670814901908 
2250	 0.578669223447172 
2251	 0.576663408115412 
2252	 0.574363422116957 
2253	 0.572120894176082 
2254	 0.569837595988785 
2255	 0.567464056663183 
2256	 0.565304155859374 
2257	 0.563109713126636 
2258	 0.561005285654249 
2259	 0.558995489231062 
2260	 0.556933403716027 
2261	 0.554883302957071 
2262	 0.552898812106675 
2263	 0.550842903659562 
2264	 0.548995883880455 
2265	 0.547282407347706 
2266	 0.545625692781935 
2267	 0.544158969471327 
2268	 0.54257688499612 
2269	 0.540979637838636 
2270	 0.539469164178664 
2271	 0.537881818789246 
2272	 0.53648570889659 
2273	 0.535276801875528 
2274	 0.534043659977421 
2275	 0.532919677241145 
2276	 0.531763247118805 
2277	 0.530621512366594 
2278	 0.529474993250697 
2279	 0.528316227635861 
2280	 0.527179868260243 
2281	 0.526071575321474 
2282	 0.524926082180467 
2283	 0.523793669992149 
2284	 0.522632103354802 
2285	 0.521369602408321 
2286	 0.520166191965866 
2287	 0.518955689435268 
2288	 0.517778559813629 
2289	 0.516700202259618 
2290	 0.51562298550736 
2291	 0.514558523981131 
2292	 0.513426986836233 
2293	 0.512122217199111 
2294	 0.510760633875637 
2295	 0.509264288948933 
2296	 0.507656440403453 
2297	 0.506076091621866 
2298	 0.504498710239722 
2299	 0.502751819822123 
2300	 0.500942834351647 
2301	 0.499032676149307 
2302	 0.496880009731472 
2303	 0.494939252002172 
2304	 0.492884917829537 
2305	 0.491188441447341 
2306	 0.489542374286086 
2307	 0.488360676281502 
2308	 0.487414971683931 
2309	 0.487030527721216 
2310	 0.487027274323311 
2311	 0.4876141991567 
2312	 0.488879574542843 
2313	 0.49037191453347 
2314	 0.492499662767163 
2315	 0.494662303402118 
2316	 0.497260359140512 
2317	 0.499647661453434 
2318	 0.502304884625957 
2319	 0.504495540030715 
2320	 0.506562467056023 
2321	 0.508241519275141 
2322	 0.509573009493722 
2323	 0.510709316318965 
2324	 0.511469639320168 
2325	 0.512107662796288 
2326	 0.512511727502864 
2327	 0.512762254995022 
2328	 0.51278209608178 
2329	 0.51274122685345 
2330	 0.512556520946781 
2331	 0.512237109447006 
2332	 0.511884064297078 
2333	 0.511358797899011 
2334	 0.510633905032725 
2335	 0.509788444174197 
2336	 0.508647258956284 
2337	 0.507317638918101 
2338	 0.505927010159651 
2339	 0.504311773534386 
2340	 0.502618891316092 
2341	 0.500903049824386 
2342	 0.499002732325537 
2343	 0.497095843131414 
2344	 0.495256923416549 
2345	 0.493436531907533 
2346	 0.491942991109533 
2347	 0.490697340466236 
2348	 0.489741458559319 
2349	 0.489357831125332 
2350	 0.489435383062129 
2351	 0.490007505840092 
2352	 0.491087657131276 
2353	 0.492676424478924 
2354	 0.494405489375371 
2355	 0.496332977837657 
2356	 0.498301645856653 
2357	 0.500154679503744 
2358	 0.502055350553656 
2359	 0.503738608419584 
2360	 0.505321290455243 
2361	 0.506618093463201 
2362	 0.50753072677944 
2363	 0.508290277206888 
2364	 0.50882901292209 
2365	 0.509250536987647 
2366	 0.509656981996462 
2367	 0.509900280535143 
2368	 0.510094258290139 
2369	 0.51029615234676 
2370	 0.510424643005018 
2371	 0.510578813536998 
2372	 0.51067761434764 
2373	 0.510736752696416 
2374	 0.510788268193987 
2375	 0.510731637619026 
2376	 0.510716009005385 
2377	 0.510650243971992 
2378	 0.510521931525434 
2379	 0.510446402954032 
2380	 0.510282897538809 
2381	 0.510100421527104 
2382	 0.509928654291839 
2383	 0.50969186267057 
2384	 0.509570326356187 
2385	 0.509537734700777 
2386	 0.509467972724891 
2387	 0.509475283614046 
2388	 0.509399044255737 
2389	 0.509234632772555 
2390	 0.509097324551318 
2391	 0.508951587962194 
2392	 0.508835997838422 
2393	 0.50873037475585 
2394	 0.508648129393309 
2395	 0.508587989379247 
2396	 0.508503677790073 
2397	 0.508419390666112 
2398	 0.508353365270399 
2399	 0.508316850281688 
2400	 0.508232779303597 
2401	 0.508137642331184 
2402	 0.508098302653101 
2403	 0.507917470152075 
2404	 0.507828086332526 
2405	 0.507786543961668 
2406	 0.507622821961737 
2407	 0.507604945136087 
2408	 0.507597316307916 
2409	 0.507546112489245 
2410	 0.507615105270749 
2411	 0.507588061151472 
2412	 0.507508750910434 
2413	 0.507453571449642 
2414	 0.5072753853746 
2415	 0.507123156300543 
2416	 0.506969138059011 
2417	 0.506673196874263 
2418	 0.506473549173963 
2419	 0.506285427429744 
2420	 0.506033903823733 
2421	 0.505839842239712 
2422	 0.505615081809829 
2423	 0.5054124506051 
2424	 0.505194651708698 
2425	 0.504898951757503 
2426	 0.50446955484786 
2427	 0.50390117696172 
2428	 0.503558027284781 
2429	 0.503332784830809 
2430	 0.50302819983356 
2431	 0.502698695737928 
2432	 0.502132727083385 
2433	 0.501529577441967 
2434	 0.501048631123024 
2435	 0.500690344367797 
2436	 0.500461223816588 
2437	 0.500153305966338 
2438	 0.499704999064971 
2439	 0.49907496206781 
2440	 0.498247796558251 
2441	 0.497306300213407 
2442	 0.496485344174057 
2443	 0.495807319637039 
2444	 0.495409522550263 
2445	 0.495070432260433 
2446	 0.494313667292499 
2447	 0.493493769182138 
2448	 0.492525449127013 
2449	 0.491435976603419 
2450	 0.490610047463758 
2451	 0.48981915900381 
2452	 0.48894178935613 
2453	 0.48797560527956 
2454	 0.486807997703655 
2455	 0.485688372556524 
2456	 0.484840938085983 
2457	 0.484059693742961 
2458	 0.483298192867688 
2459	 0.48255211915702 
2460	 0.481673185914587 
2461	 0.480861826016483 
2462	 0.480377295323076 
2463	 0.480103520434149 
2464	 0.47993104054265 
2465	 0.479407688327308 
2466	 0.47877457193177 
2467	 0.478289224742186 
2468	 0.477438077708921 
2469	 0.476688921704285 
2470	 0.476129712468042 
2471	 0.47557273909021 
2472	 0.475226765548856 
2473	 0.474946888172787 
2474	 0.474679752883618 
2475	 0.474217896040738 
2476	 0.473590021443563 
2477	 0.473173268701273 
2478	 0.472798388842171 
2479	 0.472471368281731 
2480	 0.47232594558367 
2481	 0.472139091828367 
2482	 0.471876978113472 
2483	 0.471804933860818 
2484	 0.471681411130359 
2485	 0.471364107863144 
2486	 0.47097612482816 
2487	 0.470467836633815 
2488	 0.469895135111409 
2489	 0.469640604582936 
2490	 0.4699172119463 
2491	 0.470048439963475 
2492	 0.46993659338505 
2493	 0.469773250677098 
2494	 0.469192409436156 
2495	 0.468438046313646 
2496	 0.468290330996025 
2497	 0.468200181730281 
2498	 0.467808030715813 
2499	 0.46785145364344 
2500	 0.467898538280769 
