Wavelength	ProbetaAcolman00013.asd
350	 0.549084085035622 
351	 0.541717441817645 
352	 0.531240959045495 
353	 0.516826908885385 
354	 0.519183029288025 
355	 0.518406580233332 
356	 0.510917921856682 
357	 0.498562230423855 
358	 0.487151150063217 
359	 0.47641687570851 
360	 0.474429163724544 
361	 0.485458720663598 
362	 0.455272888264991 
363	 0.441066105037789 
364	 0.457677068116109 
365	 0.449609048201536 
366	 0.433771555280393 
367	 0.426830817492586 
368	 0.436019547332151 
369	 0.442793779389638 
370	 0.426716087258053 
371	 0.404377874678818 
372	 0.4082105247582 
373	 0.411727318058019 
374	 0.405700006191954 
375	 0.393351602421257 
376	 0.39213898246208 
377	 0.397447022220597 
378	 0.400506026228564 
379	 0.395567588038186 
380	 0.388583876895716 
381	 0.390873422227572 
382	 0.396605164357826 
383	 0.392000100149168 
384	 0.390160290142262 
385	 0.386418211103315 
386	 0.380201098201239 
387	 0.379743946303442 
388	 0.379337098753723 
389	 0.376752691718304 
390	 0.372290374006803 
391	 0.370977992164263 
392	 0.371101644249014 
393	 0.370905383707185 
394	 0.368829546336741 
395	 0.364131717827169 
396	 0.361920992338924 
397	 0.363125292703481 
398	 0.361501090798462 
399	 0.359682366121629 
400	 0.359586104263277 
401	 0.360831823846607 
402	 0.354336351340481 
403	 0.351903501263334 
404	 0.353296211837545 
405	 0.349998937217172 
406	 0.348588262990859 
407	 0.347468201505046 
408	 0.34541200593881 
409	 0.343938704961395 
410	 0.34183727148446 
411	 0.340328342714675 
412	 0.340553446767746 
413	 0.339845817505674 
414	 0.339286928482303 
415	 0.339138477992272 
416	 0.338826777095844 
417	 0.338739136353589 
418	 0.338109450179216 
419	 0.336595688800966 
420	 0.335172026116222 
421	 0.332847154704171 
422	 0.330853708837244 
423	 0.330781459669621 
424	 0.330936195330679 
425	 0.330360869992991 
426	 0.329108023707856 
427	 0.328196040358087 
428	 0.327321502179885 
429	 0.326275836954282 
430	 0.325071180136306 
431	 0.324353888291356 
432	 0.323561412132933 
433	 0.322758662776738 
434	 0.322278792820733 
435	 0.321610922694903 
436	 0.32094196380027 
437	 0.320340724421984 
438	 0.31960277857731 
439	 0.318474488320218 
440	 0.317439791554815 
441	 0.316959245011899 
442	 0.316633536573812 
443	 0.315835032982539 
444	 0.314547247784993 
445	 0.313256471404369 
446	 0.312584086966709 
447	 0.311596337679346 
448	 0.309958600408446 
449	 0.309191182560318 
450	 0.30771255987635 
451	 0.306169597258802 
452	 0.305602967123041 
453	 0.304256844532658 
454	 0.30277771324232 
455	 0.301465918691529 
456	 0.300077118964927 
457	 0.298410033280955 
458	 0.296837089863366 
459	 0.295589585035473 
460	 0.294112089800264 
461	 0.292913500498386 
462	 0.291620184333268 
463	 0.289568450850403 
464	 0.287981771532594 
465	 0.286271419782875 
466	 0.284123100850571 
467	 0.28191854321709 
468	 0.28005774518987 
469	 0.277892825577489 
470	 0.275001697552042 
471	 0.273194377343902 
472	 0.270933401384178 
473	 0.268009613504319 
474	 0.26532336704952 
475	 0.263311342317063 
476	 0.261163545975339 
477	 0.258387060917 
478	 0.255521511162555 
479	 0.253003291870764 
480	 0.250945722728818 
481	 0.249164924694684 
482	 0.246796695932562 
483	 0.244497738286656 
484	 0.242620127858716 
485	 0.241045648559258 
486	 0.239626376532031 
487	 0.238160063805898 
488	 0.236636154066703 
489	 0.23562222798395 
490	 0.234608670820306 
491	 0.233498089153187 
492	 0.232456611738948 
493	 0.231624059422081 
494	 0.231029415526929 
495	 0.230487815709236 
496	 0.22948630570446 
497	 0.228631334896002 
498	 0.22792292544164 
499	 0.227167040367462 
500	 0.226221237561171 
501	 0.225186120100796 
502	 0.224068773039763 
503	 0.222789005837444 
504	 0.221350643779099 
505	 0.219834566750772 
506	 0.218287228853492 
507	 0.216646762311667 
508	 0.214863344722041 
509	 0.213068111291553 
510	 0.211420283390818 
511	 0.209675960400236 
512	 0.207872785357305 
513	 0.206129857162447 
514	 0.204625123437624 
515	 0.20323899535862 
516	 0.201946135980488 
517	 0.200767358597562 
518	 0.19979786733024 
519	 0.199041035818523 
520	 0.198537006398795 
521	 0.198345271865343 
522	 0.198419513563689 
523	 0.198818703109519 
524	 0.199510512738222 
525	 0.200254108935815 
526	 0.201235615642898 
527	 0.202444470690382 
528	 0.203839174461392 
529	 0.205605116383063 
530	 0.20750640686424 
531	 0.209474649614922 
532	 0.211633701891163 
533	 0.213881783406689 
534	 0.216117818225653 
535	 0.218284219514502 
536	 0.220437431224118 
537	 0.222616203943056 
538	 0.224645417452964 
539	 0.226274664648507 
540	 0.227702928185719 
541	 0.228814505892244 
542	 0.229571215366335 
543	 0.230110395325836 
544	 0.230271924969104 
545	 0.230058416672583 
546	 0.22952379842467 
547	 0.228694957453655 
548	 0.22759410326805 
549	 0.226252240308726 
550	 0.224713237117069 
551	 0.223099994624293 
552	 0.221416298474981 
553	 0.219696170710558 
554	 0.218101370713524 
555	 0.216670690731989 
556	 0.21551969467406 
557	 0.214759445772277 
558	 0.214231096359042 
559	 0.214067141843897 
560	 0.214310122346425 
561	 0.214849200495932 
562	 0.215729834849594 
563	 0.216979940037293 
564	 0.218610135397549 
565	 0.220539475948343 
566	 0.222987314371621 
567	 0.22605419541138 
568	 0.229736165910454 
569	 0.234031528570562 
570	 0.238801490118069 
571	 0.243963957559441 
572	 0.249553124208489 
573	 0.255567725322944 
574	 0.262048570205031 
575	 0.269031921215657 
576	 0.276324045416581 
577	 0.284189055598018 
578	 0.292659938890425 
579	 0.30147996469057 
580	 0.310625105573522 
581	 0.320020826236806 
582	 0.329689952158311 
583	 0.339909113451072 
584	 0.350483114760626 
585	 0.361337096983214 
586	 0.372473527011401 
587	 0.383876022861979 
588	 0.39536706164037 
589	 0.406837639779504 
590	 0.418318497134348 
591	 0.429558773202591 
592	 0.44049775924499 
593	 0.451174196504272 
594	 0.461676114155732 
595	 0.471884291077835 
596	 0.481844923563613 
597	 0.491732017405523 
598	 0.501481973268301 
599	 0.51086642206705 
600	 0.51985001083996 
601	 0.528918230733239 
602	 0.537492013128023 
603	 0.545552362311641 
604	 0.55332193657791 
605	 0.560959198413443 
606	 0.568167717730666 
607	 0.574824733547148 
608	 0.581056072826003 
609	 0.587187317769368 
610	 0.593028532165011 
611	 0.598379607574304 
612	 0.603379796879147 
613	 0.608363570449255 
614	 0.613233595143644 
615	 0.617644829026532 
616	 0.621758423076369 
617	 0.625894347723986 
618	 0.630058547614059 
619	 0.633662423079856 
620	 0.637199162754687 
621	 0.640774349214718 
622	 0.644284661865993 
623	 0.647274365851932 
624	 0.650175778051109 
625	 0.653186827109764 
626	 0.656226726481715 
627	 0.658936990265926 
628	 0.66145111891098 
629	 0.663949463662061 
630	 0.666489296998674 
631	 0.668844562734596 
632	 0.670970001711181 
633	 0.672949838717066 
634	 0.675089184028022 
635	 0.677211992902974 
636	 0.679174764928419 
637	 0.680930704180888 
638	 0.68274055023501 
639	 0.684498296221832 
640	 0.686092995805717 
641	 0.687721697384995 
642	 0.689281471771016 
643	 0.690795514444046 
644	 0.692339946864586 
645	 0.693672895521491 
646	 0.694963408344707 
647	 0.696308540735142 
648	 0.697615073726882 
649	 0.69873136664321 
650	 0.699773138421753 
651	 0.70091399613226 
652	 0.702189420266523 
653	 0.703303156130495 
654	 0.70425105893919 
655	 0.705265272416276 
656	 0.706297536568672 
657	 0.707251153123178 
658	 0.708114926709441 
659	 0.709085835932877 
660	 0.709968778595838 
661	 0.710779426761294 
662	 0.71160000095042 
663	 0.712417979875876 
664	 0.713209485475631 
665	 0.713967722457651 
666	 0.714709177920531 
667	 0.715574927034607 
668	 0.716363557905912 
669	 0.716964702077492 
670	 0.717687663921057 
671	 0.71831951147294 
672	 0.718906684120109 
673	 0.719589030612152 
674	 0.720302454842852 
675	 0.720902270773727 
676	 0.721399624409356 
677	 0.721995474544577 
678	 0.722579864603204 
679	 0.723154514998147 
680	 0.723724951684403 
681	 0.724226037177376 
682	 0.724779122028322 
683	 0.725354520843825 
684	 0.725856390431108 
685	 0.726397804749869 
686	 0.726876093163003 
687	 0.72727908517433 
688	 0.727748247121009 
689	 0.728261666131802 
690	 0.728735955747003 
691	 0.729136090932674 
692	 0.729659464264985 
693	 0.730147403296613 
694	 0.730562159336071 
695	 0.73095440545352 
696	 0.731386740135145 
697	 0.731893905174789 
698	 0.73238569060588 
699	 0.732580777468702 
700	 0.732945439823096 
701	 0.733426273992877 
702	 0.733848308428878 
703	 0.734203247199638 
704	 0.734530079041468 
705	 0.734926214563367 
706	 0.735473258163082 
707	 0.735684109596438 
708	 0.735890697151946 
709	 0.73628098941261 
710	 0.736621763224582 
711	 0.736937349274338 
712	 0.737253550303348 
713	 0.737579935213341 
714	 0.737828777601007 
715	 0.738126477684514 
716	 0.738435509143302 
717	 0.738617458938438 
718	 0.738799542670518 
719	 0.739141610413153 
720	 0.73961046329243 
721	 0.739855892024345 
722	 0.739957774740868 
723	 0.740032533145283 
724	 0.740198865323499 
725	 0.740507506445885 
726	 0.740779083328562 
727	 0.740989046743042 
728	 0.741223212854917 
729	 0.741430177516677 
730	 0.741669379583375 
731	 0.741930800243392 
732	 0.742069801094626 
733	 0.742212588759359 
734	 0.742370798784394 
735	 0.742532649261215 
736	 0.742720663374408 
737	 0.74299706861524 
738	 0.743275981129343 
739	 0.743403764063439 
740	 0.743573747233622 
741	 0.743708208941933 
742	 0.743823931024739 
743	 0.744123557918381 
744	 0.744481161961674 
745	 0.744651373206624 
746	 0.74456375742638 
747	 0.744813193018253 
748	 0.745093188692959 
749	 0.745353397406597 
750	 0.745662927971197 
751	 0.745782663041999 
752	 0.745875618905441 
753	 0.746023486935696 
754	 0.746147846523294 
755	 0.746236701234976 
756	 0.746369376589864 
757	 0.746577811433089 
758	 0.746702123718457 
759	 0.746755739449872 
760	 0.746879837192165 
761	 0.747214584772222 
762	 0.747516390122926 
763	 0.747555366926739 
764	 0.747453234010754 
765	 0.747669774870535 
766	 0.747867942703546 
767	 0.74806884759841 
768	 0.748301583791006 
769	 0.748451383761573 
770	 0.748656652341804 
771	 0.748879229754442 
772	 0.749035721591825 
773	 0.749160746595066 
774	 0.74932777494654 
775	 0.749492037952227 
776	 0.749535403548186 
777	 0.749673946555308 
778	 0.749841385440362 
779	 0.749994563430308 
780	 0.750202491456026 
781	 0.750396858525655 
782	 0.750554859701935 
783	 0.750662945136915 
784	 0.750663165810592 
785	 0.750835204150225 
786	 0.751086259712862 
787	 0.751157608137937 
788	 0.751305657343443 
789	 0.751580586558227 
790	 0.75188488566747 
791	 0.751988846786469 
792	 0.752131252645639 
793	 0.752245633765003 
794	 0.752296961236436 
795	 0.752489885520285 
796	 0.752605532667123 
797	 0.752634742850048 
798	 0.752676628254851 
799	 0.752933931221162 
800	 0.753154582933623 
801	 0.753227816227719 
802	 0.75319761585578 
803	 0.753269994231413 
804	 0.753455295564506 
805	 0.753681338143971 
806	 0.753807597040821 
807	 0.753811896509864 
808	 0.753786250112805 
809	 0.753848177647358 
810	 0.754101044247971 
811	 0.754304043611906 
812	 0.754409028706405 
813	 0.754476681461856 
814	 0.754601329282898 
815	 0.754664342173676 
816	 0.754743518359753 
817	 0.755049107623846 
818	 0.755081163996587 
819	 0.755048290384574 
820	 0.755129666835594 
821	 0.755268186398394 
822	 0.755459807758164 
823	 0.755578889002374 
824	 0.755574324854008 
825	 0.75571080615559 
826	 0.755843493482786 
827	 0.755903367508841 
828	 0.755892042748198 
829	 0.755960351764084 
830	 0.756211360366712 
831	 0.756526790073432 
832	 0.756630448301774 
833	 0.756673417478944 
834	 0.756727945923975 
835	 0.756813115385137 
836	 0.756881718008872 
837	 0.756916341918731 
838	 0.757001670663046 
839	 0.757155961141166 
840	 0.757134824470852 
841	 0.757160084376408 
842	 0.757242921304019 
843	 0.75731454643161 
844	 0.757367971129376 
845	 0.757483269627229 
846	 0.757601809149915 
847	 0.75759169264961 
848	 0.757632794350419 
849	 0.757727591611443 
850	 0.757791666857367 
851	 0.757677722724072 
852	 0.757649763647442 
853	 0.757673352358152 
854	 0.757705107186682 
855	 0.757829189163815 
856	 0.757872568150327 
857	 0.757894916054355 
858	 0.757976922313621 
859	 0.757984661750775 
860	 0.757989646468282 
861	 0.758015545684028 
862	 0.75806256392397 
863	 0.758165268526655 
864	 0.758219027289528 
865	 0.758235342211227 
866	 0.758311987918778 
867	 0.758258680735811 
868	 0.758214061396404 
869	 0.758256404084033 
870	 0.758317037261374 
871	 0.758339863473167 
872	 0.758387537240981 
873	 0.758505742688274 
874	 0.758646186018608 
875	 0.758746281364171 
876	 0.758730704032793 
877	 0.758605544576208 
878	 0.758616709075466 
879	 0.758829371267256 
880	 0.75907484725491 
881	 0.759109009817597 
882	 0.758957083101128 
883	 0.758898331790988 
884	 0.758969259838437 
885	 0.759011590539308 
886	 0.759044037977253 
887	 0.759074290105097 
888	 0.759122934614567 
889	 0.759216455933393 
890	 0.759267914473911 
891	 0.759290088023778 
892	 0.759270734866357 
893	 0.759123355465824 
894	 0.759183170980286 
895	 0.759278920154492 
896	 0.759218089506931 
897	 0.759106313401897 
898	 0.75895491661626 
899	 0.758942552154978 
900	 0.759156754758436 
901	 0.759175821900095 
902	 0.759142792584684 
903	 0.759091712057526 
904	 0.75900480723724 
905	 0.758885867571285 
906	 0.758850517458751 
907	 0.75887176234965 
908	 0.758829776475218 
909	 0.758780478289511 
910	 0.758695042889888 
911	 0.75863664048358 
912	 0.758724877682756 
913	 0.758568597258207 
914	 0.758420693976188 
915	 0.758436972387018 
916	 0.758499813576619 
917	 0.758633631653376 
918	 0.758614967891472 
919	 0.758427899227059 
920	 0.758503877153412 
921	 0.758550956783981 
922	 0.758501768046351 
923	 0.758410640162938 
924	 0.758483157292234 
925	 0.75853572566352 
926	 0.758591964757347 
927	 0.758682783883683 
928	 0.758618468328229 
929	 0.758683208170208 
930	 0.75880678776193 
931	 0.758814776553304 
932	 0.758794571346578 
933	 0.75882524472663 
934	 0.758900963647471 
935	 0.758972084014723 
936	 0.759049795708147 
937	 0.759133626896346 
938	 0.759170654995344 
939	 0.759110089836031 
940	 0.759130845709652 
941	 0.759267098339411 
942	 0.759450060626072 
943	 0.759554362521262 
944	 0.759658313357286 
945	 0.759713104655299 
946	 0.759707015972894 
947	 0.759694514588609 
948	 0.759888626647256 
949	 0.759951178027124 
950	 0.759783024727809 
951	 0.759688071997404 
952	 0.759887392565253 
953	 0.7598917993561 
954	 0.759581845158749 
955	 0.759543073201931 
956	 0.759529588258832 
957	 0.759425461035107 
958	 0.759206397797141 
959	 0.758966772527631 
960	 0.758821201401487 
961	 0.758743601911151 
962	 0.758638189595098 
963	 0.758359353052082 
964	 0.75835156384015 
965	 0.758546318789411 
966	 0.758708304451654 
967	 0.758583136002057 
968	 0.75851340877537 
969	 0.758539517057863 
970	 0.758626993664818 
971	 0.758803474595054 
972	 0.758857143272185 
973	 0.758710252029955 
974	 0.758466815051894 
975	 0.758566006592106 
976	 0.758623250604113 
977	 0.758506082552569 
978	 0.758293602324508 
979	 0.758429742703479 
980	 0.758344191085586 
981	 0.758249997866911 
982	 0.758407942205679 
983	 0.758338644318213 
984	 0.758265562524534 
985	 0.75827270360626 
986	 0.758332489878742 
987	 0.758203238780999 
988	 0.758317943624577 
989	 0.758364111922349 
990	 0.758034228773195 
991	 0.757965019167141 
992	 0.758061522449761 
993	 0.758069786462384 
994	 0.757883952277178 
995	 0.758120941042902 
996	 0.758158689499174 
997	 0.758002311148476 
998	 0.757891256753749 
999	 0.757964550622435 
1000	 0.758273408255439 
1001	 0.766879458597376 
1002	 0.766819756957668 
1003	 0.76675356249158 
1004	 0.76676589267715 
1005	 0.766837963097721 
1006	 0.766868465866209 
1007	 0.766925579071084 
1008	 0.766972247556039 
1009	 0.76700616939999 
1010	 0.767030459556495 
1011	 0.767055517444886 
1012	 0.767073030037743 
1013	 0.767077377831857 
1014	 0.767091381599372 
1015	 0.767126135700187 
1016	 0.767121348892225 
1017	 0.767126589027909 
1018	 0.767119454970288 
1019	 0.767133735454236 
1020	 0.767155168005274 
1021	 0.767168905634536 
1022	 0.767177622565741 
1023	 0.76720068041591 
1024	 0.767228483850503 
1025	 0.767263951693514 
1026	 0.76736050918541 
1027	 0.767369507729521 
1028	 0.767323147318285 
1029	 0.767285711967089 
1030	 0.767268190479203 
1031	 0.767170722323865 
1032	 0.767133508307665 
1033	 0.767165357644059 
1034	 0.767158194751157 
1035	 0.767159772791124 
1036	 0.767126891939663 
1037	 0.767083957690325 
1038	 0.767009185876886 
1039	 0.766884256939052 
1040	 0.766800717336898 
1041	 0.766704632893984 
1042	 0.766647633622376 
1043	 0.76663238709241 
1044	 0.766576182451836 
1045	 0.766525968628104 
1046	 0.766538231213839 
1047	 0.76646126422093 
1048	 0.766388505633289 
1049	 0.766406430377639 
1050	 0.766392374695226 
1051	 0.766415544853628 
1052	 0.766431119042151 
1053	 0.766430083762301 
1054	 0.76638364538211 
1055	 0.766396555003268 
1056	 0.766398620584339 
1057	 0.766484749330524 
1058	 0.76666527422477 
1059	 0.766770149950729 
1060	 0.7668694379099 
1061	 0.766983740733034 
1062	 0.767036186481931 
1063	 0.767137631352473 
1064	 0.767331966303647 
1065	 0.767527763571529 
1066	 0.767694609484545 
1067	 0.767838446514631 
1068	 0.767931865298766 
1069	 0.768009922819392 
1070	 0.768134633754405 
1071	 0.768279646675334 
1072	 0.768443123920125 
1073	 0.768646429489981 
1074	 0.768891083126842 
1075	 0.769089793737926 
1076	 0.769263389327222 
1077	 0.769460493754374 
1078	 0.76959361066315 
1079	 0.769712494514126 
1080	 0.769901678855817 
1081	 0.770077427317604 
1082	 0.770258529005403 
1083	 0.770458555869689 
1084	 0.770635715643394 
1085	 0.770779745209324 
1086	 0.770940142714618 
1087	 0.771085122802165 
1088	 0.771283508806063 
1089	 0.771484899556199 
1090	 0.771663349971923 
1091	 0.771804453366025 
1092	 0.771901251720241 
1093	 0.772010633923181 
1094	 0.77211353414248 
1095	 0.772217753146805 
1096	 0.772313941357973 
1097	 0.772362513028473 
1098	 0.772406783430856 
1099	 0.772466321527095 
1100	 0.772505135773491 
1101	 0.77255126755746 
1102	 0.772636544321079 
1103	 0.772668655034603 
1104	 0.772674124800666 
1105	 0.772676433875527 
1106	 0.77270053484594 
1107	 0.772672504726681 
1108	 0.77268591555519 
1109	 0.772726169387703 
1110	 0.772669475066858 
1111	 0.772585613565485 
1112	 0.772492530686761 
1113	 0.772372631617227 
1114	 0.772297507956718 
1115	 0.77220768007052 
1116	 0.772085425684492 
1117	 0.772004681933061 
1118	 0.771928491007487 
1119	 0.771874532638991 
1120	 0.771779712306988 
1121	 0.77170834757568 
1122	 0.771562139076991 
1123	 0.771347751044363 
1124	 0.771143774940169 
1125	 0.770947425635299 
1126	 0.770738369082162 
1127	 0.770499923085668 
1128	 0.770247562285298 
1129	 0.769989947198095 
1130	 0.769706249467028 
1131	 0.769412825044861 
1132	 0.769136993255436 
1133	 0.768862702325378 
1134	 0.768562360824088 
1135	 0.768229852426429 
1136	 0.767898496163094 
1137	 0.767532869722695 
1138	 0.767091729600645 
1139	 0.76668248010614 
1140	 0.766277970580032 
1141	 0.765890044631733 
1142	 0.765455066386475 
1143	 0.765057483197679 
1144	 0.764688175946174 
1145	 0.764251334642279 
1146	 0.76384417689868 
1147	 0.763462008028833 
1148	 0.763057529850276 
1149	 0.762669289191617 
1150	 0.762271253432207 
1151	 0.761885967462301 
1152	 0.761463717573078 
1153	 0.761002735220924 
1154	 0.760552179510029 
1155	 0.760096076826309 
1156	 0.759618892457388 
1157	 0.759135199286515 
1158	 0.758660651115738 
1159	 0.758173253923864 
1160	 0.757676457871503 
1161	 0.757205351653609 
1162	 0.756718708933999 
1163	 0.756246676711402 
1164	 0.75576117374373 
1165	 0.755261723381291 
1166	 0.754821768529319 
1167	 0.754376688737797 
1168	 0.753955860317171 
1169	 0.753573563843913 
1170	 0.753223074242505 
1171	 0.752878780093049 
1172	 0.752563666337652 
1173	 0.752267078523954 
1174	 0.751992177589122 
1175	 0.751741803362472 
1176	 0.751545784292608 
1177	 0.75130536643563 
1178	 0.751070654960334 
1179	 0.750796321639377 
1180	 0.750536052764648 
1181	 0.750255561877611 
1182	 0.749962278174663 
1183	 0.749672785817299 
1184	 0.749322550908963 
1185	 0.748987924753941 
1186	 0.748675942639648 
1187	 0.748358879443568 
1188	 0.748080905885764 
1189	 0.747829077243875 
1190	 0.747593663663373 
1191	 0.74735325247175 
1192	 0.747195683733994 
1193	 0.747094392572876 
1194	 0.747006948480199 
1195	 0.747012813099873 
1196	 0.746962379463876 
1197	 0.746899313907541 
1198	 0.746830734773689 
1199	 0.746741784609155 
1200	 0.746673170135935 
1201	 0.746619338336791 
1202	 0.746526942724631 
1203	 0.746442866228112 
1204	 0.74638435557898 
1205	 0.746334425536962 
1206	 0.74629196422739 
1207	 0.746275445719661 
1208	 0.746272270203544 
1209	 0.746288324485984 
1210	 0.746316222718619 
1211	 0.746370705510414 
1212	 0.746430628096364 
1213	 0.74654796375585 
1214	 0.746655642806026 
1215	 0.746887801644703 
1216	 0.747198443508722 
1217	 0.747566986393028 
1218	 0.748041680493441 
1219	 0.748555362481174 
1220	 0.74907644851453 
1221	 0.749670461109426 
1222	 0.750247400135139 
1223	 0.750847825745089 
1224	 0.751447718297067 
1225	 0.752068763158886 
1226	 0.752645941864665 
1227	 0.753220020884581 
1228	 0.753775675260475 
1229	 0.754308574640055 
1230	 0.754829664163601 
1231	 0.755372015718245 
1232	 0.755839727586876 
1233	 0.756248089707686 
1234	 0.756648475508285 
1235	 0.757004538070993 
1236	 0.757354066618008 
1237	 0.757694769279078 
1238	 0.758018086218767 
1239	 0.75833394612329 
1240	 0.758604253280631 
1241	 0.758876005884764 
1242	 0.759095370571993 
1243	 0.759300354799122 
1244	 0.759454193206428 
1245	 0.75965295994645 
1246	 0.759849712209498 
1247	 0.760048754471475 
1248	 0.760275249152766 
1249	 0.760463353812628 
1250	 0.760641131285756 
1251	 0.76078940772025 
1252	 0.760914074828952 
1253	 0.761032870842226 
1254	 0.761138222643321 
1255	 0.761215260229053 
1256	 0.761287757420679 
1257	 0.761322777058612 
1258	 0.761300187577788 
1259	 0.761289214349272 
1260	 0.761257629468462 
1261	 0.761229755755199 
1262	 0.761204081749939 
1263	 0.761176247309317 
1264	 0.761137023406128 
1265	 0.761090920817704 
1266	 0.761036706211907 
1267	 0.760977006115841 
1268	 0.760905044014384 
1269	 0.760809684816408 
1270	 0.760743081477307 
1271	 0.760680443195745 
1272	 0.760614020673718 
1273	 0.760559376390129 
1274	 0.760507877291202 
1275	 0.760429334443923 
1276	 0.760397353884233 
1277	 0.760404958672623 
1278	 0.760404074078024 
1279	 0.760423584948946 
1280	 0.760441752969962 
1281	 0.760438688684013 
1282	 0.760473783842747 
1283	 0.76050256686455 
1284	 0.760588938833327 
1285	 0.760715509366937 
1286	 0.760891620161542 
1287	 0.761057286127704 
1288	 0.761268560255434 
1289	 0.761451032865445 
1290	 0.76161917667083 
1291	 0.761805346615926 
1292	 0.762005241663166 
1293	 0.762193036658383 
1294	 0.762392155962128 
1295	 0.762563792431665 
1296	 0.762711141409472 
1297	 0.762872503894451 
1298	 0.763020017411859 
1299	 0.7631797775847 
1300	 0.763353380115692 
1301	 0.76352260087176 
1302	 0.763695922689209 
1303	 0.763860785386182 
1304	 0.764034142236913 
1305	 0.764186923212934 
1306	 0.764352719281768 
1307	 0.764466088856925 
1308	 0.764534686177673 
1309	 0.764602500011845 
1310	 0.764637311443027 
1311	 0.764618777456697 
1312	 0.764638152578898 
1313	 0.764662468562233 
1314	 0.76467312301923 
1315	 0.764701137211063 
1316	 0.764677541192439 
1317	 0.764631365997253 
1318	 0.764561504705835 
1319	 0.764451131644594 
1320	 0.764347276763431 
1321	 0.764228600418946 
1322	 0.764106761884304 
1323	 0.763990738261419 
1324	 0.763845324718129 
1325	 0.76368848685648 
1326	 0.763510109251071 
1327	 0.763286495095146 
1328	 0.7630875124444 
1329	 0.762910653972061 
1330	 0.762692854002138 
1331	 0.762474974172245 
1332	 0.762232186227875 
1333	 0.761973809656693 
1334	 0.761659206821237 
1335	 0.761332325965339 
1336	 0.760991843107961 
1337	 0.7606200080267 
1338	 0.76019757681201 
1339	 0.759806529867062 
1340	 0.759418965264473 
1341	 0.759009005133823 
1342	 0.758594889157402 
1343	 0.758169689414581 
1344	 0.757732897246918 
1345	 0.757273403622742 
1346	 0.75680964998899 
1347	 0.75632195638424 
1348	 0.75581081260495 
1349	 0.755278057874319 
1350	 0.754723511330226 
1351	 0.754159541987465 
1352	 0.753577709073739 
1353	 0.752972108555853 
1354	 0.752341100010791 
1355	 0.751717090877116 
1356	 0.751069579585186 
1357	 0.750426055736891 
1358	 0.749771391271956 
1359	 0.749140285963004 
1360	 0.748514019276823 
1361	 0.74789099192358 
1362	 0.747280936338949 
1363	 0.746725673840043 
1364	 0.746158092938086 
1365	 0.745605765367072 
1366	 0.7450372330777 
1367	 0.744483394116655 
1368	 0.743899753576135 
1369	 0.743314376094585 
1370	 0.742676897315569 
1371	 0.742017458533999 
1372	 0.741329830577152 
1373	 0.740595036909777 
1374	 0.739849748911474 
1375	 0.739099172685175 
1376	 0.738291165888769 
1377	 0.737424976873872 
1378	 0.736557516320845 
1379	 0.735650802587564 
1380	 0.734734555013012 
1381	 0.733808783027078 
1382	 0.732855647154242 
1383	 0.731858682083436 
1384	 0.730872170412313 
1385	 0.729903242288507 
1386	 0.728894371017615 
1387	 0.727901906325314 
1388	 0.726862639341833 
1389	 0.725771533151308 
1390	 0.724677744882946 
1391	 0.723584604891848 
1392	 0.722413344778535 
1393	 0.721317010801433 
1394	 0.720215545560399 
1395	 0.719122921856721 
1396	 0.718057815577384 
1397	 0.716976213277477 
1398	 0.715912636310415 
1399	 0.714774663749646 
1400	 0.713651999447048 
1401	 0.71239340933203 
1402	 0.711105451217701 
1403	 0.709613776479692 
1404	 0.708061303706954 
1405	 0.706263005216394 
1406	 0.70427771779773 
1407	 0.702126724449363 
1408	 0.699645601739062 
1409	 0.697313055210131 
1410	 0.694685341649468 
1411	 0.692504850444277 
1412	 0.690277837092048 
1413	 0.688681777045018 
1414	 0.687407207481432 
1415	 0.686602229400811 
1416	 0.686465917829745 
1417	 0.686372014187844 
1418	 0.686780762305598 
1419	 0.687039794962476 
1420	 0.687498389523996 
1421	 0.68775152237448 
1422	 0.687967705139394 
1423	 0.688026461042129 
1424	 0.687913722904843 
1425	 0.687724909448906 
1426	 0.687445432423529 
1427	 0.687095742139632 
1428	 0.686727546414411 
1429	 0.686340119455448 
1430	 0.685958093808066 
1431	 0.685553246036485 
1432	 0.685163777861119 
1433	 0.684768477287005 
1434	 0.684401305830486 
1435	 0.684035825466189 
1436	 0.683699490094989 
1437	 0.683395438872664 
1438	 0.683089862955682 
1439	 0.682793125349943 
1440	 0.682512764252128 
1441	 0.682241880125888 
1442	 0.681984526283307 
1443	 0.681745765381435 
1444	 0.681511492317634 
1445	 0.681288267379887 
1446	 0.681073490192068 
1447	 0.680854109073468 
1448	 0.680669444842877 
1449	 0.680509234486511 
1450	 0.680351964557579 
1451	 0.680240783299424 
1452	 0.680090673509285 
1453	 0.679917542661092 
1454	 0.67975700652363 
1455	 0.679578156889739 
1456	 0.679417511281987 
1457	 0.679279179180457 
1458	 0.679131178256443 
1459	 0.678988261669885 
1460	 0.678837940575589 
1461	 0.678682068665826 
1462	 0.678524865509828 
1463	 0.678355505544502 
1464	 0.678197829729246 
1465	 0.678031945847426 
1466	 0.677882851656079 
1467	 0.67778288452402 
1468	 0.67767454440076 
1469	 0.677600278037808 
1470	 0.677557636690589 
1471	 0.677505520309377 
1472	 0.677463635728711 
1473	 0.677412093456621 
1474	 0.677368730808605 
1475	 0.677303630571439 
1476	 0.677228432274822 
1477	 0.677144197178336 
1478	 0.677055441744851 
1479	 0.676942305694208 
1480	 0.676818806964453 
1481	 0.676669641852992 
1482	 0.676496314472299 
1483	 0.676304916154217 
1484	 0.676095985196756 
1485	 0.675865481607868 
1486	 0.675598586072606 
1487	 0.675347825666479 
1488	 0.675084341785718 
1489	 0.674824317597802 
1490	 0.674553621425448 
1491	 0.67431482062137 
1492	 0.674067557009178 
1493	 0.673866938855805 
1494	 0.673713896615655 
1495	 0.673561994206896 
1496	 0.673429557411738 
1497	 0.673311971346568 
1498	 0.673202457566952 
1499	 0.67311872549478 
1500	 0.673052773464552 
1501	 0.673015431160412 
1502	 0.673009334114871 
1503	 0.673012542903534 
1504	 0.673037922037882 
1505	 0.673078648349064 
1506	 0.673123558667779 
1507	 0.673201339716144 
1508	 0.673326067550397 
1509	 0.67343733304029 
1510	 0.673572007644829 
1511	 0.673691652030449 
1512	 0.673780530308855 
1513	 0.673900575591292 
1514	 0.674007475746781 
1515	 0.674166335246765 
1516	 0.674386150882228 
1517	 0.674593564665456 
1518	 0.674846761196111 
1519	 0.675071138513138 
1520	 0.675270801109005 
1521	 0.675462906245887 
1522	 0.675678639108466 
1523	 0.675917329898164 
1524	 0.676146467646696 
1525	 0.676394407454642 
1526	 0.676640961953782 
1527	 0.676871545098714 
1528	 0.677134343963204 
1529	 0.677425125994469 
1530	 0.677706026535682 
1531	 0.677993494681807 
1532	 0.678280426401029 
1533	 0.678570166953061 
1534	 0.678862185126414 
1535	 0.679149957793955 
1536	 0.679457282552051 
1537	 0.679775067729055 
1538	 0.680094779960592 
1539	 0.680429545803892 
1540	 0.680758025005618 
1541	 0.681081717393089 
1542	 0.681417853733538 
1543	 0.681773502467831 
1544	 0.682095911894002 
1545	 0.682412884968486 
1546	 0.682719109027762 
1547	 0.683012552296925 
1548	 0.68328036376333 
1549	 0.6835457608743 
1550	 0.683775935801489 
1551	 0.6839669083331 
1552	 0.684149423878053 
1553	 0.684313986116886 
1554	 0.684464562063189 
1555	 0.684582962098662 
1556	 0.684717628846275 
1557	 0.684853039739164 
1558	 0.684975950866262 
1559	 0.685111587710629 
1560	 0.685208357759861 
1561	 0.685262947924271 
1562	 0.685343096336566 
1563	 0.685392793875791 
1564	 0.685492283634879 
1565	 0.685650904685405 
1566	 0.685757894471202 
1567	 0.685867111077691 
1568	 0.685962056720346 
1569	 0.686014932326838 
1570	 0.686089960580157 
1571	 0.686174652925106 
1572	 0.686260022615808 
1573	 0.686324061977453 
1574	 0.686434214586738 
1575	 0.686574974861325 
1576	 0.686715313384158 
1577	 0.686888089032042 
1578	 0.687050623017063 
1579	 0.68720010299231 
1580	 0.687371140681562 
1581	 0.687565512426012 
1582	 0.68774613031396 
1583	 0.687936525924534 
1584	 0.688114070571688 
1585	 0.688269168198098 
1586	 0.688442355108036 
1587	 0.688628420450839 
1588	 0.688800304734387 
1589	 0.688963622953436 
1590	 0.689142997443227 
1591	 0.689325621534911 
1592	 0.689501477736506 
1593	 0.689705868758167 
1594	 0.689874351504579 
1595	 0.690002356200496 
1596	 0.690148985436867 
1597	 0.690281993696132 
1598	 0.690429680875648 
1599	 0.690575300796612 
1600	 0.690752713239316 
1601	 0.690962365336216 
1602	 0.691159814767536 
1603	 0.691381392054247 
1604	 0.691589688096043 
1605	 0.691783380251631 
1606	 0.691975654746516 
1607	 0.692174836133333 
1608	 0.69236034938976 
1609	 0.692538272511299 
1610	 0.692702523098771 
1611	 0.692856558914537 
1612	 0.692999952139667 
1613	 0.693136981324466 
1614	 0.693250126073638 
1615	 0.693333267018938 
1616	 0.693427769336492 
1617	 0.693496316938471 
1618	 0.69358839933787 
1619	 0.693712344572558 
1620	 0.693815287252091 
1621	 0.693922367769027 
1622	 0.694014741037893 
1623	 0.69408181140973 
1624	 0.694159707333743 
1625	 0.69423819290341 
1626	 0.694311938050306 
1627	 0.69439039622913 
1628	 0.694459704536214 
1629	 0.694525016445595 
1630	 0.694579777844476 
1631	 0.694641200264265 
1632	 0.694673453647669 
1633	 0.694662710980996 
1634	 0.694675820269952 
1635	 0.694683180938181 
1636	 0.694687388950495 
1637	 0.694711080623986 
1638	 0.694722736880842 
1639	 0.694712249599405 
1640	 0.694713766879001 
1641	 0.694734271462654 
1642	 0.694728949945717 
1643	 0.694732663420367 
1644	 0.69469442901486 
1645	 0.694637267201898 
1646	 0.69453536396897 
1647	 0.694363616903867 
1648	 0.694220769209339 
1649	 0.694069467064925 
1650	 0.693898188044992 
1651	 0.693734029624794 
1652	 0.693550706259249 
1653	 0.693354754882033 
1654	 0.693114320194064 
1655	 0.692877933423512 
1656	 0.692571064161899 
1657	 0.692185125000224 
1658	 0.691785028694058 
1659	 0.691349615720304 
1660	 0.690884487660495 
1661	 0.690376064179349 
1662	 0.689866156864044 
1663	 0.689328680252467 
1664	 0.688768221393332 
1665	 0.688199432569156 
1666	 0.687601064593773 
1667	 0.686982705703154 
1668	 0.686334304526092 
1669	 0.685696720361386 
1670	 0.684958505848648 
1671	 0.684158234663569 
1672	 0.68328925808793 
1673	 0.682349592343135 
1674	 0.68132832172391 
1675	 0.680219456846934 
1676	 0.679101243977234 
1677	 0.677906762705073 
1678	 0.676704933523641 
1679	 0.675504646561546 
1680	 0.674221395461029 
1681	 0.672903782864933 
1682	 0.671486307026623 
1683	 0.669973830770207 
1684	 0.668462978256052 
1685	 0.666871918983552 
1686	 0.665284686642193 
1687	 0.663663933011067 
1688	 0.662052816724578 
1689	 0.66041050791995 
1690	 0.658800010529395 
1691	 0.657201098525913 
1692	 0.655672789336325 
1693	 0.654184623764779 
1694	 0.652698475491791 
1695	 0.651269760245994 
1696	 0.649786701432064 
1697	 0.648281611716453 
1698	 0.646760514060916 
1699	 0.645282538105044 
1700	 0.643709244686291 
1701	 0.642081510928687 
1702	 0.640424632451728 
1703	 0.638647508428572 
1704	 0.636937341724158 
1705	 0.63521031768241 
1706	 0.633475006224384 
1707	 0.631954186781545 
1708	 0.630435122841851 
1709	 0.628994491949981 
1710	 0.62769179103738 
1711	 0.626299070894037 
1712	 0.625029068317974 
1713	 0.623769430683252 
1714	 0.622465413334623 
1715	 0.621290184426442 
1716	 0.620043910534059 
1717	 0.61882357918728 
1718	 0.617660426795186 
1719	 0.616425427659821 
1720	 0.615256453107928 
1721	 0.614117725808234 
1722	 0.612980341316816 
1723	 0.611967888048088 
1724	 0.611021010569765 
1725	 0.610209091407793 
1726	 0.609577007535404 
1727	 0.609110605369792 
1728	 0.608883798317905 
1729	 0.608898705768325 
1730	 0.609188164993099 
1731	 0.609739989915761 
1732	 0.610592671868809 
1733	 0.611645161187759 
1734	 0.612918168281171 
1735	 0.614412910719585 
1736	 0.615955674467099 
1737	 0.617549292318464 
1738	 0.61913357867488 
1739	 0.620537887151756 
1740	 0.621908730353524 
1741	 0.623073791837693 
1742	 0.624093351851471 
1743	 0.624968943744379 
1744	 0.625660242036524 
1745	 0.626231821137299 
1746	 0.626653148327852 
1747	 0.626941276918051 
1748	 0.627068758084091 
1749	 0.627121238398064 
1750	 0.627048983001423 
1751	 0.626886518695489 
1752	 0.626610954798238 
1753	 0.626287153301858 
1754	 0.625818878288095 
1755	 0.625423421732151 
1756	 0.624993275529613 
1757	 0.624583387968209 
1758	 0.624218490654011 
1759	 0.623885262795429 
1760	 0.623635337421118 
1761	 0.623510965641687 
1762	 0.623507923002311 
1763	 0.623687169196747 
1764	 0.623981625715365 
1765	 0.624443276161411 
1766	 0.625110468669968 
1767	 0.625887490235653 
1768	 0.62681287479186 
1769	 0.627817808672649 
1770	 0.628774734822441 
1771	 0.629774148695267 
1772	 0.630768923775355 
1773	 0.631717566667681 
1774	 0.632669270287043 
1775	 0.633530944190091 
1776	 0.634363655447606 
1777	 0.635196616296745 
1778	 0.635928821776634 
1779	 0.636592411222154 
1780	 0.63716909194577 
1781	 0.637620769112575 
1782	 0.638069848235577 
1783	 0.638500363986008 
1784	 0.638859601986997 
1785	 0.639128843010199 
1786	 0.639396424230682 
1787	 0.63963917177365 
1788	 0.639833041419711 
1789	 0.639994740902955 
1790	 0.640148912317396 
1791	 0.640247682014835 
1792	 0.640346285644693 
1793	 0.640438201570141 
1794	 0.64052155824837 
1795	 0.640576996636628 
1796	 0.640630092932699 
1797	 0.6407372230971 
1798	 0.640809822953943 
1799	 0.640874535026747 
1800	 0.640957500990827 
1801	 0.642908338536475 
1802	 0.643103800864861 
1803	 0.643335834316154 
1804	 0.643600658378855 
1805	 0.643909804924884 
1806	 0.644187406332899 
1807	 0.644496146618434 
1808	 0.644782491826674 
1809	 0.645053292844928 
1810	 0.645310211363894 
1811	 0.645605298357943 
1812	 0.645831901503628 
1813	 0.646008451071729 
1814	 0.646176467191921 
1815	 0.646314002180043 
1816	 0.646435279805039 
1817	 0.646563394625975 
1818	 0.646702160860135 
1819	 0.646813882695876 
1820	 0.646879393453402 
1821	 0.646991632133489 
1822	 0.64710889468228 
1823	 0.647227690070188 
1824	 0.647383802552453 
1825	 0.647579402889015 
1826	 0.647768400225245 
1827	 0.647980149633618 
1828	 0.648167461609704 
1829	 0.648361199298305 
1830	 0.648537195888864 
1831	 0.648702683364998 
1832	 0.648851521433728 
1833	 0.648977574619308 
1834	 0.649133273993277 
1835	 0.64927775345357 
1836	 0.649406011269861 
1837	 0.64954410633692 
1838	 0.649690212307826 
1839	 0.64982634535966 
1840	 0.649954051184316 
1841	 0.650085706661298 
1842	 0.650198916458633 
1843	 0.650360772184803 
1844	 0.650528661799358 
1845	 0.650668418518845 
1846	 0.650845234828414 
1847	 0.650980029648546 
1848	 0.651078287933182 
1849	 0.651141399696863 
1850	 0.651207080379806 
1851	 0.651254279312803 
1852	 0.651278868971422 
1853	 0.651274125997236 
1854	 0.651247355419466 
1855	 0.651168942958001 
1856	 0.651029095308477 
1857	 0.650874745493041 
1858	 0.650699420833845 
1859	 0.650483690664084 
1860	 0.65023404592485 
1861	 0.649950070440015 
1862	 0.649648505071636 
1863	 0.649289095343845 
1864	 0.648848873263347 
1865	 0.648357481901678 
1866	 0.647787843163555 
1867	 0.647133782864882 
1868	 0.646444325073832 
1869	 0.645697609761296 
1870	 0.644891874403876 
1871	 0.644018952816905 
1872	 0.643114613368823 
1873	 0.642158572134141 
1874	 0.641174630105369 
1875	 0.640139829019022 
1876	 0.638988458368034 
1877	 0.637854213177737 
1878	 0.636570947809814 
1879	 0.635167762330722 
1880	 0.633830790330985 
1881	 0.632343372675412 
1882	 0.6307270857376 
1883	 0.629073425327987 
1884	 0.627332083140983 
1885	 0.625257812944442 
1886	 0.623121296860595 
1887	 0.620767375130673 
1888	 0.618154411000589 
1889	 0.615659704750295 
1890	 0.612935229013555 
1891	 0.610117823965263 
1892	 0.607270054329918 
1893	 0.604186951028947 
1894	 0.600843452180643 
1895	 0.59754417709739 
1896	 0.594070181571403 
1897	 0.59048370846831 
1898	 0.587162221423488 
1899	 0.583638341269713 
1900	 0.580131838500283 
1901	 0.576683521715641 
1902	 0.572931896240779 
1903	 0.569293643692575 
1904	 0.565688460839251 
1905	 0.562045635387414 
1906	 0.558452465340886 
1907	 0.555188405857802 
1908	 0.551871524645279 
1909	 0.548725626949126 
1910	 0.545727652543248 
1911	 0.5425052367463 
1912	 0.539437875964979 
1913	 0.536399604911975 
1914	 0.533347782152749 
1915	 0.530518415392669 
1916	 0.527911459248357 
1917	 0.525283665754267 
1918	 0.522756509317503 
1919	 0.520332257300037 
1920	 0.517804294673667 
1921	 0.515477941111446 
1922	 0.513175784144291 
1923	 0.510888115364332 
1924	 0.508889335560739 
1925	 0.50691595504849 
1926	 0.505034916154437 
1927	 0.503327094628511 
1928	 0.501624686527337 
1929	 0.499923293672077 
1930	 0.49837414323501 
1931	 0.49692664575164 
1932	 0.49556178566742 
1933	 0.494408003375161 
1934	 0.493292109867629 
1935	 0.492254642844292 
1936	 0.491357505341736 
1937	 0.49051408493316 
1938	 0.489729556738081 
1939	 0.489077124470865 
1940	 0.488527589051014 
1941	 0.488042517686041 
1942	 0.48769833429629 
1943	 0.487450431179893 
1944	 0.48726248966223 
1945	 0.487161404273884 
1946	 0.487127540386174 
1947	 0.487142589099336 
1948	 0.48724765449262 
1949	 0.487414689222886 
1950	 0.487635057424452 
1951	 0.487922711093193 
1952	 0.488273225601914 
1953	 0.488671422401902 
1954	 0.489150883407563 
1955	 0.489713640156179 
1956	 0.490261396098243 
1957	 0.490855196081289 
1958	 0.491470751917769 
1959	 0.492036545808409 
1960	 0.492643753167202 
1961	 0.493258708802759 
1962	 0.493855488316975 
1963	 0.494493486326915 
1964	 0.495184307862971 
1965	 0.49584933639058 
1966	 0.496526306264276 
1967	 0.497217102592282 
1968	 0.497843968724245 
1969	 0.498469505957468 
1970	 0.499077607469317 
1971	 0.499676966179905 
1972	 0.500348094767639 
1973	 0.501002441992343 
1974	 0.501670509295127 
1975	 0.502378704340145 
1976	 0.503062003394301 
1977	 0.503725981082932 
1978	 0.504415837735793 
1979	 0.505115739174517 
1980	 0.505791408046207 
1981	 0.506546110181609 
1982	 0.507292138434545 
1983	 0.508050680588199 
1984	 0.508852299420294 
1985	 0.509585988490424 
1986	 0.510320551667779 
1987	 0.511060085258602 
1988	 0.511779011564949 
1989	 0.512520225720049 
1990	 0.513273137103725 
1991	 0.514028892562501 
1992	 0.514796405273171 
1993	 0.515589720681025 
1994	 0.516304065050597 
1995	 0.51705152402795 
1996	 0.517792585113082 
1997	 0.518481085989689 
1998	 0.519214686419348 
1999	 0.519997425770093 
2000	 0.520714871392889 
2001	 0.521434155971633 
2002	 0.52211549529305 
2003	 0.522752686869436 
2004	 0.52338390199251 
2005	 0.523967776997499 
2006	 0.524569809912428 
2007	 0.525171433371143 
2008	 0.525774283832654 
2009	 0.526354760001291 
2010	 0.526957674646984 
2011	 0.5274951861682 
2012	 0.528008050093733 
2013	 0.528503762968616 
2014	 0.52897589943159 
2015	 0.529424899096187 
2016	 0.529885795616069 
2017	 0.530252031291309 
2018	 0.530576609031102 
2019	 0.530849026606374 
2020	 0.53105212052199 
2021	 0.531207535849603 
2022	 0.531328527718781 
2023	 0.531374283002318 
2024	 0.531341522279111 
2025	 0.531230505011522 
2026	 0.531045314754595 
2027	 0.530760318020702 
2028	 0.53045232220226 
2029	 0.530076050016567 
2030	 0.529662334668963 
2031	 0.529215488772471 
2032	 0.528705875718197 
2033	 0.528103436662987 
2034	 0.527511116586494 
2035	 0.526879485453503 
2036	 0.526217177934058 
2037	 0.525590579483002 
2038	 0.524946441839889 
2039	 0.524317858403399 
2040	 0.523692141767349 
2041	 0.523088201658349 
2042	 0.522464785087017 
2043	 0.521916209577202 
2044	 0.521393040087204 
2045	 0.520924485604327 
2046	 0.520515705488426 
2047	 0.520141112202822 
2048	 0.519804316682286 
2049	 0.519510845627136 
2050	 0.519245844390684 
2051	 0.519045225745882 
2052	 0.518911937130729 
2053	 0.518840857870717 
2054	 0.518866462266243 
2055	 0.518977971041711 
2056	 0.519173461483526 
2057	 0.519442997627928 
2058	 0.519820625602308 
2059	 0.520292598235467 
2060	 0.520856400225736 
2061	 0.521552099978844 
2062	 0.522283423421189 
2063	 0.523098424219191 
2064	 0.523975087403932 
2065	 0.524925343800042 
2066	 0.525900107798738 
2067	 0.527013233170903 
2068	 0.528099796978504 
2069	 0.52923391112085 
2070	 0.530464698276016 
2071	 0.53160189929062 
2072	 0.532724436332213 
2073	 0.533846894022871 
2074	 0.534928983214039 
2075	 0.536022766092848 
2076	 0.537158023773437 
2077	 0.538218452645396 
2078	 0.539289656600533 
2079	 0.540255187859674 
2080	 0.541139280944506 
2081	 0.541989215728108 
2082	 0.542760359235259 
2083	 0.543479290101136 
2084	 0.544217075067005 
2085	 0.544903100293849 
2086	 0.545531870081962 
2087	 0.546114232031513 
2088	 0.546663623671576 
2089	 0.547161227269888 
2090	 0.547615810001888 
2091	 0.548032331595864 
2092	 0.548421491875695 
2093	 0.54874600625399 
2094	 0.549058057466811 
2095	 0.549356408413937 
2096	 0.549625837928468 
2097	 0.549867610691836 
2098	 0.55007338892661 
2099	 0.550262811879009 
2100	 0.550384810885795 
2101	 0.55047570430302 
2102	 0.550513013185649 
2103	 0.550529482612811 
2104	 0.550493268123116 
2105	 0.550474585907899 
2106	 0.550421004689148 
2107	 0.550392320465085 
2108	 0.550388799842168 
2109	 0.550351606694388 
2110	 0.550325485746009 
2111	 0.550249316499502 
2112	 0.550134352391102 
2113	 0.55000679660807 
2114	 0.549836934789327 
2115	 0.549667156526983 
2116	 0.549499693559153 
2117	 0.549307554259461 
2118	 0.549072733192057 
2119	 0.548801270415541 
2120	 0.54854045883378 
2121	 0.548236673456095 
2122	 0.547952520862987 
2123	 0.547702017129091 
2124	 0.547403318407303 
2125	 0.54708798927508 
2126	 0.546750223621395 
2127	 0.546418880274579 
2128	 0.545998838131753 
2129	 0.545508894052711 
2130	 0.545016262782481 
2131	 0.544482041045853 
2132	 0.543906902994544 
2133	 0.543351095719965 
2134	 0.542712865110903 
2135	 0.541919994342275 
2136	 0.541117997015379 
2137	 0.540196416204107 
2138	 0.539148044513336 
2139	 0.538077348037635 
2140	 0.536922374826144 
2141	 0.535749695897468 
2142	 0.53452928135456 
2143	 0.533288042005678 
2144	 0.531965099099688 
2145	 0.530717557267006 
2146	 0.529414014729861 
2147	 0.528224490206571 
2148	 0.527141176340361 
2149	 0.526045510924678 
2150	 0.525045867423999 
2151	 0.523985535413082 
2152	 0.522895739103434 
2153	 0.521820838008707 
2154	 0.520703524258689 
2155	 0.519569105261018 
2156	 0.518457940985719 
2157	 0.517368014345552 
2158	 0.51620558183366 
2159	 0.515064791706854 
2160	 0.513802762411383 
2161	 0.512415514982727 
2162	 0.511098032041205 
2163	 0.509670381466051 
2164	 0.508398483448539 
2165	 0.507200487169186 
2166	 0.506042335037418 
2167	 0.504990261711618 
2168	 0.503923904735717 
2169	 0.502848913572928 
2170	 0.501858341328329 
2171	 0.500857278335866 
2172	 0.499986990824175 
2173	 0.499230066171424 
2174	 0.498534860370663 
2175	 0.497934584036234 
2176	 0.497411835479041 
2177	 0.496909072589958 
2178	 0.496464787230317 
2179	 0.496046454773103 
2180	 0.495656227124539 
2181	 0.495335287152981 
2182	 0.495065151948468 
2183	 0.494834459817796 
2184	 0.494662195905227 
2185	 0.494534635377875 
2186	 0.494457605733889 
2187	 0.494413633361809 
2188	 0.494443841628308 
2189	 0.494465758923791 
2190	 0.494496807424174 
2191	 0.494569462567328 
2192	 0.494689543812403 
2193	 0.494799579651628 
2194	 0.49494942935175 
2195	 0.495085830388032 
2196	 0.495216796730068 
2197	 0.495345203839841 
2198	 0.495482860487289 
2199	 0.495592090583839 
2200	 0.495655465439202 
2201	 0.495671064931929 
2202	 0.495709977436991 
2203	 0.495717884298424 
2204	 0.495730996741282 
2205	 0.495748692582203 
2206	 0.495769115905277 
2207	 0.495766219880197 
2208	 0.495803205467669 
2209	 0.495890686891562 
2210	 0.495925661385807 
2211	 0.495960480719101 
2212	 0.495961684259392 
2213	 0.495888209930053 
2214	 0.495886526913467 
2215	 0.495891192982995 
2216	 0.495924547525657 
2217	 0.496036797501602 
2218	 0.496095412909301 
2219	 0.496129945440967 
2220	 0.496183275235768 
2221	 0.496250419514711 
2222	 0.496285688151975 
2223	 0.496297019781287 
2224	 0.49626495208753 
2225	 0.496129548466524 
2226	 0.49593165841494 
2227	 0.495703880827655 
2228	 0.495449267546008 
2229	 0.495090496321273 
2230	 0.494659410160577 
2231	 0.494179071082506 
2232	 0.493631834007808 
2233	 0.492997252891325 
2234	 0.492321688644417 
2235	 0.491518705273741 
2236	 0.490618498816652 
2237	 0.489602208619143 
2238	 0.48841757217767 
2239	 0.487253717503668 
2240	 0.486014455604639 
2241	 0.484708359402509 
2242	 0.483445015128104 
2243	 0.482006060811309 
2244	 0.480392078408421 
2245	 0.478764837297014 
2246	 0.477003180684881 
2247	 0.475244159445101 
2248	 0.473487691358065 
2249	 0.471646799447065 
2250	 0.469757920875778 
2251	 0.467839551878725 
2252	 0.465731771644332 
2253	 0.463679384023737 
2254	 0.461512368993733 
2255	 0.459274240499446 
2256	 0.457198905627752 
2257	 0.455083010415977 
2258	 0.453030812148149 
2259	 0.451071289618337 
2260	 0.449074911178653 
2261	 0.447062731257617 
2262	 0.445097589502087 
2263	 0.443116797861183 
2264	 0.441246078398382 
2265	 0.439432838969983 
2266	 0.437666859981744 
2267	 0.436012566094194 
2268	 0.434337467965358 
2269	 0.432656029473537 
2270	 0.4310578576987 
2271	 0.429462484197528 
2272	 0.427992626478088 
2273	 0.426617102313188 
2274	 0.425306467463865 
2275	 0.424171023057265 
2276	 0.422951221671605 
2277	 0.42175180231173 
2278	 0.420553968967122 
2279	 0.419300125634607 
2280	 0.418089634193966 
2281	 0.416953887941176 
2282	 0.415757805814924 
2283	 0.414544099148499 
2284	 0.4133329226496 
2285	 0.412051299021917 
2286	 0.41077920986467 
2287	 0.409460580351886 
2288	 0.408104399686833 
2289	 0.406806877158211 
2290	 0.405477550403044 
2291	 0.404154026606441 
2292	 0.402785431656014 
2293	 0.401242471368096 
2294	 0.399648097964004 
2295	 0.397916313992462 
2296	 0.396065768350226 
2297	 0.394190276551499 
2298	 0.392227006990535 
2299	 0.390183336667852 
2300	 0.38808634428775 
2301	 0.385917343797652 
2302	 0.383584653662278 
2303	 0.381411370774039 
2304	 0.379079171792933 
2305	 0.377148567847373 
2306	 0.375298928607662 
2307	 0.373873718045292 
2308	 0.372701872073214 
2309	 0.372066293520843 
2310	 0.371714091655021 
2311	 0.372078113150957 
2312	 0.3731626199562 
2313	 0.374508665982716 
2314	 0.376528921271002 
2315	 0.378683573105971 
2316	 0.381260603139744 
2317	 0.383833477062132 
2318	 0.386910601721066 
2319	 0.389504840260921 
2320	 0.392161439793915 
2321	 0.394325215837302 
2322	 0.396089968377493 
2323	 0.397638056963048 
2324	 0.398810720699208 
2325	 0.399801311345505 
2326	 0.400571573795892 
2327	 0.401111500920224 
2328	 0.401310942317472 
2329	 0.401433496079607 
2330	 0.401375660191421 
2331	 0.401117826147229 
2332	 0.400766294128488 
2333	 0.400317984645425 
2334	 0.39962469982281 
2335	 0.398755678115347 
2336	 0.39764577057178 
2337	 0.396279189581026 
2338	 0.394732361894974 
2339	 0.39300742385157 
2340	 0.391280716900667 
2341	 0.389459780691429 
2342	 0.387480062895439 
2343	 0.385486743318704 
2344	 0.383438060696958 
2345	 0.38140739868575 
2346	 0.379715633591873 
2347	 0.378311989774 
2348	 0.377182427808145 
2349	 0.376581857386208 
2350	 0.376483374618767 
2351	 0.376857736162642 
2352	 0.377754338918006 
2353	 0.379229229340738 
2354	 0.380888274104264 
2355	 0.382798434778583 
2356	 0.384792315367365 
2357	 0.386731889181758 
2358	 0.388767273802419 
2359	 0.390569208110081 
2360	 0.392210280456312 
2361	 0.393600361121161 
2362	 0.39459457355411 
2363	 0.395368825470816 
2364	 0.395933192616671 
2365	 0.396311713204792 
2366	 0.396657078613697 
2367	 0.396865524033837 
2368	 0.39706922182317 
2369	 0.397278085105799 
2370	 0.397366419692144 
2371	 0.397475113020388 
2372	 0.397512057273159 
2373	 0.397528996612527 
2374	 0.397566840198034 
2375	 0.397566601707654 
2376	 0.397612458179877 
2377	 0.397606768317384 
2378	 0.397506174345976 
2379	 0.39742159815807 
2380	 0.397241680209422 
2381	 0.396995502210386 
2382	 0.39680839015316 
2383	 0.396627989899332 
2384	 0.396412335009475 
2385	 0.396209831918418 
2386	 0.396012830922543 
2387	 0.395798361977924 
2388	 0.395618218464689 
2389	 0.395462373931519 
2390	 0.395336184182494 
2391	 0.395200100745964 
2392	 0.395063282507141 
2393	 0.394971790821493 
2394	 0.394872942766565 
2395	 0.394760275113114 
2396	 0.394682450736587 
2397	 0.394663853404779 
2398	 0.394560345627982 
2399	 0.394406758126417 
2400	 0.39429438783303 
2401	 0.3941812180421 
2402	 0.394060874736046 
2403	 0.393951589478427 
2404	 0.393921635235983 
2405	 0.393857126681846 
2406	 0.393992028624015 
2407	 0.39428347589915 
2408	 0.394457046131912 
2409	 0.394563234331007 
2410	 0.394551630143352 
2411	 0.394446112626823 
2412	 0.394313419045363 
2413	 0.394165369089351 
2414	 0.394080967392013 
2415	 0.393993314602544 
2416	 0.393958913492883 
2417	 0.393909110433277 
2418	 0.393748570233156 
2419	 0.39350602468087 
2420	 0.393255588670703 
2421	 0.393138612971129 
2422	 0.392961878050063 
2423	 0.392837511275938 
2424	 0.392710330867275 
2425	 0.392366821833872 
2426	 0.392041590436326 
2427	 0.391708642530879 
2428	 0.39146074635721 
2429	 0.391291716038262 
2430	 0.391104173598834 
2431	 0.390934027440208 
2432	 0.390727200905676 
2433	 0.390473462456781 
2434	 0.390069358597075 
2435	 0.389524393920576 
2436	 0.388941726457144 
2437	 0.388365829852438 
2438	 0.387762205516777 
2439	 0.387267076092332 
2440	 0.386932634136721 
2441	 0.386349068517213 
2442	 0.385821793338385 
2443	 0.385556309217002 
2444	 0.385062031048407 
2445	 0.384553353611662 
2446	 0.384009250243414 
2447	 0.383281156291648 
2448	 0.382646405256051 
2449	 0.382088707973603 
2450	 0.381555142296492 
2451	 0.381105056139279 
2452	 0.380501884193614 
2453	 0.379701327982256 
2454	 0.378984293033936 
2455	 0.378186434271812 
2456	 0.377441904392158 
2457	 0.376689559595358 
2458	 0.375787159138237 
2459	 0.375241600909534 
2460	 0.374794606467436 
2461	 0.374170138989405 
2462	 0.37371171525546 
2463	 0.373072366991193 
2464	 0.372206760555793 
2465	 0.371839796726548 
2466	 0.37153157579841 
2467	 0.371073704600262 
2468	 0.370853055386237 
2469	 0.370406218783667 
2470	 0.36996571048849 
2471	 0.369781783316596 
2472	 0.369386432662176 
2473	 0.368893222783347 
2474	 0.368592313669894 
2475	 0.368297661350422 
2476	 0.368032261800298 
2477	 0.367764618089893 
2478	 0.367266260242044 
2479	 0.36702768904283 
2480	 0.366936032274591 
2481	 0.366883272788853 
2482	 0.367084771076051 
2483	 0.367094911785403 
2484	 0.366904305238789 
2485	 0.366562887997389 
2486	 0.366375224234066 
2487	 0.366158795616242 
2488	 0.366071841744761 
2489	 0.365760742138813 
2490	 0.365621703049086 
2491	 0.365526758421082 
2492	 0.365215875572398 
2493	 0.365470253643075 
2494	 0.365388910598357 
2495	 0.365034339483622 
2496	 0.365317647253628 
2497	 0.3652674484235 
2498	 0.365164566487123 
2499	 0.365504188063968 
2500	 0.365364493957986 
