Wavelength	ProbetaAcolman00026.asd
350	 0.66158590597881 
351	 0.654909921196267 
352	 0.64553498286419 
353	 0.630294250760052 
354	 0.631528860764449 
355	 0.633636105476956 
356	 0.629789171009684 
357	 0.620959704228252 
358	 0.626289013396917 
359	 0.621364947214245 
360	 0.611743263607907 
361	 0.61408172994061 
362	 0.59897401267665 
363	 0.586328683649875 
364	 0.585143050054941 
365	 0.582795952034933 
366	 0.580543433300382 
367	 0.576467993388711 
368	 0.572934800098977 
369	 0.589893803203552 
370	 0.585841069518658 
371	 0.570461322098012 
372	 0.577246460120596 
373	 0.572770714670753 
374	 0.568460360222564 
375	 0.57003471334965 
376	 0.569791197036877 
377	 0.567283694012687 
378	 0.562658082078355 
379	 0.55788024450443 
380	 0.558550789372524 
381	 0.562487439824172 
382	 0.564072473698481 
383	 0.558143762280831 
384	 0.558076048770946 
385	 0.56132123360075 
386	 0.564885325132137 
387	 0.568184871011658 
388	 0.565800892480514 
389	 0.561248507040494 
390	 0.560550495366448 
391	 0.570716445030105 
392	 0.571456280311295 
393	 0.565245654017944 
394	 0.567609831835916 
395	 0.567513823858901 
396	 0.568621081660177 
397	 0.572099135827156 
398	 0.572297165038043 
399	 0.574488702422221 
400	 0.576716369202018 
401	 0.576494366827703 
402	 0.577069545594389 
403	 0.577805736073578 
404	 0.578866774144349 
405	 0.581154361857951 
406	 0.587934013050204 
407	 0.591202651572811 
408	 0.588804750019198 
409	 0.591627303671203 
410	 0.594519677473424 
411	 0.598246441524941 
412	 0.603827414820378 
413	 0.605308542732883 
414	 0.607221980746066 
415	 0.611428719370544 
416	 0.616853548537833 
417	 0.620343496184207 
418	 0.62248715313119 
419	 0.62425690225054 
420	 0.625838719454488 
421	 0.627364207923109 
422	 0.62938250315556 
423	 0.632122947963797 
424	 0.633025000223946 
425	 0.634757287246513 
426	 0.637349639691969 
427	 0.637666302384139 
428	 0.638869324055603 
429	 0.640709964357399 
430	 0.642331883017418 
431	 0.643341554816389 
432	 0.644019558915308 
433	 0.64467801616632 
434	 0.645550086406356 
435	 0.646138025211921 
436	 0.646475348205353 
437	 0.646818633808699 
438	 0.647689039511592 
439	 0.648135163940497 
440	 0.648220854954891 
441	 0.648306445023647 
442	 0.648715242043655 
443	 0.648651450457036 
444	 0.648204651253003 
445	 0.648108552289265 
446	 0.647784217003452 
447	 0.64743375373477 
448	 0.647167228501376 
449	 0.646659603954191 
450	 0.646015800136529 
451	 0.645324212499809 
452	 0.644704710882369 
453	 0.644466694614482 
454	 0.643965075499374 
455	 0.643093064710444 
456	 0.642368913072791 
457	 0.641367941012324 
458	 0.640331924838701 
459	 0.639493721777761 
460	 0.638693533233483 
461	 0.637653423533918 
462	 0.636612388394221 
463	 0.635957205600066 
464	 0.634792412786773 
465	 0.633648877222059 
466	 0.632571010005122 
467	 0.630611337003093 
468	 0.629522855372126 
469	 0.628928048455934 
470	 0.627975661420266 
471	 0.626615134080431 
472	 0.625246406517793 
473	 0.623982639744617 
474	 0.622712084464801 
475	 0.621744647216708 
476	 0.620737369016402 
477	 0.619411633406943 
478	 0.617741275066416 
479	 0.61662161404001 
480	 0.615861657077443 
481	 0.614907697846771 
482	 0.61390254091924 
483	 0.613149858700391 
484	 0.61264760439675 
485	 0.612048308061818 
486	 0.611226498983918 
487	 0.610503643217435 
488	 0.610113911273748 
489	 0.609710010347216 
490	 0.609365140870625 
491	 0.609125191474753 
492	 0.608990778633625 
493	 0.608628078656204 
494	 0.608594311348128 
495	 0.608908578402976 
496	 0.608549774860398 
497	 0.608370751969301 
498	 0.608420147306825 
499	 0.608479801554921 
500	 0.608274791719042 
501	 0.608251993264512 
502	 0.608395894763325 
503	 0.608292224083215 
504	 0.608213009713205 
505	 0.608036254178531 
506	 0.607725019830116 
507	 0.607624276265688 
508	 0.60727252912846 
509	 0.606835497540105 
510	 0.606663285497993 
511	 0.60634228975537 
512	 0.605891040198383 
513	 0.605443847806887 
514	 0.605228153221203 
515	 0.604880396361684 
516	 0.604560689728784 
517	 0.604419965195557 
518	 0.604106257457671 
519	 0.603757844836029 
520	 0.603538432279574 
521	 0.603592121724712 
522	 0.603696595059059 
523	 0.60383101856291 
524	 0.603990406959122 
525	 0.604121987279733 
526	 0.604399737983952 
527	 0.604805869501005 
528	 0.605243626661936 
529	 0.605624244732785 
530	 0.606000073352016 
531	 0.606411174709813 
532	 0.606869780180919 
533	 0.607260133607866 
534	 0.607544180831581 
535	 0.60774231273235 
536	 0.607990724050643 
537	 0.608109745692415 
538	 0.608054862559881 
539	 0.607881951193997 
540	 0.607785525060198 
541	 0.607646863905959 
542	 0.607368421498615 
543	 0.606939710266765 
544	 0.606513437405737 
545	 0.606007617571634 
546	 0.60533403068825 
547	 0.604730347142936 
548	 0.604010676977891 
549	 0.603201079822426 
550	 0.602524278787523 
551	 0.602010101316052 
552	 0.601474679316014 
553	 0.600783467167177 
554	 0.600025968090678 
555	 0.59921788947369 
556	 0.598448022994369 
557	 0.597792944361293 
558	 0.596989091919072 
559	 0.596245668590681 
560	 0.595663850298421 
561	 0.595136725607949 
562	 0.594895813686751 
563	 0.594923194201487 
564	 0.595131211643611 
565	 0.595463245460063 
566	 0.595907333830076 
567	 0.596431092807607 
568	 0.597001591219876 
569	 0.597769929690456 
570	 0.598756109764606 
571	 0.599922066382881 
572	 0.601162378744588 
573	 0.602456372931078 
574	 0.603611384917162 
575	 0.604464574123881 
576	 0.605373956339849 
577	 0.606230932646866 
578	 0.606988635617848 
579	 0.607707780772045 
580	 0.608564264732603 
581	 0.609387967425263 
582	 0.610043370886629 
583	 0.610773146206618 
584	 0.611412391360331 
585	 0.611859241767033 
586	 0.612104675049678 
587	 0.612555028328492 
588	 0.613041232390725 
589	 0.613498255986245 
590	 0.614161769601596 
591	 0.614633840713957 
592	 0.61494301081972 
593	 0.615243860741775 
594	 0.615628737463957 
595	 0.615758859557319 
596	 0.615639894892396 
597	 0.615581956109625 
598	 0.615549823397182 
599	 0.615259110159071 
600	 0.614680566208339 
601	 0.614527826376048 
602	 0.61421440639267 
603	 0.613659431499176 
604	 0.613048316136159 
605	 0.612755043223099 
606	 0.612468516372166 
607	 0.612004755754303 
608	 0.611413363081642 
609	 0.611042745895671 
610	 0.610631749904587 
611	 0.609941876689701 
612	 0.6093282286964 
613	 0.608899934266909 
614	 0.608505848506667 
615	 0.607863514346917 
616	 0.607231914928105 
617	 0.606718830792786 
618	 0.606257609863036 
619	 0.605502996969285 
620	 0.60478624574337 
621	 0.604159606475319 
622	 0.603553328057709 
623	 0.602802825389357 
624	 0.6019697853161 
625	 0.601193820797013 
626	 0.600646260771774 
627	 0.599895419286595 
628	 0.599027270719304 
629	 0.598211882925668 
630	 0.597591345964543 
631	 0.59683711892071 
632	 0.595968585751147 
633	 0.595169274740704 
634	 0.594535018043404 
635	 0.593844752352236 
636	 0.593064693250089 
637	 0.592424989767214 
638	 0.591823700014019 
639	 0.591221871025712 
640	 0.590620477917619 
641	 0.590105008737264 
642	 0.589616132692444 
643	 0.589144404941297 
644	 0.588707765792217 
645	 0.58827930100102 
646	 0.587880946583798 
647	 0.587544718547924 
648	 0.587313078000061 
649	 0.587057597215285 
650	 0.58680727833095 
651	 0.586639077757601 
652	 0.586609649076736 
653	 0.586570810304827 
654	 0.586510564240667 
655	 0.586535272109273 
656	 0.586698665128395 
657	 0.586978696716999 
658	 0.587334824635367 
659	 0.587717517087664 
660	 0.588191021340446 
661	 0.588767938044213 
662	 0.589432707985291 
663	 0.590126098623198 
664	 0.590942416899404 
665	 0.591931699840017 
666	 0.593084491928039 
667	 0.594282820312228 
668	 0.595552049662312 
669	 0.596940704087971 
670	 0.598478760729451 
671	 0.600150705165698 
672	 0.601893485516616 
673	 0.60366584024573 
674	 0.605707009500635 
675	 0.607894589638822 
676	 0.610163908845127 
677	 0.612560801614585 
678	 0.615019216685774 
679	 0.617628668653961 
680	 0.620453610991721 
681	 0.623374662589802 
682	 0.626429053805112 
683	 0.629639062041868 
684	 0.633014401080842 
685	 0.636509176821645 
686	 0.640084734925484 
687	 0.643762537110531 
688	 0.647648135612767 
689	 0.651639026673567 
690	 0.655761564792252 
691	 0.660067062905383 
692	 0.664568318840657 
693	 0.669118965276989 
694	 0.673714532492847 
695	 0.678443902860896 
696	 0.683302716569824 
697	 0.688354198970726 
698	 0.693528722251603 
699	 0.698540399853055 
700	 0.7036596105139 
701	 0.708898374235907 
702	 0.714192016704904 
703	 0.719497128001321 
704	 0.724803135895863 
705	 0.73009838739312 
706	 0.735365173495907 
707	 0.740493781267158 
708	 0.745617534609945 
709	 0.750785253214344 
710	 0.755840915267803 
711	 0.760732110956163 
712	 0.76551335270701 
713	 0.770231866906432 
714	 0.774746922882413 
715	 0.779129407012623 
716	 0.783397459838018 
717	 0.787523566150567 
718	 0.79149760898597 
719	 0.795287207804557 
720	 0.798911574878914 
721	 0.802487639763564 
722	 0.805780221302426 
723	 0.808831852996992 
724	 0.811748847902883 
725	 0.814520252194722 
726	 0.817243080437491 
727	 0.819884143480874 
728	 0.822319753355572 
729	 0.824549967811928 
730	 0.826699558622867 
731	 0.828788980077563 
732	 0.830642930728589 
733	 0.832336138332446 
734	 0.83404102772984 
735	 0.8358230435841 
736	 0.837253221791573 
737	 0.838562574587796 
738	 0.839815029083368 
739	 0.840955586274894 
740	 0.842016370834338 
741	 0.842978238443899 
742	 0.843878179811206 
743	 0.844844040761492 
744	 0.845833935712533 
745	 0.846642673198095 
746	 0.847205243866887 
747	 0.848073253998998 
748	 0.848801466253552 
749	 0.849438820038011 
750	 0.850255555944497 
751	 0.850822384207376 
752	 0.851343566325004 
753	 0.851898922625061 
754	 0.852326544209132 
755	 0.852852268809772 
756	 0.853393040919339 
757	 0.853835145190391 
758	 0.854184519716254 
759	 0.854539916548027 
760	 0.854931879041404 
761	 0.855367112267131 
762	 0.855972632305461 
763	 0.85641792117328 
764	 0.856676805596119 
765	 0.857070848964845 
766	 0.857472359876596 
767	 0.857799431864882 
768	 0.85805272728898 
769	 0.85840822257142 
770	 0.858740439197246 
771	 0.859102182656617 
772	 0.859548176367148 
773	 0.859826329125994 
774	 0.860124130698655 
775	 0.860449461418581 
776	 0.860668228739702 
777	 0.860966048718332 
778	 0.861264905372759 
779	 0.861517750827043 
780	 0.861795039663595 
781	 0.862045419624048 
782	 0.862307005634641 
783	 0.862595576137441 
784	 0.862743334705732 
785	 0.863033036790027 
786	 0.863382802758665 
787	 0.863546109585015 
788	 0.863758255205934 
789	 0.864061192053661 
790	 0.864384370851158 
791	 0.864560568880985 
792	 0.864797786349032 
793	 0.865006798667832 
794	 0.865139570077155 
795	 0.865406504687166 
796	 0.86560123043398 
797	 0.865730969728298 
798	 0.86589482723027 
799	 0.86621453539335 
800	 0.866524831093656 
801	 0.866773496586853 
802	 0.867009459918682 
803	 0.867231874794586 
804	 0.867493483209502 
805	 0.867781373097502 
806	 0.867980417037523 
807	 0.868164254629477 
808	 0.868412030414335 
809	 0.868749745580745 
810	 0.869058874205071 
811	 0.869299637638508 
812	 0.869527306514619 
813	 0.869827493902694 
814	 0.87017341563574 
815	 0.870444191919689 
816	 0.870668739168771 
817	 0.870995631764777 
818	 0.87128382941496 
819	 0.87148508804507 
820	 0.871624833743072 
821	 0.871818900602703 
822	 0.872038339853622 
823	 0.872269096961327 
824	 0.872504360366977 
825	 0.872762988778326 
826	 0.87297062568837 
827	 0.87315907773744 
828	 0.873397588696828 
829	 0.87364296836532 
830	 0.873970320505154 
831	 0.874323268910054 
832	 0.874541837835505 
833	 0.87468306917515 
834	 0.874864066745471 
835	 0.875115120088686 
836	 0.875321893172587 
837	 0.875477008333831 
838	 0.87566166564921 
839	 0.875903629136344 
840	 0.876008104149813 
841	 0.876144995959015 
842	 0.876374723437186 
843	 0.876673212723743 
844	 0.876850119209662 
845	 0.877113779086705 
846	 0.877460414687183 
847	 0.877731385038852 
848	 0.877989275143547 
849	 0.878229203729887 
850	 0.878468242800155 
851	 0.878753326079097 
852	 0.879035023765013 
853	 0.879314303165906 
854	 0.879603875356333 
855	 0.879920893963418 
856	 0.880214582915488 
857	 0.880519434083015 
858	 0.880879207995896 
859	 0.881275358219719 
860	 0.881631526907656 
861	 0.881989343916827 
862	 0.882430051035168 
863	 0.882888319425853 
864	 0.883225993975497 
865	 0.883453107712948 
866	 0.883705497921022 
867	 0.883951495804307 
868	 0.884243697904973 
869	 0.884575148187636 
870	 0.884852077355095 
871	 0.885197571162478 
872	 0.885581215891557 
873	 0.885946832009291 
874	 0.886257063807941 
875	 0.88664227861111 
876	 0.886963379463407 
877	 0.887118054016895 
878	 0.887415484466947 
879	 0.887894841335481 
880	 0.888407106064361 
881	 0.888729895968153 
882	 0.888781898026697 
883	 0.88907911420801 
884	 0.889557402098184 
885	 0.889751139322426 
886	 0.89001451822459 
887	 0.890380239303599 
888	 0.890797350978821 
889	 0.891163289154048 
890	 0.89144787413864 
891	 0.891743820991923 
892	 0.892099422696604 
893	 0.892446884673268 
894	 0.892732978122469 
895	 0.89302624665829 
896	 0.893365794914459 
897	 0.893631841056253 
898	 0.89383227300154 
899	 0.894104866476388 
900	 0.894571356799641 
901	 0.895127020830441 
902	 0.895627463442555 
903	 0.896077350486149 
904	 0.896534392103938 
905	 0.896862792504128 
906	 0.897229583952191 
907	 0.897669004365093 
908	 0.898101735222364 
909	 0.898476050815591 
910	 0.898875245730776 
911	 0.899356215283052 
912	 0.89992154259043 
913	 0.900485154562773 
914	 0.901002771042235 
915	 0.901442408839404 
916	 0.901786961159554 
917	 0.902210119090168 
918	 0.90262959526096 
919	 0.902991772490697 
920	 0.903394540608809 
921	 0.903992341163299 
922	 0.90452782939106 
923	 0.904842871971218 
924	 0.905313868569467 
925	 0.905715406175403 
926	 0.906071411082691 
927	 0.906454565092255 
928	 0.906825610273485 
929	 0.907180075533768 
930	 0.907577896352236 
931	 0.908050592953644 
932	 0.908387738853997 
933	 0.908857237719962 
934	 0.909387509905318 
935	 0.909766018194015 
936	 0.910135482703941 
937	 0.91060714953119 
938	 0.911051431763739 
939	 0.911261281383122 
940	 0.911652570228318 
941	 0.912214596675451 
942	 0.912751272466248 
943	 0.913008241772221 
944	 0.913302240781816 
945	 0.913601143508051 
946	 0.913876167152519 
947	 0.914154939426221 
948	 0.914592111713531 
949	 0.91499499706434 
950	 0.915244031750014 
951	 0.915392394125856 
952	 0.915591870409417 
953	 0.915799632746586 
954	 0.91604361077018 
955	 0.916488035273791 
956	 0.916747895106162 
957	 0.916842659156853 
958	 0.916885528207881 
959	 0.91697973637532 
960	 0.917093054313141 
961	 0.917216937215124 
962	 0.917389612164251 
963	 0.917727115836201 
964	 0.918057481949713 
965	 0.918466962036246 
966	 0.919000474587969 
967	 0.919465129614591 
968	 0.919908345732148 
969	 0.920296166743817 
970	 0.92065604452261 
971	 0.921210022489834 
972	 0.921709463778081 
973	 0.9220800492017 
974	 0.922351223431163 
975	 0.922647318611139 
976	 0.923112740405039 
977	 0.923549981483354 
978	 0.923773430982144 
979	 0.92398184833316 
980	 0.92434814883338 
981	 0.924749842612559 
982	 0.925042649122944 
983	 0.925367528231065 
984	 0.925919892945454 
985	 0.926510631826468 
986	 0.926898877948411 
987	 0.927193229380389 
988	 0.927326942377721 
989	 0.92741728501731 
990	 0.927626644370774 
991	 0.928036030157784 
992	 0.928439042554854 
993	 0.928714369044475 
994	 0.928847174573965 
995	 0.929011307758143 
996	 0.929219005794065 
997	 0.929454855213121 
998	 0.929702290456123 
999	 0.929993214829901 
1000	 0.930357345453086 
1001	 0.91762828002941 
1002	 0.917755309163071 
1003	 0.917898284124806 
1004	 0.918030338804031 
1005	 0.918188054073887 
1006	 0.918339310929563 
1007	 0.918470206385808 
1008	 0.918618652674686 
1009	 0.918830888430089 
1010	 0.9189560707162 
1011	 0.918986305054411 
1012	 0.919094344734686 
1013	 0.919213822405801 
1014	 0.919327443684143 
1015	 0.919472574499856 
1016	 0.919656335974885 
1017	 0.919699328102155 
1018	 0.91975931612656 
1019	 0.91986410107105 
1020	 0.919922252108167 
1021	 0.920058499927326 
1022	 0.920275596528444 
1023	 0.920461449666088 
1024	 0.920663767598793 
1025	 0.92086066777657 
1026	 0.921047371893028 
1027	 0.92123776433593 
1028	 0.921392937292431 
1029	 0.921649150848513 
1030	 0.921921328370231 
1031	 0.922152633306218 
1032	 0.922402862172357 
1033	 0.922650947379696 
1034	 0.922939290677817 
1035	 0.923246263973445 
1036	 0.923480183368458 
1037	 0.92370047612534 
1038	 0.923919099523403 
1039	 0.924052407407035 
1040	 0.924265080293012 
1041	 0.924575730953535 
1042	 0.924808388958135 
1043	 0.925034870842645 
1044	 0.92517799438803 
1045	 0.925354226041838 
1046	 0.925572330872726 
1047	 0.925743060280561 
1048	 0.925939932768057 
1049	 0.926093536682554 
1050	 0.926180383597864 
1051	 0.926341022321355 
1052	 0.92651052911954 
1053	 0.926657950095986 
1054	 0.926832842555086 
1055	 0.926962716346191 
1056	 0.927048727999692 
1057	 0.927164289852068 
1058	 0.927290188112264 
1059	 0.927373684434266 
1060	 0.927474564389629 
1061	 0.927513250106962 
1062	 0.927547276784342 
1063	 0.927648093146726 
1064	 0.92774352444163 
1065	 0.927800048384569 
1066	 0.927847186758913 
1067	 0.927834349503458 
1068	 0.927755673033646 
1069	 0.927701614762629 
1070	 0.927674257930205 
1071	 0.927638002715456 
1072	 0.927636785262351 
1073	 0.927732533989426 
1074	 0.927795473741046 
1075	 0.927830026732914 
1076	 0.927860258477453 
1077	 0.92777370418144 
1078	 0.927673424042702 
1079	 0.927630248705963 
1080	 0.927574590060712 
1081	 0.927549308944598 
1082	 0.927580010815964 
1083	 0.927572440516966 
1084	 0.927531063343156 
1085	 0.927516205116396 
1086	 0.927538192926221 
1087	 0.927572111524403 
1088	 0.927635315231029 
1089	 0.927725002213935 
1090	 0.927791217109129 
1091	 0.927792307335631 
1092	 0.927779451103175 
1093	 0.927781606317805 
1094	 0.927794472553235 
1095	 0.927768102193729 
1096	 0.927710037742921 
1097	 0.927677056318508 
1098	 0.927635121670975 
1099	 0.92759695826298 
1100	 0.927588107448774 
1101	 0.927605848811054 
1102	 0.927636164523212 
1103	 0.927654806198578 
1104	 0.927698131823835 
1105	 0.927748664458379 
1106	 0.927739551892315 
1107	 0.927703460303595 
1108	 0.927718714686638 
1109	 0.927758204451535 
1110	 0.927782281664275 
1111	 0.927785179445636 
1112	 0.927756365163763 
1113	 0.927732881180599 
1114	 0.927744734710429 
1115	 0.927761737488473 
1116	 0.927777748031563 
1117	 0.92778548490121 
1118	 0.927799975956133 
1119	 0.927816356788682 
1120	 0.927812122414782 
1121	 0.92781003315628 
1122	 0.927808701877598 
1123	 0.927744004193635 
1124	 0.927682594192338 
1125	 0.927645006733626 
1126	 0.927567475640109 
1127	 0.927507827914234 
1128	 0.927450375713672 
1129	 0.927385628537339 
1130	 0.927310185311783 
1131	 0.927200674984734 
1132	 0.927088308458691 
1133	 0.926962619303784 
1134	 0.926840142900507 
1135	 0.926680268025654 
1136	 0.926495224221793 
1137	 0.926304744435521 
1138	 0.92607879044387 
1139	 0.92585300807783 
1140	 0.925614945482181 
1141	 0.925421406133498 
1142	 0.92518697583957 
1143	 0.924951183683059 
1144	 0.92473629395832 
1145	 0.924478907874419 
1146	 0.924226086229699 
1147	 0.923994113924466 
1148	 0.923713452234974 
1149	 0.92342293569526 
1150	 0.923139122376647 
1151	 0.92282190044166 
1152	 0.922493020512252 
1153	 0.92216654120796 
1154	 0.921813600617994 
1155	 0.921421617027512 
1156	 0.921034469027574 
1157	 0.920636101122492 
1158	 0.920248553967999 
1159	 0.919856956619149 
1160	 0.919465640904655 
1161	 0.919101040000559 
1162	 0.918700626224102 
1163	 0.918262262960567 
1164	 0.917822222327932 
1165	 0.917368709636923 
1166	 0.916922247960162 
1167	 0.916477284936073 
1168	 0.916076452991955 
1169	 0.915687935249296 
1170	 0.915300979237845 
1171	 0.914932974688388 
1172	 0.91458702869042 
1173	 0.914263047047274 
1174	 0.91394197699839 
1175	 0.913676923401974 
1176	 0.913499202886021 
1177	 0.91326700045474 
1178	 0.913043159729749 
1179	 0.912800710189971 
1180	 0.912549977887174 
1181	 0.912232703768221 
1182	 0.91194244709147 
1183	 0.911663232975219 
1184	 0.911332553062789 
1185	 0.911033306463646 
1186	 0.910757121866941 
1187	 0.910486556440264 
1188	 0.9102402196206 
1189	 0.910033260998435 
1190	 0.909815186174807 
1191	 0.909575812752022 
1192	 0.909398653528449 
1193	 0.909256345976378 
1194	 0.909127214420713 
1195	 0.909059603469381 
1196	 0.908957444146588 
1197	 0.90885365977371 
1198	 0.908729816254366 
1199	 0.908608099129108 
1200	 0.90852818012027 
1201	 0.908476717490356 
1202	 0.90842403234455 
1203	 0.908349822530357 
1204	 0.90831050107942 
1205	 0.908282743793184 
1206	 0.908258875028331 
1207	 0.908242701847898 
1208	 0.90824603682509 
1209	 0.908259953363877 
1210	 0.908234418131511 
1211	 0.908308012299285 
1212	 0.908440446066076 
1213	 0.908596806428534 
1214	 0.908803740397163 
1215	 0.909048011113962 
1216	 0.909313082779393 
1217	 0.909626102524448 
1218	 0.910001716077557 
1219	 0.910398237331521 
1220	 0.910785648133156 
1221	 0.911270101321607 
1222	 0.911790482082987 
1223	 0.912314044081717 
1224	 0.912833316539167 
1225	 0.913410706871096 
1226	 0.913892212063662 
1227	 0.914322311091368 
1228	 0.914758645793989 
1229	 0.91515112536905 
1230	 0.915569048993171 
1231	 0.91602709605724 
1232	 0.91640837460839 
1233	 0.916751701685585 
1234	 0.917086989264683 
1235	 0.917374014307855 
1236	 0.917659616467933 
1237	 0.917953785945207 
1238	 0.918221359481918 
1239	 0.918463076740072 
1240	 0.918679239746252 
1241	 0.918908870852754 
1242	 0.919115750137454 
1243	 0.919293696401856 
1244	 0.919441753282346 
1245	 0.919607086563041 
1246	 0.919745588024758 
1247	 0.919905276602563 
1248	 0.920092050725186 
1249	 0.920255986490796 
1250	 0.920409728897409 
1251	 0.920558493142461 
1252	 0.92069524925002 
1253	 0.920840752536463 
1254	 0.920994607272835 
1255	 0.9211312426688 
1256	 0.921269879857261 
1257	 0.921396431054575 
1258	 0.921507044690326 
1259	 0.921606121455982 
1260	 0.921683455976116 
1261	 0.921776949600236 
1262	 0.92186322977629 
1263	 0.92196327548781 
1264	 0.922043295897291 
1265	 0.922138661433748 
1266	 0.922195160704806 
1267	 0.922224431071527 
1268	 0.922244137914749 
1269	 0.922247058541808 
1270	 0.922245217007309 
1271	 0.922237699549278 
1272	 0.922198300394929 
1273	 0.922136425118056 
1274	 0.922074471095783 
1275	 0.921967003909688 
1276	 0.921896793006416 
1277	 0.921860122173989 
1278	 0.921795962893982 
1279	 0.921750836308427 
1280	 0.921664602112834 
1281	 0.921517702375534 
1282	 0.921408736313962 
1283	 0.921288407771039 
1284	 0.921185385043168 
1285	 0.921098914345789 
1286	 0.92104681238376 
1287	 0.920973125639614 
1288	 0.920911326309269 
1289	 0.92081017437764 
1290	 0.920690223348719 
1291	 0.920579264490003 
1292	 0.920444800182587 
1293	 0.920322861610769 
1294	 0.920229470957963 
1295	 0.920095386222375 
1296	 0.919929043133775 
1297	 0.919780740254014 
1298	 0.919615981013237 
1299	 0.919470492883867 
1300	 0.919344437455611 
1301	 0.919210846762009 
1302	 0.919078024360875 
1303	 0.918948418975256 
1304	 0.91883842164433 
1305	 0.918697935589421 
1306	 0.918550690571898 
1307	 0.918389417902522 
1308	 0.918201776863985 
1309	 0.917999731385559 
1310	 0.917821810013887 
1311	 0.917642564255631 
1312	 0.917482363528711 
1313	 0.917330564810518 
1314	 0.917201019683256 
1315	 0.91710376698926 
1316	 0.916971879521619 
1317	 0.916851694775184 
1318	 0.916706644353874 
1319	 0.916531630874191 
1320	 0.916361561922081 
1321	 0.916177382602275 
1322	 0.916013387473138 
1323	 0.915848932857208 
1324	 0.915691319667319 
1325	 0.915557166207767 
1326	 0.915408671183422 
1327	 0.91523965964042 
1328	 0.915094997032345 
1329	 0.91497693414999 
1330	 0.914833150709819 
1331	 0.914688840252067 
1332	 0.914542930729931 
1333	 0.914395460161673 
1334	 0.91422475599202 
1335	 0.914027431137528 
1336	 0.913828626456553 
1337	 0.913597396626077 
1338	 0.913320731968671 
1339	 0.913057376042838 
1340	 0.912788200339271 
1341	 0.912515808128161 
1342	 0.912227765598418 
1343	 0.911949044075082 
1344	 0.91168301696866 
1345	 0.911393667368646 
1346	 0.911105333483942 
1347	 0.910790981041249 
1348	 0.910471695736493 
1349	 0.910109440200297 
1350	 0.909732127564678 
1351	 0.909303729695929 
1352	 0.908829515679658 
1353	 0.908328575302703 
1354	 0.907766555715127 
1355	 0.907220855110578 
1356	 0.906657348282856 
1357	 0.90608948471321 
1358	 0.905481044569769 
1359	 0.904928946254218 
1360	 0.904392540375684 
1361	 0.903866333574355 
1362	 0.903388048505441 
1363	 0.902988007008751 
1364	 0.902570713208404 
1365	 0.902170597214862 
1366	 0.901789234896587 
1367	 0.901422333805346 
1368	 0.901080696110262 
1369	 0.900792574202184 
1370	 0.900435232309101 
1371	 0.900087681760311 
1372	 0.899689469901706 
1373	 0.899249000434228 
1374	 0.89877093738989 
1375	 0.898299390427218 
1376	 0.897714657559559 
1377	 0.897041238281528 
1378	 0.896335209119821 
1379	 0.895528230537735 
1380	 0.894733580322926 
1381	 0.893910316736426 
1382	 0.893066882149725 
1383	 0.892178310473971 
1384	 0.891311153497464 
1385	 0.890475251157785 
1386	 0.889580738622166 
1387	 0.888722692725349 
1388	 0.887779356513421 
1389	 0.886803206891879 
1390	 0.885729109288206 
1391	 0.884598963333228 
1392	 0.883350314020116 
1393	 0.882098800926928 
1394	 0.880744387826844 
1395	 0.879400219643314 
1396	 0.878027691773792 
1397	 0.876665322516934 
1398	 0.875289168516538 
1399	 0.87387517027258 
1400	 0.872498279777867 
1401	 0.870970918005601 
1402	 0.869438929134325 
1403	 0.867647853429593 
1404	 0.865796466890433 
1405	 0.86362813782949 
1406	 0.861220515245078 
1407	 0.858625521023754 
1408	 0.855623200723322 
1409	 0.85281319468897 
1410	 0.849630670482223 
1411	 0.847047772851135 
1412	 0.844428265531731 
1413	 0.842604605504975 
1414	 0.841221575037397 
1415	 0.840418512821682 
1416	 0.840449411246634 
1417	 0.840538708406818 
1418	 0.84129193420961 
1419	 0.841814739507652 
1420	 0.842576874771526 
1421	 0.843056431564582 
1422	 0.843458734831582 
1423	 0.843650127038375 
1424	 0.843608780071088 
1425	 0.843444513711689 
1426	 0.843194376622609 
1427	 0.842840132887577 
1428	 0.842474163451604 
1429	 0.842099011447707 
1430	 0.841711937188703 
1431	 0.841275057940165 
1432	 0.840887948728123 
1433	 0.840519888313206 
1434	 0.840134140455172 
1435	 0.839745212454192 
1436	 0.839378901487929 
1437	 0.839004445553833 
1438	 0.838661107425096 
1439	 0.838349550551475 
1440	 0.838038745765513 
1441	 0.83772969106366 
1442	 0.83744442070213 
1443	 0.837181315714873 
1444	 0.836920360599148 
1445	 0.836678125584967 
1446	 0.836435875379402 
1447	 0.836191781795767 
1448	 0.835964541213132 
1449	 0.835748962361934 
1450	 0.835536716469351 
1451	 0.835338596633105 
1452	 0.835138303228338 
1453	 0.834926954014941 
1454	 0.834743859476297 
1455	 0.834579031889288 
1456	 0.834416953939332 
1457	 0.834281840916383 
1458	 0.834134301069687 
1459	 0.833982975052917 
1460	 0.833829235355172 
1461	 0.833672931501731 
1462	 0.833517918855299 
1463	 0.833353467220723 
1464	 0.83320049076308 
1465	 0.833063244603336 
1466	 0.832905976076189 
1467	 0.832763653645617 
1468	 0.832641557834541 
1469	 0.832542617493241 
1470	 0.832474789126143 
1471	 0.832410522527415 
1472	 0.832389226782108 
1473	 0.832312678478844 
1474	 0.832226591386011 
1475	 0.832120563411534 
1476	 0.831986474787508 
1477	 0.831852137378294 
1478	 0.831711122472776 
1479	 0.831554432844102 
1480	 0.831376111675529 
1481	 0.831209286358512 
1482	 0.83104554242697 
1483	 0.830856437703664 
1484	 0.830674737697389 
1485	 0.83044853328619 
1486	 0.83017118679527 
1487	 0.829920969572452 
1488	 0.829652668679301 
1489	 0.82940164687369 
1490	 0.829152002843565 
1491	 0.828927804951366 
1492	 0.828705409999115 
1493	 0.828516779348393 
1494	 0.82836945707316 
1495	 0.828218997981133 
1496	 0.828066527779167 
1497	 0.827955910732393 
1498	 0.82784575913607 
1499	 0.827798638753245 
1500	 0.827803090607987 
1501	 0.827839429164405 
1502	 0.827929623018348 
1503	 0.828034141158968 
1504	 0.828159432038238 
1505	 0.828327584536175 
1506	 0.828524352971353 
1507	 0.828758619076155 
1508	 0.829055626611269 
1509	 0.829350498781784 
1510	 0.829686041158314 
1511	 0.83000139068613 
1512	 0.830319087354193 
1513	 0.830629183608497 
1514	 0.830919294783546 
1515	 0.83122544842243 
1516	 0.831533119203276 
1517	 0.831848928673001 
1518	 0.832190539482184 
1519	 0.832512024615429 
1520	 0.832820994772849 
1521	 0.833132716550568 
1522	 0.833447349441039 
1523	 0.833777575409688 
1524	 0.834101940661779 
1525	 0.834442039088676 
1526	 0.834774051334481 
1527	 0.835090201066241 
1528	 0.835434102970557 
1529	 0.835790564702699 
1530	 0.836159826290625 
1531	 0.836539360131234 
1532	 0.836935183796945 
1533	 0.837351677512798 
1534	 0.83776356922157 
1535	 0.838177136409313 
1536	 0.838615807551206 
1537	 0.839069286040315 
1538	 0.839519597040363 
1539	 0.840007865050098 
1540	 0.840439708912488 
1541	 0.840839307603063 
1542	 0.841250340881752 
1543	 0.841659661054257 
1544	 0.842025432272492 
1545	 0.84237505625673 
1546	 0.842715878894231 
1547	 0.843024922523453 
1548	 0.843316417628696 
1549	 0.843612984225199 
1550	 0.843871803883215 
1551	 0.844083999019742 
1552	 0.844292925543546 
1553	 0.84449312526915 
1554	 0.844671063680433 
1555	 0.844819277064653 
1556	 0.84496624814211 
1557	 0.845097513078512 
1558	 0.84522952049628 
1559	 0.845351529651606 
1560	 0.845474600309243 
1561	 0.845592600282824 
1562	 0.845716123516037 
1563	 0.845823575516615 
1564	 0.845967319359771 
1565	 0.846133425184903 
1566	 0.84629974142969 
1567	 0.846501036111418 
1568	 0.846673117735281 
1569	 0.846814018497261 
1570	 0.846993278573624 
1571	 0.847174582719073 
1572	 0.847376271014897 
1573	 0.847628010804552 
1574	 0.847843624828654 
1575	 0.848053002021799 
1576	 0.84825488260751 
1577	 0.848434818271212 
1578	 0.848626373843607 
1579	 0.848820217569563 
1580	 0.849012938191689 
1581	 0.849201961159552 
1582	 0.849400896157699 
1583	 0.849601729122073 
1584	 0.849810001250766 
1585	 0.850037476717184 
1586	 0.850249828790762 
1587	 0.850454440703485 
1588	 0.850664079442398 
1589	 0.850856199306636 
1590	 0.851075821576099 
1591	 0.85132868591596 
1592	 0.851557176087051 
1593	 0.851789187271444 
1594	 0.852014721304111 
1595	 0.852225261639076 
1596	 0.852432805194344 
1597	 0.852640876063957 
1598	 0.852843710569056 
1599	 0.853014733836887 
1600	 0.853223868925938 
1601	 0.853464849850391 
1602	 0.853690268204704 
1603	 0.853928186171959 
1604	 0.854160809807338 
1605	 0.854377068507259 
1606	 0.854601439688128 
1607	 0.854869336569796 
1608	 0.855074870504358 
1609	 0.855246010298811 
1610	 0.855407122096881 
1611	 0.855492568393854 
1612	 0.855635838193853 
1613	 0.855820434422505 
1614	 0.855978585113362 
1615	 0.856155920670154 
1616	 0.856314038435655 
1617	 0.856434109886971 
1618	 0.856572280110961 
1619	 0.856722882865173 
1620	 0.856861947615384 
1621	 0.857012300789133 
1622	 0.857135687892054 
1623	 0.857235414061454 
1624	 0.857337797130487 
1625	 0.857438079484776 
1626	 0.857511673850532 
1627	 0.857573897468622 
1628	 0.857622322120809 
1629	 0.857623119466886 
1630	 0.857653423000623 
1631	 0.857702232972004 
1632	 0.857737734966267 
1633	 0.857760622717736 
1634	 0.857808105764696 
1635	 0.857869120618768 
1636	 0.857917653653054 
1637	 0.857994816970648 
1638	 0.858042861647231 
1639	 0.858054605373239 
1640	 0.858078564440079 
1641	 0.858110843139235 
1642	 0.858121552713699 
1643	 0.85812918455956 
1644	 0.858115477831427 
1645	 0.858081362406736 
1646	 0.858029342816913 
1647	 0.857956824210135 
1648	 0.857877726172345 
1649	 0.857795395862696 
1650	 0.857677498116545 
1651	 0.857534374868884 
1652	 0.857384489419459 
1653	 0.857217644162893 
1654	 0.85701589759781 
1655	 0.85681406377881 
1656	 0.856554426388667 
1657	 0.856227098401294 
1658	 0.855895613711612 
1659	 0.855551339649225 
1660	 0.855164932985047 
1661	 0.854767296456776 
1662	 0.854306239245204 
1663	 0.853789942559294 
1664	 0.853221032787052 
1665	 0.852589314563049 
1666	 0.851924851046695 
1667	 0.851213507365405 
1668	 0.850474995534265 
1669	 0.849738530688052 
1670	 0.848892848969359 
1671	 0.847976487916629 
1672	 0.846988850335361 
1673	 0.845917494309775 
1674	 0.844761156318794 
1675	 0.84353319687122 
1676	 0.842265613538367 
1677	 0.840888663324145 
1678	 0.839528597200613 
1679	 0.838153353276547 
1680	 0.836713241222785 
1681	 0.835244184990976 
1682	 0.8337067857865 
1683	 0.83208277437576 
1684	 0.830503038809599 
1685	 0.82888934112492 
1686	 0.827288569788601 
1687	 0.825679029307246 
1688	 0.824089786530316 
1689	 0.822479636121743 
1690	 0.82092569815853 
1691	 0.819419510680766 
1692	 0.817968990132996 
1693	 0.816576524882135 
1694	 0.815180916163363 
1695	 0.813833165244289 
1696	 0.812433490376275 
1697	 0.81103273418769 
1698	 0.809571888308086 
1699	 0.808116218770315 
1700	 0.806591910407447 
1701	 0.805001657067242 
1702	 0.803388719951368 
1703	 0.80170145571059 
1704	 0.800010621496891 
1705	 0.79825220035558 
1706	 0.796510518534425 
1707	 0.794953662771392 
1708	 0.79345855352614 
1709	 0.792043049748657 
1710	 0.790728295596618 
1711	 0.789345405981262 
1712	 0.788012398108582 
1713	 0.786674261534961 
1714	 0.785309186238469 
1715	 0.784007422298573 
1716	 0.782619831604263 
1717	 0.78126167997291 
1718	 0.779917592922067 
1719	 0.778508990064382 
1720	 0.777199712668704 
1721	 0.775923762259972 
1722	 0.77469379502583 
1723	 0.773625500752907 
1724	 0.772626985562546 
1725	 0.771778907674506 
1726	 0.771151865038787 
1727	 0.770717172060408 
1728	 0.770532170555176 
1729	 0.770648179551524 
1730	 0.771053838147572 
1731	 0.771690788093216 
1732	 0.772623732336949 
1733	 0.77372259337638 
1734	 0.775012087542908 
1735	 0.776501065128598 
1736	 0.778033515284591 
1737	 0.779641016979277 
1738	 0.781211948883709 
1739	 0.782633002009436 
1740	 0.784031190302585 
1741	 0.785256739215098 
1742	 0.786390624328929 
1743	 0.787329686812669 
1744	 0.788103051163709 
1745	 0.788725281509524 
1746	 0.789152675391404 
1747	 0.789445692380981 
1748	 0.789552053931827 
1749	 0.789599289709789 
1750	 0.7894850338128 
1751	 0.789361775380228 
1752	 0.789171784050256 
1753	 0.788959021379288 
1754	 0.788693353757961 
1755	 0.788406109343352 
1756	 0.7880559399911 
1757	 0.787743198327403 
1758	 0.787411650193039 
1759	 0.787149530042004 
1760	 0.786987004127982 
1761	 0.786910346022925 
1762	 0.786973766906744 
1763	 0.787192005231487 
1764	 0.787505030568582 
1765	 0.787977417725598 
1766	 0.788631416840652 
1767	 0.789408853351466 
1768	 0.790372536776257 
1769	 0.791427966622315 
1770	 0.792430287529102 
1771	 0.793464440457787 
1772	 0.794462874155819 
1773	 0.795433761736785 
1774	 0.796417091191868 
1775	 0.797302023153965 
1776	 0.798171075340635 
1777	 0.798952864764521 
1778	 0.799571498304248 
1779	 0.800182849221165 
1780	 0.800731612150224 
1781	 0.801184402582951 
1782	 0.801691905613927 
1783	 0.802169194624356 
1784	 0.802553609641347 
1785	 0.802873728780483 
1786	 0.803201183459453 
1787	 0.803502133125742 
1788	 0.803769658601374 
1789	 0.804043132581384 
1790	 0.804290944489292 
1791	 0.804466206462645 
1792	 0.804672083475711 
1793	 0.804889396650592 
1794	 0.805042424527 
1795	 0.805192306153846 
1796	 0.805276043447603 
1797	 0.805384046743773 
1798	 0.805529744656787 
1799	 0.805672124708615 
1800	 0.805821504723349 
1801	 0.798587037827439 
1802	 0.798988843286677 
1803	 0.79945040787284 
1804	 0.80004297199583 
1805	 0.800694584498858 
1806	 0.801313422576234 
1807	 0.802013835699371 
1808	 0.802622829748126 
1809	 0.803248158478752 
1810	 0.803767566409399 
1811	 0.804248816648284 
1812	 0.804648060905137 
1813	 0.804940680969819 
1814	 0.805237255506771 
1815	 0.805468588621678 
1816	 0.805673818555234 
1817	 0.805851942588321 
1818	 0.805995035606929 
1819	 0.806123246576677 
1820	 0.806188881171269 
1821	 0.806300146949494 
1822	 0.806411084806931 
1823	 0.806527777665709 
1824	 0.806680045844483 
1825	 0.806864149955213 
1826	 0.807037137391433 
1827	 0.807231637452545 
1828	 0.807395154391873 
1829	 0.807568769294379 
1830	 0.807703954805933 
1831	 0.807806021022261 
1832	 0.807919597104139 
1833	 0.808008070044644 
1834	 0.808045283343308 
1835	 0.808069297490227 
1836	 0.808133845374135 
1837	 0.808208120880311 
1838	 0.808267247291925 
1839	 0.808380325315707 
1840	 0.808535665256867 
1841	 0.808686425049141 
1842	 0.8088572851189 
1843	 0.809066290111456 
1844	 0.809246351516964 
1845	 0.809391094148357 
1846	 0.809521179103107 
1847	 0.809633392791192 
1848	 0.80972104463293 
1849	 0.809783606710066 
1850	 0.809845674941109 
1851	 0.809903140936064 
1852	 0.809919353486694 
1853	 0.809918625983144 
1854	 0.80989642640016 
1855	 0.809846311399707 
1856	 0.809760240120669 
1857	 0.809614262327089 
1858	 0.809427194922498 
1859	 0.809177814660605 
1860	 0.808837713631886 
1861	 0.808478314692565 
1862	 0.808099137157236 
1863	 0.80766853208123 
1864	 0.807121898147144 
1865	 0.806510127975576 
1866	 0.805787969681455 
1867	 0.804934819034837 
1868	 0.804019497218265 
1869	 0.803051713651071 
1870	 0.80200055776113 
1871	 0.800814027298024 
1872	 0.799687870684377 
1873	 0.798513480982433 
1874	 0.797341584838675 
1875	 0.796271800505911 
1876	 0.795095737130772 
1877	 0.794002629236241 
1878	 0.792821190332018 
1879	 0.791489718811023 
1880	 0.790215114921734 
1881	 0.788751875636185 
1882	 0.787141884491168 
1883	 0.785453911803863 
1884	 0.783621674733411 
1885	 0.781491338367827 
1886	 0.779285782194794 
1887	 0.776838541673103 
1888	 0.774211942200957 
1889	 0.771678517559706 
1890	 0.768890636074681 
1891	 0.766045242256054 
1892	 0.763157254719902 
1893	 0.759990569728462 
1894	 0.756533758589167 
1895	 0.753138493139911 
1896	 0.749524152229347 
1897	 0.745695022628763 
1898	 0.742160619911551 
1899	 0.73838501096948 
1900	 0.734628868052668 
1901	 0.73095932331112 
1902	 0.726912870530497 
1903	 0.723047706015819 
1904	 0.71922650026467 
1905	 0.715367081303695 
1906	 0.711554693434516 
1907	 0.708155206401461 
1908	 0.704661985647161 
1909	 0.701302421143401 
1910	 0.698097693754998 
1911	 0.694670478516873 
1912	 0.69143054858373 
1913	 0.688210376860016 
1914	 0.68494143218235 
1915	 0.68190880226746 
1916	 0.67909851115581 
1917	 0.676231153375793 
1918	 0.673478957276141 
1919	 0.670907584758883 
1920	 0.668183063899752 
1921	 0.66566527767459 
1922	 0.663189508281497 
1923	 0.6606780973507 
1924	 0.658483676949575 
1925	 0.656273088635598 
1926	 0.654159185571011 
1927	 0.652218954859179 
1928	 0.65027136905286 
1929	 0.64831002773998 
1930	 0.646507296212694 
1931	 0.644778859011895 
1932	 0.643126917087373 
1933	 0.641726433406986 
1934	 0.640404793807189 
1935	 0.639206294148635 
1936	 0.63815009453865 
1937	 0.637142757960343 
1938	 0.636200427176723 
1939	 0.635393316895816 
1940	 0.634681871874134 
1941	 0.63405157351382 
1942	 0.633588006924454 
1943	 0.633220382529005 
1944	 0.632932584002861 
1945	 0.632762166457226 
1946	 0.632685953806148 
1947	 0.632660690747641 
1948	 0.632722090078728 
1949	 0.632878989917424 
1950	 0.633086334750115 
1951	 0.633371288030691 
1952	 0.633708222792179 
1953	 0.634112623465127 
1954	 0.634545739799644 
1955	 0.635075979329919 
1956	 0.635600952078553 
1957	 0.636182906752291 
1958	 0.636846647583288 
1959	 0.63748417133086 
1960	 0.638171485018237 
1961	 0.638882559086555 
1962	 0.63960539386028 
1963	 0.640381268802698 
1964	 0.641222174161219 
1965	 0.642042514523616 
1966	 0.642912234305593 
1967	 0.643758457446718 
1968	 0.644523422586332 
1969	 0.645311791075085 
1970	 0.646058875848167 
1971	 0.646810147259354 
1972	 0.647643026909139 
1973	 0.648409886654066 
1974	 0.649182087487068 
1975	 0.649953360410725 
1976	 0.650729569863169 
1977	 0.651480167392381 
1978	 0.652277337252686 
1979	 0.653102819430081 
1980	 0.653918010647923 
1981	 0.654800481981803 
1982	 0.655644317392737 
1983	 0.656516615578138 
1984	 0.657445498493613 
1985	 0.658289688306671 
1986	 0.659144812294762 
1987	 0.659984066004145 
1988	 0.660772119769761 
1989	 0.661599244396811 
1990	 0.662444543637941 
1991	 0.66327711580903 
1992	 0.664114844000979 
1993	 0.664984092088709 
1994	 0.665770959599055 
1995	 0.666591893431148 
1996	 0.667392869114902 
1997	 0.668173643788435 
1998	 0.669005243947112 
1999	 0.669874079891803 
2000	 0.670709342669599 
2001	 0.671586279702589 
2002	 0.672407441422499 
2003	 0.673184002381275 
2004	 0.67397189358076 
2005	 0.674726199397085 
2006	 0.675496819102532 
2007	 0.676290116127324 
2008	 0.677057646468583 
2009	 0.677804511008038 
2010	 0.678550194033085 
2011	 0.67921544975329 
2012	 0.679875628801428 
2013	 0.680506755196971 
2014	 0.681108253414167 
2015	 0.681685769751837 
2016	 0.682267228996684 
2017	 0.682762571857711 
2018	 0.683235849596762 
2019	 0.683624853325344 
2020	 0.683931169896476 
2021	 0.684192185415026 
2022	 0.684382325916458 
2023	 0.684494819052866 
2024	 0.684568007525556 
2025	 0.684538335245828 
2026	 0.684422839378823 
2027	 0.684210439805229 
2028	 0.683954951779727 
2029	 0.683588357562323 
2030	 0.683214374412167 
2031	 0.68280165060677 
2032	 0.682350237956847 
2033	 0.681811919257176 
2034	 0.681315265092499 
2035	 0.680789267167941 
2036	 0.680275663568028 
2037	 0.679828712385087 
2038	 0.679376476427397 
2039	 0.678974602030504 
2040	 0.67858878007419 
2041	 0.678287940677478 
2042	 0.678000778327918 
2043	 0.677845379907641 
2044	 0.677792221295096 
2045	 0.677811459025714 
2046	 0.677944591535935 
2047	 0.678119101252574 
2048	 0.678358444911631 
2049	 0.678649290982988 
2050	 0.679022195650199 
2051	 0.679412034369313 
2052	 0.679848559475594 
2053	 0.680365718769073 
2054	 0.680895717281996 
2055	 0.681445143959564 
2056	 0.682070028954732 
2057	 0.682732221970866 
2058	 0.683478212338984 
2059	 0.684291170666674 
2060	 0.685163709725862 
2061	 0.686153258817763 
2062	 0.687118973491376 
2063	 0.688131981027171 
2064	 0.689162008122348 
2065	 0.690208008300496 
2066	 0.691226650877547 
2067	 0.69240136133604 
2068	 0.693530936432208 
2069	 0.69467334193063 
2070	 0.695898482090174 
2071	 0.697014921612804 
2072	 0.698067775635796 
2073	 0.699131727875606 
2074	 0.700146550042522 
2075	 0.701185177171626 
2076	 0.702260695907697 
2077	 0.703258412253617 
2078	 0.704283914797272 
2079	 0.705192977167037 
2080	 0.705978129816479 
2081	 0.706775347706224 
2082	 0.707536434102696 
2083	 0.708209578752464 
2084	 0.708935279312786 
2085	 0.709618726537954 
2086	 0.71027407240581 
2087	 0.710920918598688 
2088	 0.711495685621185 
2089	 0.712023997609653 
2090	 0.712512361456196 
2091	 0.712919123492542 
2092	 0.713340027471446 
2093	 0.713730118102856 
2094	 0.714112307689127 
2095	 0.714553239169517 
2096	 0.714865880239764 
2097	 0.715086656664454 
2098	 0.715305479936823 
2099	 0.715487663643082 
2100	 0.715538900795167 
2101	 0.715667010250759 
2102	 0.715850626506223 
2103	 0.715923405713348 
2104	 0.715926773963045 
2105	 0.715968687217136 
2106	 0.715964304602251 
2107	 0.715978047439089 
2108	 0.71604652783529 
2109	 0.716048693419055 
2110	 0.716004294105807 
2111	 0.715951613090225 
2112	 0.715884936809963 
2113	 0.715791762938635 
2114	 0.715661139543076 
2115	 0.715533484253348 
2116	 0.715401483888972 
2117	 0.715231702844701 
2118	 0.7150580575794 
2119	 0.714882125546582 
2120	 0.714686641848306 
2121	 0.714454149904702 
2122	 0.714244054696064 
2123	 0.714055083872416 
2124	 0.713819234006278 
2125	 0.713559309895421 
2126	 0.713306816246748 
2127	 0.713057166817822 
2128	 0.712748632552723 
2129	 0.712463267701904 
2130	 0.712086428068793 
2131	 0.711616525512167 
2132	 0.711122088515289 
2133	 0.7106395708343 
2134	 0.710017826868687 
2135	 0.70926088974589 
2136	 0.70851066408909 
2137	 0.707635828681338 
2138	 0.706603162778583 
2139	 0.705592527005247 
2140	 0.704555322664007 
2141	 0.703432780182081 
2142	 0.702254098827758 
2143	 0.701017225187544 
2144	 0.699652229799101 
2145	 0.698363520006154 
2146	 0.69699302614687 
2147	 0.695746118271589 
2148	 0.694590252740554 
2149	 0.693429204661012 
2150	 0.692368106855378 
2151	 0.691247695523244 
2152	 0.690099860796768 
2153	 0.688980596959127 
2154	 0.687798952644122 
2155	 0.686535616105359 
2156	 0.685288669107518 
2157	 0.684004733296036 
2158	 0.682711771872841 
2159	 0.68145930513539 
2160	 0.68005573016838 
2161	 0.678545610341575 
2162	 0.677073800544766 
2163	 0.675453211956329 
2164	 0.674000218991618 
2165	 0.672628889561397 
2166	 0.671275150878303 
2167	 0.669996439281403 
2168	 0.668719342303465 
2169	 0.667417735746378 
2170	 0.666229643141811 
2171	 0.665047814724999 
2172	 0.664004500125427 
2173	 0.663088342998934 
2174	 0.662239455469715 
2175	 0.661536275520865 
2176	 0.660911483061805 
2177	 0.660295491558875 
2178	 0.659750865489815 
2179	 0.659255856142233 
2180	 0.658768978928839 
2181	 0.658396040736552 
2182	 0.658141723902254 
2183	 0.657874160065475 
2184	 0.657638182863563 
2185	 0.657487949621491 
2186	 0.657375906496534 
2187	 0.657346063509053 
2188	 0.657429985006408 
2189	 0.657525946716964 
2190	 0.657676775816975 
2191	 0.657861273766307 
2192	 0.658121613110754 
2193	 0.65836931328481 
2194	 0.658684372615667 
2195	 0.658938312803407 
2196	 0.659179255538471 
2197	 0.659377150067679 
2198	 0.659560551893267 
2199	 0.65972483283163 
2200	 0.659902701095489 
2201	 0.660090890856813 
2202	 0.660259931785285 
2203	 0.66042694394288 
2204	 0.660559939139524 
2205	 0.660682917742324 
2206	 0.660758525435488 
2207	 0.660792446769718 
2208	 0.660820483075637 
2209	 0.660805311506189 
2210	 0.660797378455834 
2211	 0.660775174300421 
2212	 0.66075802919444 
2213	 0.660737959876248 
2214	 0.66071762778637 
2215	 0.660694385444069 
2216	 0.660670208009512 
2217	 0.660642010228902 
2218	 0.660618293406104 
2219	 0.660617933208221 
2220	 0.66058542684382 
2221	 0.660569470311029 
2222	 0.660486290420427 
2223	 0.660357895570902 
2224	 0.660207659275211 
2225	 0.660072990677185 
2226	 0.659890182603853 
2227	 0.659636255214517 
2228	 0.659386487020414 
2229	 0.658994856992497 
2230	 0.658472253250317 
2231	 0.657935714682509 
2232	 0.657336200546718 
2233	 0.656664340885939 
2234	 0.655984849407228 
2235	 0.655115011202289 
2236	 0.654147016651886 
2237	 0.653032040297804 
2238	 0.651698922363504 
2239	 0.650372661141518 
2240	 0.648969862173047 
2241	 0.64746022791677 
2242	 0.645967231437939 
2243	 0.644234282532817 
2244	 0.642305865043637 
2245	 0.640296806562545 
2246	 0.638029814058025 
2247	 0.635811033981237 
2248	 0.633586823546885 
2249	 0.631246533936622 
2250	 0.628862375118779 
2251	 0.626436764568191 
2252	 0.623721284907353 
2253	 0.621052285452318 
2254	 0.618243489496163 
2255	 0.615343739805678 
2256	 0.612676762528854 
2257	 0.609913089580682 
2258	 0.607256010154941 
2259	 0.604742705573597 
2260	 0.602109098710801 
2261	 0.599393994080482 
2262	 0.596862537474182 
2263	 0.594300701439843 
2264	 0.591936997676807 
2265	 0.58978599109578 
2266	 0.587578008534852 
2267	 0.585505965988459 
2268	 0.583323406171077 
2269	 0.58108061018752 
2270	 0.578934930910594 
2271	 0.576709246246699 
2272	 0.574654139708435 
2273	 0.572775514407921 
2274	 0.57084561379437 
2275	 0.569027330595217 
2276	 0.567129807998504 
2277	 0.565162650675137 
2278	 0.563256465655105 
2279	 0.561320675001877 
2280	 0.559437322524381 
2281	 0.55765278375009 
2282	 0.555783493154627 
2283	 0.553843463695945 
2284	 0.552010511386952 
2285	 0.550056577226748 
2286	 0.548305254416044 
2287	 0.546657043694084 
2288	 0.544976238541582 
2289	 0.543486907830089 
2290	 0.542023594383856 
2291	 0.540599955313412 
2292	 0.539178763619452 
2293	 0.537553657977468 
2294	 0.535871321349904 
2295	 0.53404494001749 
2296	 0.532082265434012 
2297	 0.530106746399535 
2298	 0.528072410895081 
2299	 0.525932171180284 
2300	 0.523732650602257 
2301	 0.521419907087341 
2302	 0.518883862141545 
2303	 0.516587147200959 
2304	 0.514097830808015 
2305	 0.512135469650544 
2306	 0.510358810852779 
2307	 0.509039749573362 
2308	 0.508019718322093 
2309	 0.507582213916799 
2310	 0.507519214985432 
2311	 0.508156193086355 
2312	 0.5095610899873 
2313	 0.511232124219649 
2314	 0.513633248090902 
2315	 0.516070896833287 
2316	 0.518957365075347 
2317	 0.521688728304935 
2318	 0.524806489430293 
2319	 0.527362336486084 
2320	 0.529853894958342 
2321	 0.531831747589097 
2322	 0.533346022239146 
2323	 0.534603592935714 
2324	 0.53540890081811 
2325	 0.536040240084052 
2326	 0.536312893729552 
2327	 0.536511058520393 
2328	 0.536472634143121 
2329	 0.536347454385856 
2330	 0.536135529872703 
2331	 0.535704707119489 
2332	 0.535111449367501 
2333	 0.534423725006752 
2334	 0.533421829376111 
2335	 0.532219744401309 
2336	 0.530766269174218 
2337	 0.52895974829265 
2338	 0.527073017056345 
2339	 0.52496941433452 
2340	 0.522733808178845 
2341	 0.520425799785154 
2342	 0.517863607303749 
2343	 0.515310887486788 
2344	 0.512897963448704 
2345	 0.510542848290035 
2346	 0.508555068653637 
2347	 0.506994171464497 
2348	 0.505786953324432 
2349	 0.505171382996166 
2350	 0.505092644113135 
2351	 0.505587303766142 
2352	 0.506618211581108 
2353	 0.508115921458805 
2354	 0.509884895426235 
2355	 0.51191146062508 
2356	 0.513942630844482 
2357	 0.516028129696834 
2358	 0.518339873921628 
2359	 0.520460935446583 
2360	 0.522528126927951 
2361	 0.524428079618387 
2362	 0.525914747799817 
2363	 0.52727005366436 
2364	 0.528463293611975 
2365	 0.529503351982846 
2366	 0.530526367400218 
2367	 0.531327382595745 
2368	 0.532026676275894 
2369	 0.532645206259044 
2370	 0.533144419436624 
2371	 0.533652916468064 
2372	 0.534040232274564 
2373	 0.534400598770653 
2374	 0.534679899098123 
2375	 0.534811498543916 
2376	 0.534996754741407 
2377	 0.53509414552545 
2378	 0.535092356572835 
2379	 0.535130476981625 
2380	 0.535135551750625 
2381	 0.535054254775506 
2382	 0.534996307188306 
2383	 0.534944327062266 
2384	 0.534904838429512 
2385	 0.534854848837085 
2386	 0.534844676357923 
2387	 0.534865202961793 
2388	 0.534845643677107 
2389	 0.534797785461591 
2390	 0.534776895256941 
2391	 0.534775082379317 
2392	 0.534778929414932 
2393	 0.534799136124671 
2394	 0.534825827951779 
2395	 0.534826900446762 
2396	 0.534892800489506 
2397	 0.535092130537777 
2398	 0.535090547818038 
2399	 0.535001368336689 
2400	 0.534939354508662 
2401	 0.534707082170129 
2402	 0.534694422973674 
2403	 0.534707296254748 
2404	 0.5347332258229 
2405	 0.534747137511387 
2406	 0.534666336325064 
2407	 0.534813763369041 
2408	 0.534922985564677 
2409	 0.534908066770049 
2410	 0.535053334317922 
2411	 0.535215106646346 
2412	 0.535361889633541 
2413	 0.535544670456373 
2414	 0.535647504606185 
2415	 0.535479097898744 
2416	 0.535270962355925 
2417	 0.535221461823382 
2418	 0.535082085367142 
2419	 0.534983450162995 
2420	 0.535032960092482 
2421	 0.534935042353266 
2422	 0.534818652473694 
2423	 0.534839295335341 
2424	 0.534691494722625 
2425	 0.534490035117962 
2426	 0.534361415960868 
2427	 0.534161250747205 
2428	 0.534146429704735 
2429	 0.534189816526989 
2430	 0.533994411176603 
2431	 0.533800448665572 
2432	 0.53351420023764 
2433	 0.533150209098611 
2434	 0.532975077133017 
2435	 0.532696042747039 
2436	 0.532312553075385 
2437	 0.531835329867403 
2438	 0.531344539201874 
2439	 0.531021184363793 
2440	 0.530560596690389 
2441	 0.530108377672315 
2442	 0.529673643708097 
2443	 0.529066347587684 
2444	 0.528513312277483 
2445	 0.527924520252185 
2446	 0.527132507437961 
2447	 0.526437004523534 
2448	 0.525735773976646 
2449	 0.524830824517828 
2450	 0.524139242882373 
2451	 0.523451898961839 
2452	 0.522522935443904 
2453	 0.521830033832495 
2454	 0.521088748474047 
2455	 0.520100953293997 
2456	 0.519314603937068 
2457	 0.518485489848151 
2458	 0.517663315535535 
2459	 0.516956193947834 
2460	 0.516287878537824 
2461	 0.515692544255951 
2462	 0.514938334556013 
2463	 0.514139751844464 
2464	 0.513215325523395 
2465	 0.512519009464815 
2466	 0.512141372448881 
2467	 0.511580531734925 
2468	 0.511210644381354 
2469	 0.510847782594761 
2470	 0.51012370403321 
2471	 0.509544664980076 
2472	 0.509106222486752 
2473	 0.508503637949495 
2474	 0.508116179207372 
2475	 0.508001211954461 
2476	 0.50785706034525 
2477	 0.507494932133906 
2478	 0.506978946157099 
2479	 0.506560732101651 
2480	 0.505873720657636 
2481	 0.50556997914141 
2482	 0.5054929784875 
2483	 0.50529656281278 
2484	 0.505194596634814 
2485	 0.504774721127829 
2486	 0.504286623506104 
2487	 0.504072753903505 
2488	 0.503619599540041 
2489	 0.503049802538498 
2490	 0.503059246691747 
2491	 0.502814215239103 
2492	 0.502361444676503 
2493	 0.502275713448785 
2494	 0.502093635256504 
2495	 0.501811689401711 
2496	 0.501782320430036 
2497	 0.50172675779624 
2498	 0.501169853034246 
2499	 0.500462178300251 
2500	 0.500127856261309 
