Wavelength	ProbetaAcolman00002.asd
350	 0.908966794371764 
351	 0.899782375683724 
352	 0.888083473665673 
353	 0.885603632186237 
354	 0.902146391700535 
355	 0.888087642106356 
356	 0.872135352306739 
357	 0.880871194606082 
358	 0.881822220247201 
359	 0.882133566770028 
360	 0.883558622871529 
361	 0.882888718799872 
362	 0.858717947112119 
363	 0.852357355605342 
364	 0.871854120267364 
365	 0.876008181345171 
366	 0.870948960190879 
367	 0.864068598793201 
368	 0.860513104518407 
369	 0.854894781255426 
370	 0.849227579345985 
371	 0.845693568905196 
372	 0.846687485789842 
373	 0.852170754301195 
374	 0.854069587915363 
375	 0.850799214533639 
376	 0.851188835560527 
377	 0.844119412908798 
378	 0.835912804190777 
379	 0.833345388833486 
380	 0.829354310135663 
381	 0.830200904938288 
382	 0.830853060420879 
383	 0.822658409104232 
384	 0.827405642244185 
385	 0.83169331158826 
386	 0.828909669773678 
387	 0.828193773374267 
388	 0.821672717807013 
389	 0.817964848839015 
390	 0.823498930808599 
391	 0.822222112622772 
392	 0.820764354954596 
393	 0.820471963941843 
394	 0.819073495596099 
395	 0.815629594334985 
396	 0.813273610375839 
397	 0.813859004625955 
398	 0.816913037113605 
399	 0.817600891241497 
400	 0.816232947232122 
401	 0.81458127890309 
402	 0.812843103513251 
403	 0.813436782459882 
404	 0.815317008960939 
405	 0.815150126532464 
406	 0.812807360784911 
407	 0.812524649522274 
408	 0.815720443130469 
409	 0.817892961829616 
410	 0.821299926744012 
411	 0.824311492670467 
412	 0.825043247866569 
413	 0.825969774116115 
414	 0.826894165695552 
415	 0.827717421190345 
416	 0.828546559354739 
417	 0.829270148986021 
418	 0.830655122559498 
419	 0.83265756139245 
420	 0.833102973781758 
421	 0.83355907606079 
422	 0.834863082765537 
423	 0.837011509093274 
424	 0.836963979910562 
425	 0.837289949262851 
426	 0.838546679613993 
427	 0.83871317319188 
428	 0.838969161510651 
429	 0.838870424503288 
430	 0.838263807444805 
431	 0.838891536955163 
432	 0.838575421219563 
433	 0.837745323257438 
434	 0.838101191800958 
435	 0.839207718786782 
436	 0.840222717769058 
437	 0.840619855780324 
438	 0.840395292699426 
439	 0.839656657680846 
440	 0.839018400726833 
441	 0.838934102084199 
442	 0.838753842752994 
443	 0.838319695095386 
444	 0.837891351001383 
445	 0.837988470542477 
446	 0.838439536816195 
447	 0.837963829474638 
448	 0.83649797252712 
449	 0.836941508616353 
450	 0.836766732444194 
451	 0.836271943634205 
452	 0.836447327508999 
453	 0.835906393243534 
454	 0.835372310298064 
455	 0.835189639919718 
456	 0.835138436743514 
457	 0.834743627405936 
458	 0.834095261822665 
459	 0.833467389128514 
460	 0.833234460573132 
461	 0.833126265947805 
462	 0.832908290477054 
463	 0.832414320193853 
464	 0.831816634915521 
465	 0.831504749104262 
466	 0.831306673192791 
467	 0.83014424627679 
468	 0.830122374619185 
469	 0.830173527738863 
470	 0.829127562374455 
471	 0.829268414273827 
472	 0.829392879686668 
473	 0.829115764144408 
474	 0.82877235819696 
475	 0.828364068616669 
476	 0.828325558462177 
477	 0.828736332315825 
478	 0.828832927345806 
479	 0.828834584742361 
480	 0.828928178209435 
481	 0.829197421909095 
482	 0.829068289743141 
483	 0.828953955327928 
484	 0.82914373164213 
485	 0.829696097652319 
486	 0.829664727154832 
487	 0.829478650440876 
488	 0.829739133171663 
489	 0.830631396172921 
490	 0.831117768247425 
491	 0.831441260702153 
492	 0.832440056357639 
493	 0.83297263572054 
494	 0.833421955940475 
495	 0.834106608096384 
496	 0.834954246169572 
497	 0.835861355051271 
498	 0.836826571125052 
499	 0.837872445544923 
500	 0.838972094639596 
501	 0.839980955045494 
502	 0.840867004113704 
503	 0.841715385222085 
504	 0.84286810318339 
505	 0.844161596503838 
506	 0.845428570010361 
507	 0.846734373256524 
508	 0.848008875808639 
509	 0.849248454191602 
510	 0.850493924648203 
511	 0.851882905849342 
512	 0.853200743871465 
513	 0.854416539301748 
514	 0.855770709005954 
515	 0.857084120511346 
516	 0.858423345858451 
517	 0.859836413452888 
518	 0.861064214571522 
519	 0.862517360509666 
520	 0.864015978568601 
521	 0.865041009946672 
522	 0.866233051340689 
523	 0.867525833245099 
524	 0.868784016048109 
525	 0.869945208162158 
526	 0.871044585556757 
527	 0.872118731453195 
528	 0.873198080558518 
529	 0.874274726310964 
530	 0.875266281428444 
531	 0.876172746402593 
532	 0.877081205548473 
533	 0.878091403397142 
534	 0.879093770315058 
535	 0.879991265840413 
536	 0.880872023450893 
537	 0.881664335962622 
538	 0.882423880723927 
539	 0.883257762609204 
540	 0.884047937143573 
541	 0.884791919821363 
542	 0.885530132650227 
543	 0.886354307746457 
544	 0.887071948263246 
545	 0.88773579768455 
546	 0.888446496093326 
547	 0.88915100575355 
548	 0.889824133267743 
549	 0.890475717999946 
550	 0.891142714081107 
551	 0.891799121422525 
552	 0.892435106206063 
553	 0.893038247276236 
554	 0.893571380903743 
555	 0.894123674283252 
556	 0.894740215471635 
557	 0.895401737464815 
558	 0.895830450496131 
559	 0.896199385176383 
560	 0.896627606851408 
561	 0.897098714619794 
562	 0.897691267963623 
563	 0.898395674471508 
564	 0.899142404297441 
565	 0.89975381612306 
566	 0.900294949302648 
567	 0.900743296559617 
568	 0.901033911484783 
569	 0.901440092472289 
570	 0.901930675194804 
571	 0.902446227188309 
572	 0.902977651052644 
573	 0.903565379890632 
574	 0.90405323100184 
575	 0.904301853170916 
576	 0.904743376997738 
577	 0.905053141391805 
578	 0.905216322589337 
579	 0.90561253466021 
580	 0.90591731463355 
581	 0.906175552639457 
582	 0.906490528844811 
583	 0.906905461600013 
584	 0.907129575666176 
585	 0.907189195509348 
586	 0.907332857106292 
587	 0.907885120063909 
588	 0.908440127066247 
589	 0.908845356826856 
590	 0.909510015004835 
591	 0.910040383612623 
592	 0.910446411254514 
593	 0.910911824718705 
594	 0.911851248806916 
595	 0.91240787622941 
596	 0.912550723392904 
597	 0.912985804828125 
598	 0.913552359968767 
599	 0.913926479540999 
600	 0.914069235537935 
601	 0.914732319283087 
602	 0.915292107166849 
603	 0.91557417273902 
604	 0.915679403121047 
605	 0.916141298323201 
606	 0.91659028706684 
607	 0.916834072721367 
608	 0.916994799320384 
609	 0.917602948202117 
610	 0.91817565631365 
611	 0.918288403018165 
612	 0.918570595330396 
613	 0.919098019508109 
614	 0.919641394434381 
615	 0.919829355344207 
616	 0.920010766619538 
617	 0.92042570841235 
618	 0.921035052025687 
619	 0.921346595133109 
620	 0.921554218681837 
621	 0.921865411992264 
622	 0.922377816099665 
623	 0.922619536109642 
624	 0.922712801482977 
625	 0.922933594993961 
626	 0.923618121040517 
627	 0.923959041870487 
628	 0.924083840964187 
629	 0.924279742443474 
630	 0.924788770426014 
631	 0.92513176498674 
632	 0.925266055007088 
633	 0.925384770324901 
634	 0.925761934473692 
635	 0.926146924328462 
636	 0.926386784926543 
637	 0.926511545928602 
638	 0.926783705392123 
639	 0.927167843726891 
640	 0.927517525778732 
641	 0.927595791082917 
642	 0.927721461243037 
643	 0.928009570696168 
644	 0.928396096632071 
645	 0.928483702266469 
646	 0.928531006187057 
647	 0.92874385216532 
648	 0.92911649425628 
649	 0.92929528244704 
650	 0.929434399140674 
651	 0.929736729109393 
652	 0.929870678534175 
653	 0.929997123573057 
654	 0.930197672037622 
655	 0.930462343421483 
656	 0.930604767468191 
657	 0.930759752081739 
658	 0.931023693563439 
659	 0.931323696671809 
660	 0.93142251271464 
661	 0.93145476224346 
662	 0.931648768006775 
663	 0.9318663155889 
664	 0.932072077715939 
665	 0.932245717465937 
666	 0.932382723231041 
667	 0.932595018345223 
668	 0.93280660734877 
669	 0.9329580888745 
670	 0.93313215132407 
671	 0.933322592196707 
672	 0.933512736916332 
673	 0.933690887664979 
674	 0.933943946126161 
675	 0.93408422747397 
676	 0.934111746331178 
677	 0.934272229482516 
678	 0.93452462881054 
679	 0.934760062248712 
680	 0.934896300170561 
681	 0.934982488790513 
682	 0.93510488769437 
683	 0.935266372814502 
684	 0.93541584568378 
685	 0.935489951544916 
686	 0.935630604562661 
687	 0.935873897380957 
688	 0.936082594609712 
689	 0.936211910181419 
690	 0.936258289999527 
691	 0.936294370866664 
692	 0.936596133307982 
693	 0.936851657072622 
694	 0.937010386650193 
695	 0.937187829612194 
696	 0.937316735322151 
697	 0.937497185616979 
698	 0.937744725469848 
699	 0.937920640538248 
700	 0.93798577793077 
701	 0.938072250679109 
702	 0.938290618142017 
703	 0.938473604038737 
704	 0.938581528671659 
705	 0.938696533312282 
706	 0.938941976694585 
707	 0.938935443457458 
708	 0.939005562539774 
709	 0.939267123297015 
710	 0.939324098610791 
711	 0.939438943867797 
712	 0.939560137902385 
713	 0.939611810989012 
714	 0.93979627696556 
715	 0.939948790264214 
716	 0.940033386782607 
717	 0.940110260628169 
718	 0.940123579356645 
719	 0.940232513067339 
720	 0.940469147980904 
721	 0.940614310223126 
722	 0.940677644079915 
723	 0.940670023269606 
724	 0.940660922705182 
725	 0.940911834264947 
726	 0.941178979365012 
727	 0.941278072590527 
728	 0.941139249968583 
729	 0.941250601041651 
730	 0.941413861774996 
731	 0.941509839218816 
732	 0.941707586828928 
733	 0.941926316537501 
734	 0.942122291734649 
735	 0.942251138466259 
736	 0.9422272372703 
737	 0.942169608292415 
738	 0.942169892034519 
739	 0.942275926438189 
740	 0.942366227516499 
741	 0.942480450504442 
742	 0.942601194883378 
743	 0.942596360522822 
744	 0.942675911581048 
745	 0.942807111951483 
746	 0.942914820419577 
747	 0.943030436844706 
748	 0.9430658757601 
749	 0.943090438394152 
750	 0.943249237630773 
751	 0.943526066934582 
752	 0.943661366112915 
753	 0.943649023604307 
754	 0.943829355973089 
755	 0.943959871210145 
756	 0.944017675520544 
757	 0.944068155265991 
758	 0.944279911005241 
759	 0.944508417599882 
760	 0.94471055252472 
761	 0.944881884632301 
762	 0.944938133351954 
763	 0.944959094397506 
764	 0.945014397468286 
765	 0.945137239043609 
766	 0.945118017923004 
767	 0.945208388311067 
768	 0.945541012541856 
769	 0.945781239316799 
770	 0.945983577245654 
771	 0.946125515274896 
772	 0.946190996399388 
773	 0.946259686641609 
774	 0.9464240195974 
775	 0.946617370185917 
776	 0.946665993918519 
777	 0.946736212544125 
778	 0.946783272723548 
779	 0.946838323738555 
780	 0.947115486447168 
781	 0.94720235386909 
782	 0.947247017398624 
783	 0.947437698789554 
784	 0.947492445669661 
785	 0.947568866448414 
786	 0.947711196601686 
787	 0.947881481631274 
788	 0.947980861010173 
789	 0.948089486563989 
790	 0.94822681592499 
791	 0.948321629386341 
792	 0.948370054539805 
793	 0.948461144147423 
794	 0.948639633081178 
795	 0.948811803540716 
796	 0.948863504932782 
797	 0.948897067572389 
798	 0.949039883466664 
799	 0.949070867670011 
800	 0.949247154164138 
801	 0.949544566753725 
802	 0.949716574218126 
803	 0.949773662812069 
804	 0.949763831668521 
805	 0.949768591140887 
806	 0.949898472402843 
807	 0.950067297813875 
808	 0.950253545821673 
809	 0.950419405345769 
810	 0.95041539029223 
811	 0.950521465238383 
812	 0.950761994587294 
813	 0.951014670110449 
814	 0.951118882434232 
815	 0.951052316561135 
816	 0.951036191830213 
817	 0.95141455284384 
818	 0.951492153571943 
819	 0.951459772549868 
820	 0.951537238919591 
821	 0.951756459292424 
822	 0.95186875215239 
823	 0.95188154760849 
824	 0.951897709951654 
825	 0.952078126469603 
826	 0.952147842258997 
827	 0.952157380326876 
828	 0.952271204741075 
829	 0.952341184650466 
830	 0.952420424678212 
831	 0.952527898600212 
832	 0.952630486657553 
833	 0.952551123525639 
834	 0.952569320211249 
835	 0.952790619736943 
836	 0.952956396065879 
837	 0.95287839177359 
838	 0.952828219573842 
839	 0.953024164792642 
840	 0.953204586275611 
841	 0.953242567542669 
842	 0.953198580850038 
843	 0.953205577621724 
844	 0.953267544056089 
845	 0.953350861258075 
846	 0.953405104781207 
847	 0.953401896873572 
848	 0.953577974393635 
849	 0.953756845517666 
850	 0.953849043907418 
851	 0.953936176072851 
852	 0.953962986653616 
853	 0.954085183311805 
854	 0.954318035807419 
855	 0.954294857906294 
856	 0.95431769454173 
857	 0.954397279594411 
858	 0.954488739234858 
859	 0.954724644599057 
860	 0.954705639116794 
861	 0.954589101646624 
862	 0.954740326864165 
863	 0.954851188929098 
864	 0.95496124942136 
865	 0.955044111796245 
866	 0.955022413401683 
867	 0.955060209559703 
868	 0.955095069605564 
869	 0.955105126620229 
870	 0.955164783048513 
871	 0.955237077531756 
872	 0.955373206567313 
873	 0.955547238478434 
874	 0.955526935842265 
875	 0.955543773847931 
876	 0.955548069047439 
877	 0.955492020284768 
878	 0.955675685397691 
879	 0.955665082570709 
880	 0.955591732324753 
881	 0.955752893126577 
882	 0.955692503367307 
883	 0.955721560754699 
884	 0.955861178131684 
885	 0.955898736462998 
886	 0.955920735232702 
887	 0.95587561897314 
888	 0.955774198925087 
889	 0.955715711701905 
890	 0.955865751127366 
891	 0.955939025056157 
892	 0.955816850550924 
893	 0.955798635871132 
894	 0.955725736525998 
895	 0.9557126571155 
896	 0.95584334383778 
897	 0.95597773040652 
898	 0.95595192914072 
899	 0.955866506450252 
900	 0.955870976342542 
901	 0.955879310520868 
902	 0.956002593784069 
903	 0.95615198013235 
904	 0.956184546564878 
905	 0.956242603780368 
906	 0.956342863805061 
907	 0.95643715199707 
908	 0.956455765610055 
909	 0.95650456872045 
910	 0.95653427209047 
911	 0.956594312826733 
912	 0.956810146188898 
913	 0.956864307619694 
914	 0.956767865362352 
915	 0.956707446511853 
916	 0.95699236529012 
917	 0.957159596301349 
918	 0.957192435628358 
919	 0.957181580150858 
920	 0.957226946842385 
921	 0.957185786826918 
922	 0.957265924897791 
923	 0.95754396649139 
924	 0.95754813273798 
925	 0.957577536605101 
926	 0.957653423199052 
927	 0.957716185252497 
928	 0.957750540327887 
929	 0.957737697546003 
930	 0.957659895944081 
931	 0.957567003518703 
932	 0.957775366084508 
933	 0.95792631936437 
934	 0.957895347914704 
935	 0.957762427868957 
936	 0.95781862568136 
937	 0.957896183687316 
938	 0.957926824127273 
939	 0.957943043687376 
940	 0.958032701839035 
941	 0.957927040737795 
942	 0.957704745394328 
943	 0.957720663745282 
944	 0.957804073150506 
945	 0.957823764301519 
946	 0.957837937017449 
947	 0.958046059919951 
948	 0.957993129668977 
949	 0.957814795790561 
950	 0.957678055193685 
951	 0.957657315996815 
952	 0.957720322626795 
953	 0.95773583182303 
954	 0.957580987822688 
955	 0.957198987432872 
956	 0.957030598731777 
957	 0.957081384794452 
958	 0.957136265911275 
959	 0.956818779137248 
960	 0.956584473930675 
961	 0.956415196016456 
962	 0.956260413891944 
963	 0.956230250465401 
964	 0.956261897546334 
965	 0.956274575161045 
966	 0.956290510201328 
967	 0.956567669912035 
968	 0.956683585399155 
969	 0.956756927281463 
970	 0.956947680872335 
971	 0.957094800974997 
972	 0.957415470082642 
973	 0.957601146515577 
974	 0.957475028234487 
975	 0.957656970642814 
976	 0.957915972699072 
977	 0.95796714273726 
978	 0.957735751869147 
979	 0.95782717457807 
980	 0.957844296807367 
981	 0.95778785796945 
982	 0.957787935627571 
983	 0.957960843296625 
984	 0.957895753877325 
985	 0.957854275612076 
986	 0.95812266269436 
987	 0.958250225048193 
988	 0.958167713446482 
989	 0.958091150918197 
990	 0.958257984390995 
991	 0.958608413918101 
992	 0.958593028595728 
993	 0.958541695744043 
994	 0.958808975326929 
995	 0.95864143115008 
996	 0.958544605502298 
997	 0.958610260764957 
998	 0.95871821158123 
999	 0.95857625764426 
1000	 0.958776963092233 
1001	 0.957269286034804 
1002	 0.95728553067373 
1003	 0.957301472819693 
1004	 0.957293509755028 
1005	 0.957333196640068 
1006	 0.957305763497329 
1007	 0.957172170598125 
1008	 0.95718257106608 
1009	 0.957245683605607 
1010	 0.957304881220682 
1011	 0.957496494913488 
1012	 0.957532314188184 
1013	 0.957449314234118 
1014	 0.957436565245168 
1015	 0.957369938737471 
1016	 0.957354046701805 
1017	 0.957413213799789 
1018	 0.957447984527029 
1019	 0.95751253883897 
1020	 0.95752483760754 
1021	 0.957524533155447 
1022	 0.957514672686159 
1023	 0.957525960792206 
1024	 0.957478723859117 
1025	 0.957510540747042 
1026	 0.957596900042337 
1027	 0.957668238607703 
1028	 0.957750835181535 
1029	 0.957856925190307 
1030	 0.957994794934182 
1031	 0.958183667012913 
1032	 0.95836476563316 
1033	 0.958546951785474 
1034	 0.958671319801681 
1035	 0.958724701500774 
1036	 0.958827478897427 
1037	 0.95893691741316 
1038	 0.95903979092781 
1039	 0.959182183711063 
1040	 0.95926578582 
1041	 0.959286326353066 
1042	 0.959334803168239 
1043	 0.959372843042709 
1044	 0.959410841668617 
1045	 0.959492481259297 
1046	 0.959575894613507 
1047	 0.959641996650262 
1048	 0.959767995632291 
1049	 0.959875350747785 
1050	 0.959881388018107 
1051	 0.959901973396819 
1052	 0.959941733919879 
1053	 0.959991008864753 
1054	 0.960077914178701 
1055	 0.960134592985649 
1056	 0.960185553656482 
1057	 0.960214994222348 
1058	 0.960218618303767 
1059	 0.960181431645571 
1060	 0.960180872292801 
1061	 0.960248288282422 
1062	 0.960324070237692 
1063	 0.960393410038283 
1064	 0.960442690633841 
1065	 0.960429397593908 
1066	 0.960371913531179 
1067	 0.960346947501889 
1068	 0.960330340870738 
1069	 0.960304319458983 
1070	 0.960298866297655 
1071	 0.960310909817802 
1072	 0.960296824109537 
1073	 0.960271425009554 
1074	 0.960241782809947 
1075	 0.960184490706526 
1076	 0.960109349459046 
1077	 0.960028922875034 
1078	 0.959973332277392 
1079	 0.959983229350833 
1080	 0.960025220770057 
1081	 0.960013751864226 
1082	 0.960004433467114 
1083	 0.960014513383324 
1084	 0.959970073955547 
1085	 0.959934538605582 
1086	 0.959932394738068 
1087	 0.959974864697461 
1088	 0.959953656106666 
1089	 0.959942946286036 
1090	 0.960032671578499 
1091	 0.960056034574271 
1092	 0.960010306684345 
1093	 0.960001635333537 
1094	 0.959966527595131 
1095	 0.959984200477292 
1096	 0.960029396490934 
1097	 0.960037930401497 
1098	 0.960066077726816 
1099	 0.960055949643805 
1100	 0.960059737242841 
1101	 0.960093250023437 
1102	 0.960088279810601 
1103	 0.960082425641193 
1104	 0.960062243889052 
1105	 0.960053047040831 
1106	 0.960042680698288 
1107	 0.960013982650652 
1108	 0.959976305931404 
1109	 0.959941128356738 
1110	 0.95989220223826 
1111	 0.959853797514189 
1112	 0.959828350663466 
1113	 0.959824782205418 
1114	 0.95987249383608 
1115	 0.95992388991132 
1116	 0.959968993421091 
1117	 0.959985697798926 
1118	 0.959985833678974 
1119	 0.959949725349827 
1120	 0.959943764271454 
1121	 0.959951545043116 
1122	 0.959907873042332 
1123	 0.95989101070098 
1124	 0.959841333989724 
1125	 0.959747992730111 
1126	 0.95967416274191 
1127	 0.959617554383771 
1128	 0.95952007667415 
1129	 0.959422544950573 
1130	 0.95936449050671 
1131	 0.959274925992206 
1132	 0.959166544487283 
1133	 0.959046674279454 
1134	 0.958901484599984 
1135	 0.958758719395396 
1136	 0.958579315946119 
1137	 0.958457880686276 
1138	 0.958384138754593 
1139	 0.958263527185455 
1140	 0.958158174463555 
1141	 0.958033920540654 
1142	 0.957837345242218 
1143	 0.957665238959929 
1144	 0.957513300533042 
1145	 0.95732445157377 
1146	 0.957116827477793 
1147	 0.95686512051452 
1148	 0.956619740927511 
1149	 0.956397022758345 
1150	 0.956196451652682 
1151	 0.956065925489374 
1152	 0.955889567507722 
1153	 0.955705416123459 
1154	 0.955507650651012 
1155	 0.95530568302243 
1156	 0.955064357887335 
1157	 0.954796271715017 
1158	 0.954540986513381 
1159	 0.954263642219548 
1160	 0.953983624020082 
1161	 0.953728836055365 
1162	 0.953484031378575 
1163	 0.953233837627653 
1164	 0.952945934740008 
1165	 0.952644823877616 
1166	 0.952353749894256 
1167	 0.952020931901378 
1168	 0.951729148232237 
1169	 0.951445324438566 
1170	 0.951141975584775 
1171	 0.950892067684713 
1172	 0.95068507798748 
1173	 0.950480691565406 
1174	 0.950316401131327 
1175	 0.950151258546638 
1176	 0.94999991615661 
1177	 0.949841215544477 
1178	 0.949677824203934 
1179	 0.949524848667845 
1180	 0.949399365841359 
1181	 0.949256468558447 
1182	 0.949149230125248 
1183	 0.949083309733532 
1184	 0.948996638814942 
1185	 0.948937992227268 
1186	 0.948905963502612 
1187	 0.948880606615151 
1188	 0.948897628865676 
1189	 0.948962634173263 
1190	 0.949028390159541 
1191	 0.949129384837178 
1192	 0.949217348001887 
1193	 0.949327218431199 
1194	 0.949405299250023 
1195	 0.949462623797656 
1196	 0.949531123540419 
1197	 0.949587750434615 
1198	 0.949640766980511 
1199	 0.949727723764419 
1200	 0.949808077748036 
1201	 0.94989579969857 
1202	 0.949996301459927 
1203	 0.950084875423478 
1204	 0.950209376154579 
1205	 0.950349107035975 
1206	 0.950515390264668 
1207	 0.950671376071648 
1208	 0.950856830921138 
1209	 0.951003133293786 
1210	 0.951127765805946 
1211	 0.951258701611008 
1212	 0.951390035866296 
1213	 0.951499729905911 
1214	 0.95158811595343 
1215	 0.951692925878947 
1216	 0.95178249746281 
1217	 0.951880654509856 
1218	 0.952009640702414 
1219	 0.952115166792956 
1220	 0.952188425880155 
1221	 0.952283090903028 
1222	 0.952391165934533 
1223	 0.952513737737926 
1224	 0.952622603186554 
1225	 0.952765748541804 
1226	 0.952840067860502 
1227	 0.952853854250537 
1228	 0.952914573250799 
1229	 0.952959582594403 
1230	 0.953025156724046 
1231	 0.953135837719469 
1232	 0.953212254984205 
1233	 0.953263474919118 
1234	 0.953329187684524 
1235	 0.953384763652654 
1236	 0.953458854931095 
1237	 0.953552922800626 
1238	 0.953639551889106 
1239	 0.953737660644631 
1240	 0.953829084078965 
1241	 0.95388143316317 
1242	 0.953964701283244 
1243	 0.954059650663556 
1244	 0.954166128725876 
1245	 0.954252078027282 
1246	 0.954355941229157 
1247	 0.954438816681149 
1248	 0.95449683847254 
1249	 0.95455485268447 
1250	 0.954613481700203 
1251	 0.954665980774532 
1252	 0.954690900320874 
1253	 0.954742068911939 
1254	 0.95480274289431 
1255	 0.954872628394663 
1256	 0.954977780284849 
1257	 0.955046205927518 
1258	 0.955102743473157 
1259	 0.955155323497221 
1260	 0.955184312821058 
1261	 0.955212403447536 
1262	 0.955232112305926 
1263	 0.955278850755417 
1264	 0.955282991811126 
1265	 0.955269661652494 
1266	 0.955239888101897 
1267	 0.955193094227402 
1268	 0.955129154112246 
1269	 0.955043049875941 
1270	 0.954954562520715 
1271	 0.954825239520442 
1272	 0.954746913273593 
1273	 0.954688509198887 
1274	 0.954628630964572 
1275	 0.954606390171624 
1276	 0.954555851257188 
1277	 0.954491220980676 
1278	 0.954421643284634 
1279	 0.954345974537336 
1280	 0.954264144228395 
1281	 0.954177855024346 
1282	 0.954079730918467 
1283	 0.953960454749131 
1284	 0.953855555262134 
1285	 0.953752514981828 
1286	 0.953636588116213 
1287	 0.953556311361527 
1288	 0.95349713393769 
1289	 0.953438709035622 
1290	 0.953408776802724 
1291	 0.953342227783595 
1292	 0.953273950553789 
1293	 0.953185455517568 
1294	 0.953057194857483 
1295	 0.952965773068906 
1296	 0.952883331799637 
1297	 0.952796414507832 
1298	 0.952729058234994 
1299	 0.952644910542764 
1300	 0.9525535476211 
1301	 0.952451174899208 
1302	 0.95234887666252 
1303	 0.952229003411367 
1304	 0.952061941387248 
1305	 0.951938504086083 
1306	 0.951836551407029 
1307	 0.951725005621703 
1308	 0.951645112203719 
1309	 0.951554322563272 
1310	 0.951419833259484 
1311	 0.951243393614337 
1312	 0.951100477686039 
1313	 0.950941827066808 
1314	 0.950800343681888 
1315	 0.95067914066255 
1316	 0.950551405578099 
1317	 0.95041022759465 
1318	 0.950295301411482 
1319	 0.950206246801927 
1320	 0.950099444906305 
1321	 0.949999688023669 
1322	 0.949891054903078 
1323	 0.949774116404871 
1324	 0.949652468604008 
1325	 0.949533820926355 
1326	 0.949401684011707 
1327	 0.949257875887438 
1328	 0.949109391741344 
1329	 0.94895788515287 
1330	 0.948793386889894 
1331	 0.948626129565388 
1332	 0.948441402068565 
1333	 0.948243877860266 
1334	 0.948027474554973 
1335	 0.947813142048939 
1336	 0.947581485325652 
1337	 0.947366251207582 
1338	 0.947154918428761 
1339	 0.946942513264063 
1340	 0.946739170496846 
1341	 0.946520990581643 
1342	 0.946299014277434 
1343	 0.946065748849436 
1344	 0.945852288652152 
1345	 0.945564950790542 
1346	 0.945230762642191 
1347	 0.944906754926377 
1348	 0.944520608812304 
1349	 0.944179330735073 
1350	 0.943866593322852 
1351	 0.943544314408945 
1352	 0.943230394283028 
1353	 0.942905057142576 
1354	 0.942566000803325 
1355	 0.942244907182824 
1356	 0.941923747206762 
1357	 0.941608607579641 
1358	 0.941301608799046 
1359	 0.941004508792198 
1360	 0.94072679107463 
1361	 0.94042458889813 
1362	 0.940126828430053 
1363	 0.939868217480315 
1364	 0.939586197806982 
1365	 0.93930340732991 
1366	 0.939006268024546 
1367	 0.938712017386786 
1368	 0.938389960034515 
1369	 0.938056118876347 
1370	 0.937692004460354 
1371	 0.937292926976558 
1372	 0.936912894139526 
1373	 0.936517462140853 
1374	 0.936122071064344 
1375	 0.935739387000409 
1376	 0.935332704166149 
1377	 0.934931748848704 
1378	 0.934467288254556 
1379	 0.933967648020507 
1380	 0.933448179659796 
1381	 0.932869944138175 
1382	 0.932287585123865 
1383	 0.931717284233603 
1384	 0.931090046633063 
1385	 0.930451069727538 
1386	 0.929741064820516 
1387	 0.928999419761403 
1388	 0.928188842929851 
1389	 0.927325838458984 
1390	 0.926395056826396 
1391	 0.92543525899819 
1392	 0.924342541385089 
1393	 0.923241390025809 
1394	 0.92204619648721 
1395	 0.920793401625566 
1396	 0.919462137584589 
1397	 0.918136780028237 
1398	 0.916774391614965 
1399	 0.915340550676838 
1400	 0.913895115781139 
1401	 0.91234649294397 
1402	 0.910750078378346 
1403	 0.908988047665323 
1404	 0.907195603481723 
1405	 0.905169787620938 
1406	 0.902979589045631 
1407	 0.900615988152924 
1408	 0.897941727185997 
1409	 0.895404688650564 
1410	 0.892503124797916 
1411	 0.890172746400445 
1412	 0.887836644735002 
1413	 0.886189734605375 
1414	 0.884964501788684 
1415	 0.884215388823457 
1416	 0.88415654751656 
1417	 0.884180595505966 
1418	 0.884815336513188 
1419	 0.885206551982753 
1420	 0.885819182946543 
1421	 0.886150070560463 
1422	 0.886330518678632 
1423	 0.886377986707537 
1424	 0.886244985035744 
1425	 0.88599266138957 
1426	 0.885680730638501 
1427	 0.885275074902622 
1428	 0.88486193756512 
1429	 0.884445421148704 
1430	 0.883992194725473 
1431	 0.883507073814199 
1432	 0.883031443635167 
1433	 0.882515404404985 
1434	 0.882042188224478 
1435	 0.881575228663563 
1436	 0.881145758541799 
1437	 0.880732544485518 
1438	 0.880353970272047 
1439	 0.880025934552762 
1440	 0.879678243641793 
1441	 0.879338057728421 
1442	 0.879011362004141 
1443	 0.878690754977191 
1444	 0.878373650376848 
1445	 0.878079708725088 
1446	 0.877771338284016 
1447	 0.87745973214832 
1448	 0.877142105964679 
1449	 0.876806936948537 
1450	 0.876494362259109 
1451	 0.876178977690647 
1452	 0.875878034395812 
1453	 0.875594493401014 
1454	 0.875324025736417 
1455	 0.875051115093438 
1456	 0.874810511505117 
1457	 0.87460200630899 
1458	 0.874396685331796 
1459	 0.87421484859298 
1460	 0.874032964255612 
1461	 0.873867748802366 
1462	 0.87368834644067 
1463	 0.873496152986324 
1464	 0.873321073150146 
1465	 0.873158465306912 
1466	 0.872972899274204 
1467	 0.872799899364898 
1468	 0.872648686570244 
1469	 0.872486956136499 
1470	 0.872352204642087 
1471	 0.872228066082911 
1472	 0.872134246834761 
1473	 0.872020476818043 
1474	 0.871904430585537 
1475	 0.871798989731498 
1476	 0.871696956284206 
1477	 0.871592247485067 
1478	 0.871510137106506 
1479	 0.871382630000132 
1480	 0.871242177509604 
1481	 0.871073851023392 
1482	 0.870865792178659 
1483	 0.870669551125422 
1484	 0.870460166261064 
1485	 0.870244178088218 
1486	 0.870013235283919 
1487	 0.869805388296474 
1488	 0.869586272168204 
1489	 0.869398302019683 
1490	 0.869253833446344 
1491	 0.869078072054721 
1492	 0.868896451371558 
1493	 0.868721466571018 
1494	 0.868515172523204 
1495	 0.868363401954917 
1496	 0.868235267623235 
1497	 0.868134229732344 
1498	 0.86805552963027 
1499	 0.868018456416034 
1500	 0.868014472677033 
1501	 0.868038172844741 
1502	 0.868107878082911 
1503	 0.868192626485508 
1504	 0.868306937381673 
1505	 0.868428574550505 
1506	 0.868569364856202 
1507	 0.868727830696742 
1508	 0.868898443286934 
1509	 0.869085063083481 
1510	 0.869290966659297 
1511	 0.869513102871594 
1512	 0.869771262538718 
1513	 0.870007592931252 
1514	 0.870236658218947 
1515	 0.870485799327287 
1516	 0.870719458363797 
1517	 0.870977022867376 
1518	 0.871290178239068 
1519	 0.871571433394724 
1520	 0.871832604361771 
1521	 0.872110143281965 
1522	 0.872374706264406 
1523	 0.872643924132599 
1524	 0.872915355631607 
1525	 0.873203611963366 
1526	 0.873471046434034 
1527	 0.873718313001852 
1528	 0.873997128808096 
1529	 0.874272277789794 
1530	 0.874587529461559 
1531	 0.874924886378173 
1532	 0.875295235931402 
1533	 0.875698271952435 
1534	 0.876110898732176 
1535	 0.876570789886203 
1536	 0.87697868350977 
1537	 0.877386279824552 
1538	 0.877766452337507 
1539	 0.878120370925268 
1540	 0.878461205387761 
1541	 0.87878424950445 
1542	 0.87910366066165 
1543	 0.879407544612276 
1544	 0.879697445872203 
1545	 0.879977025562262 
1546	 0.88025438291537 
1547	 0.880535718935239 
1548	 0.880761836335754 
1549	 0.880984712857583 
1550	 0.881146161444373 
1551	 0.881231138560085 
1552	 0.881328642772599 
1553	 0.881403115768692 
1554	 0.881465759982142 
1555	 0.88150554186297 
1556	 0.881550751968511 
1557	 0.881560964413179 
1558	 0.881623999777499 
1559	 0.881705674753368 
1560	 0.881804855654102 
1561	 0.881933552088781 
1562	 0.88207562397944 
1563	 0.88223528896397 
1564	 0.882401280309642 
1565	 0.882618988602323 
1566	 0.882774342454185 
1567	 0.882886170705502 
1568	 0.883032443859121 
1569	 0.88315641922342 
1570	 0.883304204811227 
1571	 0.883477427979374 
1572	 0.883665898563264 
1573	 0.883854468437707 
1574	 0.884066652934593 
1575	 0.884332684496376 
1576	 0.884562603001307 
1577	 0.884785522883753 
1578	 0.885004561860027 
1579	 0.88521566792624 
1580	 0.88541599470543 
1581	 0.885607688931596 
1582	 0.885799511754554 
1583	 0.885980234005105 
1584	 0.886159587844481 
1585	 0.88633966207827 
1586	 0.886518540148178 
1587	 0.886683528788442 
1588	 0.886861505339745 
1589	 0.887041279150945 
1590	 0.887236083634354 
1591	 0.887453178819729 
1592	 0.887654323508417 
1593	 0.887850151168997 
1594	 0.88806070408165 
1595	 0.888264563269306 
1596	 0.888480574085895 
1597	 0.888721644578018 
1598	 0.888953431354234 
1599	 0.889171463199679 
1600	 0.889412855938667 
1601	 0.889669248327298 
1602	 0.889927268026282 
1603	 0.890229124616037 
1604	 0.890476686268163 
1605	 0.890684465075451 
1606	 0.890907251236287 
1607	 0.891105169064098 
1608	 0.891308649062212 
1609	 0.891534427896923 
1610	 0.891742852652671 
1611	 0.89191400271593 
1612	 0.892118344266364 
1613	 0.892356467168212 
1614	 0.892562111929735 
1615	 0.892786805660544 
1616	 0.89297149171842 
1617	 0.893110148418777 
1618	 0.893248064546714 
1619	 0.89336575724794 
1620	 0.893479552283634 
1621	 0.893566892226482 
1622	 0.893675819510746 
1623	 0.893781124651786 
1624	 0.893908636225299 
1625	 0.894072762923863 
1626	 0.894219941824985 
1627	 0.894381312807434 
1628	 0.89451737127546 
1629	 0.894632759361738 
1630	 0.894743580039302 
1631	 0.894831127698816 
1632	 0.894935311014965 
1633	 0.895019880284246 
1634	 0.895144980058945 
1635	 0.895307685288724 
1636	 0.89545951608841 
1637	 0.895679888423506 
1638	 0.895810388829527 
1639	 0.895888468410627 
1640	 0.895955820056502 
1641	 0.895950773948035 
1642	 0.895969075166906 
1643	 0.895991776496562 
1644	 0.896007537615455 
1645	 0.896014791235467 
1646	 0.896031692080263 
1647	 0.896034730020505 
1648	 0.896064686361644 
1649	 0.896126374687282 
1650	 0.896165075416486 
1651	 0.896251689212963 
1652	 0.896257547877941 
1653	 0.896209130629269 
1654	 0.896146785803427 
1655	 0.896035954672622 
1656	 0.895904430535895 
1657	 0.895746574761614 
1658	 0.895584411350322 
1659	 0.895387446723772 
1660	 0.895198425286433 
1661	 0.89503701908342 
1662	 0.894820172133887 
1663	 0.894563219982217 
1664	 0.894301598358392 
1665	 0.89402885657698 
1666	 0.893705621928025 
1667	 0.893387223053927 
1668	 0.892983359184177 
1669	 0.892542783962143 
1670	 0.891988422378986 
1671	 0.891317088225587 
1672	 0.890626372187113 
1673	 0.88983625369308 
1674	 0.88903668028743 
1675	 0.888202154272869 
1676	 0.887386804287817 
1677	 0.886552319421364 
1678	 0.885703995539851 
1679	 0.884846797795253 
1680	 0.883991589266195 
1681	 0.883093124178981 
1682	 0.882236956183942 
1683	 0.88140066391721 
1684	 0.88061996352553 
1685	 0.879843773483464 
1686	 0.879158923608901 
1687	 0.878533935258632 
1688	 0.877964541580348 
1689	 0.87745303174085 
1690	 0.877010016108874 
1691	 0.87663319310744 
1692	 0.876347048459156 
1693	 0.876149056276165 
1694	 0.87598913361138 
1695	 0.875918247679834 
1696	 0.875844524038447 
1697	 0.875808366267724 
1698	 0.875791113264143 
1699	 0.875820390217237 
1700	 0.875817138041084 
1701	 0.875833770331349 
1702	 0.875817092525695 
1703	 0.875788673987568 
1704	 0.875713217431119 
1705	 0.875612500456876 
1706	 0.875446896341648 
1707	 0.875276046097034 
1708	 0.875095543919543 
1709	 0.874909540576804 
1710	 0.874689913957419 
1711	 0.87438929867171 
1712	 0.874055133270877 
1713	 0.873650590042911 
1714	 0.873174966012652 
1715	 0.872675106456802 
1716	 0.872074945991054 
1717	 0.871473216093516 
1718	 0.870866746769933 
1719	 0.870164055365725 
1720	 0.86947551320346 
1721	 0.868729792127559 
1722	 0.867928274077134 
1723	 0.867242235085801 
1724	 0.866555626639638 
1725	 0.865891041518173 
1726	 0.865309877222008 
1727	 0.864735803581541 
1728	 0.864291798377498 
1729	 0.863918583672027 
1730	 0.863591828098135 
1731	 0.863391603201992 
1732	 0.863214126199383 
1733	 0.863081167692546 
1734	 0.863028713580769 
1735	 0.862982222322494 
1736	 0.86296061387692 
1737	 0.862940581546472 
1738	 0.862952006933038 
1739	 0.862963988667274 
1740	 0.862968393856312 
1741	 0.863000977888878 
1742	 0.863058794878025 
1743	 0.86310226450357 
1744	 0.863145848081211 
1745	 0.863216813330328 
1746	 0.863259268779 
1747	 0.86339221136469 
1748	 0.863614178876979 
1749	 0.863799155412695 
1750	 0.864019008988832 
1751	 0.864231567891721 
1752	 0.864424500499602 
1753	 0.864631766914554 
1754	 0.864881641064441 
1755	 0.865066807120774 
1756	 0.865234765301785 
1757	 0.865348946506083 
1758	 0.865422888414613 
1759	 0.865456293017644 
1760	 0.865489766042442 
1761	 0.865555145611344 
1762	 0.865623383212676 
1763	 0.865723872354029 
1764	 0.865803616183632 
1765	 0.865851293318579 
1766	 0.865953252088907 
1767	 0.866083910324894 
1768	 0.866238309975581 
1769	 0.866402745269567 
1770	 0.866511606082908 
1771	 0.866595390976887 
1772	 0.866677484722778 
1773	 0.866744451261135 
1774	 0.866822959809083 
1775	 0.866898526831601 
1776	 0.866936969570846 
1777	 0.866968110122917 
1778	 0.866993941919785 
1779	 0.867017177917322 
1780	 0.867029109840896 
1781	 0.867034464970306 
1782	 0.867082951207929 
1783	 0.867120227530814 
1784	 0.867133866500661 
1785	 0.867101147647228 
1786	 0.86704523635415 
1787	 0.866954151326481 
1788	 0.866858266872585 
1789	 0.866737553592043 
1790	 0.866632622131118 
1791	 0.866492243422464 
1792	 0.866403851367419 
1793	 0.866356102422744 
1794	 0.86635314174957 
1795	 0.866353426623246 
1796	 0.866341447482868 
1797	 0.866338851429208 
1798	 0.866325053600463 
1799	 0.866273645199802 
1800	 0.866238769288202 
1801	 0.860648648295271 
1802	 0.860708575572699 
1803	 0.860751439854801 
1804	 0.860781365597006 
1805	 0.860839691710677 
1806	 0.860904511777371 
1807	 0.860976117756973 
1808	 0.861041555730259 
1809	 0.861138285797125 
1810	 0.861200836988914 
1811	 0.861240288889714 
1812	 0.861275689954474 
1813	 0.861301410536493 
1814	 0.861321344260728 
1815	 0.861324469993819 
1816	 0.86133654460345 
1817	 0.861371665154964 
1818	 0.861438100546921 
1819	 0.861471594651232 
1820	 0.861491331468853 
1821	 0.86153856609929 
1822	 0.861592592722583 
1823	 0.861630408577349 
1824	 0.861687973536444 
1825	 0.861757999929019 
1826	 0.861792408587464 
1827	 0.861793091294084 
1828	 0.861799362233585 
1829	 0.861816726123056 
1830	 0.861795388536407 
1831	 0.861735704746809 
1832	 0.861693914607822 
1833	 0.861672921374524 
1834	 0.861625700771911 
1835	 0.861595386232145 
1836	 0.8615932334409 
1837	 0.861563302323769 
1838	 0.861494451786116 
1839	 0.861465243260285 
1840	 0.861448373160281 
1841	 0.861429542857566 
1842	 0.861438539977313 
1843	 0.861426320074612 
1844	 0.861376322931151 
1845	 0.861317311617309 
1846	 0.861190180766529 
1847	 0.861071774010289 
1848	 0.860928619923434 
1849	 0.860756895288989 
1850	 0.860580476909726 
1851	 0.86040886836272 
1852	 0.860174733386821 
1853	 0.859941671781634 
1854	 0.859716133826471 
1855	 0.859437999293357 
1856	 0.859154085045457 
1857	 0.858807630060603 
1858	 0.858409858716966 
1859	 0.857993583499131 
1860	 0.85754003339204 
1861	 0.857029720987515 
1862	 0.856479119319499 
1863	 0.855930745126788 
1864	 0.855284979795058 
1865	 0.854666512274887 
1866	 0.853998706837947 
1867	 0.853194646431709 
1868	 0.852402718059257 
1869	 0.851480577319412 
1870	 0.850506314343641 
1871	 0.849495192530548 
1872	 0.848437533886046 
1873	 0.847285592643566 
1874	 0.846120211047872 
1875	 0.84498171132735 
1876	 0.843632047324582 
1877	 0.842250090538268 
1878	 0.840800255620566 
1879	 0.839216821102408 
1880	 0.837696764565808 
1881	 0.836072302134682 
1882	 0.834380025743638 
1883	 0.832640998497703 
1884	 0.830806608036538 
1885	 0.828729584909492 
1886	 0.826675630797552 
1887	 0.82441376908232 
1888	 0.821989309851717 
1889	 0.819698883750808 
1890	 0.817181879521598 
1891	 0.814635821898213 
1892	 0.812081179779337 
1893	 0.809287469551055 
1894	 0.806255702292749 
1895	 0.803266615536974 
1896	 0.800104219629244 
1897	 0.796750444854346 
1898	 0.793600044483061 
1899	 0.790237467736317 
1900	 0.78687562470763 
1901	 0.783558016918656 
1902	 0.779937618285085 
1903	 0.776449825320176 
1904	 0.772969517640296 
1905	 0.769420743623669 
1906	 0.765904936820368 
1907	 0.762762738330013 
1908	 0.759555569374497 
1909	 0.756449565256176 
1910	 0.753486332810922 
1911	 0.750334967558283 
1912	 0.747337727682389 
1913	 0.744383847785336 
1914	 0.741414942721719 
1915	 0.738642167525321 
1916	 0.736058018249519 
1917	 0.733431288784881 
1918	 0.73092132645536 
1919	 0.728562666514648 
1920	 0.726095516946241 
1921	 0.723782677946746 
1922	 0.721475135421265 
1923	 0.719149659730827 
1924	 0.717079199250861 
1925	 0.715010179112065 
1926	 0.713034214427904 
1927	 0.711216646080595 
1928	 0.709394568458082 
1929	 0.707560428561786 
1930	 0.705897461593882 
1931	 0.704286339734838 
1932	 0.702763700315371 
1933	 0.701480448283533 
1934	 0.700207896972227 
1935	 0.699032651540175 
1936	 0.697977477280042 
1937	 0.696963597196638 
1938	 0.695979501850425 
1939	 0.695148192189064 
1940	 0.694409307161927 
1941	 0.693768902834917 
1942	 0.693264886115796 
1943	 0.692809826710592 
1944	 0.692440267859209 
1945	 0.692149511243831 
1946	 0.691914111415664 
1947	 0.691757483225335 
1948	 0.691676995067804 
1949	 0.691666807828519 
1950	 0.69173853918723 
1951	 0.691920022859544 
1952	 0.692138333040435 
1953	 0.692423380524233 
1954	 0.692759364789193 
1955	 0.693146259547443 
1956	 0.693543967536802 
1957	 0.694011589939964 
1958	 0.694517037363186 
1959	 0.695030156973614 
1960	 0.695584919235456 
1961	 0.696148351885642 
1962	 0.696710984544736 
1963	 0.697317800611331 
1964	 0.697966250567515 
1965	 0.698612723415489 
1966	 0.699276996303901 
1967	 0.699977629011229 
1968	 0.700654709657139 
1969	 0.701349238402472 
1970	 0.702051450344856 
1971	 0.70277856533155 
1972	 0.70355114039468 
1973	 0.704312070916171 
1974	 0.705052380288337 
1975	 0.705807934265832 
1976	 0.70651391048486 
1977	 0.707151660899068 
1978	 0.707847526752351 
1979	 0.70853683493767 
1980	 0.709248858187819 
1981	 0.710040938370544 
1982	 0.71077929309193 
1983	 0.711540127979432 
1984	 0.712353335280198 
1985	 0.713086826461542 
1986	 0.713871746511877 
1987	 0.7146498546482 
1988	 0.715406581586682 
1989	 0.716188804645498 
1990	 0.717010432883464 
1991	 0.717805929720473 
1992	 0.718599341726889 
1993	 0.719407426336791 
1994	 0.720190386514159 
1995	 0.72095022528789 
1996	 0.721701317849201 
1997	 0.722452873727596 
1998	 0.723224424001528 
1999	 0.723991592493808 
2000	 0.724780500973514 
2001	 0.725613394099661 
2002	 0.72641621268737 
2003	 0.727231032559023 
2004	 0.728018504114899 
2005	 0.728753819381693 
2006	 0.729525736406597 
2007	 0.730333783636211 
2008	 0.731087272237543 
2009	 0.731813229480945 
2010	 0.732584189145103 
2011	 0.73328599024299 
2012	 0.733965505725431 
2013	 0.734624770194162 
2014	 0.735293386544415 
2015	 0.735904963801972 
2016	 0.736485693860973 
2017	 0.73700436890858 
2018	 0.737509220875281 
2019	 0.737925263696845 
2020	 0.738276350089987 
2021	 0.73854963074162 
2022	 0.738742499090112 
2023	 0.738862799275096 
2024	 0.738919510357207 
2025	 0.738923837698067 
2026	 0.738852668474928 
2027	 0.738712297585327 
2028	 0.738529256031943 
2029	 0.738250792844887 
2030	 0.737966068871071 
2031	 0.737653851165008 
2032	 0.73730360536802 
2033	 0.736866420413488 
2034	 0.73648457773293 
2035	 0.736088912996262 
2036	 0.735692103575154 
2037	 0.735374382416115 
2038	 0.735074037804462 
2039	 0.734849718827132 
2040	 0.734667152731527 
2041	 0.734573031386682 
2042	 0.734542354293823 
2043	 0.734593879924733 
2044	 0.734730025014589 
2045	 0.734922240659031 
2046	 0.735200982371412 
2047	 0.735521542912115 
2048	 0.735882964390635 
2049	 0.736328313103114 
2050	 0.736869273297351 
2051	 0.737424157960243 
2052	 0.738027391496416 
2053	 0.738728660787565 
2054	 0.739420861882226 
2055	 0.740143889205945 
2056	 0.740873879757461 
2057	 0.741622839905138 
2058	 0.74239941897058 
2059	 0.743184750727713 
2060	 0.743999740513872 
2061	 0.744891516520992 
2062	 0.745737645651271 
2063	 0.746543954691552 
2064	 0.747412712479986 
2065	 0.748315089261372 
2066	 0.749188816247225 
2067	 0.750117406670458 
2068	 0.751039536944673 
2069	 0.751978191471606 
2070	 0.752943406989179 
2071	 0.753835436944546 
2072	 0.754746381750086 
2073	 0.75557451076424 
2074	 0.756257952546752 
2075	 0.757063569317709 
2076	 0.757906473492857 
2077	 0.758718902986772 
2078	 0.759619686307075 
2079	 0.76040586907141 
2080	 0.76108537288874 
2081	 0.761795483341298 
2082	 0.76248129270118 
2083	 0.763142732411166 
2084	 0.763830147991712 
2085	 0.764467797592334 
2086	 0.765061356224273 
2087	 0.76560769319859 
2088	 0.766129578120404 
2089	 0.766587099935328 
2090	 0.767075340627282 
2091	 0.767580119960748 
2092	 0.768023473258396 
2093	 0.768459219783913 
2094	 0.76884887977152 
2095	 0.769154784261711 
2096	 0.769471210140123 
2097	 0.769776942497076 
2098	 0.770071799837961 
2099	 0.770300388373621 
2100	 0.770566991934316 
2101	 0.770801957520033 
2102	 0.770995867131843 
2103	 0.771217082701658 
2104	 0.771466121567228 
2105	 0.771656630990516 
2106	 0.771823326789698 
2107	 0.771991685767423 
2108	 0.772081182564883 
2109	 0.772263706824058 
2110	 0.772520374003215 
2111	 0.772733587348913 
2112	 0.772966190082304 
2113	 0.773199016083215 
2114	 0.77341321094557 
2115	 0.773621104401212 
2116	 0.773845536259822 
2117	 0.774074264901461 
2118	 0.774251136868198 
2119	 0.774369558854999 
2120	 0.774539952352223 
2121	 0.774734391992099 
2122	 0.774864452747831 
2123	 0.774989418521178 
2124	 0.775098766788397 
2125	 0.775179402910456 
2126	 0.775200431239957 
2127	 0.775224165440867 
2128	 0.77518496304483 
2129	 0.775078186842116 
2130	 0.774911420932629 
2131	 0.774731287466879 
2132	 0.774450910699495 
2133	 0.774075203212212 
2134	 0.7736348042231 
2135	 0.773100647421469 
2136	 0.772529409156199 
2137	 0.771867848934908 
2138	 0.771106022204081 
2139	 0.770320625359786 
2140	 0.769473745419346 
2141	 0.768576376695687 
2142	 0.767641527113075 
2143	 0.766625774314983 
2144	 0.765536030203602 
2145	 0.764410776138854 
2146	 0.763173299305864 
2147	 0.761984470748092 
2148	 0.760803798401964 
2149	 0.7595576851423 
2150	 0.758339151376917 
2151	 0.75702539910448 
2152	 0.755569226737475 
2153	 0.754179383958308 
2154	 0.752735600997938 
2155	 0.751211121495715 
2156	 0.749767397812002 
2157	 0.748342835201769 
2158	 0.746895191627018 
2159	 0.74549786655599 
2160	 0.744012052975155 
2161	 0.742472681458117 
2162	 0.740934603070107 
2163	 0.739284620612532 
2164	 0.737783185653329 
2165	 0.736316197253513 
2166	 0.734903917368221 
2167	 0.73360585261201 
2168	 0.73229894816325 
2169	 0.730975876224763 
2170	 0.72975113794433 
2171	 0.728524557168373 
2172	 0.727436822577364 
2173	 0.726478368315111 
2174	 0.725574510291297 
2175	 0.724731189355166 
2176	 0.724031853929912 
2177	 0.723323277207204 
2178	 0.722644798044681 
2179	 0.722048592298951 
2180	 0.721500337566613 
2181	 0.721044036885707 
2182	 0.720678374511982 
2183	 0.720349747650379 
2184	 0.720121349546619 
2185	 0.719882710299979 
2186	 0.719652009742835 
2187	 0.719500948557784 
2188	 0.71939355832787 
2189	 0.719341071133534 
2190	 0.719401085471073 
2191	 0.719438116909748 
2192	 0.719474277246798 
2193	 0.719561994485767 
2194	 0.719700736842656 
2195	 0.719833802663408 
2196	 0.720003317439341 
2197	 0.720208293373771 
2198	 0.72033381695173 
2199	 0.720441975925507 
2200	 0.720580601590414 
2201	 0.720701796013995 
2202	 0.720850166821221 
2203	 0.721040984107074 
2204	 0.721200658461115 
2205	 0.721361548910192 
2206	 0.721503382496042 
2207	 0.721615306942399 
2208	 0.721752540414612 
2209	 0.721864418735416 
2210	 0.7220239429852 
2211	 0.722245953079555 
2212	 0.722426229839598 
2213	 0.722618254724683 
2214	 0.722784646203629 
2215	 0.722899594693848 
2216	 0.72304543979106 
2217	 0.72322383978721 
2218	 0.723365034206429 
2219	 0.723488018870171 
2220	 0.723616503074507 
2221	 0.723748351564042 
2222	 0.723830670452949 
2223	 0.723897140626429 
2224	 0.72401601388544 
2225	 0.724067671737634 
2226	 0.724032445972707 
2227	 0.723997683157839 
2228	 0.723949458633028 
2229	 0.723829890707752 
2230	 0.723658586177317 
2231	 0.723468040290094 
2232	 0.723237422923658 
2233	 0.722946894167426 
2234	 0.722645114992672 
2235	 0.722236452651189 
2236	 0.72174559944171 
2237	 0.721193321112053 
2238	 0.720541907759055 
2239	 0.719880448665198 
2240	 0.719179291881679 
2241	 0.718398699980169 
2242	 0.717622633722649 
2243	 0.716688821116368 
2244	 0.71563485328228 
2245	 0.714508391991412 
2246	 0.713215513489609 
2247	 0.711933875099893 
2248	 0.710618042936195 
2249	 0.709223190383472 
2250	 0.707778534727378 
2251	 0.706310399906077 
2252	 0.704637674494803 
2253	 0.703045645337305 
2254	 0.701449915437511 
2255	 0.699772369320464 
2256	 0.698316087196464 
2257	 0.696870374863647 
2258	 0.695483029394093 
2259	 0.694192832324009 
2260	 0.692897840683723 
2261	 0.691585514782986 
2262	 0.690433772197576 
2263	 0.689293018854153 
2264	 0.688386943811468 
2265	 0.687703934653324 
2266	 0.686986000927228 
2267	 0.68643196415182 
2268	 0.685830595059068 
2269	 0.685205661440347 
2270	 0.684662718577046 
2271	 0.684204143165669 
2272	 0.683708417262845 
2273	 0.683270351440548 
2274	 0.682759160370759 
2275	 0.682222787292657 
2276	 0.681643583172029 
2277	 0.680960418783045 
2278	 0.680375309243948 
2279	 0.679748630700044 
2280	 0.679232013162252 
2281	 0.678840152296006 
2282	 0.67842813849673 
2283	 0.678031413793406 
2284	 0.677715193818947 
2285	 0.67737083667164 
2286	 0.677137864980015 
2287	 0.676992798992803 
2288	 0.676883975870449 
2289	 0.676856111388311 
2290	 0.676928538764274 
2291	 0.677093642705513 
2292	 0.67733159494571 
2293	 0.677645332826577 
2294	 0.677998478784813 
2295	 0.678372811963005 
2296	 0.67877434252911 
2297	 0.679223233194437 
2298	 0.679714741660401 
2299	 0.680255771950222 
2300	 0.680864607092868 
2301	 0.681463038894703 
2302	 0.682091062685328 
2303	 0.682728412701204 
2304	 0.683442472009013 
2305	 0.684018678668518 
2306	 0.684626046116797 
2307	 0.685040019158909 
2308	 0.685255886242058 
2309	 0.685467795667108 
2310	 0.685561597173284 
2311	 0.685681343221285 
2312	 0.685799422815739 
2313	 0.685846304518015 
2314	 0.68588871379763 
2315	 0.685811518685891 
2316	 0.685623624995021 
2317	 0.685383458726068 
2318	 0.685032213310922 
2319	 0.684685313103069 
2320	 0.684332655224222 
2321	 0.683882682608657 
2322	 0.683321939215144 
2323	 0.682798742480541 
2324	 0.682172420408077 
2325	 0.681647207723096 
2326	 0.681223584069621 
2327	 0.680744795355086 
2328	 0.680199986887498 
2329	 0.67976262191105 
2330	 0.679339881034899 
2331	 0.679033183720255 
2332	 0.678726486609279 
2333	 0.6785027685308 
2334	 0.678178014812561 
2335	 0.677820897205786 
2336	 0.677532229352016 
2337	 0.677217026741348 
2338	 0.676977723344122 
2339	 0.676649421803976 
2340	 0.676337170665985 
2341	 0.676159899865062 
2342	 0.675990650404091 
2343	 0.675900119171101 
2344	 0.675932442201951 
2345	 0.675954511194494 
2346	 0.675903134476601 
2347	 0.675976086397928 
2348	 0.676073380399088 
2349	 0.676126716604409 
2350	 0.676366124466941 
2351	 0.676698140137016 
2352	 0.676996467553047 
2353	 0.677376636167181 
2354	 0.677742372650522 
2355	 0.678029171090729 
2356	 0.678351371454761 
2357	 0.678574670566935 
2358	 0.678730478357532 
2359	 0.67900569292351 
2360	 0.67935357941938 
2361	 0.679715726303588 
2362	 0.680077056674487 
2363	 0.680447070388617 
2364	 0.680795515237835 
2365	 0.68120035709508 
2366	 0.681723804987271 
2367	 0.682134312976593 
2368	 0.682332150102662 
2369	 0.682419356832789 
2370	 0.682488403258956 
2371	 0.682596005134856 
2372	 0.682706377841895 
2373	 0.682833257367251 
2374	 0.682902480150996 
2375	 0.682848790684759 
2376	 0.682763778302358 
2377	 0.682642475506082 
2378	 0.682519840442049 
2379	 0.682392402067736 
2380	 0.682304900494941 
2381	 0.682284670944264 
2382	 0.682186323841199 
2383	 0.682031049311132 
2384	 0.681892818744665 
2385	 0.681676936136377 
2386	 0.681604688760424 
2387	 0.681667407191986 
2388	 0.681569915997385 
2389	 0.681483842753338 
2390	 0.681375837669741 
2391	 0.681131980825615 
2392	 0.680994368321816 
2393	 0.680942874190747 
2394	 0.680771699131655 
2395	 0.680552063607026 
2396	 0.680314319324661 
2397	 0.68005240279198 
2398	 0.679858851531 
2399	 0.679641698993217 
2400	 0.679420954192034 
2401	 0.679260947822104 
2402	 0.678808301459663 
2403	 0.678500146938816 
2404	 0.67817333420964 
2405	 0.677831603976399 
2406	 0.677543757011777 
2407	 0.677268011072726 
2408	 0.676988196883611 
2409	 0.676648463689923 
2410	 0.676294282188624 
2411	 0.676016607753209 
2412	 0.675836770936089 
2413	 0.675599506951164 
2414	 0.675162108535239 
2415	 0.674758445715723 
2416	 0.674461712943531 
2417	 0.673950955859793 
2418	 0.673465944657673 
2419	 0.672888153097735 
2420	 0.672083748721801 
2421	 0.671502012296508 
2422	 0.671018518820372 
2423	 0.670700617853817 
2424	 0.670337871227119 
2425	 0.669744540647262 
2426	 0.669297375907578 
2427	 0.668805098302866 
2428	 0.668255058862394 
2429	 0.667701954321563 
2430	 0.667060710807723 
2431	 0.666527142377189 
2432	 0.665890008550005 
2433	 0.665099015149323 
2434	 0.664428225855965 
2435	 0.663658167360013 
2436	 0.662869529653611 
2437	 0.662340552375078 
2438	 0.661605830538127 
2439	 0.660680250412242 
2440	 0.659797200905942 
2441	 0.658670218307081 
2442	 0.657732750174821 
2443	 0.656840560188056 
2444	 0.655701804442055 
2445	 0.654816661266612 
2446	 0.653718827975114 
2447	 0.652306405046839 
2448	 0.651144158801766 
2449	 0.650078114891518 
2450	 0.648861002840651 
2451	 0.647746651389619 
2452	 0.646813224040774 
2453	 0.645522550334468 
2454	 0.644213464803719 
2455	 0.643338075631697 
2456	 0.642353519068538 
2457	 0.641310015130619 
2458	 0.640450134907216 
2459	 0.639559267646105 
2460	 0.638538096959326 
2461	 0.63756284735351 
2462	 0.636641757746915 
2463	 0.635537735051485 
2464	 0.634507959279477 
2465	 0.633582676473992 
2466	 0.632649980015833 
2467	 0.63188530017644 
2468	 0.631230570741193 
2469	 0.630471753875489 
2470	 0.629512575405823 
2471	 0.628612583780666 
2472	 0.627451623303999 
2473	 0.626335716011944 
2474	 0.62568548012016 
2475	 0.62476806792191 
2476	 0.623899847332986 
2477	 0.623251499410709 
2478	 0.622454897820576 
2479	 0.621749476799367 
2480	 0.62121965441855 
2481	 0.620477709617104 
2482	 0.619526062773604 
2483	 0.618438455742996 
2484	 0.617468632893021 
2485	 0.616510626321445 
2486	 0.615862646401651 
2487	 0.615237356333442 
2488	 0.614537074955562 
2489	 0.613725753509929 
2490	 0.612639059048219 
2491	 0.611740803477198 
2492	 0.611127653924089 
2493	 0.610693967493611 
2494	 0.610177593935096 
2495	 0.609570961897503 
2496	 0.6088760436546 
2497	 0.607899485137939 
2498	 0.607071411987314 
2499	 0.6063198709673 
2500	 0.605322262341072 
