Wavelength	ProbetaAcolman00004.asd
350	 0.793112602018726 
351	 0.779024041791775 
352	 0.777145659861888 
353	 0.773381389027008 
354	 0.754106773901573 
355	 0.750846751020027 
356	 0.750018127327027 
357	 0.739348027724142 
358	 0.747181560419475 
359	 0.74371967282187 
360	 0.737552707893592 
361	 0.749586084032971 
362	 0.718534986536942 
363	 0.704868506618187 
364	 0.721805479415855 
365	 0.708322488349719 
366	 0.703317243132257 
367	 0.699948896119595 
368	 0.689714459102549 
369	 0.691591491424839 
370	 0.697112091140399 
371	 0.699938936938005 
372	 0.696267576290688 
373	 0.697057968089718 
374	 0.689150832850504 
375	 0.672799226420866 
376	 0.66947905575266 
377	 0.677329842040389 
378	 0.684255846151325 
379	 0.680897988150376 
380	 0.674891291146894 
381	 0.671981022329112 
382	 0.669883305362289 
383	 0.662999982736869 
384	 0.665598186316812 
385	 0.670848190356013 
386	 0.672982526777198 
387	 0.67149536816982 
388	 0.66260791126055 
389	 0.658762334417239 
390	 0.667094336210968 
391	 0.6605495635502 
392	 0.661194611836702 
393	 0.666529403631883 
394	 0.660491511885803 
395	 0.662217665256773 
396	 0.663997224310579 
397	 0.662120790817033 
398	 0.66443430957906 
399	 0.666303959529706 
400	 0.666748457413866 
401	 0.66587659070339 
402	 0.663109250306362 
403	 0.664278689830082 
404	 0.668374651637405 
405	 0.669637252007887 
406	 0.667322457184225 
407	 0.667719465198984 
408	 0.672275197462623 
409	 0.671791707674159 
410	 0.674071379788282 
411	 0.677516733470646 
412	 0.67853583114219 
413	 0.67851157471309 
414	 0.679751260470267 
415	 0.68204245039055 
416	 0.683156935760462 
417	 0.685121920720398 
418	 0.687263274594023 
419	 0.688730141132861 
420	 0.689242749232863 
421	 0.688975757719504 
422	 0.688993499938344 
423	 0.69022782849684 
424	 0.69069106394267 
425	 0.691288320947424 
426	 0.692103873243123 
427	 0.69213187416274 
428	 0.692297475010912 
429	 0.691954357188469 
430	 0.690758088369227 
431	 0.69006068537299 
432	 0.689790019797274 
433	 0.689648713739367 
434	 0.689288775895716 
435	 0.689145303937746 
436	 0.688990998906682 
437	 0.68862849181689 
438	 0.688001466406741 
439	 0.687220802783938 
440	 0.686506567060142 
441	 0.685984564738914 
442	 0.685346394912072 
443	 0.684515726163352 
444	 0.683515300662068 
445	 0.682446881003246 
446	 0.681529169190468 
447	 0.680418903587643 
448	 0.679115283880594 
449	 0.678596467267641 
450	 0.677531938441546 
451	 0.676195938408208 
452	 0.675288903467802 
453	 0.674204697951211 
454	 0.673008924742372 
455	 0.6719044789043 
456	 0.671166801870862 
457	 0.670144799434737 
458	 0.668960536984456 
459	 0.667806543611457 
460	 0.666531524379052 
461	 0.665349177842986 
462	 0.664123437923104 
463	 0.662622756150118 
464	 0.66156971450449 
465	 0.660428324596748 
466	 0.658898301759862 
467	 0.657202495839765 
468	 0.656023770575104 
469	 0.655004343488304 
470	 0.653718602352512 
471	 0.652881389618016 
472	 0.651511206131144 
473	 0.649891785670296 
474	 0.649195588117815 
475	 0.648251444393425 
476	 0.647257616517276 
477	 0.646361191399368 
478	 0.645094534412083 
479	 0.643986284868863 
480	 0.643249631112709 
481	 0.642821007800815 
482	 0.641870747635884 
483	 0.640842544033166 
484	 0.640031135059711 
485	 0.639450934527574 
486	 0.638831016628544 
487	 0.638080353737897 
488	 0.637316327098858 
489	 0.637163364596592 
490	 0.636764614479424 
491	 0.636139317320007 
492	 0.635783896856016 
493	 0.635502066876591 
494	 0.635138862968679 
495	 0.634721723707873 
496	 0.634570589482845 
497	 0.634383585906486 
498	 0.634075371518354 
499	 0.633685695321188 
500	 0.633465417610809 
501	 0.63336847756761 
502	 0.63325428229488 
503	 0.632939998493479 
504	 0.632799297335489 
505	 0.632651719404086 
506	 0.632394927797068 
507	 0.632386729337193 
508	 0.632096577077198 
509	 0.631700767364978 
510	 0.631594263666565 
511	 0.63136562162761 
512	 0.631005967416919 
513	 0.630626400638361 
514	 0.630439943105575 
515	 0.630170175938709 
516	 0.629783923120148 
517	 0.62933775542758 
518	 0.62897541642847 
519	 0.62845213804332 
520	 0.627888335085394 
521	 0.627603948351999 
522	 0.627094395886808 
523	 0.626515456219291 
524	 0.625969227729505 
525	 0.62524925493313 
526	 0.624624683491862 
527	 0.62397477530209 
528	 0.623136247327964 
529	 0.622531366239496 
530	 0.621797758747634 
531	 0.620910543380134 
532	 0.620235281508688 
533	 0.619430657735389 
534	 0.618615726440078 
535	 0.617928427793676 
536	 0.617283263036807 
537	 0.616604527310972 
538	 0.615901264938921 
539	 0.615223961265031 
540	 0.614541700880426 
541	 0.613749983827309 
542	 0.612877347835467 
543	 0.612179127318713 
544	 0.611434889192262 
545	 0.610697913644465 
546	 0.610062418978274 
547	 0.609432712584335 
548	 0.608769137872196 
549	 0.608068940953405 
550	 0.607364126666197 
551	 0.606729246356306 
552	 0.606092102829298 
553	 0.605402529219276 
554	 0.60471861212461 
555	 0.604189094605632 
556	 0.603836092814243 
557	 0.60358491541055 
558	 0.603214885891571 
559	 0.602847050430079 
560	 0.602537906836602 
561	 0.602212282919149 
562	 0.601856297046801 
563	 0.601371900480493 
564	 0.600660929163283 
565	 0.599676051758078 
566	 0.598666431475917 
567	 0.597633801283695 
568	 0.596418278693744 
569	 0.595425728429883 
570	 0.594466461406648 
571	 0.593395053956962 
572	 0.592359867952247 
573	 0.591433302123344 
574	 0.590606519456707 
575	 0.589844606428088 
576	 0.589251381097574 
577	 0.588642665950396 
578	 0.587914640033829 
579	 0.587078796303192 
580	 0.586219537544683 
581	 0.585281919368023 
582	 0.584235734446572 
583	 0.58322883988343 
584	 0.582258997907477 
585	 0.581289630834845 
586	 0.580289912026302 
587	 0.579536668209931 
588	 0.578681220425368 
589	 0.577636191325066 
590	 0.576864509588449 
591	 0.575836184680341 
592	 0.574616196641122 
593	 0.573434388961476 
594	 0.572402817254189 
595	 0.571222106320446 
596	 0.569901087831516 
597	 0.568728900703246 
598	 0.567789213487557 
599	 0.566873605087047 
600	 0.565881298316021 
601	 0.565116504421988 
602	 0.564425331809594 
603	 0.563653876374224 
604	 0.562731980055496 
605	 0.562161748071574 
606	 0.561513518780034 
607	 0.560660719360755 
608	 0.559941956390526 
609	 0.559390596623188 
610	 0.558742541581219 
611	 0.557814700127837 
612	 0.556935145670264 
613	 0.556230627432653 
614	 0.555566856451728 
615	 0.554666289524058 
616	 0.553691374629799 
617	 0.552831593925942 
618	 0.552080036560438 
619	 0.551072783315363 
620	 0.550080325878729 
621	 0.549162048149686 
622	 0.548272657257826 
623	 0.547222762020497 
624	 0.5461282304435 
625	 0.545121597511648 
626	 0.544307096342519 
627	 0.543222691012041 
628	 0.542073479169029 
629	 0.541079545258814 
630	 0.540186462852794 
631	 0.53922989558872 
632	 0.538186623011735 
633	 0.537124754722775 
634	 0.536178078645963 
635	 0.535312089195788 
636	 0.534466176902309 
637	 0.53357309527159 
638	 0.532776301354604 
639	 0.53207840363725 
640	 0.531415239886842 
641	 0.530623140295524 
642	 0.52991122511141 
643	 0.529351415997227 
644	 0.528901350261163 
645	 0.528362787316518 
646	 0.527862466305024 
647	 0.527486078177632 
648	 0.527188966306878 
649	 0.526831637616346 
650	 0.526545068103027 
651	 0.526472987750403 
652	 0.526435805588499 
653	 0.526406008714185 
654	 0.526425342144209 
655	 0.526581837110077 
656	 0.526831320176088 
657	 0.527128511357433 
658	 0.527480008756442 
659	 0.528007665523222 
660	 0.528573797014039 
661	 0.529234451200717 
662	 0.530090302235718 
663	 0.531071913184203 
664	 0.532115539743325 
665	 0.533245346141898 
666	 0.534568457292304 
667	 0.53601164202222 
668	 0.537611714073145 
669	 0.539370033501317 
670	 0.541143817380008 
671	 0.54307932794899 
672	 0.545215380676191 
673	 0.547522750523526 
674	 0.549878954697715 
675	 0.552336029705869 
676	 0.554949529683119 
677	 0.557760274384885 
678	 0.560747304948016 
679	 0.5638790900672 
680	 0.567121403576269 
681	 0.570431833630183 
682	 0.573991159319123 
683	 0.577757792700834 
684	 0.581586581616185 
685	 0.585579918252024 
686	 0.58972663309533 
687	 0.594048477688586 
688	 0.598630551704863 
689	 0.603328473712694 
690	 0.608164332211882 
691	 0.613194850447697 
692	 0.618391955862168 
693	 0.623804756736882 
694	 0.629416843783652 
695	 0.635174821276313 
696	 0.641128019315807 
697	 0.647278593438227 
698	 0.653621827467129 
699	 0.66015561080664 
700	 0.666857926489239 
701	 0.673759510671237 
702	 0.680911722481747 
703	 0.68838425333325 
704	 0.695843998156501 
705	 0.703355569730903 
706	 0.71122506838577 
707	 0.719091550542807 
708	 0.727190695912236 
709	 0.735573170673685 
710	 0.743826450277 
711	 0.752191933506677 
712	 0.760640107680156 
713	 0.769102764789101 
714	 0.777681024924131 
715	 0.786269090017081 
716	 0.794802101444409 
717	 0.803249127429455 
718	 0.811556394272138 
719	 0.819927573785813 
720	 0.828356457489458 
721	 0.836423145630279 
722	 0.844312858851341 
723	 0.852003837232513 
724	 0.859464806304775 
725	 0.866889977943964 
726	 0.874156948825665 
727	 0.881146232498058 
728	 0.887764419690383 
729	 0.894130109019626 
730	 0.900357429541119 
731	 0.906448581940588 
732	 0.912241586483258 
733	 0.917547137573231 
734	 0.922554620033915 
735	 0.927476012487124 
736	 0.932133837668648 
737	 0.936483622147979 
738	 0.940579293368249 
739	 0.944518682376504 
740	 0.948228721248002 
741	 0.951729041812645 
742	 0.955021156391624 
743	 0.958068226804164 
744	 0.960974945466391 
745	 0.96372356668807 
746	 0.966276876785978 
747	 0.968661261151254 
748	 0.970861540872701 
749	 0.972927306134355 
750	 0.974935858138601 
751	 0.976897363149514 
752	 0.978627106901595 
753	 0.980130296036568 
754	 0.981673149600197 
755	 0.983066546035463 
756	 0.98432177587312 
757	 0.985518027455606 
758	 0.986787953417417 
759	 0.987983526671783 
760	 0.989091098640788 
761	 0.990144107527689 
762	 0.991032292073862 
763	 0.991864222491255 
764	 0.992699462456531 
765	 0.993523024818955 
766	 0.994179459264347 
767	 0.994904910797449 
768	 0.995802986324303 
769	 0.996496766781446 
770	 0.997181998648506 
771	 0.99786991783721 
772	 0.998500070883516 
773	 0.998969397911686 
774	 0.999544239144489 
775	 1.00017870810609 
776	 1.0005848713162 
777	 1.0009059453961 
778	 1.00134983635898 
779	 1.00195842215713 
780	 1.00248824448671 
781	 1.00290752030599 
782	 1.00326717383138 
783	 1.00362710628324 
784	 1.00394076964707 
785	 1.00434311846483 
786	 1.00478864712621 
787	 1.00514587514855 
788	 1.00550630939586 
789	 1.0058513570762 
790	 1.00619899202378 
791	 1.00661452446901 
792	 1.006967612741 
793	 1.00726894069271 
794	 1.0075451598274 
795	 1.00777666210146 
796	 1.00803014051412 
797	 1.00831283348153 
798	 1.00859788876411 
799	 1.00881667751401 
800	 1.00911936148471 
801	 1.00946669714891 
802	 1.00968380090619 
803	 1.00987475938666 
804	 1.01003256403586 
805	 1.01018925919343 
806	 1.01045033682256 
807	 1.0107268040572 
808	 1.01094675044615 
809	 1.01108351285541 
810	 1.01120647508044 
811	 1.01145158382597 
812	 1.01175797448831 
813	 1.01198638451997 
814	 1.01214909014706 
815	 1.01229951845645 
816	 1.01250612772498 
817	 1.0128147916017 
818	 1.01291073617344 
819	 1.01294247198681 
820	 1.01306656802084 
821	 1.01332700071685 
822	 1.01345426374886 
823	 1.01352871059755 
824	 1.01368572256237 
825	 1.01391808318723 
826	 1.0140781677657 
827	 1.01417043176745 
828	 1.01427395989995 
829	 1.01440634803708 
830	 1.01460174977536 
831	 1.01481158131541 
832	 1.01492760667513 
833	 1.0150041374721 
834	 1.01506948535416 
835	 1.01515089355894 
836	 1.01527636353521 
837	 1.01535933667507 
838	 1.01549498961105 
839	 1.01573400362844 
840	 1.01588051287778 
841	 1.01601072204129 
842	 1.01606154432046 
843	 1.01598163734675 
844	 1.01600651746859 
845	 1.01621237093076 
846	 1.01639506665612 
847	 1.01625276260201 
848	 1.01644602466287 
849	 1.01665482610943 
850	 1.01673576940684 
851	 1.0169038105429 
852	 1.01700361660118 
853	 1.01706618094761 
854	 1.01711066083426 
855	 1.0170390449277 
856	 1.01711844910753 
857	 1.01728710975509 
858	 1.01743102422311 
859	 1.01770364001914 
860	 1.01772512511277 
861	 1.0176380840075 
862	 1.01779344950151 
863	 1.01798764485519 
864	 1.01813908435709 
865	 1.01821351997203 
866	 1.01823885150655 
867	 1.01846380009444 
868	 1.01860595638948 
869	 1.01857084128014 
870	 1.01861821245875 
871	 1.01877800762046 
872	 1.01895744457775 
873	 1.01909590932669 
874	 1.01928270002632 
875	 1.01941304413228 
876	 1.01950461644337 
877	 1.0196116600534 
878	 1.0197656693334 
879	 1.01990989067687 
880	 1.02005949585309 
881	 1.0202377596358 
882	 1.02030665714611 
883	 1.02038229860376 
884	 1.02052188185918 
885	 1.02071295132481 
886	 1.02088595104438 
887	 1.02102302856413 
888	 1.02114734615465 
889	 1.02130996854824 
890	 1.02137586836519 
891	 1.02144715466563 
892	 1.02155675569443 
893	 1.02155067355997 
894	 1.02157607833735 
895	 1.02168222602991 
896	 1.02189181656398 
897	 1.02226990012319 
898	 1.02230029485503 
899	 1.02219027045274 
900	 1.02229807487244 
901	 1.02249304897681 
902	 1.02262851605576 
903	 1.02266350176648 
904	 1.02267151332137 
905	 1.02297230460751 
906	 1.02312422223761 
907	 1.02310546618035 
908	 1.02320050500692 
909	 1.02328555477315 
910	 1.02335822186312 
911	 1.02345581265296 
912	 1.02363016777341 
913	 1.02376777775882 
914	 1.02377722684507 
915	 1.02369844374901 
916	 1.02373229631385 
917	 1.02396066308869 
918	 1.02412778559024 
919	 1.02408109730639 
920	 1.02399103202942 
921	 1.02397999235653 
922	 1.02420715488982 
923	 1.02463883830288 
924	 1.02478151076237 
925	 1.025040568129 
926	 1.02516839262463 
927	 1.02493045547151 
928	 1.02480667587093 
929	 1.02496126899286 
930	 1.0251661967541 
931	 1.02514238417039 
932	 1.0251978194045 
933	 1.02540083722996 
934	 1.02555456539899 
935	 1.02542772899623 
936	 1.02538188516877 
937	 1.02553475499386 
938	 1.02575474319823 
939	 1.02580682935832 
940	 1.0259607734928 
941	 1.02600439107326 
942	 1.02589920690781 
943	 1.02580848811335 
944	 1.0259559444429 
945	 1.02605590819124 
946	 1.02605545244702 
947	 1.02617757609156 
948	 1.02613272774978 
949	 1.02601199760414 
950	 1.02594536856807 
951	 1.02601582897225 
952	 1.02605781158998 
953	 1.02597277018669 
954	 1.0257991090131 
955	 1.02573562334676 
956	 1.0256059494559 
957	 1.02551481820238 
958	 1.02545947503661 
959	 1.02517536646182 
960	 1.02497950432942 
961	 1.0247860540327 
962	 1.02451481159809 
963	 1.02428331989045 
964	 1.02420916814832 
965	 1.02423378876517 
966	 1.02431057938898 
967	 1.02454654722293 
968	 1.02470813867251 
969	 1.02481030396319 
970	 1.02492415640166 
971	 1.0250531664658 
972	 1.02529331531 
973	 1.02533108723607 
974	 1.02506036241254 
975	 1.02527376122542 
976	 1.02550255407543 
977	 1.02553777169347 
978	 1.0254084041802 
979	 1.02560092274813 
980	 1.02554044165427 
981	 1.0254020480965 
982	 1.02545085629708 
983	 1.02536802394742 
984	 1.02534541242562 
985	 1.02536837246012 
986	 1.02538012953011 
987	 1.02544756012543 
988	 1.02539589180659 
989	 1.02533615999202 
990	 1.0254422157822 
991	 1.02575511616263 
992	 1.02565883002402 
993	 1.02564555865181 
994	 1.02613630700165 
995	 1.02586112409376 
996	 1.02576067133231 
997	 1.0258362424477 
998	 1.02584113140148 
999	 1.02592332191264 
1000	 1.02603471403439 
1001	 1.02589722064205 
1002	 1.02602775282337 
1003	 1.02612494883163 
1004	 1.02615625121148 
1005	 1.02624909730126 
1006	 1.02622016673349 
1007	 1.02600566585967 
1008	 1.02598885687212 
1009	 1.02598606426678 
1010	 1.02603515735598 
1011	 1.02626875040218 
1012	 1.02633268172991 
1013	 1.02633136369952 
1014	 1.02635703924103 
1015	 1.0263495908566 
1016	 1.02628668679841 
1017	 1.02622729259131 
1018	 1.02624299495367 
1019	 1.02626031066932 
1020	 1.02622478917127 
1021	 1.02626527975731 
1022	 1.02639590970288 
1023	 1.02644499819583 
1024	 1.0265093102094 
1025	 1.02653839947595 
1026	 1.02648164191031 
1027	 1.02650050608856 
1028	 1.02654094618079 
1029	 1.02656164578202 
1030	 1.02669172987145 
1031	 1.02679434886452 
1032	 1.02684125325316 
1033	 1.02691121109137 
1034	 1.02687529081949 
1035	 1.02684748824579 
1036	 1.02689500803318 
1037	 1.02701469964398 
1038	 1.02703386028623 
1039	 1.02705933609837 
1040	 1.02710959697025 
1041	 1.02706113236978 
1042	 1.02709028769971 
1043	 1.02721858594789 
1044	 1.02732177638104 
1045	 1.02730951912967 
1046	 1.02730919102927 
1047	 1.02731905432388 
1048	 1.02735599082628 
1049	 1.02739974814725 
1050	 1.02742242012204 
1051	 1.02747522354267 
1052	 1.02747913430178 
1053	 1.02751773472733 
1054	 1.02761512776456 
1055	 1.02769341340604 
1056	 1.02774924716463 
1057	 1.02782165683024 
1058	 1.0279071850165 
1059	 1.0279611922546 
1060	 1.0280339103669 
1061	 1.02813123837342 
1062	 1.02819000011209 
1063	 1.02822157505749 
1064	 1.02825404555812 
1065	 1.02833095900607 
1066	 1.02842169125397 
1067	 1.02853079871717 
1068	 1.02867526981915 
1069	 1.02879772907196 
1070	 1.02889588731992 
1071	 1.02897359774587 
1072	 1.0290434369126 
1073	 1.0290885136813 
1074	 1.02913683523027 
1075	 1.02917904859218 
1076	 1.02922722447519 
1077	 1.02928236114256 
1078	 1.02930017725941 
1079	 1.02940956540948 
1080	 1.02954624089056 
1081	 1.02961397002961 
1082	 1.02971240515234 
1083	 1.02975083457414 
1084	 1.02975740405417 
1085	 1.02986393615242 
1086	 1.0299563632451 
1087	 1.03007622946022 
1088	 1.03014373280505 
1089	 1.03022895265142 
1090	 1.0303186979544 
1091	 1.03037117787342 
1092	 1.03044595197254 
1093	 1.03052598647343 
1094	 1.03057087989286 
1095	 1.03065747395755 
1096	 1.03071136869353 
1097	 1.03072295458126 
1098	 1.03073608104128 
1099	 1.03069595239778 
1100	 1.03070598738207 
1101	 1.03072362991964 
1102	 1.03070370259856 
1103	 1.0307094782165 
1104	 1.03073161448376 
1105	 1.03071753219863 
1106	 1.03072161599697 
1107	 1.03074320915712 
1108	 1.03069500640862 
1109	 1.03065505637386 
1110	 1.03062134485508 
1111	 1.03055183904963 
1112	 1.03048581346495 
1113	 1.03042007466217 
1114	 1.03036708553969 
1115	 1.03030615188509 
1116	 1.03028787056189 
1117	 1.03029164438398 
1118	 1.03024773873658 
1119	 1.03019209750735 
1120	 1.03014201451825 
1121	 1.03009197526013 
1122	 1.02994599563572 
1123	 1.02985021810595 
1124	 1.02971827284767 
1125	 1.02949847486214 
1126	 1.0292988103746 
1127	 1.0291426108459 
1128	 1.02894468700917 
1129	 1.02876838822348 
1130	 1.02865188348545 
1131	 1.02846389285206 
1132	 1.02822552779111 
1133	 1.02799265167124 
1134	 1.02771850111428 
1135	 1.02743777921255 
1136	 1.02711438913425 
1137	 1.02686416023872 
1138	 1.02665511591693 
1139	 1.02639903958095 
1140	 1.02617723331399 
1141	 1.02590302745991 
1142	 1.02556441505234 
1143	 1.02525119373634 
1144	 1.02494435975863 
1145	 1.02463931360502 
1146	 1.02434309958266 
1147	 1.02399824645806 
1148	 1.02366485124524 
1149	 1.02335603691053 
1150	 1.02301856038094 
1151	 1.02271278407317 
1152	 1.022407134785 
1153	 1.02211897261871 
1154	 1.02179792826231 
1155	 1.02148136557923 
1156	 1.02112937910559 
1157	 1.02074418132419 
1158	 1.02035686064129 
1159	 1.01993798179964 
1160	 1.01955668573342 
1161	 1.01916565606962 
1162	 1.01874931836209 
1163	 1.01835862761831 
1164	 1.01791911656398 
1165	 1.0174665073737 
1166	 1.01707272638301 
1167	 1.01668597099353 
1168	 1.01634261458919 
1169	 1.01599363214442 
1170	 1.01564365264537 
1171	 1.01533366670452 
1172	 1.01504815590236 
1173	 1.01476259738456 
1174	 1.01450173944008 
1175	 1.01426799445573 
1176	 1.01404386554228 
1177	 1.01383215888509 
1178	 1.0136589278604 
1179	 1.01347944879963 
1180	 1.01330848659286 
1181	 1.01311924051766 
1182	 1.01292439034437 
1183	 1.01276204819174 
1184	 1.01259687825912 
1185	 1.01245074179787 
1186	 1.01231801094862 
1187	 1.0122085414079 
1188	 1.01210976939768 
1189	 1.01199841186847 
1190	 1.01194551229639 
1191	 1.01193708368083 
1192	 1.01193230872282 
1193	 1.01197730639846 
1194	 1.01199801954427 
1195	 1.01201396443052 
1196	 1.01204094725678 
1197	 1.01207541824712 
1198	 1.01209629846865 
1199	 1.01214105385919 
1200	 1.01218967411646 
1201	 1.01221839044446 
1202	 1.01226997382434 
1203	 1.01233729581978 
1204	 1.01238097753683 
1205	 1.01245995991035 
1206	 1.01257516372979 
1207	 1.01267398095542 
1208	 1.01278132884857 
1209	 1.01287682798958 
1210	 1.01294324741801 
1211	 1.0130510997905 
1212	 1.01317886816745 
1213	 1.01331065494241 
1214	 1.01346521458081 
1215	 1.01362628654464 
1216	 1.01377915524774 
1217	 1.01395309863566 
1218	 1.01415408199213 
1219	 1.01434990040234 
1220	 1.01457406582737 
1221	 1.01482223656608 
1222	 1.01506850198785 
1223	 1.01535616425514 
1224	 1.01560567730413 
1225	 1.01584722716266 
1226	 1.01607129337809 
1227	 1.0162850325484 
1228	 1.01648010109743 
1229	 1.01665519388028 
1230	 1.01683386823764 
1231	 1.01699445915464 
1232	 1.0171636437373 
1233	 1.01733649073976 
1234	 1.01749974215513 
1235	 1.01765308034703 
1236	 1.01781649337205 
1237	 1.0179986933667 
1238	 1.01815201115603 
1239	 1.01829873083732 
1240	 1.01843130946808 
1241	 1.01854695294431 
1242	 1.0186729765343 
1243	 1.01881358685339 
1244	 1.0189842271156 
1245	 1.0191164216856 
1246	 1.0192541098772 
1247	 1.01935240381681 
1248	 1.01942729458933 
1249	 1.01947905474625 
1250	 1.01948438857478 
1251	 1.01951287698374 
1252	 1.01952581198448 
1253	 1.01955365501518 
1254	 1.01960579927173 
1255	 1.01963662482139 
1256	 1.01966965841745 
1257	 1.01968030272827 
1258	 1.01966024277169 
1259	 1.01965303187895 
1260	 1.01963687393938 
1261	 1.01962347333416 
1262	 1.01961512670786 
1263	 1.01962676530008 
1264	 1.01958606736333 
1265	 1.01952216309844 
1266	 1.01945426537354 
1267	 1.01935744171553 
1268	 1.01926542704693 
1269	 1.01916977973021 
1270	 1.01907611235519 
1271	 1.01895223301834 
1272	 1.01887546270876 
1273	 1.01882399864003 
1274	 1.01877683905485 
1275	 1.01875299733857 
1276	 1.01873216660258 
1277	 1.01872983401231 
1278	 1.01871071845493 
1279	 1.01869563924149 
1280	 1.01867536142477 
1281	 1.01861735295776 
1282	 1.01859970096492 
1283	 1.01860456005241 
1284	 1.01861658163149 
1285	 1.0186430898846 
1286	 1.01869482811732 
1287	 1.01873979194707 
1288	 1.01878207716478 
1289	 1.0188486774706 
1290	 1.01894662370738 
1291	 1.01900352968598 
1292	 1.01907323798969 
1293	 1.01909921010296 
1294	 1.01906334582116 
1295	 1.01907800867414 
1296	 1.01909593985901 
1297	 1.01911694980972 
1298	 1.01915871758676 
1299	 1.0191952459314 
1300	 1.01922597420608 
1301	 1.01925882449248 
1302	 1.01932594383657 
1303	 1.01934380499601 
1304	 1.01932706098078 
1305	 1.01931529861208 
1306	 1.01928973470471 
1307	 1.01924535066818 
1308	 1.01919364758608 
1309	 1.01913707307633 
1310	 1.019065245553 
1311	 1.01895863375085 
1312	 1.01888372291583 
1313	 1.01882005878143 
1314	 1.01874792193433 
1315	 1.01869365354575 
1316	 1.01859698770713 
1317	 1.01847741635527 
1318	 1.01836092293138 
1319	 1.01821802963949 
1320	 1.0180891407588 
1321	 1.01797286289197 
1322	 1.01784221381175 
1323	 1.01770981945218 
1324	 1.01756390602622 
1325	 1.01742840609001 
1326	 1.01724985357393 
1327	 1.01704406054286 
1328	 1.01682514439139 
1329	 1.01656468459333 
1330	 1.0163129842809 
1331	 1.0160869649657 
1332	 1.01580864946311 
1333	 1.0155099904509 
1334	 1.01517810143447 
1335	 1.01484107253445 
1336	 1.01445413767658 
1337	 1.01411119050472 
1338	 1.01378329059815 
1339	 1.01344798034263 
1340	 1.01312042069986 
1341	 1.01278174676263 
1342	 1.01244728624801 
1343	 1.01208457806184 
1344	 1.01172724339046 
1345	 1.01131681455967 
1346	 1.01085887442703 
1347	 1.01041265014456 
1348	 1.00994807405704 
1349	 1.00946484312546 
1350	 1.00896587954839 
1351	 1.00847244281552 
1352	 1.00797037344334 
1353	 1.00744557700101 
1354	 1.00690636760865 
1355	 1.00638181806878 
1356	 1.00584152749066 
1357	 1.00529786283278 
1358	 1.00475640705602 
1359	 1.00422922913009 
1360	 1.00370174869485 
1361	 1.00315715273468 
1362	 1.00264538314671 
1363	 1.0021977103141 
1364	 1.00172599938669 
1365	 1.00126588699571 
1366	 1.00080426076722 
1367	 1.00036915544633 
1368	 0.999868238773778 
1369	 0.999353243306546 
1370	 0.998805132636276 
1371	 0.998197034475636 
1372	 0.997618227068854 
1373	 0.997051103278625 
1374	 0.996439282295275 
1375	 0.995817789284231 
1376	 0.995155738107463 
1377	 0.994453713031693 
1378	 0.993721719861879 
1379	 0.992932398646011 
1380	 0.992167293645777 
1381	 0.991387353841613 
1382	 0.990588693866397 
1383	 0.989829366085958 
1384	 0.988988190316874 
1385	 0.988106101535104 
1386	 0.987180688669287 
1387	 0.986219788704948 
1388	 0.985215427388983 
1389	 0.984209377302973 
1390	 0.983105473480455 
1391	 0.981953972692045 
1392	 0.980683785446745 
1393	 0.979441549901748 
1394	 0.978090521557886 
1395	 0.976733444034984 
1396	 0.975365943956256 
1397	 0.973949827946321 
1398	 0.972498081430994 
1399	 0.970960112270107 
1400	 0.969395640207517 
1401	 0.967719441749332 
1402	 0.965996070418229 
1403	 0.964074870226778 
1404	 0.96211852425033 
1405	 0.959882480432428 
1406	 0.957457564465887 
1407	 0.954818249226389 
1408	 0.951786566411542 
1409	 0.948954105696967 
1410	 0.945724038729409 
1411	 0.943135623778529 
1412	 0.940556423024608 
1413	 0.938758479039368 
1414	 0.937414183923381 
1415	 0.936644555715431 
1416	 0.936706126231133 
1417	 0.936830532782609 
1418	 0.9376403386232 
1419	 0.938182206456219 
1420	 0.938968792208355 
1421	 0.939426777593399 
1422	 0.939737481255199 
1423	 0.939869314946197 
1424	 0.93976161754556 
1425	 0.939527128358857 
1426	 0.939224133168465 
1427	 0.93878630743705 
1428	 0.938336008854885 
1429	 0.937890851171409 
1430	 0.937427621911558 
1431	 0.936935154073548 
1432	 0.936459324712934 
1433	 0.935973581439349 
1434	 0.935498503997178 
1435	 0.93502705356763 
1436	 0.934560496010056 
1437	 0.93408693702658 
1438	 0.933647809648443 
1439	 0.933213946714469 
1440	 0.93281981547177 
1441	 0.932464296453361 
1442	 0.932104989851136 
1443	 0.931767129741567 
1444	 0.931434460468722 
1445	 0.931111538541055 
1446	 0.930793230597476 
1447	 0.930492974480279 
1448	 0.930184480605698 
1449	 0.929864831069991 
1450	 0.929561049436023 
1451	 0.92926904090736 
1452	 0.928970306481441 
1453	 0.928671630684822 
1454	 0.928386331240247 
1455	 0.928083620242184 
1456	 0.927820466301904 
1457	 0.927584006679755 
1458	 0.927361940054553 
1459	 0.927194215138958 
1460	 0.926990314743717 
1461	 0.92676950434533 
1462	 0.926564202547184 
1463	 0.926318950774404 
1464	 0.926126150896583 
1465	 0.925991063070527 
1466	 0.925845823571856 
1467	 0.925700255911133 
1468	 0.925562517843929 
1469	 0.925385861684294 
1470	 0.925237548146219 
1471	 0.92511269911432 
1472	 0.925020465511835 
1473	 0.924900811663633 
1474	 0.924792977907345 
1475	 0.924670976079193 
1476	 0.92453217637119 
1477	 0.924396739105217 
1478	 0.924278274938821 
1479	 0.924113840567365 
1480	 0.923941149559515 
1481	 0.923719463154221 
1482	 0.923441976424005 
1483	 0.923187640706397 
1484	 0.922899672666632 
1485	 0.922636231630062 
1486	 0.922387339971501 
1487	 0.922141296845484 
1488	 0.921894957992366 
1489	 0.921658545059926 
1490	 0.921447827895485 
1491	 0.921206868463135 
1492	 0.92094099805483 
1493	 0.920705353313672 
1494	 0.920446160719267 
1495	 0.920243058957534 
1496	 0.920066032497829 
1497	 0.919935305871206 
1498	 0.919847254537793 
1499	 0.919783716301251 
1500	 0.919771231170633 
1501	 0.919767422781964 
1502	 0.919767755352544 
1503	 0.919818543835644 
1504	 0.919906650757766 
1505	 0.920017348253826 
1506	 0.920188837026933 
1507	 0.920348003400958 
1508	 0.920521035697236 
1509	 0.920693394607581 
1510	 0.920859892702103 
1511	 0.92104211624474 
1512	 0.921237367202774 
1513	 0.921434579594525 
1514	 0.921634197399468 
1515	 0.921853262314662 
1516	 0.922075607935202 
1517	 0.922316030380984 
1518	 0.922597788917562 
1519	 0.922860238503637 
1520	 0.923114680079454 
1521	 0.923385733656571 
1522	 0.92364214403727 
1523	 0.923885796949105 
1524	 0.924125206754454 
1525	 0.924348731514771 
1526	 0.924619072517625 
1527	 0.924891395678951 
1528	 0.925192165442229 
1529	 0.925537783605674 
1530	 0.925865225359606 
1531	 0.926184141610956 
1532	 0.926542300026741 
1533	 0.926916491501801 
1534	 0.927316141010253 
1535	 0.927755411381568 
1536	 0.928168758447723 
1537	 0.928605868793044 
1538	 0.928994157077595 
1539	 0.929361434495726 
1540	 0.929711901342647 
1541	 0.93002158889372 
1542	 0.930362344600213 
1543	 0.930718255560751 
1544	 0.93102963665275 
1545	 0.931329845034891 
1546	 0.931626846134334 
1547	 0.931908879396819 
1548	 0.932149276551642 
1549	 0.932389542489322 
1550	 0.93258803222769 
1551	 0.932723624054955 
1552	 0.932861274262043 
1553	 0.932994729136992 
1554	 0.933099019794329 
1555	 0.933158782211044 
1556	 0.933235588989371 
1557	 0.933305436252676 
1558	 0.93337271988621 
1559	 0.933429366905539 
1560	 0.933503807472878 
1561	 0.933582924878576 
1562	 0.933661661936561 
1563	 0.933744583338855 
1564	 0.933842740200346 
1565	 0.933959724088467 
1566	 0.934048289083098 
1567	 0.934124035982589 
1568	 0.934227179227771 
1569	 0.934307855209533 
1570	 0.934425393070407 
1571	 0.934591451138987 
1572	 0.934748759127897 
1573	 0.934907626244239 
1574	 0.935077963092245 
1575	 0.935272433552285 
1576	 0.935451549081522 
1577	 0.935625507400074 
1578	 0.935805514240337 
1579	 0.935988665958601 
1580	 0.936162770094307 
1581	 0.936353931798113 
1582	 0.936509783136367 
1583	 0.936629607355215 
1584	 0.936764581266506 
1585	 0.936867986943755 
1586	 0.937012198413733 
1587	 0.937188832244362 
1588	 0.937356573039417 
1589	 0.937537766475524 
1590	 0.937722834878268 
1591	 0.937916098365854 
1592	 0.938097105127626 
1593	 0.938276898626803 
1594	 0.938461028673515 
1595	 0.938626333206358 
1596	 0.938812388228389 
1597	 0.93900915306235 
1598	 0.939221110891665 
1599	 0.939447829311006 
1600	 0.939681673990833 
1601	 0.939953524583028 
1602	 0.940192578025457 
1603	 0.940432873565633 
1604	 0.940641776499615 
1605	 0.940801854770069 
1606	 0.940985714212909 
1607	 0.941167368310669 
1608	 0.941344188786566 
1609	 0.941530623915384 
1610	 0.941710110501298 
1611	 0.94185596726462 
1612	 0.942038592635917 
1613	 0.94226926603914 
1614	 0.942455412121303 
1615	 0.942652963667913 
1616	 0.94281626946742 
1617	 0.942915040027659 
1618	 0.943041213917653 
1619	 0.943169845031353 
1620	 0.943292025719902 
1621	 0.943427802635288 
1622	 0.94354227940989 
1623	 0.943637265182754 
1624	 0.943733622792452 
1625	 0.943813851802363 
1626	 0.943903926277534 
1627	 0.944010016074054 
1628	 0.944093339309678 
1629	 0.944166159181465 
1630	 0.944236457060901 
1631	 0.944278293017481 
1632	 0.944344572261647 
1633	 0.944411538041715 
1634	 0.944501444278894 
1635	 0.944628621276547 
1636	 0.944731051769342 
1637	 0.944868166912416 
1638	 0.944948418252566 
1639	 0.944987019921567 
1640	 0.945014830165938 
1641	 0.945013937819219 
1642	 0.944987180182578 
1643	 0.944918903783821 
1644	 0.944869373637557 
1645	 0.944798493384501 
1646	 0.9447445565148 
1647	 0.944698368971507 
1648	 0.944673077899537 
1649	 0.944674857185374 
1650	 0.944648994465844 
1651	 0.944663974304297 
1652	 0.944614048989169 
1653	 0.944536536062623 
1654	 0.944395906195126 
1655	 0.944181536815418 
1656	 0.943967613466668 
1657	 0.943692767777019 
1658	 0.943432541261393 
1659	 0.943212472093185 
1660	 0.942911106006237 
1661	 0.942553081318504 
1662	 0.942197529366174 
1663	 0.94179693531444 
1664	 0.941381286427217 
1665	 0.940986835295032 
1666	 0.940519357789848 
1667	 0.940020879393306 
1668	 0.939449196118369 
1669	 0.93884800365236 
1670	 0.93813510828596 
1671	 0.937303709556807 
1672	 0.936439049565103 
1673	 0.93546966323047 
1674	 0.934501802260682 
1675	 0.933487883233423 
1676	 0.93250602744575 
1677	 0.931530832850771 
1678	 0.930527943136744 
1679	 0.92953667397118 
1680	 0.928481846580287 
1681	 0.927354419454842 
1682	 0.92625324758784 
1683	 0.925105686792255 
1684	 0.924052227674752 
1685	 0.92302917878066 
1686	 0.922055024607457 
1687	 0.921123056241604 
1688	 0.920245639560086 
1689	 0.919397957508258 
1690	 0.91863024441191 
1691	 0.917966738507487 
1692	 0.917307192170028 
1693	 0.916700108442205 
1694	 0.916108144376921 
1695	 0.915542201866661 
1696	 0.91497664268649 
1697	 0.914442237164223 
1698	 0.913897242236183 
1699	 0.913351475256596 
1700	 0.912832577564789 
1701	 0.912352623723091 
1702	 0.911812043797989 
1703	 0.911261789656015 
1704	 0.910661677551435 
1705	 0.909995467559724 
1706	 0.909336111461577 
1707	 0.908733655113484 
1708	 0.908126673826088 
1709	 0.907517908048663 
1710	 0.906883882759593 
1711	 0.906174214843691 
1712	 0.905488566733062 
1713	 0.904739865304713 
1714	 0.903906216912361 
1715	 0.903109232674471 
1716	 0.90218878410905 
1717	 0.901245767795591 
1718	 0.900356686339264 
1719	 0.899351638672013 
1720	 0.898372112613578 
1721	 0.897401251829311 
1722	 0.896394386087631 
1723	 0.895501459609885 
1724	 0.894611673603125 
1725	 0.89377941767339 
1726	 0.893042373293169 
1727	 0.892374011145916 
1728	 0.891905185948475 
1729	 0.891559194165796 
1730	 0.891384843183316 
1731	 0.891398038296638 
1732	 0.891531105018379 
1733	 0.891762924256726 
1734	 0.892062388546233 
1735	 0.892430931642874 
1736	 0.892845262037471 
1737	 0.893281252357617 
1738	 0.893734693073473 
1739	 0.894159135540331 
1740	 0.894572464182669 
1741	 0.894956655813538 
1742	 0.895369119717157 
1743	 0.895669000937297 
1744	 0.895888355984126 
1745	 0.896096006390439 
1746	 0.896220734994633 
1747	 0.896359499553334 
1748	 0.896501377577202 
1749	 0.896593038520192 
1750	 0.896634667914153 
1751	 0.896690276244031 
1752	 0.89672971811084 
1753	 0.896762450033559 
1754	 0.896813506436782 
1755	 0.896811266288509 
1756	 0.896768936469414 
1757	 0.896717435877217 
1758	 0.896639867529155 
1759	 0.896582954505794 
1760	 0.896532100912483 
1761	 0.89646835219286 
1762	 0.896434913093132 
1763	 0.896487312975388 
1764	 0.896568553504251 
1765	 0.896706503299041 
1766	 0.896955321417677 
1767	 0.897238304044475 
1768	 0.8975815782027 
1769	 0.897991821481629 
1770	 0.898372115295447 
1771	 0.898746931119897 
1772	 0.899074538394094 
1773	 0.899350327520562 
1774	 0.899667765974818 
1775	 0.899963025903332 
1776	 0.900218268373905 
1777	 0.900446247339815 
1778	 0.900595344653029 
1779	 0.900688461724702 
1780	 0.900786484745918 
1781	 0.900902007654402 
1782	 0.901047407481097 
1783	 0.901183514674042 
1784	 0.901257313865759 
1785	 0.901294236461173 
1786	 0.901310674245192 
1787	 0.901295200208474 
1788	 0.901277106270778 
1789	 0.901231328685795 
1790	 0.90119313975812 
1791	 0.901128460840993 
1792	 0.901084116222744 
1793	 0.901067350662361 
1794	 0.901059252205552 
1795	 0.901020843457342 
1796	 0.900976151826143 
1797	 0.900958039014546 
1798	 0.900922208344528 
1799	 0.900908299536103 
1800	 0.900929447504076 
1801	 0.905164034045586 
1802	 0.905341752155941 
1803	 0.905479425918587 
1804	 0.90560007234567 
1805	 0.905773719147465 
1806	 0.90591819388314 
1807	 0.906052639449998 
1808	 0.906193280902983 
1809	 0.906356456369955 
1810	 0.906478587497955 
1811	 0.906590541374802 
1812	 0.90667860478141 
1813	 0.906724247420564 
1814	 0.906783608580028 
1815	 0.906849964636564 
1816	 0.906920272789199 
1817	 0.906982520105115 
1818	 0.90705770474049 
1819	 0.907115841789685 
1820	 0.907149515904369 
1821	 0.907199323658897 
1822	 0.907251684188829 
1823	 0.907307406292303 
1824	 0.907370974294686 
1825	 0.907440429744538 
1826	 0.907516842065381 
1827	 0.907622369969264 
1828	 0.907676094451791 
1829	 0.90773381370007 
1830	 0.907747557261055 
1831	 0.907689614932587 
1832	 0.90769187992516 
1833	 0.90768831653107 
1834	 0.907658205276522 
1835	 0.907686029043761 
1836	 0.907677126118307 
1837	 0.907686617016745 
1838	 0.907681388222467 
1839	 0.907724320444121 
1840	 0.907826038102309 
1841	 0.907876580886979 
1842	 0.907946648308022 
1843	 0.907987477864793 
1844	 0.907950179769294 
1845	 0.907871913055318 
1846	 0.907760105788904 
1847	 0.907631100204076 
1848	 0.907504113209219 
1849	 0.907359598540587 
1850	 0.907224119558809 
1851	 0.907098569495008 
1852	 0.906941761799424 
1853	 0.906800457592904 
1854	 0.906622898237013 
1855	 0.906382036695989 
1856	 0.906162138916929 
1857	 0.905850997146446 
1858	 0.905438515961576 
1859	 0.905008388915672 
1860	 0.904502203555026 
1861	 0.903977853968455 
1862	 0.903398840529828 
1863	 0.90286929316269 
1864	 0.902296523521513 
1865	 0.901725144785257 
1866	 0.901093099378912 
1867	 0.900308098814531 
1868	 0.899474754071556 
1869	 0.898504984873655 
1870	 0.897462224229144 
1871	 0.896332468210377 
1872	 0.895190510094051 
1873	 0.893953161663635 
1874	 0.892699464926533 
1875	 0.891507465379506 
1876	 0.890106359929321 
1877	 0.888709734407892 
1878	 0.887248981703121 
1879	 0.885627810233429 
1880	 0.884063732460627 
1881	 0.882370587478081 
1882	 0.88058281116398 
1883	 0.878727528135709 
1884	 0.876776080291422 
1885	 0.874583116167505 
1886	 0.872399571413455 
1887	 0.869962626624385 
1888	 0.867332043687419 
1889	 0.864806592816671 
1890	 0.861991090525364 
1891	 0.859138751966053 
1892	 0.856229343436891 
1893	 0.853071293067831 
1894	 0.849631952139298 
1895	 0.846286850530792 
1896	 0.842737283187172 
1897	 0.838999930939727 
1898	 0.835527304225727 
1899	 0.831793729557527 
1900	 0.828047349228354 
1901	 0.824396990980008 
1902	 0.82040569308189 
1903	 0.816539761701964 
1904	 0.81266645954432 
1905	 0.808722062859648 
1906	 0.804774760876801 
1907	 0.801222390060381 
1908	 0.797577829081317 
1909	 0.794067805363863 
1910	 0.790746649223238 
1911	 0.787198165771713 
1912	 0.783828927832737 
1913	 0.780499974532797 
1914	 0.777147318845581 
1915	 0.774022087833457 
1916	 0.771105614896606 
1917	 0.768155579470852 
1918	 0.76536577605184 
1919	 0.76268893410353 
1920	 0.759862987135982 
1921	 0.757246888966479 
1922	 0.75462282110096 
1923	 0.752016310140502 
1924	 0.749749060180951 
1925	 0.747471758696949 
1926	 0.745281917476093 
1927	 0.743244798589958 
1928	 0.74124409609606 
1929	 0.739247107544889 
1930	 0.737418630584732 
1931	 0.735670374100303 
1932	 0.734008262275998 
1933	 0.732570588828842 
1934	 0.731145296257532 
1935	 0.729838779152584 
1936	 0.728658059957169 
1937	 0.727515850065669 
1938	 0.726395768028413 
1939	 0.725456966059703 
1940	 0.724624399579305 
1941	 0.723882452523266 
1942	 0.723313351384903 
1943	 0.722795455249435 
1944	 0.722388029404032 
1945	 0.722103716654162 
1946	 0.721888094211326 
1947	 0.721804315931407 
1948	 0.721801499507769 
1949	 0.721883614005335 
1950	 0.722024762919234 
1951	 0.722262704425726 
1952	 0.722543952548673 
1953	 0.722890219331029 
1954	 0.723257955546566 
1955	 0.723726077587811 
1956	 0.724219358998666 
1957	 0.724770962457865 
1958	 0.725401100676181 
1959	 0.726018998808388 
1960	 0.726683578444205 
1961	 0.727354527819076 
1962	 0.728012918003477 
1963	 0.728735918690805 
1964	 0.729526040848467 
1965	 0.730279375513661 
1966	 0.731040381735064 
1967	 0.731850188846631 
1968	 0.732615961824852 
1969	 0.733399313882926 
1970	 0.734213723147453 
1971	 0.735042871683935 
1972	 0.735896206952267 
1973	 0.736711554062994 
1974	 0.737523687801096 
1975	 0.738351158165682 
1976	 0.739130679557097 
1977	 0.739847810333615 
1978	 0.74062588803502 
1979	 0.741402746204883 
1980	 0.742186264734897 
1981	 0.743052706544199 
1982	 0.743884107472796 
1983	 0.744738941404088 
1984	 0.745611672303579 
1985	 0.746423233084692 
1986	 0.747289594108488 
1987	 0.748128523424696 
1988	 0.748936007024948 
1989	 0.749775403415726 
1990	 0.750635403274032 
1991	 0.751470713980376 
1992	 0.752309713864273 
1993	 0.753172757409338 
1994	 0.753946846171601 
1995	 0.754715562290327 
1996	 0.755494512385373 
1997	 0.756214478101302 
1998	 0.757004228219344 
1999	 0.757824808621816 
2000	 0.758656812613678 
2001	 0.759547616853113 
2002	 0.760397582931635 
2003	 0.761243491195065 
2004	 0.762089810415557 
2005	 0.762903064417403 
2006	 0.763730209640707 
2007	 0.764602656381184 
2008	 0.765425646203186 
2009	 0.766193643376459 
2010	 0.766972351680028 
2011	 0.767660013675788 
2012	 0.768343435864208 
2013	 0.7690002915307 
2014	 0.769643628413887 
2015	 0.770241352385787 
2016	 0.770821504404022 
2017	 0.771332838852047 
2018	 0.771830757602908 
2019	 0.77223062071319 
2020	 0.772560104387258 
2021	 0.772813932937379 
2022	 0.772998907679063 
2023	 0.773119446508714 
2024	 0.773163480076419 
2025	 0.773160159974849 
2026	 0.773059348824916 
2027	 0.772867401799662 
2028	 0.772596735665804 
2029	 0.772204482236595 
2030	 0.771816672707217 
2031	 0.77135104608352 
2032	 0.770882736574876 
2033	 0.770381117913625 
2034	 0.769891818789876 
2035	 0.769363681786648 
2036	 0.768846962456853 
2037	 0.768398727816336 
2038	 0.767911185108988 
2039	 0.767492172787658 
2040	 0.76709031985779 
2041	 0.766771956953928 
2042	 0.766491330213767 
2043	 0.766304653006054 
2044	 0.766190387753758 
2045	 0.766149457008362 
2046	 0.76618750119306 
2047	 0.766284344441457 
2048	 0.766456823137231 
2049	 0.76668837902913 
2050	 0.766982367457768 
2051	 0.767342949974102 
2052	 0.76777956715694 
2053	 0.768304982931273 
2054	 0.768832368118689 
2055	 0.769411953564704 
2056	 0.770030440669864 
2057	 0.770651010648623 
2058	 0.771368161230627 
2059	 0.772169866577838 
2060	 0.772993623968547 
2061	 0.77391533532818 
2062	 0.774807632604907 
2063	 0.775692411683719 
2064	 0.776639785096228 
2065	 0.777628328423813 
2066	 0.778590603136347 
2067	 0.779679875427443 
2068	 0.780765457425362 
2069	 0.781825374725902 
2070	 0.78293324568111 
2071	 0.783937688429826 
2072	 0.784861194471355 
2073	 0.785829163995079 
2074	 0.786746802126413 
2075	 0.787701404568701 
2076	 0.78871724660382 
2077	 0.789673462847719 
2078	 0.79066001133902 
2079	 0.791548919289777 
2080	 0.792368067615705 
2081	 0.793158662461506 
2082	 0.793881768047748 
2083	 0.794540411721872 
2084	 0.795265981032117 
2085	 0.7959668910762 
2086	 0.796634077455871 
2087	 0.797320601889152 
2088	 0.797917839247733 
2089	 0.79844041668981 
2090	 0.79895815203091 
2091	 0.799438678435255 
2092	 0.799889955536232 
2093	 0.800345869952233 
2094	 0.800708290026625 
2095	 0.80098140482268 
2096	 0.801252794131228 
2097	 0.80143994534496 
2098	 0.801649037097573 
2099	 0.801884031734768 
2100	 0.802124914221056 
2101	 0.802344226650838 
2102	 0.802559427475778 
2103	 0.802771400660406 
2104	 0.802980609593502 
2105	 0.803158732175466 
2106	 0.803330690299389 
2107	 0.803484411698682 
2108	 0.803590834536548 
2109	 0.803722792760315 
2110	 0.803872926144952 
2111	 0.803997041384536 
2112	 0.804125555236329 
2113	 0.804220629587689 
2114	 0.80425941813519 
2115	 0.804334112295717 
2116	 0.804428179755023 
2117	 0.804491805240087 
2118	 0.804540359452594 
2119	 0.804595540511727 
2120	 0.804644474024571 
2121	 0.804679902822704 
2122	 0.804673805851894 
2123	 0.804676662808703 
2124	 0.804625740913049 
2125	 0.804517778609951 
2126	 0.804378061967652 
2127	 0.804231317651419 
2128	 0.804026533442681 
2129	 0.803765628811032 
2130	 0.803457047714533 
2131	 0.803144474190482 
2132	 0.802717537869631 
2133	 0.802209309679026 
2134	 0.801636319592048 
2135	 0.80093093734068 
2136	 0.800169840441795 
2137	 0.799314926037483 
2138	 0.798347059034403 
2139	 0.79735307518277 
2140	 0.796279723970361 
2141	 0.795170978284841 
2142	 0.79403271965435 
2143	 0.79280921069946 
2144	 0.791492610796926 
2145	 0.790180861741103 
2146	 0.788772384192714 
2147	 0.787415845737867 
2148	 0.786082693545906 
2149	 0.784713759910733 
2150	 0.783377983024289 
2151	 0.781971798066136 
2152	 0.780457907108263 
2153	 0.779038886334853 
2154	 0.777558750064716 
2155	 0.775994809273425 
2156	 0.774501937475228 
2157	 0.773037509451798 
2158	 0.771514841355244 
2159	 0.77002145150247 
2160	 0.768427857453153 
2161	 0.766742161035763 
2162	 0.765099216682564 
2163	 0.763360670321052 
2164	 0.761745973029819 
2165	 0.760162772256622 
2166	 0.75864969186103 
2167	 0.75724803585925 
2168	 0.755828030235508 
2169	 0.754388729533795 
2170	 0.753072252151245 
2171	 0.751734079946991 
2172	 0.750566240260212 
2173	 0.74955783216157 
2174	 0.748643296155161 
2175	 0.747792224417459 
2176	 0.747067032605776 
2177	 0.746380039267313 
2178	 0.745769287299367 
2179	 0.74520455482992 
2180	 0.744715223777259 
2181	 0.744262706064845 
2182	 0.743857683409002 
2183	 0.743505456258279 
2184	 0.743222138232619 
2185	 0.74296101222784 
2186	 0.742753395587656 
2187	 0.742563494711831 
2188	 0.742382923557948 
2189	 0.742274837411763 
2190	 0.742229890041592 
2191	 0.742206437066971 
2192	 0.742254928960643 
2193	 0.742299899599158 
2194	 0.74236367202073 
2195	 0.742443277454489 
2196	 0.742539681553166 
2197	 0.742673191129376 
2198	 0.74280280027322 
2199	 0.742882394564742 
2200	 0.742982047730387 
2201	 0.743075778785874 
2202	 0.743158592037901 
2203	 0.743233645822147 
2204	 0.743324646325458 
2205	 0.743427164540669 
2206	 0.743484525732771 
2207	 0.743510487422084 
2208	 0.743579614963512 
2209	 0.743609000487993 
2210	 0.743701704235232 
2211	 0.743880307202153 
2212	 0.74402453044069 
2213	 0.744180823678808 
2214	 0.74430749433994 
2215	 0.744408633961366 
2216	 0.744533195246108 
2217	 0.744669989611155 
2218	 0.744783115277914 
2219	 0.744915945823972 
2220	 0.745009867263023 
2221	 0.745094045342183 
2222	 0.74510036926768 
2223	 0.745088586824583 
2224	 0.74508372724051 
2225	 0.745047036533926 
2226	 0.744958423722775 
2227	 0.744794715452013 
2228	 0.744591930267157 
2229	 0.744315011096706 
2230	 0.743941272252339 
2231	 0.743549213510073 
2232	 0.743123362019848 
2233	 0.742627317236089 
2234	 0.742106263987059 
2235	 0.741448367719454 
2236	 0.740708462930271 
2237	 0.739876659383897 
2238	 0.738877242039349 
2239	 0.737893013663497 
2240	 0.736890281325886 
2241	 0.735771987997005 
2242	 0.734666737554371 
2243	 0.733353693451363 
2244	 0.731841245459575 
2245	 0.730310917916439 
2246	 0.728573742558348 
2247	 0.726900765244585 
2248	 0.725236486595448 
2249	 0.723526241473979 
2250	 0.72184170018841 
2251	 0.720100009105841 
2252	 0.7181335695789 
2253	 0.716211785436821 
2254	 0.71416648925916 
2255	 0.7121120926343 
2256	 0.710284928797973 
2257	 0.708434982798816 
2258	 0.706646728973025 
2259	 0.70494009804993 
2260	 0.703250513071924 
2261	 0.701540854859313 
2262	 0.699998510736531 
2263	 0.6985129094557 
2264	 0.697187379520071 
2265	 0.696054469404888 
2266	 0.694883568140993 
2267	 0.693836923398601 
2268	 0.692739542682843 
2269	 0.69160377882665 
2270	 0.690558506164133 
2271	 0.689527512496651 
2272	 0.688583071022548 
2273	 0.687761493582655 
2274	 0.686892341211717 
2275	 0.686092783319062 
2276	 0.685232765433553 
2277	 0.684282819689446 
2278	 0.683427089314319 
2279	 0.682585016709549 
2280	 0.68177811844997 
2281	 0.681072706612632 
2282	 0.680297697130217 
2283	 0.679506559258799 
2284	 0.678696210957711 
2285	 0.677850009934709 
2286	 0.677163992106617 
2287	 0.676457666000253 
2288	 0.675801497007646 
2289	 0.675266673759696 
2290	 0.67476261613842 
2291	 0.674310887416361 
2292	 0.673917776895271 
2293	 0.673466401331813 
2294	 0.672956342695611 
2295	 0.67246052536491 
2296	 0.671926585888396 
2297	 0.671413628386553 
2298	 0.670911281530218 
2299	 0.670366713053469 
2300	 0.669845898764638 
2301	 0.669206665441036 
2302	 0.66843527016037 
2303	 0.667797721272052 
2304	 0.667098258856626 
2305	 0.666557821811026 
2306	 0.666108882561727 
2307	 0.665759436005042 
2308	 0.665403370616602 
2309	 0.665360187698719 
2310	 0.665482462002049 
2311	 0.665873154750711 
2312	 0.666582646943965 
2313	 0.667412229675355 
2314	 0.668553648230101 
2315	 0.669664863796833 
2316	 0.670977431851196 
2317	 0.672134633283098 
2318	 0.673388901065503 
2319	 0.674351729729701 
2320	 0.675273478059297 
2321	 0.675849751715392 
2322	 0.676022190910061 
2323	 0.676231775852893 
2324	 0.676173989988391 
2325	 0.676171193539247 
2326	 0.676233139343293 
2327	 0.676130393352019 
2328	 0.675901584606929 
2329	 0.675629327253176 
2330	 0.675247268504169 
2331	 0.67483896747574 
2332	 0.674349857759926 
2333	 0.673869743909927 
2334	 0.673285880209501 
2335	 0.672606117658795 
2336	 0.671901244001381 
2337	 0.671094274990391 
2338	 0.670291554350631 
2339	 0.669298611846856 
2340	 0.668234567931427 
2341	 0.667236288815859 
2342	 0.666134318290699 
2343	 0.66511508163038 
2344	 0.664186954204709 
2345	 0.663249405513527 
2346	 0.662511384582628 
2347	 0.661954166044873 
2348	 0.661509698088908 
2349	 0.661328714795427 
2350	 0.661426244725525 
2351	 0.66189623316514 
2352	 0.662741875941343 
2353	 0.663885475324035 
2354	 0.66507175783303 
2355	 0.666288046187359 
2356	 0.667504740304366 
2357	 0.668613377512447 
2358	 0.66982800024947 
2359	 0.671058563216875 
2360	 0.672140000313777 
2361	 0.673027564378518 
2362	 0.67365139380888 
2363	 0.674197671197138 
2364	 0.674812020006663 
2365	 0.67534268982411 
2366	 0.675872466630721 
2367	 0.676217416355199 
2368	 0.676306301518925 
2369	 0.6764159767835 
2370	 0.676518220677929 
2371	 0.676712354038904 
2372	 0.676866731395658 
2373	 0.677016258610515 
2374	 0.67720195944545 
2375	 0.677251594379794 
2376	 0.677371258951682 
2377	 0.677351381079863 
2378	 0.677213277126757 
2379	 0.677090741792991 
2380	 0.676840269573381 
2381	 0.676682583180466 
2382	 0.676574676701224 
2383	 0.676560184252736 
2384	 0.676432068716637 
2385	 0.676250392345032 
2386	 0.676189639340109 
2387	 0.676182354078948 
2388	 0.676021923161725 
2389	 0.675899004413351 
2390	 0.675765563276538 
2391	 0.67545563746477 
2392	 0.675243251892295 
2393	 0.675135140920151 
2394	 0.674950129704064 
2395	 0.67465889696473 
2396	 0.674515280594083 
2397	 0.674572809244827 
2398	 0.67442679237259 
2399	 0.674194908546532 
2400	 0.67398445137953 
2401	 0.673663239782267 
2402	 0.673343560121931 
2403	 0.67305162749298 
2404	 0.67273549424107 
2405	 0.672458347656337 
2406	 0.672250989264581 
2407	 0.672216456580123 
2408	 0.672157325925698 
2409	 0.67191164170486 
2410	 0.67168191562534 
2411	 0.671413984630161 
2412	 0.671130213094417 
2413	 0.670912116438506 
2414	 0.670579181980754 
2415	 0.670260342671534 
2416	 0.669905605404425 
2417	 0.669429908943297 
2418	 0.669155119316367 
2419	 0.668772277209848 
2420	 0.668187607479161 
2421	 0.667894237487746 
2422	 0.667555378184348 
2423	 0.667212420444767 
2424	 0.667078017800497 
2425	 0.666587867068227 
2426	 0.665990287828876 
2427	 0.665509915218325 
2428	 0.664936822455862 
2429	 0.664296128588537 
2430	 0.663722663206889 
2431	 0.663333499200622 
2432	 0.662823793210506 
2433	 0.662247835937702 
2434	 0.661721314180949 
2435	 0.660900238113644 
2436	 0.659934997542989 
2437	 0.659225502960109 
2438	 0.658458073829141 
2439	 0.657651645762996 
2440	 0.656823056302479 
2441	 0.655710188873696 
2442	 0.654670589175911 
2443	 0.653675141955222 
2444	 0.652675130829444 
2445	 0.651750234755367 
2446	 0.650750475176264 
2447	 0.649563594233851 
2448	 0.648355201578412 
2449	 0.64735709105573 
2450	 0.646362171263858 
2451	 0.64521802119117 
2452	 0.644048028658496 
2453	 0.642771691196227 
2454	 0.641436882077137 
2455	 0.640424539445798 
2456	 0.639510250517865 
2457	 0.638513876817724 
2458	 0.637623227834586 
2459	 0.63673640437416 
2460	 0.635751564833728 
2461	 0.634771924560514 
2462	 0.633943993880131 
2463	 0.633007460876322 
2464	 0.631852679499323 
2465	 0.63087253395967 
2466	 0.629903635045541 
2467	 0.628979294800806 
2468	 0.628319985007809 
2469	 0.627658130011586 
2470	 0.62701551606531 
2471	 0.626267981091145 
2472	 0.62531802040162 
2473	 0.624471847975471 
2474	 0.623707734614782 
2475	 0.622780979194839 
2476	 0.622129613363563 
2477	 0.621559639138933 
2478	 0.620745807527522 
2479	 0.619906562948044 
2480	 0.619394402287799 
2481	 0.618853328874397 
2482	 0.618314652165454 
2483	 0.617855162113108 
2484	 0.617202194075408 
2485	 0.616427900537755 
2486	 0.616056134422213 
2487	 0.615577452346244 
2488	 0.614909696979105 
2489	 0.614431439969462 
2490	 0.613769034535001 
2491	 0.612921726811435 
2492	 0.612362743200719 
2493	 0.612205578832559 
2494	 0.612132458617165 
2495	 0.611974511307335 
2496	 0.61131197701634 
2497	 0.610162767179706 
2498	 0.609261883970457 
2499	 0.608493927413372 
2500	 0.607949127631396 
