Wavelength	ProbetaAcolman00019.asd
350	 0.465298150262462 
351	 0.477982791930796 
352	 0.467579492070192 
353	 0.429951008607046 
354	 0.444343639636651 
355	 0.428699607443063 
356	 0.407892487205935 
357	 0.410093225897502 
358	 0.401626804639549 
359	 0.385469542293377 
360	 0.37417689831982 
361	 0.377734135307973 
362	 0.353738214057267 
363	 0.342675066298714 
364	 0.351087049054475 
365	 0.329902074601527 
366	 0.317631714627228 
367	 0.311993446182186 
368	 0.306377024976335 
369	 0.314108722969631 
370	 0.312504097330289 
371	 0.299618758883801 
372	 0.286622287583555 
373	 0.281699011148763 
374	 0.271423729268945 
375	 0.253032301618628 
376	 0.241435844672076 
377	 0.240641232939443 
378	 0.245450336109926 
379	 0.247581928605518 
380	 0.238755823801406 
381	 0.23057192894048 
382	 0.224776792922284 
383	 0.21684468073212 
384	 0.211366383282653 
385	 0.208975716645192 
386	 0.208563873147433 
387	 0.207858553760978 
388	 0.202375748211384 
389	 0.197020334918393 
390	 0.195549760437203 
391	 0.187475431810179 
392	 0.184615847951242 
393	 0.184147445710744 
394	 0.175244381859616 
395	 0.169888663590206 
396	 0.168246298212881 
397	 0.167090034126011 
398	 0.160533531822298 
399	 0.157957791608351 
400	 0.157447752794315 
401	 0.154442573472138 
402	 0.146711662617208 
403	 0.143068773831732 
404	 0.143828243354594 
405	 0.143070811455908 
406	 0.139393019036634 
407	 0.135488142498293 
408	 0.133055811921204 
409	 0.131006063941758 
410	 0.128528459075785 
411	 0.126552954085655 
412	 0.12579366744544 
413	 0.123210214737295 
414	 0.120628083524005 
415	 0.119079977820503 
416	 0.118623531714455 
417	 0.117821766056752 
418	 0.116175096210931 
419	 0.114076455005444 
420	 0.113488286174053 
421	 0.111936845045504 
422	 0.11006546640779 
423	 0.109418887334501 
424	 0.108892317569769 
425	 0.108439450091476 
426	 0.107875776697927 
427	 0.10679466275185 
428	 0.105919086636225 
429	 0.104882021326977 
430	 0.103561445441368 
431	 0.103358001996365 
432	 0.1023836785754 
433	 0.101191697003173 
434	 0.101375721100578 
435	 0.101251741981108 
436	 0.10123016624063 
437	 0.101245452981942 
438	 0.100139991129359 
439	 0.099556810584637 
440	 9.93190215626704E-02 
441	 9.89699902465844E-02 
442	 9.92892662221917E-02 
443	 9.88069039016887E-02 
444	 9.76988231455359E-02 
445	 9.73432015334872E-02 
446	 9.66783887237145E-02 
447	 0.096530077196829 
448	 9.70797123375578E-02 
449	 9.65598914594092E-02 
450	 9.60109625156335E-02 
451	 9.59535764350938E-02 
452	 0.096433113419672 
453	 9.58419940626472E-02 
454	 9.53922512517416E-02 
455	 0.095448481194058 
456	 9.52753392075694E-02 
457	 9.48618005113088E-02 
458	 0.09465208811772 
459	 9.48133181693816E-02 
460	 9.43718068298964E-02 
461	 9.42869187160131E-02 
462	 9.44995186496764E-02 
463	 9.44261902719669E-02 
464	 9.41334029692116E-02 
465	 0.09367048202145 
466	 9.32662525817974E-02 
467	 9.34276935361181E-02 
468	 9.33432339326312E-02 
469	 9.30630816861473E-02 
470	 9.28731399151368E-02 
471	 9.29327478015832E-02 
472	 9.28444799665497E-02 
473	 9.25801281012369E-02 
474	 9.24076202112868E-02 
475	 9.23386687070536E-02 
476	 9.23553363103164E-02 
477	 0.092336785033903 
478	 9.19189939315443E-02 
479	 9.16910665639535E-02 
480	 9.16399413006484E-02 
481	 9.15427817388751E-02 
482	 9.14556293948843E-02 
483	 0.091417220733939 
484	 9.14444310878443E-02 
485	 9.15272307127069E-02 
486	 9.13133496793795E-02 
487	 9.11042567943913E-02 
488	 9.11860056959996E-02 
489	 9.13697304151942E-02 
490	 9.13810273659216E-02 
491	 0.091271891309402 
492	 9.12765594859448E-02 
493	 9.13359607507161E-02 
494	 9.15414166032835E-02 
495	 9.18076763341964E-02 
496	 9.17274350481592E-02 
497	 9.18652470667961E-02 
498	 9.20178255506402E-02 
499	 9.19255289789681E-02 
500	 0.09215997268331 
501	 9.25159298770076E-02 
502	 9.27526881571982E-02 
503	 9.26630423087418E-02 
504	 9.26770023265324E-02 
505	 9.28295826469727E-02 
506	 9.30796602176173E-02 
507	 9.34134824616215E-02 
508	 9.37431432235543E-02 
509	 9.39891529220557E-02 
510	 9.41281386744295E-02 
511	 9.44558196282089E-02 
512	 9.47148360276969E-02 
513	 9.48766059262771E-02 
514	 9.52599069279801E-02 
515	 9.55794022098471E-02 
516	 9.58740667834903E-02 
517	 9.62051418546554E-02 
518	 9.64035934587413E-02 
519	 9.66539370710033E-02 
520	 0.09703141636587 
521	 9.75135607799503E-02 
522	 9.79460753108106E-02 
523	 9.83544274125941E-02 
524	 9.87697593919084E-02 
525	 9.91795141868276E-02 
526	 9.95766276832179E-02 
527	 9.99388733768526E-02 
528	 0.100279357664543 
529	 0.100835158650628 
530	 0.101298271919678 
531	 0.101648502141856 
532	 0.1021897633868 
533	 0.102752879023899 
534	 0.103257952235474 
535	 0.103697070664777 
536	 0.104203044019288 
537	 0.104779210185524 
538	 0.105371658538363 
539	 0.10591598417446 
540	 0.106564040327324 
541	 0.107249483157271 
542	 0.107911362240827 
543	 0.108531065936009 
544	 0.109186942403176 
545	 0.109906286975541 
546	 0.110688095704532 
547	 0.111497206836759 
548	 0.112330054865326 
549	 0.113185029514644 
550	 0.114063370818616 
551	 0.115028554001125 
552	 0.116046477868048 
553	 0.117101583377905 
554	 0.118281289045832 
555	 0.119465502677131 
556	 0.120708026267018 
557	 0.12211615559056 
558	 0.123544987196785 
559	 0.125036566492203 
560	 0.126617148019548 
561	 0.12826954795819 
562	 0.129954475774311 
563	 0.131688605273614 
564	 0.133498072286048 
565	 0.135351695691073 
566	 0.137377788671079 
567	 0.139591400861422 
568	 0.141926426383537 
569	 0.144474784786225 
570	 0.147161914750858 
571	 0.149931487704972 
572	 0.152791617387223 
573	 0.155787423069158 
574	 0.158944258872477 
575	 0.162256853895531 
576	 0.165560859901465 
577	 0.168986575020629 
578	 0.172626000726687 
579	 0.176501945769167 
580	 0.1805994735946 
581	 0.184888473642005 
582	 0.189387963115428 
583	 0.194249041847646 
584	 0.199409691238359 
585	 0.20489057607077 
586	 0.210754368945955 
587	 0.216953746621234 
588	 0.223514084791777 
589	 0.230465164139925 
590	 0.237829458492382 
591	 0.245553647640145 
592	 0.253609127112659 
593	 0.261999450286 
594	 0.270768533653871 
595	 0.279866289938339 
596	 0.289387923027987 
597	 0.299532710885501 
598	 0.310222981832071 
599	 0.321373026872316 
600	 0.333006710876814 
601	 0.345400968406231 
602	 0.358099281531381 
603	 0.371024200721271 
604	 0.384255331572388 
605	 0.397877930806945 
606	 0.411592637017358 
607	 0.425263175423664 
608	 0.438971982159773 
609	 0.452676726318242 
610	 0.466187515926716 
611	 0.479385523810814 
612	 0.492347940361582 
613	 0.505172188092535 
614	 0.517658290211711 
615	 0.529478580032475 
616	 0.54092049879686 
617	 0.552003752514708 
618	 0.562621043436914 
619	 0.572506841684655 
620	 0.581879917716793 
621	 0.590838171439583 
622	 0.599375473655253 
623	 0.607173184854208 
624	 0.614472368816214 
625	 0.621409285133485 
626	 0.627984019338658 
627	 0.633986960701866 
628	 0.639476650834395 
629	 0.644596512097137 
630	 0.649576118459903 
631	 0.654117979739798 
632	 0.658178800153443 
633	 0.661872969298575 
634	 0.665523293188127 
635	 0.668943885564545 
636	 0.67203079939122 
637	 0.674836052701041 
638	 0.677556953407367 
639	 0.680113777184992 
640	 0.682409297422665 
641	 0.684532111299436 
642	 0.686578964394278 
643	 0.688559808631923 
644	 0.690420755431631 
645	 0.692037921120296 
646	 0.693563733857229 
647	 0.695085967350586 
648	 0.696535878004175 
649	 0.697874607078294 
650	 0.699089510465299 
651	 0.700219582411797 
652	 0.701470461919401 
653	 0.702574233025255 
654	 0.703514113039553 
655	 0.704481586523131 
656	 0.705445999580136 
657	 0.706372800378929 
658	 0.707249039954715 
659	 0.708122880124332 
660	 0.70886831360354 
661	 0.709565293000944 
662	 0.710332620284611 
663	 0.71103628715729 
664	 0.711729009379701 
665	 0.712437670363397 
666	 0.713151576896894 
667	 0.713850265083739 
668	 0.714464092220639 
669	 0.714987537906273 
670	 0.715602398045718 
671	 0.716185237234163 
672	 0.716716393047157 
673	 0.717230490580574 
674	 0.717791272245053 
675	 0.718298645340367 
676	 0.71874860998771 
677	 0.719266503144762 
678	 0.719774599614535 
679	 0.720237473418519 
680	 0.720659347163113 
681	 0.721129950518274 
682	 0.721609294804471 
683	 0.722092127531127 
684	 0.72258870493998 
685	 0.723087612642844 
686	 0.723490715428328 
687	 0.72381097456253 
688	 0.72422351540889 
689	 0.724643414405801 
690	 0.725062941263998 
691	 0.725494108356709 
692	 0.725960239907559 
693	 0.726365192673996 
694	 0.726758718531352 
695	 0.72725459198647 
696	 0.727624923840883 
697	 0.728014199553943 
698	 0.728454455721039 
699	 0.728729249111688 
700	 0.72907449765724 
701	 0.729495410792736 
702	 0.729926499924835 
703	 0.730313811845904 
704	 0.730678115818976 
705	 0.731055482641231 
706	 0.73146905922977 
707	 0.731694867044283 
708	 0.731969066143038 
709	 0.732397438371737 
710	 0.732771636081291 
711	 0.733115130478108 
712	 0.733501810539269 
713	 0.73394899223341 
714	 0.734171733058775 
715	 0.734387478914811 
716	 0.734675960628806 
717	 0.735004776980788 
718	 0.735382817429666 
719	 0.735741816285609 
720	 0.736049016907851 
721	 0.736348363702628 
722	 0.736577064321072 
723	 0.736820898400152 
724	 0.737148995555532 
725	 0.737384922548172 
726	 0.737613598848167 
727	 0.737892620240241 
728	 0.738243874599233 
729	 0.73859782138498 
730	 0.738906720072783 
731	 0.739173523159359 
732	 0.739477750871982 
733	 0.739689415468423 
734	 0.739897758035586 
735	 0.740207108299327 
736	 0.740535344932631 
737	 0.740806162315607 
738	 0.741027213381878 
739	 0.741263032313028 
740	 0.741543175851522 
741	 0.74175184766978 
742	 0.741901093110762 
743	 0.742215948607314 
744	 0.74254659666457 
745	 0.742761424789999 
746	 0.742855704876947 
747	 0.743234926388301 
748	 0.743498896930397 
749	 0.743694401761017 
750	 0.744074942193049 
751	 0.744304367274242 
752	 0.744470841820653 
753	 0.744662381314423 
754	 0.744905673777006 
755	 0.745095666667451 
756	 0.745283757061446 
757	 0.745511226689543 
758	 0.745676655918915 
759	 0.745840198538656 
760	 0.746050933999593 
761	 0.746333012775892 
762	 0.746611060879938 
763	 0.746791202227492 
764	 0.746909973387515 
765	 0.747132677696078 
766	 0.747344995259989 
767	 0.747544154694343 
768	 0.747747685043434 
769	 0.747970552257129 
770	 0.748211385672176 
771	 0.748448550869621 
772	 0.748651568132244 
773	 0.748790431107728 
774	 0.74891343940417 
775	 0.749073300988417 
776	 0.749311119904926 
777	 0.749561754998479 
778	 0.749725346995763 
779	 0.749798068661889 
780	 0.749934211837451 
781	 0.750173229816241 
782	 0.750463769994755 
783	 0.750696227506942 
784	 0.750658708609909 
785	 0.750761750945887 
786	 0.751023127729675 
787	 0.751231933587073 
788	 0.751381461185369 
789	 0.751579246541198 
790	 0.751830633217744 
791	 0.752008338561676 
792	 0.752060859979051 
793	 0.752145066077186 
794	 0.752348291335023 
795	 0.752482694141196 
796	 0.752627299448591 
797	 0.75272665040489 
798	 0.752744430536241 
799	 0.752958627517188 
800	 0.753137145816905 
801	 0.753223568671443 
802	 0.753320009528451 
803	 0.753484891591473 
804	 0.753636479489735 
805	 0.753756469358138 
806	 0.753950503481351 
807	 0.754035246587486 
808	 0.754095024006779 
809	 0.754233043484694 
810	 0.7544037203943 
811	 0.754521970588837 
812	 0.754650308798443 
813	 0.754875055736049 
814	 0.754996957278236 
815	 0.755125839716302 
816	 0.755303997483686 
817	 0.755484324834602 
818	 0.755502855791606 
819	 0.755521552061704 
820	 0.75564488341199 
821	 0.755797491324026 
822	 0.755936549423106 
823	 0.756068547455794 
824	 0.756198792813541 
825	 0.756271991097818 
826	 0.756362274883562 
827	 0.75648493843542 
828	 0.756611294050397 
829	 0.75663815431066 
830	 0.756743902892914 
831	 0.756959934389264 
832	 0.757167627228838 
833	 0.757273560191273 
834	 0.757345407906458 
835	 0.757431912566041 
836	 0.757510048929719 
837	 0.757502347691444 
838	 0.757549217808299 
839	 0.75773123392721 
840	 0.757817385536463 
841	 0.757833736961505 
842	 0.757874039219871 
843	 0.758010264558797 
844	 0.758036097048718 
845	 0.758124128663275 
846	 0.758260166759892 
847	 0.758306452664097 
848	 0.758418761803097 
849	 0.758565973153419 
850	 0.758653628164437 
851	 0.758555857519328 
852	 0.758588665743895 
853	 0.758685372787192 
854	 0.758748957991353 
855	 0.758799619710184 
856	 0.758861453116602 
857	 0.758923595233926 
858	 0.758993925532395 
859	 0.759208887776743 
860	 0.759278128174791 
861	 0.759268539681246 
862	 0.759402440570129 
863	 0.759598799236653 
864	 0.759698844883125 
865	 0.75970552302993 
866	 0.759758766257501 
867	 0.759814562437239 
868	 0.75988094866128 
869	 0.759914688121795 
870	 0.759808358468002 
871	 0.759820089703608 
872	 0.759968724074423 
873	 0.760164372902575 
874	 0.760214918301426 
875	 0.760280353126717 
876	 0.760349138104396 
877	 0.76037963909894 
878	 0.760403347185794 
879	 0.760575432175022 
880	 0.760734769821114 
881	 0.760646381366251 
882	 0.760556385338599 
883	 0.760628002343509 
884	 0.760766020253072 
885	 0.760729303638268 
886	 0.760795201663758 
887	 0.760832958755571 
888	 0.760824322267938 
889	 0.760916089322747 
890	 0.760941596217543 
891	 0.760993572148499 
892	 0.761085620125517 
893	 0.761025635634793 
894	 0.760987080503962 
895	 0.761006210141675 
896	 0.761048502754841 
897	 0.760995990586223 
898	 0.760926131228631 
899	 0.760921017882479 
900	 0.76100638304309 
901	 0.760994159928891 
902	 0.761059072973696 
903	 0.761155547905901 
904	 0.761163916304526 
905	 0.761223922767677 
906	 0.761237111050948 
907	 0.761195651714628 
908	 0.761154527670384 
909	 0.761030580176133 
910	 0.760964967318809 
911	 0.761028933289845 
912	 0.761179212944856 
913	 0.761200603378975 
914	 0.761205037652909 
915	 0.761238574585271 
916	 0.761193180019303 
917	 0.761251813899836 
918	 0.761324498940313 
919	 0.761340703673316 
920	 0.761371809009283 
921	 0.761453193637369 
922	 0.761529768133543 
923	 0.761573720405926 
924	 0.761697237157544 
925	 0.761753375611609 
926	 0.761746729685106 
927	 0.761727963823518 
928	 0.76169084094576 
929	 0.761870328158705 
930	 0.76211984342333 
931	 0.762198222224645 
932	 0.762226075879222 
933	 0.762319464344711 
934	 0.76245262121015 
935	 0.762547986023195 
936	 0.762718678009377 
937	 0.762961549768975 
938	 0.763185843247902 
939	 0.763283761043503 
940	 0.763407112898295 
941	 0.763567349167145 
942	 0.763741041509478 
943	 0.763889010049443 
944	 0.764024505403819 
945	 0.764117539861354 
946	 0.764133648764295 
947	 0.764066288225784 
948	 0.764199172984472 
949	 0.764380969643574 
950	 0.764478005163886 
951	 0.764481207800484 
952	 0.764530896282609 
953	 0.764467727123444 
954	 0.764330254239012 
955	 0.764489739012878 
956	 0.764570209103084 
957	 0.764526510008043 
958	 0.764419038600469 
959	 0.764357322167589 
960	 0.764329414502809 
961	 0.764278884689638 
962	 0.764194670952987 
963	 0.764174528517013 
964	 0.764221980233669 
965	 0.764345293651066 
966	 0.764496917960049 
967	 0.764518117048205 
968	 0.764593777462073 
969	 0.764728140687994 
970	 0.764896493055698 
971	 0.765147320834004 
972	 0.765338639602543 
973	 0.765394977550977 
974	 0.765329148871095 
975	 0.765290374603233 
976	 0.765482818535555 
977	 0.765642575872024 
978	 0.765545129933541 
979	 0.765577695708691 
980	 0.765633764758326 
981	 0.765636558967505 
982	 0.765601659307695 
983	 0.765835572601289 
984	 0.765844493934323 
985	 0.765865779077228 
986	 0.76618231411537 
987	 0.766330756309021 
988	 0.766415079205578 
989	 0.766423646126509 
990	 0.766350595863601 
991	 0.766304210832016 
992	 0.766304678909763 
993	 0.76645325217556 
994	 0.766740495059488 
995	 0.766742043927342 
996	 0.766693746463984 
997	 0.766684396126527 
998	 0.766765416392098 
999	 0.767066166357448 
1000	 0.767189980268602 
1001	 0.772289493324713 
1002	 0.772341913880544 
1003	 0.772427455497271 
1004	 0.77246029858523 
1005	 0.772452190463778 
1006	 0.772506407274473 
1007	 0.772580315895938 
1008	 0.772615186474386 
1009	 0.772684308004415 
1010	 0.772734742440262 
1011	 0.772715322415076 
1012	 0.772735269966116 
1013	 0.772790975663242 
1014	 0.772845357998763 
1015	 0.772920111679099 
1016	 0.77296620494454 
1017	 0.772959177628052 
1018	 0.772984672267753 
1019	 0.772958460541998 
1020	 0.772882206196997 
1021	 0.772900536015856 
1022	 0.772968602975881 
1023	 0.773039802738647 
1024	 0.77318306640076 
1025	 0.773274767947424 
1026	 0.773370026567229 
1027	 0.773430471651345 
1028	 0.773441872645226 
1029	 0.773465920860202 
1030	 0.773551585725522 
1031	 0.773608055674242 
1032	 0.773669826758461 
1033	 0.77376960451212 
1034	 0.773866833171102 
1035	 0.773953150502685 
1036	 0.774039624842591 
1037	 0.774154357432061 
1038	 0.774241911106011 
1039	 0.77428718942674 
1040	 0.774380473928836 
1041	 0.774507848370066 
1042	 0.774606248382534 
1043	 0.774719021244852 
1044	 0.774781612797249 
1045	 0.774870378728837 
1046	 0.77501993341051 
1047	 0.775100464235494 
1048	 0.775216429123668 
1049	 0.775339217698505 
1050	 0.775400794315352 
1051	 0.775572067875356 
1052	 0.775763851730921 
1053	 0.7759166515255 
1054	 0.77607916549346 
1055	 0.776225567981686 
1056	 0.77631189334954 
1057	 0.776452076525663 
1058	 0.776636474076596 
1059	 0.776766582906071 
1060	 0.776888875803812 
1061	 0.777035100049384 
1062	 0.777133260345061 
1063	 0.777223706773568 
1064	 0.777349674551945 
1065	 0.777471788985253 
1066	 0.777637013964551 
1067	 0.777829871116063 
1068	 0.777929238894928 
1069	 0.778005423004309 
1070	 0.778101418745002 
1071	 0.778173832531429 
1072	 0.778211776633014 
1073	 0.778322004627047 
1074	 0.778457852450561 
1075	 0.778552057692 
1076	 0.778645664409248 
1077	 0.778731831651842 
1078	 0.778759096745495 
1079	 0.778779291277307 
1080	 0.778859323508771 
1081	 0.778931584055932 
1082	 0.779050153227864 
1083	 0.779209923249032 
1084	 0.779337390945188 
1085	 0.779444118129759 
1086	 0.779549062032263 
1087	 0.779645660972317 
1088	 0.779759928574892 
1089	 0.779871887061569 
1090	 0.779988996378159 
1091	 0.780109746075802 
1092	 0.780194521345249 
1093	 0.780270445302604 
1094	 0.78033175770892 
1095	 0.780346743994498 
1096	 0.780366188318725 
1097	 0.780390634706801 
1098	 0.780385857034914 
1099	 0.780444216037466 
1100	 0.780517765309393 
1101	 0.780561931017555 
1102	 0.780668656853679 
1103	 0.780749423216524 
1104	 0.780833210531595 
1105	 0.780898462817629 
1106	 0.780959464138526 
1107	 0.780966170752006 
1108	 0.781001822809928 
1109	 0.781058909250236 
1110	 0.781071124206996 
1111	 0.781078654976392 
1112	 0.781081274371636 
1113	 0.78106163945558 
1114	 0.781087653190206 
1115	 0.78113879077116 
1116	 0.781167379290952 
1117	 0.781215575630954 
1118	 0.781264050182266 
1119	 0.781322983492077 
1120	 0.781346531800107 
1121	 0.781371676363543 
1122	 0.781375938364782 
1123	 0.781325356134555 
1124	 0.781298260712397 
1125	 0.781280536155824 
1126	 0.781209302847328 
1127	 0.781144171275819 
1128	 0.781064257290467 
1129	 0.780952437209701 
1130	 0.780846400081838 
1131	 0.780693204693475 
1132	 0.780526906633526 
1133	 0.780387743060657 
1134	 0.780226539019744 
1135	 0.780037754068158 
1136	 0.779846876945341 
1137	 0.779639459668878 
1138	 0.77939161852659 
1139	 0.779136202284845 
1140	 0.778875678819344 
1141	 0.778627884741647 
1142	 0.778320961663967 
1143	 0.778009744029439 
1144	 0.777716428616761 
1145	 0.777344628371627 
1146	 0.776981236178599 
1147	 0.776615415403775 
1148	 0.776189655453902 
1149	 0.77579326441616 
1150	 0.775385959798012 
1151	 0.774982687165725 
1152	 0.774563376610744 
1153	 0.774151569326695 
1154	 0.773703720345889 
1155	 0.773241195741643 
1156	 0.772744619180906 
1157	 0.772224562518786 
1158	 0.77170248070851 
1159	 0.771156952434519 
1160	 0.770590174767908 
1161	 0.770018665286132 
1162	 0.769420138868823 
1163	 0.768857442390728 
1164	 0.768268149170116 
1165	 0.767684950063332 
1166	 0.767198620504903 
1167	 0.766711272522309 
1168	 0.766249405105166 
1169	 0.765823003986734 
1170	 0.765435991134625 
1171	 0.765062682728861 
1172	 0.764722151420208 
1173	 0.76439197276612 
1174	 0.764083544750847 
1175	 0.763792290939096 
1176	 0.763545788171394 
1177	 0.763260874265776 
1178	 0.762976583989849 
1179	 0.762693578277793 
1180	 0.762386908972611 
1181	 0.762003701431406 
1182	 0.761606207257751 
1183	 0.761200088441066 
1184	 0.760735332354683 
1185	 0.760264536622284 
1186	 0.759790850872012 
1187	 0.759283314168714 
1188	 0.758820766368452 
1189	 0.758345077901347 
1190	 0.75792965559621 
1191	 0.757538676091961 
1192	 0.757204824796554 
1193	 0.756929550550141 
1194	 0.756676649543449 
1195	 0.756487774573687 
1196	 0.756278712106517 
1197	 0.756081180533531 
1198	 0.755889052930394 
1199	 0.755701222402555 
1200	 0.755536830559337 
1201	 0.755392556145274 
1202	 0.755217464621519 
1203	 0.755028300002955 
1204	 0.754869749720516 
1205	 0.754729634990173 
1206	 0.754590382510727 
1207	 0.754501821872553 
1208	 0.754431330250145 
1209	 0.754418544380477 
1210	 0.754417876135863 
1211	 0.754514947540618 
1212	 0.754657158182236 
1213	 0.754902221366252 
1214	 0.755239414680491 
1215	 0.755650952807312 
1216	 0.756125502894944 
1217	 0.756709349682206 
1218	 0.757400509535669 
1219	 0.758144402676563 
1220	 0.758983943867377 
1221	 0.759954670843909 
1222	 0.76091187081323 
1223	 0.761923764961965 
1224	 0.762933424731961 
1225	 0.763991394367279 
1226	 0.764974311741061 
1227	 0.765965545791984 
1228	 0.766899019911589 
1229	 0.767782931226199 
1230	 0.768651031709367 
1231	 0.769524530966782 
1232	 0.770310672611984 
1233	 0.771039907666118 
1234	 0.771720450114149 
1235	 0.77230889034014 
1236	 0.772901019946688 
1237	 0.773464700282228 
1238	 0.774012946894395 
1239	 0.774545995346215 
1240	 0.775059073474249 
1241	 0.775539620511126 
1242	 0.775958563072738 
1243	 0.776368979931863 
1244	 0.77674304684414 
1245	 0.777100813281986 
1246	 0.777431581427523 
1247	 0.777759029618648 
1248	 0.778055147269168 
1249	 0.778369230221874 
1250	 0.778702851614393 
1251	 0.778988462513443 
1252	 0.779264066343123 
1253	 0.779511963393422 
1254	 0.779721938792635 
1255	 0.779925668112907 
1256	 0.780121421647204 
1257	 0.780289784172673 
1258	 0.780426054001954 
1259	 0.780557209879181 
1260	 0.780668271046149 
1261	 0.78077412375909 
1262	 0.780859060651302 
1263	 0.780955301289558 
1264	 0.781054594772823 
1265	 0.781146713635943 
1266	 0.781252193755227 
1267	 0.781388393105002 
1268	 0.781473000969014 
1269	 0.781525509868534 
1270	 0.781608529232098 
1271	 0.781677114371893 
1272	 0.781756581478 
1273	 0.781871945734036 
1274	 0.781958088723447 
1275	 0.782000481030186 
1276	 0.782088723727223 
1277	 0.78220100052215 
1278	 0.782304385033486 
1279	 0.782447415700593 
1280	 0.782550212480114 
1281	 0.782604370252955 
1282	 0.782690758230489 
1283	 0.78277042815378 
1284	 0.782862627360506 
1285	 0.782968057093861 
1286	 0.783104101547451 
1287	 0.783213851209567 
1288	 0.783323141283108 
1289	 0.783418739766876 
1290	 0.783499057576019 
1291	 0.783594117956252 
1292	 0.783687788839293 
1293	 0.783778398327171 
1294	 0.783894127974728 
1295	 0.783962666298122 
1296	 0.784003811025253 
1297	 0.784042423795408 
1298	 0.784046570657028 
1299	 0.78407091930098 
1300	 0.784102414231259 
1301	 0.784127784488389 
1302	 0.784164824594122 
1303	 0.784180898221923 
1304	 0.784188385564634 
1305	 0.784183678622969 
1306	 0.78415153850402 
1307	 0.784131302088142 
1308	 0.784097329982751 
1309	 0.784084480703935 
1310	 0.784069865269786 
1311	 0.784066425761364 
1312	 0.784053352187203 
1313	 0.784047284709562 
1314	 0.784018060120253 
1315	 0.78397744664477 
1316	 0.783935718789637 
1317	 0.783888546747732 
1318	 0.783823034971913 
1319	 0.783751856140241 
1320	 0.783668364400291 
1321	 0.783557510520464 
1322	 0.783458588330842 
1323	 0.783365615701054 
1324	 0.783260458882483 
1325	 0.783159852728368 
1326	 0.783035887825548 
1327	 0.782880118273073 
1328	 0.782745257098473 
1329	 0.782618353307492 
1330	 0.782472363134307 
1331	 0.782328719986194 
1332	 0.782180244472146 
1333	 0.782008645246751 
1334	 0.781844656278971 
1335	 0.781668189431848 
1336	 0.781505749821914 
1337	 0.781294241540026 
1338	 0.781054520843748 
1339	 0.780811493321517 
1340	 0.780547928297741 
1341	 0.780275534818447 
1342	 0.779996653842599 
1343	 0.779698922501389 
1344	 0.779383036846821 
1345	 0.779056762482734 
1346	 0.778730254933218 
1347	 0.778368208059662 
1348	 0.777991637681407 
1349	 0.777580763676485 
1350	 0.777134143622909 
1351	 0.776670583897908 
1352	 0.776191397878685 
1353	 0.775673332910197 
1354	 0.775117566435551 
1355	 0.774554993474533 
1356	 0.773968022856123 
1357	 0.773358103991012 
1358	 0.772687225229154 
1359	 0.772071645558633 
1360	 0.771465148215528 
1361	 0.770854757203804 
1362	 0.770271601909183 
1363	 0.76976100343768 
1364	 0.769233348976101 
1365	 0.768712903420431 
1366	 0.768191993092933 
1367	 0.767697016691387 
1368	 0.767177157676705 
1369	 0.766670361222071 
1370	 0.76608921201504 
1371	 0.76549302906767 
1372	 0.764846834345668 
1373	 0.76413186219383 
1374	 0.763403382379493 
1375	 0.762687135703232 
1376	 0.761851435686583 
1377	 0.760929448265125 
1378	 0.759978442669064 
1379	 0.758910138202635 
1380	 0.757879685549643 
1381	 0.756849667224396 
1382	 0.755779296187898 
1383	 0.754673582278511 
1384	 0.753573079421805 
1385	 0.752468608216325 
1386	 0.751337516143028 
1387	 0.750225518105706 
1388	 0.749083802381003 
1389	 0.747909928444945 
1390	 0.746724788278016 
1391	 0.745543364728168 
1392	 0.744294173418744 
1393	 0.743110294021999 
1394	 0.741923942830633 
1395	 0.740792953542286 
1396	 0.739721083565572 
1397	 0.738632164945512 
1398	 0.737588626139622 
1399	 0.73646915559963 
1400	 0.735381557767837 
1401	 0.734126984680787 
1402	 0.732858626734606 
1403	 0.731338968340718 
1404	 0.72971136977361 
1405	 0.727851302582604 
1406	 0.725791220505464 
1407	 0.723560392849926 
1408	 0.720995872187917 
1409	 0.71857260409767 
1410	 0.715826752653159 
1411	 0.713559733813968 
1412	 0.711249905553896 
1413	 0.709588528440683 
1414	 0.708255047390033 
1415	 0.707426738655386 
1416	 0.707279155444686 
1417	 0.707208418995496 
1418	 0.707708757289106 
1419	 0.708025354509148 
1420	 0.708548124800417 
1421	 0.708862404026438 
1422	 0.709120209619877 
1423	 0.709230177169744 
1424	 0.709189071945896 
1425	 0.709049230101692 
1426	 0.708826496231552 
1427	 0.708526317349555 
1428	 0.708197874957109 
1429	 0.707860779772233 
1430	 0.707522467827514 
1431	 0.707150540592223 
1432	 0.706816034700382 
1433	 0.706487034030964 
1434	 0.706178179261896 
1435	 0.70588794202442 
1436	 0.70560207886928 
1437	 0.705321149649474 
1438	 0.705068570762112 
1439	 0.704826916641843 
1440	 0.704608684870606 
1441	 0.704424144822596 
1442	 0.704238257179665 
1443	 0.704057381448931 
1444	 0.703896553316772 
1445	 0.703745121806143 
1446	 0.703618016628931 
1447	 0.703523921950394 
1448	 0.7034215948534 
1449	 0.703337918882021 
1450	 0.703241575308254 
1451	 0.703139271835038 
1452	 0.703038160296194 
1453	 0.702929613165863 
1454	 0.702833883386535 
1455	 0.702737360581701 
1456	 0.702653083492827 
1457	 0.702588347579616 
1458	 0.702515693786001 
1459	 0.702460535311492 
1460	 0.702380738118589 
1461	 0.702289612356584 
1462	 0.702188276431095 
1463	 0.702046389218851 
1464	 0.701935014574986 
1465	 0.701831101076295 
1466	 0.701729726463392 
1467	 0.701659849925533 
1468	 0.701600513339001 
1469	 0.701565120715655 
1470	 0.701551375663813 
1471	 0.701545975346764 
1472	 0.701577699743296 
1473	 0.701565117691572 
1474	 0.701542765170538 
1475	 0.701519937376334 
1476	 0.701475555224011 
1477	 0.701448477798349 
1478	 0.701449794054023 
1479	 0.701395373049499 
1480	 0.70132540154868 
1481	 0.701232129838761 
1482	 0.701099616313001 
1483	 0.700965036190394 
1484	 0.700821837976181 
1485	 0.700659489355119 
1486	 0.700469117509692 
1487	 0.700287921751839 
1488	 0.700088891512503 
1489	 0.699909565118408 
1490	 0.699735910857078 
1491	 0.699566721486374 
1492	 0.699395180352157 
1493	 0.699251752600726 
1494	 0.699122800516018 
1495	 0.69900554261373 
1496	 0.698892385349844 
1497	 0.69882599240049 
1498	 0.698776706877866 
1499	 0.698760785471457 
1500	 0.698804227414467 
1501	 0.698844559715254 
1502	 0.698893895680977 
1503	 0.698967465861984 
1504	 0.69905799554175 
1505	 0.699170680457696 
1506	 0.699312640383574 
1507	 0.699462099835974 
1508	 0.699623059700464 
1509	 0.699806717897877 
1510	 0.700024022808 
1511	 0.700226050280904 
1512	 0.700428990283856 
1513	 0.700649797732272 
1514	 0.700860456489177 
1515	 0.701094755263431 
1516	 0.701366038659775 
1517	 0.701634712814739 
1518	 0.701910534862406 
1519	 0.702189994253177 
1520	 0.702483414544425 
1521	 0.702762630041674 
1522	 0.703040863234195 
1523	 0.703359274644248 
1524	 0.703656791493703 
1525	 0.703950702686273 
1526	 0.704269131150297 
1527	 0.704592714954509 
1528	 0.704924622806093 
1529	 0.705279376006227 
1530	 0.705623478550245 
1531	 0.705958910385053 
1532	 0.706319013629478 
1533	 0.706688741293027 
1534	 0.707071953725447 
1535	 0.707474329721798 
1536	 0.707871046382924 
1537	 0.708277628380705 
1538	 0.708678475070593 
1539	 0.709072465357158 
1540	 0.709485475803629 
1541	 0.709911094567034 
1542	 0.710326553720195 
1543	 0.710760517209067 
1544	 0.711159808892653 
1545	 0.711542224113458 
1546	 0.71191061283072 
1547	 0.71227150129022 
1548	 0.712596360290591 
1549	 0.712886902448208 
1550	 0.713186835922443 
1551	 0.71347758190977 
1552	 0.71373511590355 
1553	 0.713989994854562 
1554	 0.71421246206128 
1555	 0.714382601568689 
1556	 0.714565322187051 
1557	 0.714746258512198 
1558	 0.714909980379668 
1559	 0.715065285415397 
1560	 0.715198045599022 
1561	 0.715306901405324 
1562	 0.715417776680255 
1563	 0.715485605306279 
1564	 0.715611263782929 
1565	 0.715775684419978 
1566	 0.715916473104253 
1567	 0.716081771429963 
1568	 0.716228227371276 
1569	 0.716334007658876 
1570	 0.71647924320787 
1571	 0.716655154035491 
1572	 0.716811668665451 
1573	 0.716965077258859 
1574	 0.717132905244079 
1575	 0.717294060175653 
1576	 0.717469711706903 
1577	 0.717665311513169 
1578	 0.717864518554669 
1579	 0.718059206990945 
1580	 0.718276464203707 
1581	 0.718518521417336 
1582	 0.718757003550729 
1583	 0.719011686519645 
1584	 0.719257624258438 
1585	 0.719512484023911 
1586	 0.719744157749073 
1587	 0.719960068105991 
1588	 0.720176768169013 
1589	 0.720362801433498 
1590	 0.72058081679548 
1591	 0.720828206503456 
1592	 0.72105392923202 
1593	 0.721282989643057 
1594	 0.721508916296228 
1595	 0.721719468497157 
1596	 0.721933913011914 
1597	 0.722165955970594 
1598	 0.722373776999952 
1599	 0.7225479389334 
1600	 0.722749814649939 
1601	 0.72294790384007 
1602	 0.723163146285654 
1603	 0.723418105055468 
1604	 0.723646790362834 
1605	 0.723875057227904 
1606	 0.724086939754898 
1607	 0.724283607720157 
1608	 0.724472184121351 
1609	 0.724651702489604 
1610	 0.724819305571013 
1611	 0.724952143839741 
1612	 0.72511640274893 
1613	 0.725300781120172 
1614	 0.725464337907572 
1615	 0.72564883490474 
1616	 0.725805693038677 
1617	 0.725920295971478 
1618	 0.726048945408446 
1619	 0.726183090934112 
1620	 0.726302416784565 
1621	 0.726422398647974 
1622	 0.726526300130481 
1623	 0.726606037330869 
1624	 0.726691495984873 
1625	 0.726773993436587 
1626	 0.726847283593984 
1627	 0.726940772011266 
1628	 0.726983939177557 
1629	 0.726989346670952 
1630	 0.726991740309378 
1631	 0.726955152780337 
1632	 0.726929225817371 
1633	 0.726898830523704 
1634	 0.726873969825934 
1635	 0.726840333619093 
1636	 0.726820592589439 
1637	 0.726836653035357 
1638	 0.726815747096305 
1639	 0.726777646949413 
1640	 0.72674045693895 
1641	 0.726683813331922 
1642	 0.726621800699526 
1643	 0.726587450390146 
1644	 0.726503816855495 
1645	 0.726389165638311 
1646	 0.726248284491718 
1647	 0.72606498758247 
1648	 0.725871582098019 
1649	 0.725668715299919 
1650	 0.725431841393505 
1651	 0.725171373560167 
1652	 0.724886774993706 
1653	 0.724572637478894 
1654	 0.724225877768403 
1655	 0.723872070042603 
1656	 0.723453148829743 
1657	 0.722993372644584 
1658	 0.722471366486185 
1659	 0.721889850494988 
1660	 0.721262425882147 
1661	 0.72057093081365 
1662	 0.71985441217091 
1663	 0.719075121790497 
1664	 0.718279632742241 
1665	 0.717464752268379 
1666	 0.716601390051837 
1667	 0.715703708271796 
1668	 0.714786651665957 
1669	 0.713873776140595 
1670	 0.712846772944315 
1671	 0.711775688955642 
1672	 0.710598005192316 
1673	 0.709323983761329 
1674	 0.707934027735092 
1675	 0.70645345702778 
1676	 0.704903247278296 
1677	 0.703226732192536 
1678	 0.701512056784701 
1679	 0.699752124366438 
1680	 0.697869608499823 
1681	 0.695903068814171 
1682	 0.69381970230238 
1683	 0.691611198922845 
1684	 0.689386057593574 
1685	 0.687073425464006 
1686	 0.684714652342943 
1687	 0.682271664694943 
1688	 0.679805105158847 
1689	 0.67725510016819 
1690	 0.674736258444579 
1691	 0.67220796066417 
1692	 0.669753050762272 
1693	 0.667351840573499 
1694	 0.66489177632959 
1695	 0.66244308942287 
1696	 0.659936097855486 
1697	 0.657392785821055 
1698	 0.654751050951567 
1699	 0.652116816151652 
1700	 0.649392400731178 
1701	 0.646534267279428 
1702	 0.643694577459909 
1703	 0.640754788341194 
1704	 0.637880446323277 
1705	 0.634939800684998 
1706	 0.632104796710389 
1707	 0.629577586277589 
1708	 0.627134030258017 
1709	 0.624848322948219 
1710	 0.622745589975957 
1711	 0.620631487633964 
1712	 0.61870799652872 
1713	 0.616800778733615 
1714	 0.614910342680397 
1715	 0.613179612469482 
1716	 0.611381478964542 
1717	 0.609677412151158 
1718	 0.608046401017015 
1719	 0.606371827552758 
1720	 0.604859560845971 
1721	 0.603416674085896 
1722	 0.60201426072629 
1723	 0.600840636080052 
1724	 0.599777228216119 
1725	 0.598902818923926 
1726	 0.598350220441874 
1727	 0.598089149245382 
1728	 0.598155793930038 
1729	 0.598674074820941 
1730	 0.599642835346017 
1731	 0.600923687700391 
1732	 0.602694584622989 
1733	 0.604711252958692 
1734	 0.606999821213108 
1735	 0.609626583555278 
1736	 0.612248083075799 
1737	 0.614949646060163 
1738	 0.617590031855714 
1739	 0.619956661395786 
1740	 0.622262453980338 
1741	 0.624243007493063 
1742	 0.626027604516072 
1743	 0.627508460257012 
1744	 0.628688818862374 
1745	 0.629624465334395 
1746	 0.630235921165598 
1747	 0.630639115210004 
1748	 0.630771344015188 
1749	 0.630735561052886 
1750	 0.630431730917398 
1751	 0.63004373106192 
1752	 0.629447904664961 
1753	 0.628835179150579 
1754	 0.628086155198187 
1755	 0.627372590810421 
1756	 0.626568044462059 
1757	 0.625874498767144 
1758	 0.625207250470031 
1759	 0.6246632682723 
1760	 0.624279903297167 
1761	 0.624076421138828 
1762	 0.624100170461469 
1763	 0.624388814762188 
1764	 0.624857356332446 
1765	 0.625584188018454 
1766	 0.626604494186721 
1767	 0.627812837057279 
1768	 0.629278661639641 
1769	 0.630894056041926 
1770	 0.63248046743836 
1771	 0.63416879623381 
1772	 0.635839762237608 
1773	 0.637463719395926 
1774	 0.639138069220072 
1775	 0.64065388289929 
1776	 0.642114034650768 
1777	 0.643505649255028 
1778	 0.644675561378152 
1779	 0.645812323671792 
1780	 0.646852427400795 
1781	 0.647755040508016 
1782	 0.648681625164227 
1783	 0.649528882096009 
1784	 0.650275793763379 
1785	 0.650912762089263 
1786	 0.651521100494495 
1787	 0.652043783050048 
1788	 0.652541020849399 
1789	 0.653020905627893 
1790	 0.653442701241682 
1791	 0.65379758854149 
1792	 0.654153083048973 
1793	 0.654452953053038 
1794	 0.654765307899249 
1795	 0.655057141493487 
1796	 0.655325667419613 
1797	 0.655636086884312 
1798	 0.655933335963724 
1799	 0.656226234427814 
1800	 0.656501097006186 
1801	 0.648554766742586 
1802	 0.6490347107574 
1803	 0.649506363891968 
1804	 0.650035794218479 
1805	 0.650623711757315 
1806	 0.651169137787091 
1807	 0.651725558970907 
1808	 0.652246621476287 
1809	 0.652793973092803 
1810	 0.653258581557349 
1811	 0.653697868659847 
1812	 0.65407915937822 
1813	 0.654380019003335 
1814	 0.65468521683369 
1815	 0.654968504070104 
1816	 0.655231398883988 
1817	 0.655495174344334 
1818	 0.655765409649776 
1819	 0.656011962862868 
1820	 0.656209106393687 
1821	 0.656452332847284 
1822	 0.656688137606976 
1823	 0.656967361129963 
1824	 0.657279025779513 
1825	 0.657601567241122 
1826	 0.65792667403334 
1827	 0.658282559829945 
1828	 0.658596568374515 
1829	 0.658924001327858 
1830	 0.659202047272262 
1831	 0.659428749713511 
1832	 0.659678288030157 
1833	 0.65992445920781 
1834	 0.660147200424911 
1835	 0.660378174861452 
1836	 0.660618200019553 
1837	 0.660861560373137 
1838	 0.661076643488444 
1839	 0.661340271943562 
1840	 0.661649407299449 
1841	 0.661925732804385 
1842	 0.662190450502919 
1843	 0.662504215761785 
1844	 0.662785297399892 
1845	 0.663040710027228 
1846	 0.66331921522515 
1847	 0.663567621824277 
1848	 0.66378454215715 
1849	 0.663977681469857 
1850	 0.664153410063911 
1851	 0.664306988024962 
1852	 0.664433928356829 
1853	 0.664534367979135 
1854	 0.664634709057201 
1855	 0.66471449903699 
1856	 0.664735682248521 
1857	 0.664726818275635 
1858	 0.664696708684079 
1859	 0.664625803238874 
1860	 0.664521205176044 
1861	 0.66436958510206 
1862	 0.664196081365162 
1863	 0.663961579280708 
1864	 0.663652797007618 
1865	 0.663282257338577 
1866	 0.662805788158468 
1867	 0.662225112847378 
1868	 0.661580124401158 
1869	 0.660863561967143 
1870	 0.660077620146048 
1871	 0.659217059559025 
1872	 0.658328326385189 
1873	 0.657365155240201 
1874	 0.656367176205263 
1875	 0.65538842710541 
1876	 0.654313226936596 
1877	 0.653314614113188 
1878	 0.652202097837233 
1879	 0.65095637925911 
1880	 0.649742336624481 
1881	 0.64835897764247 
1882	 0.646826762763471 
1883	 0.645237068071988 
1884	 0.643510694691758 
1885	 0.64146843483238 
1886	 0.6393209088806 
1887	 0.636931665705228 
1888	 0.634354360173469 
1889	 0.631876833036575 
1890	 0.629149337374408 
1891	 0.626363479339942 
1892	 0.623528905841171 
1893	 0.620436821996471 
1894	 0.617062255459365 
1895	 0.613760729257208 
1896	 0.610276418637716 
1897	 0.60663696755172 
1898	 0.603292765065126 
1899	 0.599775644299675 
1900	 0.596287838865039 
1901	 0.592872312335827 
1902	 0.58913406856763 
1903	 0.585557501262664 
1904	 0.582021627182044 
1905	 0.578453203752585 
1906	 0.574925855028671 
1907	 0.571792825581276 
1908	 0.568577743961104 
1909	 0.565480950945418 
1910	 0.562575256671593 
1911	 0.55947926645703 
1912	 0.556564059581479 
1913	 0.553675905076138 
1914	 0.550756812288754 
1915	 0.5480679726985 
1916	 0.545587762619203 
1917	 0.543066005491495 
1918	 0.540687382266334 
1919	 0.538454645532431 
1920	 0.536073755738325 
1921	 0.533857248477695 
1922	 0.53167568900513 
1923	 0.529477338504205 
1924	 0.527551923541267 
1925	 0.525655893140555 
1926	 0.523846352902885 
1927	 0.522189398482035 
1928	 0.520547189802708 
1929	 0.51891229565567 
1930	 0.517433484202005 
1931	 0.516020979522968 
1932	 0.514663994005175 
1933	 0.513539020305262 
1934	 0.512458008724275 
1935	 0.511475388735942 
1936	 0.51063498703741 
1937	 0.509843769972198 
1938	 0.509102356133732 
1939	 0.508503085857616 
1940	 0.50800043284699 
1941	 0.507597905327901 
1942	 0.507329505687881 
1943	 0.507138000523316 
1944	 0.507005800452651 
1945	 0.506940685950261 
1946	 0.506946793140617 
1947	 0.507023466521393 
1948	 0.507163045398749 
1949	 0.507349979327651 
1950	 0.507587271890435 
1951	 0.507873717325063 
1952	 0.508213578216493 
1953	 0.508605370700042 
1954	 0.509049047065084 
1955	 0.509559822933034 
1956	 0.510065508983051 
1957	 0.510621894877807 
1958	 0.51124032908155 
1959	 0.511829075823128 
1960	 0.512487138637819 
1961	 0.513138295267167 
1962	 0.513788770322916 
1963	 0.514467959381978 
1964	 0.515173281458663 
1965	 0.515866977252749 
1966	 0.516586845607146 
1967	 0.517303762671102 
1968	 0.517953077217201 
1969	 0.51863444700479 
1970	 0.519269276560411 
1971	 0.519886926776751 
1972	 0.52059730002845 
1973	 0.521291889968413 
1974	 0.521979065352032 
1975	 0.522691192446375 
1976	 0.523391176987396 
1977	 0.524047979859423 
1978	 0.524756703418733 
1979	 0.525485277461394 
1980	 0.52623128886071 
1981	 0.527051321148205 
1982	 0.527845182536891 
1983	 0.528648725918189 
1984	 0.529482036669826 
1985	 0.530232751159307 
1986	 0.530978257143999 
1987	 0.531729095055731 
1988	 0.532461321384443 
1989	 0.533210752343362 
1990	 0.533963602902556 
1991	 0.534717717278616 
1992	 0.535485663141608 
1993	 0.536265108167072 
1994	 0.536972162376756 
1995	 0.537734890300815 
1996	 0.538467766853116 
1997	 0.539174810198673 
1998	 0.539927378153482 
1999	 0.540713064393376 
2000	 0.541462689914867 
2001	 0.542255282889138 
2002	 0.542979355600105 
2003	 0.543647047461545 
2004	 0.544329371891543 
2005	 0.544961338312135 
2006	 0.545619863357085 
2007	 0.54629468098197 
2008	 0.546975418794697 
2009	 0.547649416461052 
2010	 0.548317050316657 
2011	 0.548908153633564 
2012	 0.549503229876231 
2013	 0.550066037769808 
2014	 0.550590578040973 
2015	 0.551103786146463 
2016	 0.551636742830352 
2017	 0.552071756733986 
2018	 0.552465286130845 
2019	 0.552800215327864 
2020	 0.553062109605716 
2021	 0.553276670624991 
2022	 0.553458494215511 
2023	 0.553581959034953 
2024	 0.553632068010456 
2025	 0.553614139315641 
2026	 0.553523583396035 
2027	 0.553342193162991 
2028	 0.553126812051886 
2029	 0.552841829534408 
2030	 0.552523529254203 
2031	 0.552166348240679 
2032	 0.551748255104625 
2033	 0.551235991151807 
2034	 0.550745065501771 
2035	 0.550200162518421 
2036	 0.549665481356183 
2037	 0.549174588382353 
2038	 0.548672581893819 
2039	 0.548196199178 
2040	 0.547734871900494 
2041	 0.547290905065611 
2042	 0.546836599273808 
2043	 0.546459923940018 
2044	 0.546102361656434 
2045	 0.545815331011996 
2046	 0.545610807537349 
2047	 0.545428442308843 
2048	 0.545286744453539 
2049	 0.545184512810596 
2050	 0.545124585915782 
2051	 0.545085942538363 
2052	 0.54511317187407 
2053	 0.545223009294795 
2054	 0.545389063578084 
2055	 0.545614275747499 
2056	 0.545923057696359 
2057	 0.546272108484985 
2058	 0.546764611760895 
2059	 0.547375389380915 
2060	 0.548042548624103 
2061	 0.548867231828622 
2062	 0.549671784763435 
2063	 0.550490472836795 
2064	 0.551400012479806 
2065	 0.552384645672849 
2066	 0.553361670317753 
2067	 0.554498670731146 
2068	 0.555616170584759 
2069	 0.556714473553925 
2070	 0.557855567441217 
2071	 0.558934869289052 
2072	 0.559968301762581 
2073	 0.561009440559811 
2074	 0.56201935223309 
2075	 0.563053027826856 
2076	 0.564128201931044 
2077	 0.565119219317242 
2078	 0.566138437947095 
2079	 0.567043870178368 
2080	 0.567827636522859 
2081	 0.568609997273028 
2082	 0.569342714810116 
2083	 0.570018626798596 
2084	 0.5707172876543 
2085	 0.571366077206705 
2086	 0.571976208978802 
2087	 0.572566598483697 
2088	 0.573088262513088 
2089	 0.57355202243082 
2090	 0.573983135592901 
2091	 0.574353068647952 
2092	 0.574704080759728 
2093	 0.575025424861477 
2094	 0.57530257011853 
2095	 0.575549571666572 
2096	 0.575755024611632 
2097	 0.575915190184422 
2098	 0.576038956906474 
2099	 0.576122280439339 
2100	 0.576150850624645 
2101	 0.576151912692597 
2102	 0.576107458794862 
2103	 0.576031056021577 
2104	 0.575909963603079 
2105	 0.575781054481184 
2106	 0.575613618367619 
2107	 0.575442639138469 
2108	 0.575276065416032 
2109	 0.575059277290051 
2110	 0.574825774067649 
2111	 0.574537800147691 
2112	 0.574189192020565 
2113	 0.573829153315802 
2114	 0.573403476179654 
2115	 0.57299743094705 
2116	 0.572596059525132 
2117	 0.572186879606884 
2118	 0.571732376548461 
2119	 0.571258684234221 
2120	 0.570784130029441 
2121	 0.570243340604812 
2122	 0.569775728838064 
2123	 0.569357158994799 
2124	 0.568903290064736 
2125	 0.568463230092187 
2126	 0.568012280765036 
2127	 0.56756854689448 
2128	 0.56707893495242 
2129	 0.566568331074636 
2130	 0.566045908142374 
2131	 0.565501725772681 
2132	 0.564914815026915 
2133	 0.564362767394384 
2134	 0.563708265829825 
2135	 0.562900724018911 
2136	 0.562103239275841 
2137	 0.561181768389178 
2138	 0.560125941364468 
2139	 0.559073172794555 
2140	 0.557961452938084 
2141	 0.556808905609697 
2142	 0.555600201764727 
2143	 0.554382657344023 
2144	 0.553054873578174 
2145	 0.551858375323884 
2146	 0.550622535080542 
2147	 0.5495552445649 
2148	 0.548663808521867 
2149	 0.54774075504832 
2150	 0.546918559949472 
2151	 0.546081574318544 
2152	 0.545230391427361 
2153	 0.544422176646487 
2154	 0.543627107371253 
2155	 0.542792712750027 
2156	 0.541934966681934 
2157	 0.541067707440844 
2158	 0.540120251147412 
2159	 0.539158294759328 
2160	 0.538085946772106 
2161	 0.536898270807532 
2162	 0.535731587566778 
2163	 0.53444898562493 
2164	 0.533270461568042 
2165	 0.532115722177564 
2166	 0.530982814910106 
2167	 0.529902277904291 
2168	 0.528818829065669 
2169	 0.527699758379436 
2170	 0.52667844700536 
2171	 0.525644789164008 
2172	 0.524754209512162 
2173	 0.523989310600766 
2174	 0.523275032968022 
2175	 0.522694254670331 
2176	 0.522153221332975 
2177	 0.521641731327835 
2178	 0.521174329331388 
2179	 0.520784916391483 
2180	 0.52044262701543 
2181	 0.520166244952838 
2182	 0.519985817977506 
2183	 0.519805984670435 
2184	 0.519656735671181 
2185	 0.519563740811042 
2186	 0.519505005087572 
2187	 0.519517129950906 
2188	 0.519625802328682 
2189	 0.519715175286321 
2190	 0.519859578730844 
2191	 0.519994770328686 
2192	 0.520112995558724 
2193	 0.520271775673347 
2194	 0.520522067561359 
2195	 0.520686255537488 
2196	 0.520818893105376 
2197	 0.520952583447945 
2198	 0.521053249789704 
2199	 0.521110395091041 
2200	 0.521180069572059 
2201	 0.521275162938403 
2202	 0.521318806930494 
2203	 0.521310463236048 
2204	 0.521327432879697 
2205	 0.521348597385699 
2206	 0.521342015566908 
2207	 0.521317386879365 
2208	 0.521303780732636 
2209	 0.521295927731745 
2210	 0.52123960391897 
2211	 0.521183101768176 
2212	 0.521084029980209 
2213	 0.520908966209459 
2214	 0.520765471939113 
2215	 0.520589453020548 
2216	 0.520462309725738 
2217	 0.520377224803616 
2218	 0.520271692959507 
2219	 0.520212606703878 
2220	 0.520109752052934 
2221	 0.520009494278904 
2222	 0.519818129155806 
2223	 0.519637715599991 
2224	 0.519406254299563 
2225	 0.519124897881468 
2226	 0.518798022029226 
2227	 0.518394702325658 
2228	 0.517943020217332 
2229	 0.517408217939264 
2230	 0.516798542956233 
2231	 0.516104243782666 
2232	 0.515348314625913 
2233	 0.514455850945507 
2234	 0.513473285529686 
2235	 0.512367489828585 
2236	 0.511159284743646 
2237	 0.509790015330478 
2238	 0.508225241679779 
2239	 0.506645045356963 
2240	 0.504913842080745 
2241	 0.503189119200979 
2242	 0.501536474455394 
2243	 0.499647781649434 
2244	 0.497613326447449 
2245	 0.495514515810401 
2246	 0.493204919627465 
2247	 0.490910019779068 
2248	 0.488625863022216 
2249	 0.486206058338567 
2250	 0.483687496405341 
2251	 0.481152399360837 
2252	 0.478349935771661 
2253	 0.475632822822358 
2254	 0.472840409994321 
2255	 0.469961937482432 
2256	 0.46731085855122 
2257	 0.464601768133299 
2258	 0.461936575552203 
2259	 0.459373023217561 
2260	 0.456698434126212 
2261	 0.453964802723952 
2262	 0.451280457369881 
2263	 0.448500258038313 
2264	 0.445900731168823 
2265	 0.443396354560395 
2266	 0.440903222061784 
2267	 0.438554160204383 
2268	 0.436119364195855 
2269	 0.433589443140569 
2270	 0.431253554464032 
2271	 0.428900038968154 
2272	 0.426755097147399 
2273	 0.424820973070565 
2274	 0.422922899893597 
2275	 0.42118509715654 
2276	 0.419451039010762 
2277	 0.417799944370157 
2278	 0.416154918254232 
2279	 0.41455877508639 
2280	 0.412935575917302 
2281	 0.411366669122256 
2282	 0.409707593474432 
2283	 0.408026765632687 
2284	 0.406277630004793 
2285	 0.404362801947403 
2286	 0.402504677632692 
2287	 0.40056400163935 
2288	 0.398544101605042 
2289	 0.396653446543942 
2290	 0.394680937670608 
2291	 0.392669352961058 
2292	 0.390584282658486 
2293	 0.388185844932187 
2294	 0.385721865784781 
2295	 0.383056913877944 
2296	 0.380184491660349 
2297	 0.377339077432819 
2298	 0.374422196010704 
2299	 0.371374023897103 
2300	 0.36823230295141 
2301	 0.36508209666872 
2302	 0.361708724222453 
2303	 0.358683323468941 
2304	 0.355559437411832 
2305	 0.352990912882998 
2306	 0.35061659116754 
2307	 0.348831918030416 
2308	 0.347409997356748 
2309	 0.34676244108139 
2310	 0.34662506021816 
2311	 0.347322487688273 
2312	 0.349001778102679 
2313	 0.350960308177593 
2314	 0.353747498637072 
2315	 0.356666680576799 
2316	 0.360140095384896 
2317	 0.363469914827459 
2318	 0.367353961988594 
2319	 0.370551567509833 
2320	 0.373661496177157 
2321	 0.37622207106672 
2322	 0.378239781785938 
2323	 0.380022882196754 
2324	 0.381348044194363 
2325	 0.382483080060572 
2326	 0.383306293019548 
2327	 0.383931241177997 
2328	 0.38423499976301 
2329	 0.384452721795123 
2330	 0.384456009067411 
2331	 0.38435554635833 
2332	 0.384110493210898 
2333	 0.383660780545394 
2334	 0.382978032367042 
2335	 0.382012996635419 
2336	 0.380719691938705 
2337	 0.379194212928437 
2338	 0.377505844492139 
2339	 0.375498741863133 
2340	 0.373443716872432 
2341	 0.371184253575057 
2342	 0.368540478826416 
2343	 0.365930231156291 
2344	 0.363300312089661 
2345	 0.360730345211108 
2346	 0.358656765209537 
2347	 0.356938018655001 
2348	 0.355694102016481 
2349	 0.355104242668404 
2350	 0.355028417408949 
2351	 0.35563238022314 
2352	 0.356809661036746 
2353	 0.35865253845643 
2354	 0.360841452214315 
2355	 0.36335965697058 
2356	 0.365955590083593 
2357	 0.368428449907339 
2358	 0.370985647954989 
2359	 0.373173841104447 
2360	 0.375098546103193 
2361	 0.376690633221541 
2362	 0.377810823345752 
2363	 0.37865587299417 
2364	 0.379259258620863 
2365	 0.379728019616647 
2366	 0.380145349346478 
2367	 0.38044966561862 
2368	 0.380726574218429 
2369	 0.380994208956634 
2370	 0.381166866262236 
2371	 0.381353876612559 
2372	 0.381528693752586 
2373	 0.381666801630814 
2374	 0.381829255465269 
2375	 0.381928415544284 
2376	 0.382048235240805 
2377	 0.382166132673753 
2378	 0.38217001384314 
2379	 0.38224907568029 
2380	 0.382307130449238 
2381	 0.382318508030212 
2382	 0.38238274759017 
2383	 0.382492747749205 
2384	 0.382536070154816 
2385	 0.38256315796563 
2386	 0.382621516260431 
2387	 0.382690980695996 
2388	 0.38273249505748 
2389	 0.382751963339626 
2390	 0.382862754463741 
2391	 0.383002746369102 
2392	 0.383067588527261 
2393	 0.383175520016357 
2394	 0.383211135424916 
2395	 0.383124392310872 
2396	 0.38314527238869 
2397	 0.383219310377458 
2398	 0.383301620899914 
2399	 0.383414777888852 
2400	 0.383456066019628 
2401	 0.383516615915088 
2402	 0.383558293769118 
2403	 0.383508258875034 
2404	 0.383614438791391 
2405	 0.383709496018521 
2406	 0.383812956443863 
2407	 0.384073324613775 
2408	 0.384394066521175 
2409	 0.384622136472302 
2410	 0.384750579091746 
2411	 0.384912053014014 
2412	 0.384973041317402 
2413	 0.385067810257202 
2414	 0.385308668429008 
2415	 0.385517897007605 
2416	 0.385798073496858 
2417	 0.386018305036925 
2418	 0.386169340980972 
2419	 0.386253410221117 
2420	 0.386255381704431 
2421	 0.386337805551381 
2422	 0.386362045707105 
2423	 0.386376959460232 
2424	 0.386319577004842 
2425	 0.386098705016467 
2426	 0.386083557815179 
2427	 0.386180685086418 
2428	 0.38628600060899 
2429	 0.386612506888117 
2430	 0.386886151329101 
2431	 0.386907956479264 
2432	 0.386844511018196 
2433	 0.386744733410674 
2434	 0.386556241533036 
2435	 0.386481140832592 
2436	 0.386566584902883 
2437	 0.386738419315061 
2438	 0.386708756734533 
2439	 0.386263448341424 
2440	 0.38589067466824 
2441	 0.385533067977238 
2442	 0.385125525251726 
2443	 0.384960027634318 
2444	 0.384851663030693 
2445	 0.384507901357213 
2446	 0.384153801445401 
2447	 0.384177307025384 
2448	 0.384104955693739 
2449	 0.383811217608461 
2450	 0.383597446964694 
2451	 0.383143916242553 
2452	 0.382545255729727 
2453	 0.382060000015629 
2454	 0.381467017988866 
2455	 0.380787870649125 
2456	 0.380240185425838 
2457	 0.37967105263401 
2458	 0.379038324873123 
2459	 0.378627913180756 
2460	 0.378350981262789 
2461	 0.377939130050908 
2462	 0.377578395659217 
2463	 0.377356702434088 
2464	 0.376879954011294 
2465	 0.376433561617792 
2466	 0.376425235069906 
2467	 0.376158696541261 
2468	 0.375743817536818 
2469	 0.375747341707191 
2470	 0.375534631497772 
2471	 0.375488881081344 
2472	 0.375779744522796 
2473	 0.375748316758506 
2474	 0.37568638491798 
2475	 0.375643343569827 
2476	 0.375807698308467 
2477	 0.376029358997646 
2478	 0.376170633105047 
2479	 0.376363234207025 
2480	 0.375911181540685 
2481	 0.37575199290969 
2482	 0.375546379859875 
2483	 0.375577191751897 
2484	 0.375883885752108 
2485	 0.376124923694795 
2486	 0.376391653719944 
2487	 0.376510685539929 
2488	 0.376369220253862 
2489	 0.376309965861702 
2490	 0.376391916167576 
2491	 0.376588681527824 
2492	 0.377022755185976 
2493	 0.377498425950636 
2494	 0.377851535145555 
2495	 0.378093715162251 
2496	 0.378020985846389 
2497	 0.378026625131556 
2498	 0.378162588206131 
2499	 0.378068942146582 
2500	 0.378522078101131 
