Wavelength	ProbetaAcolman00007.asd
350	 0.576834318059061 
351	 0.59644289209359 
352	 0.596547026214449 
353	 0.581961899082473 
354	 0.599970635017383 
355	 0.595551164364728 
356	 0.577259561310089 
357	 0.567552483614637 
358	 0.588874489118431 
359	 0.591294536263873 
360	 0.580176466294169 
361	 0.586253475327948 
362	 0.5728665956104 
363	 0.564361491685181 
364	 0.571328672491699 
365	 0.580370667245853 
366	 0.573639827310417 
367	 0.564349305362172 
368	 0.566153572309494 
369	 0.568151574597532 
370	 0.575471272189402 
371	 0.577829629830033 
372	 0.561461078358046 
373	 0.559939606182931 
374	 0.562814607450492 
375	 0.561468586310042 
376	 0.555832749868699 
377	 0.555446076318444 
378	 0.558932212344179 
379	 0.56093713205235 
380	 0.552499835194494 
381	 0.553474643638736 
382	 0.55882566381637 
383	 0.551270848922397 
384	 0.545843707593106 
385	 0.544819106918168 
386	 0.545119144040179 
387	 0.538020877792618 
388	 0.537545572783579 
389	 0.540525384963739 
390	 0.541235397380056 
391	 0.541661030447043 
392	 0.543336221199699 
393	 0.541863860278212 
394	 0.531614912761442 
395	 0.534569406056488 
396	 0.538468234071134 
397	 0.537104845002707 
398	 0.540870953892514 
399	 0.541481227956841 
400	 0.539976653220021 
401	 0.539268674087445 
402	 0.538651596238133 
403	 0.538297992393268 
404	 0.538708612911723 
405	 0.540205201879472 
406	 0.537271165287068 
407	 0.535110179917289 
408	 0.53685784374011 
409	 0.539815793581291 
410	 0.542316222019079 
411	 0.543247441884751 
412	 0.542696365617499 
413	 0.544614576276698 
414	 0.546069376168691 
415	 0.545911929347975 
416	 0.544954285299073 
417	 0.545822513857952 
418	 0.547143022181919 
419	 0.547693870680532 
420	 0.548144039089037 
421	 0.5487250404063 
422	 0.548985356097473 
423	 0.548555295190284 
424	 0.549327516480649 
425	 0.550609564145115 
426	 0.551405902855567 
427	 0.550682633071446 
428	 0.550727807124729 
429	 0.550853821371981 
430	 0.550309558378557 
431	 0.550043515646374 
432	 0.550168779591497 
433	 0.550315098884545 
434	 0.549921173892212 
435	 0.549010633353431 
436	 0.549332576411284 
437	 0.550683454979177 
438	 0.549739350333883 
439	 0.548965532016477 
440	 0.548541469004697 
441	 0.548176060847005 
442	 0.548401767197565 
443	 0.548199998017725 
444	 0.547427361319938 
445	 0.546654667818978 
446	 0.546109916529077 
447	 0.545474063685158 
448	 0.544795297356073 
449	 0.545245670092261 
450	 0.544786604541192 
451	 0.543965890447476 
452	 0.543961488829333 
453	 0.543453570798872 
454	 0.542857657121824 
455	 0.542482270542743 
456	 0.542378110427403 
457	 0.541762871401673 
458	 0.540916956107036 
459	 0.540226380926983 
460	 0.539605919320559 
461	 0.539396919635945 
462	 0.539216098494344 
463	 0.538433298289923 
464	 0.537919559059524 
465	 0.537367840289155 
466	 0.536579190563686 
467	 0.535677729064274 
468	 0.535363130117914 
469	 0.535074206438638 
470	 0.534290547055055 
471	 0.534272505278341 
472	 0.533939499441365 
473	 0.533278618929598 
474	 0.533084639060644 
475	 0.532591889135657 
476	 0.532232109642277 
477	 0.532221533466777 
478	 0.531913666762907 
479	 0.531790156207303 
480	 0.531649014762987 
481	 0.531180639875684 
482	 0.531027544636897 
483	 0.53093231565632 
484	 0.530769858187895 
485	 0.530632478007839 
486	 0.530292002531124 
487	 0.530047358888634 
488	 0.530111119126471 
489	 0.530091986048205 
490	 0.5300825445296 
491	 0.530200079880217 
492	 0.530512072039983 
493	 0.530458283590601 
494	 0.530526867946792 
495	 0.530910588283482 
496	 0.531138250486031 
497	 0.531291219069243 
498	 0.531600376432562 
499	 0.532214582356379 
500	 0.532709695721455 
501	 0.533082304662436 
502	 0.533372764110835 
503	 0.5336542482177 
504	 0.534166195388638 
505	 0.53488599806824 
506	 0.535651259576666 
507	 0.536069598271317 
508	 0.536704909769958 
509	 0.53742675381577 
510	 0.537889873897625 
511	 0.538553178497316 
512	 0.539197642352424 
513	 0.539758849926056 
514	 0.540441179270037 
515	 0.541105512462837 
516	 0.541713073868355 
517	 0.54226486344934 
518	 0.542794528488306 
519	 0.543352082039154 
520	 0.543953995969618 
521	 0.544586496839542 
522	 0.545206851150909 
523	 0.545863355907236 
524	 0.54651404698632 
525	 0.546889512952491 
526	 0.547406640061742 
527	 0.547938675130316 
528	 0.548268838122328 
529	 0.548832340383348 
530	 0.549308291687585 
531	 0.549683068530306 
532	 0.550295981661405 
533	 0.550707792901488 
534	 0.551111180613602 
535	 0.551666147963709 
536	 0.552028945184403 
537	 0.552438673318627 
538	 0.552923029107877 
539	 0.553400134369794 
540	 0.553950404939102 
541	 0.554419419727324 
542	 0.55476759000458 
543	 0.555173784104303 
544	 0.555519247825403 
545	 0.555830056996099 
546	 0.556154289480149 
547	 0.55644636659581 
548	 0.556676899462179 
549	 0.556850331126076 
550	 0.556997940985946 
551	 0.557087173496579 
552	 0.557126443205063 
553	 0.557118521396773 
554	 0.55702286148498 
555	 0.55692504593755 
556	 0.55691093671242 
557	 0.557037043050707 
558	 0.557164059102948 
559	 0.55734758994674 
560	 0.557626270994732 
561	 0.55799051042761 
562	 0.558461605845511 
563	 0.559004967895518 
564	 0.559548498093085 
565	 0.559950873820629 
566	 0.560266857778733 
567	 0.560402785367073 
568	 0.560201841700387 
569	 0.560189091888838 
570	 0.560236874497697 
571	 0.560235639166377 
572	 0.560352868584608 
573	 0.560485799933288 
574	 0.560660804821744 
575	 0.560961127890931 
576	 0.561501809082773 
577	 0.56207958019851 
578	 0.562576368974505 
579	 0.562999168324227 
580	 0.563323599319804 
581	 0.563524863000124 
582	 0.563640210170125 
583	 0.563905653078773 
584	 0.564002436720056 
585	 0.563968016952189 
586	 0.564052244328544 
587	 0.564314148163192 
588	 0.564562124148972 
589	 0.564737079284881 
590	 0.565051500117978 
591	 0.565245121359322 
592	 0.565329335926208 
593	 0.565435761435963 
594	 0.565849788324383 
595	 0.566037183678924 
596	 0.565994990201597 
597	 0.566190347707642 
598	 0.566466207774641 
599	 0.566634203935044 
600	 0.566685679781203 
601	 0.567077900996372 
602	 0.567428505237038 
603	 0.567609094607531 
604	 0.56765860008476 
605	 0.567952600462402 
606	 0.568132168687363 
607	 0.568115013468741 
608	 0.568229725211285 
609	 0.568597662344404 
610	 0.568930795714456 
611	 0.569001842170573 
612	 0.569138312505678 
613	 0.569403125747772 
614	 0.5696747511632 
615	 0.569743175209404 
616	 0.569800082445784 
617	 0.57004934070636 
618	 0.57046259647499 
619	 0.570607708360648 
620	 0.57070279198379 
621	 0.57087950579217 
622	 0.571171101816486 
623	 0.571262209775625 
624	 0.571302411557724 
625	 0.571463210173598 
626	 0.571881869711674 
627	 0.572042131533204 
628	 0.572031053228462 
629	 0.572063200030287 
630	 0.572383546410546 
631	 0.572582690780227 
632	 0.572677681668844 
633	 0.572853804357656 
634	 0.57300047256521 
635	 0.573127844881958 
636	 0.57324395017968 
637	 0.573342717332663 
638	 0.573495778395328 
639	 0.573660128545392 
640	 0.573794588913651 
641	 0.573973632810079 
642	 0.574083786103034 
643	 0.574158592177355 
644	 0.574306284534854 
645	 0.574409062120191 
646	 0.574456567019093 
647	 0.574523757304958 
648	 0.574813828687551 
649	 0.574915640409187 
650	 0.574922666026535 
651	 0.575035929192335 
652	 0.575191445308298 
653	 0.575307668049831 
654	 0.575360127025151 
655	 0.575382587201624 
656	 0.575515626841639 
657	 0.575653839790642 
658	 0.57573237009083 
659	 0.575870652943102 
660	 0.57588298736749 
661	 0.575926787298105 
662	 0.576190555323079 
663	 0.576302116029112 
664	 0.576352851173361 
665	 0.576399754556542 
666	 0.576443207221751 
667	 0.576692018095332 
668	 0.576894660631401 
669	 0.576884895394849 
670	 0.5769405059051 
671	 0.577086577295683 
672	 0.577240735732479 
673	 0.577289990676044 
674	 0.577329383024204 
675	 0.577441083740075 
676	 0.577609369521802 
677	 0.577706413174079 
678	 0.577753160218743 
679	 0.577781160487132 
680	 0.577824085453199 
681	 0.577899815495427 
682	 0.578036313974464 
683	 0.578172436279346 
684	 0.578217269480751 
685	 0.578261752387716 
686	 0.578347694664709 
687	 0.578478710155816 
688	 0.578616083735578 
689	 0.578659250654693 
690	 0.578679629792683 
691	 0.578757825799582 
692	 0.578821105172796 
693	 0.578958018525691 
694	 0.579111643166326 
695	 0.579155139837251 
696	 0.579229820652561 
697	 0.579352396991254 
698	 0.579495928294843 
699	 0.5795945531008 
700	 0.579596333090636 
701	 0.579674975318902 
702	 0.579942676187156 
703	 0.580040002008994 
704	 0.580053520340588 
705	 0.580084245684597 
706	 0.580214006306852 
707	 0.580265693726221 
708	 0.58032923389503 
709	 0.580422847241243 
710	 0.580382395346835 
711	 0.580398982722511 
712	 0.580470831652063 
713	 0.580555490307409 
714	 0.580711314750332 
715	 0.58080615117312 
716	 0.580807834751146 
717	 0.580770645094238 
718	 0.58079092460343 
719	 0.580850793389375 
720	 0.580914138091952 
721	 0.580944107643939 
722	 0.581026320055735 
723	 0.581095579820109 
724	 0.581093668794579 
725	 0.581178667904652 
726	 0.581268697025827 
727	 0.581327738273112 
728	 0.581364825428658 
729	 0.581462248186702 
730	 0.581511923086512 
731	 0.58149318970751 
732	 0.581566583107687 
733	 0.581671308017785 
734	 0.581753971813781 
735	 0.581787894700382 
736	 0.58185565695042 
737	 0.581826263031302 
738	 0.581780011440669 
739	 0.581900681570249 
740	 0.581935992994888 
741	 0.581963080161782 
742	 0.582011573825687 
743	 0.581977992077396 
744	 0.582084731150078 
745	 0.582261248840237 
746	 0.582360336522007 
747	 0.582252924410524 
748	 0.582235303431532 
749	 0.582340223242064 
750	 0.582444425173773 
751	 0.582572671325434 
752	 0.582643965855734 
753	 0.582636817587082 
754	 0.582616536968364 
755	 0.582667467444877 
756	 0.582703125256912 
757	 0.582676687729058 
758	 0.582779841978739 
759	 0.582894233974819 
760	 0.583024735331064 
761	 0.583194849760124 
762	 0.583160263429251 
763	 0.58318290282625 
764	 0.583322449668687 
765	 0.583385444741857 
766	 0.583341249066405 
767	 0.583397003130283 
768	 0.583624715353335 
769	 0.583668866490912 
770	 0.583811530016309 
771	 0.583996872565893 
772	 0.584080428453008 
773	 0.584114005191336 
774	 0.584193484965975 
775	 0.584292186656694 
776	 0.584294678153609 
777	 0.584292210709962 
778	 0.584372214082571 
779	 0.584522016293609 
780	 0.584567930855244 
781	 0.584582012586613 
782	 0.584667638130454 
783	 0.584841497439546 
784	 0.584777350369846 
785	 0.584781944822734 
786	 0.584892890673339 
787	 0.584988202217737 
788	 0.585050209683933 
789	 0.585159471512417 
790	 0.585322841895438 
791	 0.585447979603918 
792	 0.585429370334245 
793	 0.585377229634285 
794	 0.585422475511904 
795	 0.585657085455802 
796	 0.585679085220178 
797	 0.585614217359014 
798	 0.585714726189612 
799	 0.585762366379898 
800	 0.585870148618253 
801	 0.586005308224248 
802	 0.586032097827111 
803	 0.586064843240669 
804	 0.586083115698479 
805	 0.586114630312101 
806	 0.58627988913513 
807	 0.586484512629407 
808	 0.58655497008283 
809	 0.586437904490563 
810	 0.586453929689289 
811	 0.586628921980301 
812	 0.586869321220664 
813	 0.587020987493078 
814	 0.586989844313004 
815	 0.587000545000522 
816	 0.587127891226569 
817	 0.587284829815728 
818	 0.587400904646396 
819	 0.587399633244989 
820	 0.587325748625728 
821	 0.587407082323551 
822	 0.587509755544535 
823	 0.587602514305953 
824	 0.587683553411853 
825	 0.587768681874491 
826	 0.587777601920683 
827	 0.587770916884144 
828	 0.587846183150237 
829	 0.587895360325259 
830	 0.587990555865142 
831	 0.588092476796017 
832	 0.588076211177862 
833	 0.588080889998501 
834	 0.588069108539124 
835	 0.58806108179404 
836	 0.588199761881576 
837	 0.588176063942808 
838	 0.588123719312503 
839	 0.588196849636806 
840	 0.588281904406772 
841	 0.588347570932399 
842	 0.588426771279176 
843	 0.588538113862145 
844	 0.58848478219969 
845	 0.588394885577692 
846	 0.588342626119118 
847	 0.588352316435578 
848	 0.588500944035448 
849	 0.588630343525874 
850	 0.588656816445207 
851	 0.588630077361827 
852	 0.588610638157435 
853	 0.58868694859156 
854	 0.588827497535102 
855	 0.588738257992387 
856	 0.588829032429784 
857	 0.588991793119578 
858	 0.589034667692958 
859	 0.589109923869071 
860	 0.589125596747751 
861	 0.589107870567499 
862	 0.589148767655593 
863	 0.589333705647643 
864	 0.58947277804685 
865	 0.589488916395354 
866	 0.589437039064679 
867	 0.589445919182572 
868	 0.589461672499098 
869	 0.589457344594321 
870	 0.589480548904197 
871	 0.589557083666758 
872	 0.589636843003155 
873	 0.589688880859975 
874	 0.589767942207746 
875	 0.589785493283851 
876	 0.589784326758625 
877	 0.589810334378566 
878	 0.58975490003606 
879	 0.5897701858529 
880	 0.589837887497425 
881	 0.589860875434845 
882	 0.589817630522518 
883	 0.58984878465316 
884	 0.589968275608677 
885	 0.590078362706817 
886	 0.590111604723846 
887	 0.590026548140325 
888	 0.589903915309789 
889	 0.589935109610226 
890	 0.589975192496543 
891	 0.590008212015489 
892	 0.590006687446583 
893	 0.589889730715243 
894	 0.589823463769413 
895	 0.589800363249699 
896	 0.589809810108886 
897	 0.589981519130819 
898	 0.589949906011841 
899	 0.589821450100484 
900	 0.589824086900329 
901	 0.589964311411778 
902	 0.590001425831554 
903	 0.589920896082913 
904	 0.589850049588395 
905	 0.589940963847262 
906	 0.590039883741307 
907	 0.590066934357074 
908	 0.590034098025778 
909	 0.5900741612667 
910	 0.590124306730732 
911	 0.590164343689185 
912	 0.590228446040879 
913	 0.59020940349968 
914	 0.59017766191741 
915	 0.590210826609248 
916	 0.590348053051093 
917	 0.590526406360636 
918	 0.590538156631508 
919	 0.590385605653304 
920	 0.59048570592103 
921	 0.590575738091393 
922	 0.590664332399799 
923	 0.590788066024664 
924	 0.590888215069882 
925	 0.590906533613958 
926	 0.590860545189133 
927	 0.590820050723458 
928	 0.590928408961095 
929	 0.590941295152165 
930	 0.590907165670766 
931	 0.59096168533968 
932	 0.591016387461808 
933	 0.591130956934436 
934	 0.591224069877294 
935	 0.591183873112676 
936	 0.591156173921579 
937	 0.591215135460038 
938	 0.591314649225303 
939	 0.591352303707509 
940	 0.591458742594164 
941	 0.591416230007804 
942	 0.591203561455294 
943	 0.59101503091752 
944	 0.591107675804731 
945	 0.59129457514406 
946	 0.591429937911385 
947	 0.591483379577871 
948	 0.5914421445651 
949	 0.591289169837636 
950	 0.59113828840597 
951	 0.591224924632496 
952	 0.591255923846621 
953	 0.591233158116702 
954	 0.591182159074178 
955	 0.591086874932135 
956	 0.591013897984581 
957	 0.591026022453175 
958	 0.591073160949242 
959	 0.590936249156919 
960	 0.590772621691469 
961	 0.590623936966822 
962	 0.590496244790523 
963	 0.590377558727428 
964	 0.590294402499247 
965	 0.590263339504513 
966	 0.590302287251895 
967	 0.590443509301474 
968	 0.590526443586354 
969	 0.590585078651459 
970	 0.590679525564265 
971	 0.590771472115782 
972	 0.590991551240357 
973	 0.591124402965643 
974	 0.591045215080365 
975	 0.59117630969247 
976	 0.591227265072632 
977	 0.591257520635608 
978	 0.591361694134207 
979	 0.591413579774344 
980	 0.591251332562144 
981	 0.591061512678744 
982	 0.591056435015784 
983	 0.591111289866503 
984	 0.5911446970662 
985	 0.591230641946517 
986	 0.591417530724244 
987	 0.5914766318546 
988	 0.591496352416315 
989	 0.591537079520957 
990	 0.591619707135133 
991	 0.591661531053864 
992	 0.591751165338627 
993	 0.591916663164322 
994	 0.592077100565286 
995	 0.591877997229763 
996	 0.591795624270422 
997	 0.591938996799058 
998	 0.592185505699153 
999	 0.592198447758994 
1000	 0.592158826518823 
1001	 0.606298236373081 
1002	 0.606406374668261 
1003	 0.606484128635198 
1004	 0.606506785887667 
1005	 0.606542811827504 
1006	 0.606527057675023 
1007	 0.606415499679201 
1008	 0.606394249268823 
1009	 0.606401451889038 
1010	 0.60640872917011 
1011	 0.606490925847075 
1012	 0.606452141258345 
1013	 0.606314296587727 
1014	 0.606262674339579 
1015	 0.60618736518098 
1016	 0.606109183077306 
1017	 0.606157052863264 
1018	 0.606213171233441 
1019	 0.606229626857027 
1020	 0.606290969306931 
1021	 0.606353092248031 
1022	 0.606437640699912 
1023	 0.60650090774733 
1024	 0.606550739431493 
1025	 0.606615889980121 
1026	 0.60665569672377 
1027	 0.606742738212256 
1028	 0.606851780593454 
1029	 0.607005528635593 
1030	 0.607178257411187 
1031	 0.607347220189601 
1032	 0.60750692453791 
1033	 0.607676560856981 
1034	 0.607776601928499 
1035	 0.60781873058346 
1036	 0.607924556767661 
1037	 0.608055623746701 
1038	 0.60813684455385 
1039	 0.608227461566348 
1040	 0.608321807609887 
1041	 0.608380850485009 
1042	 0.608418874094251 
1043	 0.60846816566986 
1044	 0.608519604983765 
1045	 0.60850528364066 
1046	 0.60848052073525 
1047	 0.608481775877104 
1048	 0.608515740695819 
1049	 0.608532177790365 
1050	 0.608512585431322 
1051	 0.608489088715443 
1052	 0.60844211840514 
1053	 0.608410720299519 
1054	 0.60838778495657 
1055	 0.608358413879739 
1056	 0.608344896804356 
1057	 0.60830063780832 
1058	 0.608229764269179 
1059	 0.608160019339014 
1060	 0.608104927006927 
1061	 0.608012227817072 
1062	 0.607971138693963 
1063	 0.607944448773903 
1064	 0.607870450225195 
1065	 0.607862424591998 
1066	 0.607865213461603 
1067	 0.607845031514077 
1068	 0.607853910421434 
1069	 0.607827159164045 
1070	 0.607810607307297 
1071	 0.607780382707788 
1072	 0.607770510252298 
1073	 0.607743867139239 
1074	 0.607765601496533 
1075	 0.607765631772072 
1076	 0.607730352824411 
1077	 0.607746933695657 
1078	 0.607750995063349 
1079	 0.607778478021928 
1080	 0.607819245142722 
1081	 0.607837101865743 
1082	 0.607845004672294 
1083	 0.607847816633303 
1084	 0.60789400419605 
1085	 0.60795531843849 
1086	 0.60799543917286 
1087	 0.608043473250923 
1088	 0.608077952008941 
1089	 0.608119505697155 
1090	 0.608177735729425 
1091	 0.608234983125788 
1092	 0.608320646196231 
1093	 0.608398578359307 
1094	 0.608429596328981 
1095	 0.608480854099029 
1096	 0.608533641914452 
1097	 0.608555670820388 
1098	 0.608594222418508 
1099	 0.60861023583416 
1100	 0.608639859522309 
1101	 0.608703665394878 
1102	 0.608734772075393 
1103	 0.608755826848985 
1104	 0.608777603013713 
1105	 0.608790021043403 
1106	 0.608801214386113 
1107	 0.608816163626661 
1108	 0.608824230216957 
1109	 0.608829781964622 
1110	 0.608798549547356 
1111	 0.608784207711671 
1112	 0.608783077599861 
1113	 0.608778212831906 
1114	 0.608809058585858 
1115	 0.60880202195489 
1116	 0.608788549899284 
1117	 0.608781800838371 
1118	 0.608764652662441 
1119	 0.608734154514319 
1120	 0.608714592120221 
1121	 0.608700955112629 
1122	 0.608671949735711 
1123	 0.608629163065001 
1124	 0.60854965712188 
1125	 0.60847048735316 
1126	 0.608380000529105 
1127	 0.608311291125695 
1128	 0.608229645688676 
1129	 0.608137582914565 
1130	 0.608073431109183 
1131	 0.60797762330447 
1132	 0.607901019761382 
1133	 0.607829383894188 
1134	 0.60771936507143 
1135	 0.60763091104669 
1136	 0.607550260876458 
1137	 0.607474389269828 
1138	 0.607427486404425 
1139	 0.607340269530671 
1140	 0.607250057615963 
1141	 0.607122034501575 
1142	 0.606978013741707 
1143	 0.60684754069945 
1144	 0.606706473091072 
1145	 0.606582520105509 
1146	 0.606467391166284 
1147	 0.606312814523624 
1148	 0.606195973427979 
1149	 0.606096726633669 
1150	 0.605993652661298 
1151	 0.605941393863618 
1152	 0.605870870315762 
1153	 0.605821326732576 
1154	 0.605737159884194 
1155	 0.605636923196146 
1156	 0.605528264544604 
1157	 0.605391084515426 
1158	 0.605271311203498 
1159	 0.605154311367666 
1160	 0.605042821090839 
1161	 0.604921172238214 
1162	 0.604801850286639 
1163	 0.604673497664418 
1164	 0.604535759571647 
1165	 0.60440133437792 
1166	 0.604275520791751 
1167	 0.604153564156097 
1168	 0.604048551070704 
1169	 0.603956185351028 
1170	 0.603878239233745 
1171	 0.603801639377148 
1172	 0.603749528915521 
1173	 0.603671545304223 
1174	 0.603578091786008 
1175	 0.603505364521157 
1176	 0.603428551628681 
1177	 0.603362492932867 
1178	 0.603311754000224 
1179	 0.603254008450291 
1180	 0.603227703669214 
1181	 0.603203088675115 
1182	 0.603160946956515 
1183	 0.603139274743185 
1184	 0.603127462852571 
1185	 0.603119560161957 
1186	 0.603126954615156 
1187	 0.603177393842036 
1188	 0.603198474059922 
1189	 0.603199493500365 
1190	 0.603218330451303 
1191	 0.603239333362055 
1192	 0.603271049726758 
1193	 0.603319890623638 
1194	 0.60336021352259 
1195	 0.603405060209527 
1196	 0.603446379483207 
1197	 0.603476391256424 
1198	 0.603512475723286 
1199	 0.603591637036961 
1200	 0.603661803764647 
1201	 0.603711843274 
1202	 0.603796136692932 
1203	 0.60385095808865 
1204	 0.603883142064427 
1205	 0.603944528267325 
1206	 0.604021385998707 
1207	 0.604103363132424 
1208	 0.604210263500131 
1209	 0.604283100138835 
1210	 0.604339140849007 
1211	 0.60441689537024 
1212	 0.604482006824632 
1213	 0.60455883374731 
1214	 0.604654135895425 
1215	 0.60475554224248 
1216	 0.604879394505926 
1217	 0.60497005370374 
1218	 0.605064524703676 
1219	 0.605139689883176 
1220	 0.605186710722176 
1221	 0.605229725959607 
1222	 0.6052986486409 
1223	 0.605397088059522 
1224	 0.605476581007436 
1225	 0.605557408015051 
1226	 0.605635218835466 
1227	 0.605722541350476 
1228	 0.605776799820876 
1229	 0.605807326212178 
1230	 0.605858682033981 
1231	 0.605885393891031 
1232	 0.605939742355233 
1233	 0.606033661165817 
1234	 0.606103085757341 
1235	 0.606174497838977 
1236	 0.606229759312792 
1237	 0.606275983946054 
1238	 0.60631384748563 
1239	 0.606332439053693 
1240	 0.606346540736487 
1241	 0.606387990899298 
1242	 0.606429773106193 
1243	 0.606478235972489 
1244	 0.606547817489767 
1245	 0.606604460202656 
1246	 0.606649907207257 
1247	 0.606712637065309 
1248	 0.606788675152535 
1249	 0.606855077135032 
1250	 0.606916425515808 
1251	 0.606993312806635 
1252	 0.607063006246866 
1253	 0.607159687111323 
1254	 0.607302215949708 
1255	 0.607404649649207 
1256	 0.6074999716534 
1257	 0.607596226987686 
1258	 0.607670487918335 
1259	 0.607749567144176 
1260	 0.607844051136955 
1261	 0.607925548564759 
1262	 0.607986139772141 
1263	 0.608070488129039 
1264	 0.608116764083579 
1265	 0.608157512909323 
1266	 0.608164601668104 
1267	 0.608148767946435 
1268	 0.608102773541921 
1269	 0.60802261575673 
1270	 0.607943160112922 
1271	 0.607826922116482 
1272	 0.607732467810891 
1273	 0.607642327265792 
1274	 0.607549232933636 
1275	 0.607461355396182 
1276	 0.607364210916771 
1277	 0.607277127372041 
1278	 0.607159521762038 
1279	 0.607017762320189 
1280	 0.606878493285845 
1281	 0.606710498045069 
1282	 0.606559547439091 
1283	 0.60640652543738 
1284	 0.606274264013329 
1285	 0.606154879515707 
1286	 0.606044136318949 
1287	 0.605947700427044 
1288	 0.605869126918134 
1289	 0.605800292726364 
1290	 0.605748584143113 
1291	 0.605687670502433 
1292	 0.605648407116047 
1293	 0.605577444472459 
1294	 0.605473473300408 
1295	 0.605404736014833 
1296	 0.605327304541714 
1297	 0.605280174554034 
1298	 0.605270420204936 
1299	 0.605249219432089 
1300	 0.605230127291041 
1301	 0.605223189729646 
1302	 0.605230137032807 
1303	 0.605228663019536 
1304	 0.605239824638936 
1305	 0.605239102519225 
1306	 0.605236285008768 
1307	 0.605215988920993 
1308	 0.605170638449997 
1309	 0.605139822955763 
1310	 0.605111508885862 
1311	 0.605066972778752 
1312	 0.605053876957009 
1313	 0.605071417293325 
1314	 0.605062738709832 
1315	 0.605062664600912 
1316	 0.605036731392449 
1317	 0.604989122547113 
1318	 0.604949709726959 
1319	 0.60489581602046 
1320	 0.604855006796345 
1321	 0.604824029869842 
1322	 0.604785588505822 
1323	 0.604745710040613 
1324	 0.604708473101713 
1325	 0.604685457765611 
1326	 0.604632836484203 
1327	 0.604577157420924 
1328	 0.604501650092662 
1329	 0.604395811494721 
1330	 0.604287965137443 
1331	 0.604187700173278 
1332	 0.604053688342871 
1333	 0.603884343114001 
1334	 0.603720459184906 
1335	 0.603555580822652 
1336	 0.603370023619363 
1337	 0.603197743399903 
1338	 0.603039344771693 
1339	 0.602870167609249 
1340	 0.602685377256907 
1341	 0.602523177634611 
1342	 0.602382220070784 
1343	 0.602211043729667 
1344	 0.602045580259333 
1345	 0.601854021760502 
1346	 0.601634771327732 
1347	 0.601417802569823 
1348	 0.601185686192977 
1349	 0.600959522617999 
1350	 0.600725055553365 
1351	 0.600497804502051 
1352	 0.600301990783026 
1353	 0.600056356747004 
1354	 0.599774909765522 
1355	 0.599510232400474 
1356	 0.599213619917639 
1357	 0.598935867196281 
1358	 0.598672532766187 
1359	 0.598421985181263 
1360	 0.598174708896453 
1361	 0.597937548135029 
1362	 0.597713031048244 
1363	 0.597503795759821 
1364	 0.597300461190405 
1365	 0.597098289329285 
1366	 0.596914379033552 
1367	 0.596756787303399 
1368	 0.596577825370833 
1369	 0.596404024852563 
1370	 0.59621563633606 
1371	 0.596005551460696 
1372	 0.595820239612445 
1373	 0.59565055960108 
1374	 0.595456143201714 
1375	 0.595275083831403 
1376	 0.595055741127077 
1377	 0.594818026015506 
1378	 0.594543485108981 
1379	 0.594220389698592 
1380	 0.593913862586946 
1381	 0.593575143247676 
1382	 0.593248546722152 
1383	 0.592956649668692 
1384	 0.592623608172419 
1385	 0.592287895890899 
1386	 0.591908100817305 
1387	 0.59150380250755 
1388	 0.591068197781402 
1389	 0.590600814606602 
1390	 0.590105067049018 
1391	 0.589594015607732 
1392	 0.589021604504866 
1393	 0.588474795714075 
1394	 0.587874015288402 
1395	 0.587232095601233 
1396	 0.586567354983067 
1397	 0.585863719771607 
1398	 0.585113418332818 
1399	 0.584322289941426 
1400	 0.583501149352862 
1401	 0.582642708437263 
1402	 0.581758451579214 
1403	 0.580780592783929 
1404	 0.579796948061003 
1405	 0.578670701201821 
1406	 0.577444340313426 
1407	 0.576119171827453 
1408	 0.574604105743624 
1409	 0.5731946001459 
1410	 0.571595132064846 
1411	 0.570308791272286 
1412	 0.569031178271413 
1413	 0.5681400416266 
1414	 0.567464286021959 
1415	 0.567085926518609 
1416	 0.567137730540356 
1417	 0.567203958189671 
1418	 0.567616187085807 
1419	 0.567876774104372 
1420	 0.568223316925286 
1421	 0.568433919056483 
1422	 0.568580704165022 
1423	 0.568633167851292 
1424	 0.568577552443508 
1425	 0.568458557802275 
1426	 0.568300647902455 
1427	 0.568069118174801 
1428	 0.567855519910628 
1429	 0.567647670320258 
1430	 0.567421400892836 
1431	 0.567182697731825 
1432	 0.566942186270695 
1433	 0.56668205653651 
1434	 0.566443958245307 
1435	 0.566204683898549 
1436	 0.565985898564457 
1437	 0.565780578070898 
1438	 0.565586323158254 
1439	 0.565418871538099 
1440	 0.565224534406744 
1441	 0.565024819895836 
1442	 0.56483128062392 
1443	 0.564620291249157 
1444	 0.564430298824818 
1445	 0.564261591608219 
1446	 0.564084788963734 
1447	 0.563905889722218 
1448	 0.563734736998417 
1449	 0.563551662046661 
1450	 0.563402488778912 
1451	 0.563279546592673 
1452	 0.563152382072893 
1453	 0.563052326883158 
1454	 0.562938058954105 
1455	 0.562805034132315 
1456	 0.562690731135632 
1457	 0.562592578067577 
1458	 0.562482976912506 
1459	 0.562375436394535 
1460	 0.562269125565604 
1461	 0.562154643362809 
1462	 0.562043574190613 
1463	 0.561932383068383 
1464	 0.561830935857777 
1465	 0.561733810026286 
1466	 0.561637128792566 
1467	 0.561550413841363 
1468	 0.561471326322329 
1469	 0.561397662533592 
1470	 0.561347978627256 
1471	 0.561310187048595 
1472	 0.561305177916599 
1473	 0.561265813593094 
1474	 0.561229784514402 
1475	 0.561171548920493 
1476	 0.561087689174411 
1477	 0.561017252997473 
1478	 0.560953583474576 
1479	 0.560861525790404 
1480	 0.560754561575884 
1481	 0.56065104220283 
1482	 0.560528650081469 
1483	 0.560414363873763 
1484	 0.560310136158225 
1485	 0.56019433797476 
1486	 0.560059817384304 
1487	 0.559945426369158 
1488	 0.559831577656415 
1489	 0.559736554235554 
1490	 0.559671134566188 
1491	 0.559577536414018 
1492	 0.559490593482715 
1493	 0.559383367672733 
1494	 0.559222441022424 
1495	 0.559124561045166 
1496	 0.559042242517011 
1497	 0.558979727465079 
1498	 0.558963674542095 
1499	 0.558940338649933 
1500	 0.55891107098178 
1501	 0.558911422250351 
1502	 0.558931637612441 
1503	 0.558963338723018 
1504	 0.559019944615897 
1505	 0.559079059026358 
1506	 0.55913031213984 
1507	 0.559221484598257 
1508	 0.559350217020603 
1509	 0.559470701416631 
1510	 0.55962460582814 
1511	 0.559761363565159 
1512	 0.559894342587354 
1513	 0.560010439687847 
1514	 0.560102856474926 
1515	 0.560213649401445 
1516	 0.560309014882606 
1517	 0.560421446758657 
1518	 0.560562718670127 
1519	 0.560699144563446 
1520	 0.56083621466649 
1521	 0.560976627496306 
1522	 0.561125323543452 
1523	 0.561283740080645 
1524	 0.561441498500293 
1525	 0.561608471403741 
1526	 0.561770608212211 
1527	 0.561929741382323 
1528	 0.562094749189604 
1529	 0.562261965025117 
1530	 0.562433152096653 
1531	 0.562603812359311 
1532	 0.562791179294618 
1533	 0.562985010075914 
1534	 0.563190594061062 
1535	 0.563415373303162 
1536	 0.563629514792416 
1537	 0.563851693730894 
1538	 0.56405868552033 
1539	 0.564269502287382 
1540	 0.564447249241278 
1541	 0.564600300445859 
1542	 0.564762075406883 
1543	 0.564899118292263 
1544	 0.565058018836031 
1545	 0.565229129205696 
1546	 0.565400045696896 
1547	 0.565590799422686 
1548	 0.565739864028011 
1549	 0.565893345605734 
1550	 0.56599614363033 
1551	 0.566053014367602 
1552	 0.566101210135897 
1553	 0.566108421031212 
1554	 0.566135868539591 
1555	 0.566145020462593 
1556	 0.566177396063088 
1557	 0.566218980873305 
1558	 0.566274274199179 
1559	 0.566356648846514 
1560	 0.566412908860088 
1561	 0.566473841857489 
1562	 0.566521026582097 
1563	 0.56652897139099 
1564	 0.566579496016052 
1565	 0.56665267742962 
1566	 0.56671660280922 
1567	 0.566792508842974 
1568	 0.566871212026551 
1569	 0.566942781365262 
1570	 0.567024492086052 
1571	 0.567124451519483 
1572	 0.567217156384007 
1573	 0.567310460155926 
1574	 0.567398261255965 
1575	 0.567477792638981 
1576	 0.567570758859467 
1577	 0.567647931766056 
1578	 0.567763164359513 
1579	 0.567926579084764 
1580	 0.56805541756311 
1581	 0.568206917676206 
1582	 0.568316977011912 
1583	 0.568385010813612 
1584	 0.568456317790145 
1585	 0.568484017178281 
1586	 0.568562290520117 
1587	 0.568650566735288 
1588	 0.568761939062958 
1589	 0.568924767746597 
1590	 0.56906871715869 
1591	 0.569228621897378 
1592	 0.569363524846085 
1593	 0.569479343365808 
1594	 0.569602913134967 
1595	 0.569705954955072 
1596	 0.569827884057618 
1597	 0.569972909973852 
1598	 0.570102496061734 
1599	 0.570231738482419 
1600	 0.570357634048704 
1601	 0.570480693070689 
1602	 0.570595588448558 
1603	 0.570718558992263 
1604	 0.570813316267527 
1605	 0.570860625256391 
1606	 0.570946869351165 
1607	 0.571035641953262 
1608	 0.571132385587632 
1609	 0.571264922245523 
1610	 0.571381192741398 
1611	 0.571476458430906 
1612	 0.571590787184058 
1613	 0.571715553846607 
1614	 0.571844228633955 
1615	 0.571992176850819 
1616	 0.572124805819958 
1617	 0.572253399885241 
1618	 0.572378716479024 
1619	 0.572508069726533 
1620	 0.572611843161559 
1621	 0.572709726337058 
1622	 0.572786346440311 
1623	 0.572817244252029 
1624	 0.57287186950675 
1625	 0.572927979327208 
1626	 0.572981801476981 
1627	 0.573042181109777 
1628	 0.57310138015228 
1629	 0.573148951649049 
1630	 0.573207544167296 
1631	 0.573282923193758 
1632	 0.573349087268158 
1633	 0.57341038217963 
1634	 0.573480885915784 
1635	 0.573556160459651 
1636	 0.573622065295615 
1637	 0.573716347512868 
1638	 0.573758547748691 
1639	 0.57374848525351 
1640	 0.573763621570938 
1641	 0.573757067632303 
1642	 0.57376010770966 
1643	 0.573789349072334 
1644	 0.573800555146924 
1645	 0.573780876299663 
1646	 0.573794504567822 
1647	 0.573821985082192 
1648	 0.573856027805371 
1649	 0.573919438053923 
1650	 0.573966469485345 
1651	 0.574034439069805 
1652	 0.574051802261919 
1653	 0.574049548819064 
1654	 0.574017580727854 
1655	 0.573938673676403 
1656	 0.57384898994475 
1657	 0.573725662125965 
1658	 0.573614011998065 
1659	 0.573476363340651 
1660	 0.573364824559804 
1661	 0.573281585347258 
1662	 0.573179029618497 
1663	 0.573091698792077 
1664	 0.572970277245428 
1665	 0.572838655612438 
1666	 0.572666997141318 
1667	 0.572482087964675 
1668	 0.572238328736713 
1669	 0.571948048815064 
1670	 0.571625162311403 
1671	 0.57123041712849 
1672	 0.570844508331793 
1673	 0.570433045015764 
1674	 0.570014444336738 
1675	 0.569593142970336 
1676	 0.569161892172513 
1677	 0.568723107546378 
1678	 0.568268717950387 
1679	 0.567788632325747 
1680	 0.567309891691111 
1681	 0.5668119935561 
1682	 0.566324938885527 
1683	 0.565818408382693 
1684	 0.565381324146579 
1685	 0.564967193450956 
1686	 0.564593728622571 
1687	 0.564277782714479 
1688	 0.563971140825079 
1689	 0.56367696173637 
1690	 0.563417257777555 
1691	 0.563190186170192 
1692	 0.563002644684539 
1693	 0.562851202011099 
1694	 0.562736192035111 
1695	 0.56266527062116 
1696	 0.56260315720211 
1697	 0.562573029348023 
1698	 0.562543542463731 
1699	 0.56256194720302 
1700	 0.562512184692702 
1701	 0.562450918664166 
1702	 0.562354128860112 
1703	 0.562191440834779 
1704	 0.562060825208284 
1705	 0.56193324477717 
1706	 0.561784465253731 
1707	 0.561639374215861 
1708	 0.561486724993241 
1709	 0.561356257759289 
1710	 0.561233179816871 
1711	 0.561070113171904 
1712	 0.560877408650375 
1713	 0.560621674888384 
1714	 0.560322944545193 
1715	 0.560029699732981 
1716	 0.559704453614851 
1717	 0.55937861907742 
1718	 0.559028924028612 
1719	 0.558632140811125 
1720	 0.558242809073388 
1721	 0.557798786508421 
1722	 0.557335578191068 
1723	 0.556925778730645 
1724	 0.556479046189352 
1725	 0.556076910892166 
1726	 0.555722703826849 
1727	 0.555373633848562 
1728	 0.555153651868127 
1729	 0.55497149642626 
1730	 0.554821988001344 
1731	 0.554770573951106 
1732	 0.554725329199531 
1733	 0.55468914938073 
1734	 0.554707058314237 
1735	 0.554716699145492 
1736	 0.554733548633898 
1737	 0.554779311803008 
1738	 0.554839177595377 
1739	 0.554903067975139 
1740	 0.554970822781132 
1741	 0.555026361124253 
1742	 0.555097396109063 
1743	 0.555129406966585 
1744	 0.555118510503732 
1745	 0.555139379393315 
1746	 0.555136722986186 
1747	 0.555193357430102 
1748	 0.555317768887859 
1749	 0.555388666941887 
1750	 0.555463910961056 
1751	 0.555538625802767 
1752	 0.555568876753162 
1753	 0.555637133386958 
1754	 0.555759884299524 
1755	 0.555822314501769 
1756	 0.555867704239373 
1757	 0.555869834313675 
1758	 0.555861429326316 
1759	 0.555864192286293 
1760	 0.555900414084098 
1761	 0.555967287533875 
1762	 0.556026018920225 
1763	 0.556094208969657 
1764	 0.556137201215348 
1765	 0.556156773702595 
1766	 0.556208086378549 
1767	 0.556291592943192 
1768	 0.556391013543428 
1769	 0.556520084593711 
1770	 0.556661747434189 
1771	 0.556779848406669 
1772	 0.556912210472719 
1773	 0.5570116273636 
1774	 0.557061317652075 
1775	 0.557109905619335 
1776	 0.557127524205814 
1777	 0.557123960335609 
1778	 0.55712949680188 
1779	 0.557138478330105 
1780	 0.557121800097169 
1781	 0.557112863072033 
1782	 0.557158229962506 
1783	 0.557178297639969 
1784	 0.557162347336405 
1785	 0.557155495241948 
1786	 0.557136150142913 
1787	 0.557099278505057 
1788	 0.557076010082177 
1789	 0.557051163410468 
1790	 0.557040918484475 
1791	 0.557034523638434 
1792	 0.557022520614494 
1793	 0.557025813185752 
1794	 0.557022909295717 
1795	 0.557029197365716 
1796	 0.557023746773468 
1797	 0.556973718466244 
1798	 0.556949463118835 
1799	 0.556906141616398 
1800	 0.556837225451743 
1801	 0.538212119945571 
1802	 0.538349344499445 
1803	 0.538457622315379 
1804	 0.538570355949386 
1805	 0.538725221835607 
1806	 0.538861638992134 
1807	 0.538992393151334 
1808	 0.53910315392862 
1809	 0.539235478651328 
1810	 0.539328353530302 
1811	 0.539384761709022 
1812	 0.539433245084282 
1813	 0.539471459634978 
1814	 0.539493844620267 
1815	 0.539482817976225 
1816	 0.539489785746356 
1817	 0.539503467839454 
1818	 0.539517660580134 
1819	 0.539536670117023 
1820	 0.539559577877089 
1821	 0.539591077154039 
1822	 0.539617708451329 
1823	 0.539674522272352 
1824	 0.539736602220689 
1825	 0.539794576371665 
1826	 0.539843803706096 
1827	 0.539887637124452 
1828	 0.539928384769183 
1829	 0.539976298557289 
1830	 0.539998000205476 
1831	 0.539990024965409 
1832	 0.54001558140933 
1833	 0.540046540154766 
1834	 0.540027838533626 
1835	 0.540037942435286 
1836	 0.540073629686663 
1837	 0.540072284919202 
1838	 0.540014825195174 
1839	 0.540033697096757 
1840	 0.540093255764344 
1841	 0.540109893419628 
1842	 0.540139587076655 
1843	 0.540180189899696 
1844	 0.540165144717528 
1845	 0.540133384155492 
1846	 0.5400985049162 
1847	 0.540073646977975 
1848	 0.540032623799361 
1849	 0.539967601049746 
1850	 0.539916963403865 
1851	 0.539871598439765 
1852	 0.539813096475795 
1853	 0.539767652552911 
1854	 0.539710351913884 
1855	 0.539604895769031 
1856	 0.539488763547717 
1857	 0.539317072026494 
1858	 0.539114173676118 
1859	 0.538907796654171 
1860	 0.538684444965114 
1861	 0.538429291426256 
1862	 0.538159496433106 
1863	 0.53787197170634 
1864	 0.537540581102792 
1865	 0.537208353060906 
1866	 0.536846774896971 
1867	 0.536415572183791 
1868	 0.535941759911086 
1869	 0.53541797885111 
1870	 0.534872166424527 
1871	 0.534273620701744 
1872	 0.53369406655676 
1873	 0.533099922706032 
1874	 0.532498504304499 
1875	 0.531905589785256 
1876	 0.531253195588078 
1877	 0.530608611598223 
1878	 0.529915336816904 
1879	 0.529179542416916 
1880	 0.528465104409899 
1881	 0.527673209192514 
1882	 0.526825911135425 
1883	 0.52595678825707 
1884	 0.525004857802183 
1885	 0.523934791486352 
1886	 0.522894563151911 
1887	 0.521715939776218 
1888	 0.520460037205882 
1889	 0.519273700144616 
1890	 0.517929748050958 
1891	 0.51656647830327 
1892	 0.515171927745764 
1893	 0.513636118789391 
1894	 0.511942111727439 
1895	 0.510281219740864 
1896	 0.508534420031427 
1897	 0.506689943528319 
1898	 0.504987077203127 
1899	 0.503155571821235 
1900	 0.501286821553498 
1901	 0.499452453012808 
1902	 0.497458209903626 
1903	 0.495551746546424 
1904	 0.493654766697399 
1905	 0.491741206510941 
1906	 0.489847295627712 
1907	 0.488154164195209 
1908	 0.486416315073503 
1909	 0.484735811552723 
1910	 0.483172003000158 
1911	 0.481509176635034 
1912	 0.479903654904668 
1913	 0.478329940968078 
1914	 0.476729186945813 
1915	 0.47522948026911 
1916	 0.473811888534417 
1917	 0.472382748238266 
1918	 0.471039362106689 
1919	 0.469778270657528 
1920	 0.468449336287578 
1921	 0.467248232020225 
1922	 0.466071127132688 
1923	 0.464887276220153 
1924	 0.463851749581959 
1925	 0.462811912524406 
1926	 0.461800933790797 
1927	 0.460841851480373 
1928	 0.459894395875261 
1929	 0.458950739063894 
1930	 0.458060019770159 
1931	 0.457196739184363 
1932	 0.456385090507333 
1933	 0.455668555781092 
1934	 0.454983501251359 
1935	 0.454373334939025 
1936	 0.453797253049004 
1937	 0.453256943613707 
1938	 0.452758763534901 
1939	 0.452318257583661 
1940	 0.45191526178648 
1941	 0.451556240411693 
1942	 0.451288474079339 
1943	 0.451021484860735 
1944	 0.450825515470338 
1945	 0.450737404734455 
1946	 0.450672242899324 
1947	 0.450681898770418 
1948	 0.450754671906919 
1949	 0.450845224651966 
1950	 0.45097017990485 
1951	 0.451155005240836 
1952	 0.451349677204596 
1953	 0.451572791394096 
1954	 0.451794956995221 
1955	 0.452053453732715 
1956	 0.452299455471833 
1957	 0.452567282022829 
1958	 0.45288374676476 
1959	 0.453210964313448 
1960	 0.453558788624108 
1961	 0.453904348281137 
1962	 0.454252490917111 
1963	 0.454607412092875 
1964	 0.45496485706052 
1965	 0.455338756096243 
1966	 0.455719114159582 
1967	 0.456118342744028 
1968	 0.456543177037024 
1969	 0.456974344294092 
1970	 0.457374284877635 
1971	 0.457801608516646 
1972	 0.458262545874028 
1973	 0.458696465468485 
1974	 0.459126670411658 
1975	 0.459592813862654 
1976	 0.460004682450817 
1977	 0.460354435954364 
1978	 0.460745893613474 
1979	 0.46112942911262 
1980	 0.461528680113036 
1981	 0.461982503679014 
1982	 0.462399809567059 
1983	 0.462834043369322 
1984	 0.463281497740704 
1985	 0.463693503693911 
1986	 0.464152771724004 
1987	 0.464615318098087 
1988	 0.46510231577998 
1989	 0.465575284558804 
1990	 0.466054289687359 
1991	 0.466527628066374 
1992	 0.467007337456131 
1993	 0.467471660775008 
1994	 0.467904669375558 
1995	 0.468322890569828 
1996	 0.46872404388927 
1997	 0.469125113642465 
1998	 0.469568684608102 
1999	 0.470048312654313 
2000	 0.470526324909574 
2001	 0.471039044337436 
2002	 0.471528224204218 
2003	 0.472020318312502 
2004	 0.47250231687422 
2005	 0.472975787291513 
2006	 0.473436758908742 
2007	 0.473903963716349 
2008	 0.474341309241899 
2009	 0.474751530543829 
2010	 0.475140381514868 
2011	 0.475479974256743 
2012	 0.475809219010661 
2013	 0.476155754473911 
2014	 0.476502017744696 
2015	 0.476845879544541 
2016	 0.477227027226219 
2017	 0.477543908899559 
2018	 0.477845907574703 
2019	 0.478097988532033 
2020	 0.478305073417236 
2021	 0.478478593673732 
2022	 0.478619401418267 
2023	 0.47873567166273 
2024	 0.478816959162157 
2025	 0.478883612916045 
2026	 0.478898472885592 
2027	 0.478869837286768 
2028	 0.478808936910292 
2029	 0.478693410987455 
2030	 0.478571510062798 
2031	 0.478413937269458 
2032	 0.478257093199526 
2033	 0.478082732388504 
2034	 0.477905279916375 
2035	 0.477701743542679 
2036	 0.477516021032285 
2037	 0.477354002301761 
2038	 0.477181153413664 
2039	 0.477049019767816 
2040	 0.476939919787813 
2041	 0.476872699733539 
2042	 0.476814639893383 
2043	 0.476824514574049 
2044	 0.476895510971414 
2045	 0.47698947775127 
2046	 0.477135352455915 
2047	 0.477302469169752 
2048	 0.477494068727518 
2049	 0.477722389068946 
2050	 0.477992328973251 
2051	 0.478274678932586 
2052	 0.478606837568261 
2053	 0.478962964528901 
2054	 0.479326934415404 
2055	 0.479720875284913 
2056	 0.480113818617052 
2057	 0.480491645236378 
2058	 0.480931340837995 
2059	 0.481399652601717 
2060	 0.481883705335505 
2061	 0.482455933916524 
2062	 0.482968364823943 
2063	 0.483437161939263 
2064	 0.483954487730079 
2065	 0.484496638693221 
2066	 0.48498660856095 
2067	 0.485556188075209 
2068	 0.486111258148396 
2069	 0.486663140994389 
2070	 0.487227077783725 
2071	 0.487747738043636 
2072	 0.488253989209928 
2073	 0.488750736970708 
2074	 0.489174012626988 
2075	 0.489678253513311 
2076	 0.490253060348051 
2077	 0.490760209564085 
2078	 0.491285564011213 
2079	 0.491773998465386 
2080	 0.492191322051668 
2081	 0.492625605207214 
2082	 0.493035773965449 
2083	 0.493499587265973 
2084	 0.493967351668318 
2085	 0.494375111631409 
2086	 0.4947263020009 
2087	 0.495043152453285 
2088	 0.495318596212382 
2089	 0.495489933002614 
2090	 0.495722379324591 
2091	 0.495967263006835 
2092	 0.496198340604336 
2093	 0.496430107193633 
2094	 0.496650632966838 
2095	 0.496855260660766 
2096	 0.49705676112066 
2097	 0.497249146295922 
2098	 0.497454798117669 
2099	 0.497620033425157 
2100	 0.497790343314148 
2101	 0.497952436351528 
2102	 0.498095996482536 
2103	 0.498245135694302 
2104	 0.49840226501442 
2105	 0.498536466499428 
2106	 0.49865269052684 
2107	 0.498780512565182 
2108	 0.498883378677172 
2109	 0.499027334375132 
2110	 0.499203508208259 
2111	 0.499362616380343 
2112	 0.499543768167013 
2113	 0.499708537049056 
2114	 0.499860158606939 
2115	 0.500010408487679 
2116	 0.500176055198056 
2117	 0.500296215890669 
2118	 0.500426283770709 
2119	 0.50054833122091 
2120	 0.500657877973178 
2121	 0.500778521030152 
2122	 0.500849649702815 
2123	 0.500877067364614 
2124	 0.500922653693047 
2125	 0.500947271294465 
2126	 0.500965081789402 
2127	 0.50101407538964 
2128	 0.501005799316529 
2129	 0.500959549950882 
2130	 0.500892225029073 
2131	 0.500807918556607 
2132	 0.500673975389055 
2133	 0.50050853884193 
2134	 0.500307851624161 
2135	 0.500036379643865 
2136	 0.499748888496825 
2137	 0.499388213169051 
2138	 0.498958320850232 
2139	 0.498523318075561 
2140	 0.498031214626204 
2141	 0.497535728247151 
2142	 0.497059765156085 
2143	 0.496489638950061 
2144	 0.495851360759841 
2145	 0.495204631054487 
2146	 0.494480594978916 
2147	 0.493778617993668 
2148	 0.493083789510046 
2149	 0.492358597636915 
2150	 0.491624515950447 
2151	 0.49085957817983 
2152	 0.490033486678108 
2153	 0.489255645928044 
2154	 0.488439965195766 
2155	 0.487588640391273 
2156	 0.486775853255801 
2157	 0.485983557529548 
2158	 0.485145941655901 
2159	 0.484323402186605 
2160	 0.483438640579852 
2161	 0.48249321543411 
2162	 0.481567250636858 
2163	 0.480578466365804 
2164	 0.479676165027201 
2165	 0.478805127966753 
2166	 0.47793928542826 
2167	 0.477127084990215 
2168	 0.476307435361378 
2169	 0.47545107006942 
2170	 0.47467383764732 
2171	 0.473907893847014 
2172	 0.473218143550998 
2173	 0.472609645256139 
2174	 0.472025937232496 
2175	 0.471495971143637 
2176	 0.471046764847627 
2177	 0.47061652954388 
2178	 0.470238793825432 
2179	 0.469879123166018 
2180	 0.469553681749173 
2181	 0.46926065163718 
2182	 0.469000934537836 
2183	 0.468754436648887 
2184	 0.468547454078479 
2185	 0.468345820436391 
2186	 0.468122344655076 
2187	 0.467997028415803 
2188	 0.467948567780316 
2189	 0.467889690593244 
2190	 0.467910098971154 
2191	 0.467896209435672 
2192	 0.46782802197915 
2193	 0.467824859222969 
2194	 0.467867309508168 
2195	 0.467910592236072 
2196	 0.467975071044416 
2197	 0.468083752368748 
2198	 0.46817078127635 
2199	 0.468234911187452 
2200	 0.468316709896356 
2201	 0.468408404778874 
2202	 0.468481496632564 
2203	 0.46856129924811 
2204	 0.4686147166316 
2205	 0.468654775924194 
2206	 0.468675781693384 
2207	 0.468649843846058 
2208	 0.468665475252713 
2209	 0.468688356801063 
2210	 0.468703840699229 
2211	 0.468744633509431 
2212	 0.468770305975174 
2213	 0.468749264019885 
2214	 0.46878245492554 
2215	 0.468831298761405 
2216	 0.468911306645179 
2217	 0.469052825415757 
2218	 0.469165260110319 
2219	 0.469305508728566 
2220	 0.469406665142725 
2221	 0.469487752265085 
2222	 0.469542961471034 
2223	 0.469566865776501 
2224	 0.469592936754638 
2225	 0.46963684772186 
2226	 0.469659347304856 
2227	 0.469684231162013 
2228	 0.4697467986722 
2229	 0.469724666804772 
2230	 0.469657168789066 
2231	 0.469571615020212 
2232	 0.469436243085181 
2233	 0.46929671352707 
2234	 0.469155824975144 
2235	 0.468971280409113 
2236	 0.468770624997487 
2237	 0.468503958035826 
2238	 0.468182235944361 
2239	 0.467832092783737 
2240	 0.467439037692427 
2241	 0.467001464568356 
2242	 0.46653856648773 
2243	 0.466016267193675 
2244	 0.465437572326095 
2245	 0.464814460136852 
2246	 0.464112620551871 
2247	 0.46340873098408 
2248	 0.46266503731692 
2249	 0.461900552477613 
2250	 0.461131635676762 
2251	 0.460349398328936 
2252	 0.459419141264298 
2253	 0.458504559092667 
2254	 0.457566033968425 
2255	 0.456600441679113 
2256	 0.455763080620372 
2257	 0.454929187430483 
2258	 0.454120248931548 
2259	 0.45332753822339 
2260	 0.452596010720461 
2261	 0.451890031328663 
2262	 0.451262769251243 
2263	 0.450695343929498 
2264	 0.450181123540259 
2265	 0.449730524622336 
2266	 0.449304820324495 
2267	 0.448964502647247 
2268	 0.448597401857793 
2269	 0.448255472326616 
2270	 0.447915164814777 
2271	 0.447546958735812 
2272	 0.447226860185384 
2273	 0.446976049369949 
2274	 0.446664316244137 
2275	 0.446369852702493 
2276	 0.446044086784286 
2277	 0.445637423377673 
2278	 0.445281851927986 
2279	 0.444918355625641 
2280	 0.444589457416506 
2281	 0.444311024539719 
2282	 0.444023121224033 
2283	 0.443740573537199 
2284	 0.443475748441768 
2285	 0.443236027592036 
2286	 0.4430279686737 
2287	 0.44284137638651 
2288	 0.442770993807036 
2289	 0.442774329566584 
2290	 0.442774802680731 
2291	 0.44285817040849 
2292	 0.442979639123251 
2293	 0.443038034243316 
2294	 0.443129553700666 
2295	 0.443280285959624 
2296	 0.443435823622392 
2297	 0.443608137274815 
2298	 0.443847714243428 
2299	 0.444049045253617 
2300	 0.444239258193896 
2301	 0.44440059342842 
2302	 0.44454039657688 
2303	 0.444717968045412 
2304	 0.444905754448936 
2305	 0.445051668602739 
2306	 0.445218590565895 
2307	 0.44535707187055 
2308	 0.445404596278453 
2309	 0.445510677005829 
2310	 0.445642107892395 
2311	 0.445802581657228 
2312	 0.445989169513808 
2313	 0.446178355017717 
2314	 0.446437286838217 
2315	 0.446622868298905 
2316	 0.446801285277259 
2317	 0.446895268383247 
2318	 0.4469233399249 
2319	 0.446922739834741 
2320	 0.446870684745229 
2321	 0.446745279125323 
2322	 0.44652671269935 
2323	 0.446351674001082 
2324	 0.446125097263385 
2325	 0.445940777950951 
2326	 0.445846555520603 
2327	 0.445653987581899 
2328	 0.445359631593655 
2329	 0.445121585988856 
2330	 0.444833687458564 
2331	 0.444632009368783 
2332	 0.44455929670674 
2333	 0.444459922138247 
2334	 0.4442883124218 
2335	 0.444132939834375 
2336	 0.443904098295497 
2337	 0.443660807949969 
2338	 0.443512171166975 
2339	 0.443300260886425 
2340	 0.443058915035709 
2341	 0.442846049737147 
2342	 0.442644270027399 
2343	 0.442525711884819 
2344	 0.442455576441373 
2345	 0.442402222346872 
2346	 0.442385054872366 
2347	 0.442423071807932 
2348	 0.442486010505658 
2349	 0.442618591039355 
2350	 0.442828810855872 
2351	 0.443003536373417 
2352	 0.44324313601258 
2353	 0.443539729672235 
2354	 0.443843854694901 
2355	 0.444222437654843 
2356	 0.444573842087021 
2357	 0.444886982974001 
2358	 0.445146168325106 
2359	 0.445387192773149 
2360	 0.445668447599766 
2361	 0.445910007280176 
2362	 0.446175376572927 
2363	 0.446459162451586 
2364	 0.446662767742727 
2365	 0.446942743258103 
2366	 0.447260689557244 
2367	 0.447476430604654 
2368	 0.447683001386503 
2369	 0.447815946693638 
2370	 0.44788408750756 
2371	 0.44799143631963 
2372	 0.448074149905834 
2373	 0.448140671783498 
2374	 0.44823078674855 
2375	 0.448237075743265 
2376	 0.448235902890583 
2377	 0.448236934489593 
2378	 0.44813803110798 
2379	 0.448129455992819 
2380	 0.44824131548546 
2381	 0.448317407931966 
2382	 0.448336240554473 
2383	 0.448410622834545 
2384	 0.448347481978073 
2385	 0.448048332746073 
2386	 0.447994392240702 
2387	 0.448051237947292 
2388	 0.447999075736164 
2389	 0.448021526795679 
2390	 0.447989289754929 
2391	 0.447842399022412 
2392	 0.44774490760622 
2393	 0.447706905765335 
2394	 0.447603985685959 
2395	 0.447385387858042 
2396	 0.447300274343892 
2397	 0.44729852410829 
2398	 0.447282804750452 
2399	 0.447319691136979 
2400	 0.44731568335275 
2401	 0.447337663720899 
2402	 0.447159731451135 
2403	 0.446966189242084 
2404	 0.446810671354049 
2405	 0.446675526034252 
2406	 0.446580004834949 
2407	 0.446547114359618 
2408	 0.446456534003831 
2409	 0.446233952726493 
2410	 0.445943639302959 
2411	 0.445717895662954 
2412	 0.445561110984186 
2413	 0.445397100390419 
2414	 0.445342665708786 
2415	 0.445217832458234 
2416	 0.445023777163116 
2417	 0.444841336369391 
2418	 0.44465439782493 
2419	 0.444509451524879 
2420	 0.444305287024028 
2421	 0.444175328853497 
2422	 0.443926850496635 
2423	 0.443706206287969 
2424	 0.443506836824696 
2425	 0.443014701391975 
2426	 0.442611738926363 
2427	 0.442299150643091 
2428	 0.44197243296957 
2429	 0.441776452542613 
2430	 0.441656864029615 
2431	 0.441289353460679 
2432	 0.440733648181674 
2433	 0.440316983729151 
2434	 0.439891841525673 
2435	 0.439467058906874 
2436	 0.439160027304155 
2437	 0.438707354558662 
2438	 0.438125967689832 
2439	 0.437653957386347 
2440	 0.437086866592316 
2441	 0.436532879055767 
2442	 0.436182558481111 
2443	 0.435697940074894 
2444	 0.435314115639534 
2445	 0.434927200211967 
2446	 0.434101803481829 
2447	 0.433182856077533 
2448	 0.43233836432602 
2449	 0.431699142185258 
2450	 0.431169915372054 
2451	 0.430726140767117 
2452	 0.430371232524539 
2453	 0.429908179002596 
2454	 0.429367290658792 
2455	 0.428769390879618 
2456	 0.428183261019591 
2457	 0.427373038326882 
2458	 0.426586204360785 
2459	 0.426209885996956 
2460	 0.42570870714592 
2461	 0.425144917418499 
2462	 0.424795107775748 
2463	 0.424179021233267 
2464	 0.42359478254774 
2465	 0.423074697371242 
2466	 0.422374632981097 
2467	 0.421956327062612 
2468	 0.421582393471045 
2469	 0.420996243598645 
2470	 0.420536250938041 
2471	 0.420090799663547 
2472	 0.419382336194883 
2473	 0.418819047662216 
2474	 0.418424003299977 
2475	 0.417696837835421 
2476	 0.416967422321892 
2477	 0.41660297178182 
2478	 0.416349212416307 
2479	 0.416167679562076 
2480	 0.415926114839679 
2481	 0.415556755075936 
2482	 0.415078017379569 
2483	 0.414358081099716 
2484	 0.413861562462555 
2485	 0.413144606722887 
2486	 0.412516467808825 
2487	 0.41243370166965 
2488	 0.412274786151877 
2489	 0.412045921512337 
2490	 0.411954448172773 
2491	 0.411692609686351 
2492	 0.411094026835548 
2493	 0.41092466625045 
2494	 0.410767862651757 
2495	 0.410041676700461 
2496	 0.409637788001155 
2497	 0.409390411716339 
2498	 0.409152056901418 
2499	 0.409010802551074 
2500	 0.408581909016127 
