Wavelength	ProbetaAcolman00011.asd
350	 0.540203466874509 
351	 0.548800588319773 
352	 0.549907475623528 
353	 0.522078180636048 
354	 0.498495913715252 
355	 0.480016146946725 
356	 0.474857940479851 
357	 0.481382976753461 
358	 0.469460344102394 
359	 0.458785727764638 
360	 0.458322356239473 
361	 0.465496031802547 
362	 0.447572929776791 
363	 0.429351847284809 
364	 0.42049202108571 
365	 0.401567917477608 
366	 0.395385878472871 
367	 0.395870585593559 
368	 0.394134324768545 
369	 0.396312036065693 
370	 0.393734648253682 
371	 0.388785904083363 
372	 0.388117220456297 
373	 0.376146005837912 
374	 0.367700389240858 
375	 0.366816677609386 
376	 0.359475888366499 
377	 0.351593673049673 
378	 0.351399925141872 
379	 0.358872936229099 
380	 0.345783737671995 
381	 0.339871717825974 
382	 0.343105675942293 
383	 0.341762915353199 
384	 0.338412156948515 
385	 0.333843242408077 
386	 0.328901644626894 
387	 0.324587122735655 
388	 0.326269377233296 
389	 0.328925151212324 
390	 0.327498233869312 
391	 0.3272123391581 
392	 0.324858103040905 
393	 0.322154778096691 
394	 0.322760935817384 
395	 0.317093817955925 
396	 0.314097897459142 
397	 0.317078475508132 
398	 0.317365939831277 
399	 0.319138642492915 
400	 0.320825641396596 
401	 0.320373153027591 
402	 0.319454164739156 
403	 0.318818411289093 
404	 0.318950964373528 
405	 0.320041372297512 
406	 0.321502370983343 
407	 0.321234744497927 
408	 0.318836621299341 
409	 0.316643319875867 
410	 0.318673490144797 
411	 0.32260854142183 
412	 0.324610652679108 
413	 0.32455989921375 
414	 0.323565589361174 
415	 0.323381973891878 
416	 0.325970505780412 
417	 0.328868717250313 
418	 0.330133627897389 
419	 0.329505209807198 
420	 0.330026404575065 
421	 0.329626943251784 
422	 0.329778670071983 
423	 0.332205895106303 
424	 0.331474761856769 
425	 0.33101249876459 
426	 0.331925114905617 
427	 0.332124871887827 
428	 0.332381799411804 
429	 0.332363952021979 
430	 0.331861647445014 
431	 0.331607358426008 
432	 0.330940158350557 
433	 0.330557700585696 
434	 0.331454806056031 
435	 0.330510016314393 
436	 0.329558458362935 
437	 0.329472371616158 
438	 0.32892710038064 
439	 0.328009736491424 
440	 0.327442246491816 
441	 0.327583074818302 
442	 0.326581364153574 
443	 0.325489924647757 
444	 0.324763999272523 
445	 0.324266797140636 
446	 0.323153810636704 
447	 0.322107879931253 
448	 0.321580026884164 
449	 0.321100378900864 
450	 0.320111396650632 
451	 0.319161677734156 
452	 0.318874201399174 
453	 0.317551625642727 
454	 0.316374554046618 
455	 0.3156502940085 
456	 0.314566902902811 
457	 0.313373834717084 
458	 0.312393672790964 
459	 0.311642389512256 
460	 0.310159413915155 
461	 0.308976242260707 
462	 0.307982368005638 
463	 0.306578483654655 
464	 0.305762862897245 
465	 0.304770593243579 
466	 0.303301179772139 
467	 0.302018769031103 
468	 0.300770959580494 
469	 0.299521283054886 
470	 0.298311697770423 
471	 0.297461229922777 
472	 0.296403743446024 
473	 0.295028076095206 
474	 0.293628720089834 
475	 0.292785674464173 
476	 0.291815197241529 
477	 0.290417360775739 
478	 0.289539541774728 
479	 0.288829237348511 
480	 0.288045742839252 
481	 0.287028739388196 
482	 0.285919042675867 
483	 0.285007381663923 
484	 0.284318657229229 
485	 0.283579988828492 
486	 0.282811621620027 
487	 0.282172793214147 
488	 0.281702583809208 
489	 0.281008660840453 
490	 0.280051594961939 
491	 0.279082411352615 
492	 0.278455335965262 
493	 0.277749978005052 
494	 0.277135110315397 
495	 0.276593990337363 
496	 0.275681710076378 
497	 0.27502270292128 
498	 0.274350680827167 
499	 0.27334862717402 
500	 0.272747170791088 
501	 0.272136541619752 
502	 0.271340277850238 
503	 0.270434465330299 
504	 0.269600387764331 
505	 0.268791369904515 
506	 0.267936544380722 
507	 0.267008548760021 
508	 0.26610771397112 
509	 0.265202221573304 
510	 0.264227960172813 
511	 0.263338369787979 
512	 0.262410051840411 
513	 0.261434181603372 
514	 0.260573260587884 
515	 0.259570429024086 
516	 0.258496674042192 
517	 0.257443386711216 
518	 0.256256802870159 
519	 0.255118264717523 
520	 0.254061015764859 
521	 0.253015414064854 
522	 0.251999298890629 
523	 0.250926808861742 
524	 0.249754159965488 
525	 0.248520012598068 
526	 0.247367851329534 
527	 0.246244089738072 
528	 0.245059115825406 
529	 0.243985986998908 
530	 0.242824657808863 
531	 0.241575366314248 
532	 0.240465582206855 
533	 0.239317102159849 
534	 0.238114506308506 
535	 0.236903877295839 
536	 0.235806802810578 
537	 0.234694391287272 
538	 0.233540038869532 
539	 0.232388766434414 
540	 0.231380173362325 
541	 0.230401130858925 
542	 0.229391487380242 
543	 0.228423981254507 
544	 0.227508561786486 
545	 0.226626616324196 
546	 0.225755098543821 
547	 0.224895060782745 
548	 0.224105784176026 
549	 0.223400715910026 
550	 0.2227520525057 
551	 0.222178722686811 
552	 0.221611538293801 
553	 0.221016771660145 
554	 0.22049241882622 
555	 0.21994362159189 
556	 0.219356432296647 
557	 0.218756869603315 
558	 0.218158050046344 
559	 0.217528681799074 
560	 0.216855806664333 
561	 0.216155528775263 
562	 0.215461837434049 
563	 0.214778545616642 
564	 0.214075835035142 
565	 0.213227031938703 
566	 0.21247094580662 
567	 0.21175546130523 
568	 0.21083277995155 
569	 0.210039517416345 
570	 0.209225978935164 
571	 0.208307371400352 
572	 0.207508393311058 
573	 0.206721223031919 
574	 0.205895732105275 
575	 0.205012044524619 
576	 0.204129594559863 
577	 0.203241828039259 
578	 0.202329822837479 
579	 0.201368218780846 
580	 0.200458096839855 
581	 0.199551573565522 
582	 0.198589460570819 
583	 0.197582823543418 
584	 0.196662691840618 
585	 0.195780707443278 
586	 0.194799181122914 
587	 0.193863377945266 
588	 0.192865959656825 
589	 0.191805270308123 
590	 0.190894096637959 
591	 0.190010765638741 
592	 0.189171004926276 
593	 0.188411077601683 
594	 0.187701574935792 
595	 0.186931122052951 
596	 0.186138860664387 
597	 0.185482109674211 
598	 0.184753656096316 
599	 0.183925439490554 
600	 0.183064168287406 
601	 0.182394073683848 
602	 0.181672458429485 
603	 0.180882302115496 
604	 0.180114212224936 
605	 0.179447691561565 
606	 0.17880264059582 
607	 0.178135247953736 
608	 0.177466058005123 
609	 0.176774536749487 
610	 0.176080155970958 
611	 0.17540091014843 
612	 0.174712602051682 
613	 0.174123150764095 
614	 0.173541394042444 
615	 0.172776850393823 
616	 0.172040126412402 
617	 0.171387035892972 
618	 0.170766504526937 
619	 0.169968564561824 
620	 0.169264960630746 
621	 0.16860685644127 
622	 0.167867088142429 
623	 0.167095976985692 
624	 0.166324548693845 
625	 0.165582702493867 
626	 0.164891403062208 
627	 0.164127957383393 
628	 0.16333321845562 
629	 0.162570020881523 
630	 0.161883301328706 
631	 0.161143605195804 
632	 0.160375789384772 
633	 0.159667026728424 
634	 0.158987454652017 
635	 0.158347818368683 
636	 0.157716590461714 
637	 0.157010509691124 
638	 0.156373574937988 
639	 0.155803041144678 
640	 0.155260768065046 
641	 0.154726692766097 
642	 0.154194997353202 
643	 0.153692888459336 
644	 0.153252258021725 
645	 0.152752665350335 
646	 0.152297794821351 
647	 0.151927667467109 
648	 0.151532904774715 
649	 0.151178041692256 
650	 0.150852672822514 
651	 0.150545302035337 
652	 0.150338124091019 
653	 0.150135847955383 
654	 0.149933852142589 
655	 0.149800923683155 
656	 0.149688930381189 
657	 0.149623054196222 
658	 0.149619170052335 
659	 0.149651734567165 
660	 0.149716231369064 
661	 0.149839583924063 
662	 0.150047281035356 
663	 0.150280572516853 
664	 0.150596754485427 
665	 0.151005604527634 
666	 0.151462799773641 
667	 0.151945041145251 
668	 0.152516657619508 
669	 0.153220549553607 
670	 0.154009625622794 
671	 0.154825470333159 
672	 0.155706875770794 
673	 0.156729622562683 
674	 0.157862903262063 
675	 0.159084875042024 
676	 0.160391152211486 
677	 0.161799523484753 
678	 0.163323628990252 
679	 0.164981887417455 
680	 0.166784304863434 
681	 0.168709024851435 
682	 0.170837049430584 
683	 0.17312241525276 
684	 0.175474906169284 
685	 0.178032475871157 
686	 0.180813242841729 
687	 0.183797496535421 
688	 0.186935688070653 
689	 0.190315425561038 
690	 0.193974706821793 
691	 0.197916355132037 
692	 0.202063137877836 
693	 0.206458622197842 
694	 0.211167517960419 
695	 0.216253426889309 
696	 0.221625841090355 
697	 0.227394701185759 
698	 0.233583850949804 
699	 0.240039989729209 
700	 0.247032079228162 
701	 0.254484415441707 
702	 0.262276200534877 
703	 0.270517659152036 
704	 0.279268400676809 
705	 0.288522759961416 
706	 0.298238970713425 
707	 0.308466874365267 
708	 0.319211956584351 
709	 0.330469183504103 
710	 0.342193565207403 
711	 0.354312734171898 
712	 0.366923169673393 
713	 0.380088603058149 
714	 0.393524626500673 
715	 0.407366226031847 
716	 0.421618175563121 
717	 0.436178950203452 
718	 0.451048024364697 
719	 0.466143791116356 
720	 0.481385730220352 
721	 0.496722510127363 
722	 0.512047709273167 
723	 0.52736626813713 
724	 0.542688230365528 
725	 0.557997592215847 
726	 0.573098324746295 
727	 0.587960635792815 
728	 0.602647089611425 
729	 0.617001391200031 
730	 0.630977342355403 
731	 0.644549491528374 
732	 0.657698201662644 
733	 0.670435067951102 
734	 0.682718378874451 
735	 0.69449673066348 
736	 0.705760284851178 
737	 0.716558903026455 
738	 0.726865632841034 
739	 0.73659198826894 
740	 0.745836675018932 
741	 0.754573110329037 
742	 0.762851212095877 
743	 0.770874150720465 
744	 0.778474367235224 
745	 0.78544802849292 
746	 0.79176793328312 
747	 0.797988210897441 
748	 0.803949635424662 
749	 0.809600084658119 
750	 0.814924079403178 
751	 0.819717139490641 
752	 0.824165156029702 
753	 0.828419868420826 
754	 0.832519552144739 
755	 0.836302375062022 
756	 0.839852859498145 
757	 0.843248765127235 
758	 0.846344432127553 
759	 0.849251901349792 
760	 0.852082298334306 
761	 0.854900506025599 
762	 0.857537761294611 
763	 0.859857460527467 
764	 0.861959036442961 
765	 0.864175754905701 
766	 0.866291341178424 
767	 0.868264970222134 
768	 0.870114455256772 
769	 0.871916132725214 
770	 0.873580232771444 
771	 0.875212117656168 
772	 0.876902203259131 
773	 0.878310483798077 
774	 0.879672304269253 
775	 0.88104129473482 
776	 0.882312403506405 
777	 0.883583537335979 
778	 0.884818029432968 
779	 0.885983356178207 
780	 0.887083333429489 
781	 0.888148701467164 
782	 0.88915691182923 
783	 0.890096657187308 
784	 0.891044298231116 
785	 0.891999591531341 
786	 0.892916572361475 
787	 0.893737316044868 
788	 0.894516871683051 
789	 0.895413874854742 
790	 0.896376843424638 
791	 0.89711711118484 
792	 0.897898125033495 
793	 0.898656189432519 
794	 0.899303238559033 
795	 0.899838262530443 
796	 0.900447459292656 
797	 0.901124321419231 
798	 0.901796993923698 
799	 0.902511114769985 
800	 0.903109723325899 
801	 0.903615276016297 
802	 0.904178082982187 
803	 0.904652196336997 
804	 0.905212640826433 
805	 0.90588582741462 
806	 0.906423756252596 
807	 0.906902403898855 
808	 0.907323726184041 
809	 0.907719200080137 
810	 0.908237463955915 
811	 0.908844891259166 
812	 0.909382129870845 
813	 0.909719501726777 
814	 0.910233290822001 
815	 0.910681012459081 
816	 0.911022520197427 
817	 0.911418282813697 
818	 0.911764955060204 
819	 0.912127874660911 
820	 0.912524032385544 
821	 0.912854932102646 
822	 0.913139483285743 
823	 0.913464432197716 
824	 0.913868984524641 
825	 0.914196884203288 
826	 0.914469040356792 
827	 0.914699837674279 
828	 0.914915076472512 
829	 0.915184575224011 
830	 0.915514885263215 
831	 0.915885269572588 
832	 0.916245777828147 
833	 0.916450546636536 
834	 0.916614707713813 
835	 0.916854876133176 
836	 0.917221444676157 
837	 0.917391138469777 
838	 0.917514954767448 
839	 0.917757498141252 
840	 0.917967542355548 
841	 0.918123576504059 
842	 0.918288497849856 
843	 0.91853011670334 
844	 0.918726438263014 
845	 0.9190426621038 
846	 0.919385414274126 
847	 0.919515750708816 
848	 0.919736080983622 
849	 0.919967331818809 
850	 0.920168972862019 
851	 0.920403497612812 
852	 0.920729084541415 
853	 0.920943972490693 
854	 0.921000418535329 
855	 0.921280616172556 
856	 0.921640241690018 
857	 0.921965975939572 
858	 0.922195390887145 
859	 0.922432962000282 
860	 0.922660057170639 
861	 0.922949604857842 
862	 0.923369742933847 
863	 0.923694519740976 
864	 0.924055734798481 
865	 0.924403218104019 
866	 0.924545044655374 
867	 0.924686378859857 
868	 0.924901836753097 
869	 0.925184592977997 
870	 0.925447767408205 
871	 0.925807167830865 
872	 0.926238270595879 
873	 0.926670965475895 
874	 0.927009226763684 
875	 0.92736545011329 
876	 0.927713154217899 
877	 0.928002897964092 
878	 0.928236715573941 
879	 0.928708188595801 
880	 0.929272375297972 
881	 0.929612713808654 
882	 0.929771013124386 
883	 0.930079380511284 
884	 0.930488728276928 
885	 0.930705329172017 
886	 0.931116259338971 
887	 0.931520384000567 
888	 0.931868995169764 
889	 0.932342593685724 
890	 0.932661887180005 
891	 0.933067998971177 
892	 0.933610190340162 
893	 0.933868052089656 
894	 0.934179014302348 
895	 0.934514364663185 
896	 0.934790619200102 
897	 0.935022395993575 
898	 0.935236377361376 
899	 0.935606715831897 
900	 0.936217132848256 
901	 0.936657875896636 
902	 0.937110468156562 
903	 0.937473571090758 
904	 0.93760648247999 
905	 0.937915851596752 
906	 0.93831406344111 
907	 0.938715108438295 
908	 0.939066991123248 
909	 0.939422947183406 
910	 0.93971877158763 
911	 0.939984593248667 
912	 0.940339509381352 
913	 0.940675100504466 
914	 0.941067170272613 
915	 0.941471195542469 
916	 0.941665768419101 
917	 0.941917940275554 
918	 0.942137412369944 
919	 0.942284207025862 
920	 0.942539044761212 
921	 0.942921741423269 
922	 0.943253549239237 
923	 0.943444793362236 
924	 0.94377218385969 
925	 0.944010223622082 
926	 0.944222046480686 
927	 0.944480742690785 
928	 0.94454968945959 
929	 0.944788545915744 
930	 0.945132285537331 
931	 0.945358381798394 
932	 0.945424032276887 
933	 0.945655217456141 
934	 0.945988588180238 
935	 0.946191049086331 
936	 0.946434866531165 
937	 0.946612621182391 
938	 0.946643159288675 
939	 0.946553140088478 
940	 0.946839866309853 
941	 0.947098078364761 
942	 0.947207893504441 
943	 0.947367024764033 
944	 0.947627186236075 
945	 0.947765272335569 
946	 0.947758627904477 
947	 0.947819874303339 
948	 0.947946640442099 
949	 0.948067154883519 
950	 0.948169865132794 
951	 0.948325366964682 
952	 0.948432011905575 
953	 0.948349712642099 
954	 0.948166928438739 
955	 0.94827514952668 
956	 0.948403846816105 
957	 0.94837248117559 
958	 0.948166175030432 
959	 0.948009922942308 
960	 0.947953962529221 
961	 0.94787067594265 
962	 0.947737108855923 
963	 0.947818134953587 
964	 0.948000250637304 
965	 0.94828792497335 
966	 0.948608813562142 
967	 0.948673572581406 
968	 0.948811948953277 
969	 0.949013869774473 
970	 0.949196573445306 
971	 0.949352969460205 
972	 0.949627053826536 
973	 0.949760830057667 
974	 0.949635619978395 
975	 0.949843244512152 
976	 0.950166404557253 
977	 0.950331630635974 
978	 0.950210842421473 
979	 0.950154498202126 
980	 0.95020764685289 
981	 0.950349391768434 
982	 0.95053303380917 
983	 0.950780020721177 
984	 0.950826664240582 
985	 0.950863788355731 
986	 0.951089682877665 
987	 0.951144231307128 
988	 0.951319347621501 
989	 0.951390259795134 
990	 0.951198937137202 
991	 0.951430189277067 
992	 0.951685875005374 
993	 0.951676400140741 
994	 0.951393459024857 
995	 0.951570246727402 
996	 0.951664775724162 
997	 0.951571302711883 
998	 0.951467951294561 
999	 0.951881769916197 
1000	 0.952156273337074 
1001	 0.945234661586592 
1002	 0.945224626610836 
1003	 0.945256862843274 
1004	 0.945316813474564 
1005	 0.945462423681695 
1006	 0.945560516056387 
1007	 0.94568580645647 
1008	 0.945730568511535 
1009	 0.945732498341174 
1010	 0.945760126067482 
1011	 0.945722338764605 
1012	 0.945717857941514 
1013	 0.945782926938996 
1014	 0.945823907635198 
1015	 0.945879585204006 
1016	 0.945830178879995 
1017	 0.945869451526871 
1018	 0.945887490375093 
1019	 0.945843137687114 
1020	 0.945870203656805 
1021	 0.94589620090508 
1022	 0.945894257002413 
1023	 0.945951841952556 
1024	 0.946090702992319 
1025	 0.946174979719888 
1026	 0.946249483471319 
1027	 0.94631976255408 
1028	 0.946363138443507 
1029	 0.946428542113758 
1030	 0.94652081309736 
1031	 0.946617141446353 
1032	 0.946695296487145 
1033	 0.946775504004879 
1034	 0.946913915821461 
1035	 0.947081976665019 
1036	 0.947182452584142 
1037	 0.947298723951784 
1038	 0.947377009087542 
1039	 0.947350341278969 
1040	 0.947404895774942 
1041	 0.947533009835563 
1042	 0.947587091425378 
1043	 0.94762098194592 
1044	 0.947647017439381 
1045	 0.947646519221934 
1046	 0.947665644637853 
1047	 0.947700899410107 
1048	 0.94773937770092 
1049	 0.94782841385188 
1050	 0.947962712861287 
1051	 0.948087603980841 
1052	 0.948158755145099 
1053	 0.948236580966633 
1054	 0.9482809770094 
1055	 0.948345615511593 
1056	 0.948414566499767 
1057	 0.948498936777654 
1058	 0.948630709657116 
1059	 0.9486342663879 
1060	 0.94865105702422 
1061	 0.948764637846736 
1062	 0.948807422905267 
1063	 0.948901282745754 
1064	 0.949007221154852 
1065	 0.949037231577746 
1066	 0.949086579412198 
1067	 0.949114883014779 
1068	 0.949117066213204 
1069	 0.949156721012003 
1070	 0.949197415949306 
1071	 0.949239734234581 
1072	 0.949270145847445 
1073	 0.949391385276912 
1074	 0.949497420469484 
1075	 0.949571410631242 
1076	 0.949661303604147 
1077	 0.949679015220262 
1078	 0.949670475600854 
1079	 0.949654059801345 
1080	 0.949683390839132 
1081	 0.949729182808962 
1082	 0.949780013962432 
1083	 0.949880784534442 
1084	 0.949949229942627 
1085	 0.949990013639993 
1086	 0.950039901934278 
1087	 0.950079213656608 
1088	 0.950115127782798 
1089	 0.950195696271273 
1090	 0.950288319050958 
1091	 0.950332426597424 
1092	 0.9503826713455 
1093	 0.95042029494851 
1094	 0.950411919106365 
1095	 0.95040888419325 
1096	 0.950423233626143 
1097	 0.950437121976686 
1098	 0.950429375334416 
1099	 0.95042951407447 
1100	 0.950434879248627 
1101	 0.950434406284599 
1102	 0.950463826829302 
1103	 0.950456959347812 
1104	 0.950453824877382 
1105	 0.950420285802703 
1106	 0.950388211706275 
1107	 0.950341243186584 
1108	 0.950333264226105 
1109	 0.950367873041345 
1110	 0.95035377794853 
1111	 0.950313785182967 
1112	 0.950300570060983 
1113	 0.950252785720141 
1114	 0.950185366070796 
1115	 0.950102744465683 
1116	 0.949985530975119 
1117	 0.949920651686826 
1118	 0.949889287384612 
1119	 0.949922315828835 
1120	 0.94989698175807 
1121	 0.94988975381344 
1122	 0.949854013853925 
1123	 0.949741736963559 
1124	 0.949654522777804 
1125	 0.949579697213013 
1126	 0.949410259111419 
1127	 0.949233953689996 
1128	 0.949058594249797 
1129	 0.948879860007264 
1130	 0.948748025961881 
1131	 0.948611304475183 
1132	 0.948454843424876 
1133	 0.948305872333522 
1134	 0.948136811980312 
1135	 0.947935951319569 
1136	 0.94771884785997 
1137	 0.94750340946145 
1138	 0.947239702250879 
1139	 0.946990231710187 
1140	 0.946756749125606 
1141	 0.946521707669753 
1142	 0.946237137292389 
1143	 0.945985247154305 
1144	 0.945736895952981 
1145	 0.945418132473646 
1146	 0.945110583264082 
1147	 0.94484281068839 
1148	 0.944546046778828 
1149	 0.94428006207789 
1150	 0.944046642395635 
1151	 0.943771470996791 
1152	 0.943488187048696 
1153	 0.94320878271178 
1154	 0.942899822848112 
1155	 0.942562376194996 
1156	 0.942217587011177 
1157	 0.941860038844113 
1158	 0.941490314180251 
1159	 0.941083250322018 
1160	 0.940709364248106 
1161	 0.94036057996483 
1162	 0.93999863177825 
1163	 0.939654248090479 
1164	 0.939289990304686 
1165	 0.938881477425185 
1166	 0.938498514819535 
1167	 0.938137814792848 
1168	 0.937787707994443 
1169	 0.937451854522376 
1170	 0.937137811614684 
1171	 0.93682042840172 
1172	 0.936500731811963 
1173	 0.936205731497426 
1174	 0.935917703709416 
1175	 0.935660203636322 
1176	 0.935440488976143 
1177	 0.935215925395115 
1178	 0.935000648230351 
1179	 0.934795686874321 
1180	 0.934635830466383 
1181	 0.934429498140167 
1182	 0.934214660446147 
1183	 0.93399840760529 
1184	 0.933731323407245 
1185	 0.933468964271405 
1186	 0.933232796616764 
1187	 0.933002568888955 
1188	 0.932808083311922 
1189	 0.932632075255204 
1190	 0.932483535527447 
1191	 0.932359122320148 
1192	 0.932262410415307 
1193	 0.932198685504985 
1194	 0.93214289289183 
1195	 0.932127818325625 
1196	 0.932098437365214 
1197	 0.932078349254054 
1198	 0.932040865572566 
1199	 0.931999627319217 
1200	 0.931995480833865 
1201	 0.932021842262519 
1202	 0.93201450265488 
1203	 0.931991395400023 
1204	 0.93198599560112 
1205	 0.931970613770658 
1206	 0.931917191123326 
1207	 0.931922790715062 
1208	 0.931967434363723 
1209	 0.931990690791768 
1210	 0.932004549684719 
1211	 0.932061396597266 
1212	 0.932116845893887 
1213	 0.93221323917683 
1214	 0.932348327316895 
1215	 0.932521524621588 
1216	 0.932707402791066 
1217	 0.932946087867464 
1218	 0.933255375171391 
1219	 0.933568340686156 
1220	 0.933887748091399 
1221	 0.934256236703221 
1222	 0.934622007213629 
1223	 0.934989060662987 
1224	 0.935360209548799 
1225	 0.935766016795005 
1226	 0.93611177857606 
1227	 0.936426361426183 
1228	 0.936753909304714 
1229	 0.937059133288403 
1230	 0.937369608615985 
1231	 0.937727588473239 
1232	 0.938001982450975 
1233	 0.938232265642773 
1234	 0.938443073125179 
1235	 0.938575179498332 
1236	 0.938741594162136 
1237	 0.938900472492763 
1238	 0.939079155951548 
1239	 0.939278407650298 
1240	 0.939476333948196 
1241	 0.939699381968791 
1242	 0.939855478592824 
1243	 0.939990998147484 
1244	 0.940089663072367 
1245	 0.940198988271707 
1246	 0.940277282590798 
1247	 0.940371674096972 
1248	 0.940468797464917 
1249	 0.940575142067833 
1250	 0.940678365060029 
1251	 0.94078529096636 
1252	 0.940924769159964 
1253	 0.941022298080589 
1254	 0.941105611355881 
1255	 0.941172395868108 
1256	 0.941224209719638 
1257	 0.941250551609088 
1258	 0.941240974131752 
1259	 0.941240286163051 
1260	 0.941208874145563 
1261	 0.941197749198509 
1262	 0.941193683393192 
1263	 0.941212165973379 
1264	 0.941210292426189 
1265	 0.94120416081841 
1266	 0.94120854286507 
1267	 0.941222869410993 
1268	 0.941204222150326 
1269	 0.941180630462396 
1270	 0.941154731666563 
1271	 0.941107973678066 
1272	 0.941052912820182 
1273	 0.941000730702972 
1274	 0.940940193308607 
1275	 0.940827693486057 
1276	 0.940773862868838 
1277	 0.940754156167628 
1278	 0.940733242446989 
1279	 0.940742850774859 
1280	 0.940743357083427 
1281	 0.940732877639888 
1282	 0.940740865113641 
1283	 0.94076571658688 
1284	 0.940785697346171 
1285	 0.94080915759019 
1286	 0.940842971330629 
1287	 0.940870573638265 
1288	 0.940901030950937 
1289	 0.940911208119141 
1290	 0.94091560108102 
1291	 0.940916817089742 
1292	 0.940893336622207 
1293	 0.940894208018673 
1294	 0.940919958024473 
1295	 0.940913412447786 
1296	 0.940890862235361 
1297	 0.940881793433374 
1298	 0.940864482141083 
1299	 0.940846566965168 
1300	 0.940849357944747 
1301	 0.940829403883753 
1302	 0.940783900281211 
1303	 0.940747746103781 
1304	 0.940726424233347 
1305	 0.940675798137088 
1306	 0.940623781330261 
1307	 0.940545491183147 
1308	 0.940438083876564 
1309	 0.940311883493426 
1310	 0.94018827867137 
1311	 0.940040051147933 
1312	 0.939930848231272 
1313	 0.939822084303837 
1314	 0.939745259071072 
1315	 0.9397210575355 
1316	 0.939635570368913 
1317	 0.939547112545193 
1318	 0.939441265388817 
1319	 0.939300691303523 
1320	 0.939162655832046 
1321	 0.939029823928525 
1322	 0.938877680221209 
1323	 0.938704320428717 
1324	 0.938527709671501 
1325	 0.938338974755104 
1326	 0.938153026060129 
1327	 0.937957308699734 
1328	 0.937766736857153 
1329	 0.937604638191891 
1330	 0.937398912976098 
1331	 0.937163736387816 
1332	 0.936933488706573 
1333	 0.936678692382063 
1334	 0.936423585302157 
1335	 0.936171117824324 
1336	 0.935934493938418 
1337	 0.935667236423535 
1338	 0.935387220106612 
1339	 0.935097120041537 
1340	 0.934793717164073 
1341	 0.934483087450824 
1342	 0.934161513229264 
1343	 0.933832085677876 
1344	 0.93349552415824 
1345	 0.93314810468145 
1346	 0.932800265968067 
1347	 0.932424487130718 
1348	 0.932047035293286 
1349	 0.931623904064029 
1350	 0.931155663509672 
1351	 0.930687992953178 
1352	 0.930182694309692 
1353	 0.9296886956171 
1354	 0.929186443261183 
1355	 0.928696765427293 
1356	 0.928214185328087 
1357	 0.927724579728351 
1358	 0.927214225368437 
1359	 0.92674141465874 
1360	 0.926288109991196 
1361	 0.925834718181494 
1362	 0.925381614965998 
1363	 0.924972107951678 
1364	 0.924533966777512 
1365	 0.924075923842354 
1366	 0.923637269061765 
1367	 0.923213464182014 
1368	 0.922776550317626 
1369	 0.922359180707327 
1370	 0.921877931291678 
1371	 0.921380174231594 
1372	 0.920849130256087 
1373	 0.920276194955151 
1374	 0.919674273638141 
1375	 0.919056417754748 
1376	 0.918383923100966 
1377	 0.917638762382223 
1378	 0.916902080408927 
1379	 0.916126499633237 
1380	 0.91535608957748 
1381	 0.914595089775616 
1382	 0.913788977556749 
1383	 0.912962643806718 
1384	 0.912106800106362 
1385	 0.911250466948263 
1386	 0.910322442941478 
1387	 0.909388110570439 
1388	 0.908372915224928 
1389	 0.907293483521689 
1390	 0.906150153793916 
1391	 0.90496890154131 
1392	 0.903660059084305 
1393	 0.902383399960822 
1394	 0.901032914476595 
1395	 0.899665418016881 
1396	 0.898278120174328 
1397	 0.896866340645431 
1398	 0.895427532516742 
1399	 0.893927558022098 
1400	 0.89244036971267 
1401	 0.890790544961297 
1402	 0.889109861539931 
1403	 0.887182011769369 
1404	 0.885168474828152 
1405	 0.882878083184913 
1406	 0.880377886652249 
1407	 0.87766923474032 
1408	 0.874561209622481 
1409	 0.871643144062951 
1410	 0.868330933162494 
1411	 0.865641783624405 
1412	 0.862928092722996 
1413	 0.861023285468338 
1414	 0.859563236276295 
1415	 0.85870397137319 
1416	 0.85869371808835 
1417	 0.858758448344483 
1418	 0.859529134417764 
1419	 0.860038845813149 
1420	 0.860794383010406 
1421	 0.861251108565728 
1422	 0.861602210007591 
1423	 0.861745088590231 
1424	 0.861663933770635 
1425	 0.86143542077204 
1426	 0.861104725821753 
1427	 0.860677882056021 
1428	 0.860211245024679 
1429	 0.859758792168008 
1430	 0.859312269412304 
1431	 0.858832888584392 
1432	 0.858397865014176 
1433	 0.85799740153 
1434	 0.85757539252393 
1435	 0.857152842209356 
1436	 0.856735188413517 
1437	 0.856317030595517 
1438	 0.855905115569899 
1439	 0.855487477547592 
1440	 0.855104739380031 
1441	 0.854729576817312 
1442	 0.854376151219064 
1443	 0.854053078031376 
1444	 0.853735207048797 
1445	 0.853430582725346 
1446	 0.853136612081772 
1447	 0.852859744583497 
1448	 0.852588035001179 
1449	 0.852320874285946 
1450	 0.852064664640512 
1451	 0.85183317789644 
1452	 0.851583825552425 
1453	 0.851316737341293 
1454	 0.851080926492412 
1455	 0.850844410260574 
1456	 0.85062743848722 
1457	 0.850464108626097 
1458	 0.850266958363559 
1459	 0.850054814301705 
1460	 0.849847955075986 
1461	 0.849624616069724 
1462	 0.849413046960306 
1463	 0.84920093925477 
1464	 0.849010155573281 
1465	 0.848835888687344 
1466	 0.848656201482798 
1467	 0.848516879775077 
1468	 0.848378931693492 
1469	 0.848270421767195 
1470	 0.848198903875118 
1471	 0.848128828849878 
1472	 0.848094201779817 
1473	 0.848027883070562 
1474	 0.847969023757667 
1475	 0.847870230489027 
1476	 0.847747191042649 
1477	 0.847624459957368 
1478	 0.847486730503709 
1479	 0.847329130933158 
1480	 0.84716640592535 
1481	 0.846981068577353 
1482	 0.846764133906863 
1483	 0.846543322530818 
1484	 0.846314619790179 
1485	 0.846072857805571 
1486	 0.845803035262838 
1487	 0.845552779017491 
1488	 0.84529509408735 
1489	 0.84505389731071 
1490	 0.844816644006713 
1491	 0.844599191996714 
1492	 0.844397105103908 
1493	 0.844205034432267 
1494	 0.844026726057469 
1495	 0.843863509141717 
1496	 0.843699418691569 
1497	 0.843572111059795 
1498	 0.843461772312588 
1499	 0.843389097855335 
1500	 0.843343134858844 
1501	 0.843337383021507 
1502	 0.843379473105187 
1503	 0.843433319960977 
1504	 0.843521046126086 
1505	 0.843625862275567 
1506	 0.843747078288716 
1507	 0.843890621125059 
1508	 0.844074937392921 
1509	 0.844251284215946 
1510	 0.844438620829673 
1511	 0.844628441162565 
1512	 0.844805582204583 
1513	 0.845010495730275 
1514	 0.845234189736522 
1515	 0.845468621504577 
1516	 0.845734143898298 
1517	 0.84599099937371 
1518	 0.846268751089926 
1519	 0.84651821327926 
1520	 0.846743766036574 
1521	 0.846969674523965 
1522	 0.847195925494208 
1523	 0.847430422624334 
1524	 0.847687963615763 
1525	 0.847969427412962 
1526	 0.84826338868231 
1527	 0.848571444487966 
1528	 0.848882175184451 
1529	 0.849213309511192 
1530	 0.849537461158518 
1531	 0.849859824950651 
1532	 0.850189636797956 
1533	 0.850518768794289 
1534	 0.85087611521276 
1535	 0.85124426637363 
1536	 0.851620712832358 
1537	 0.852028292673198 
1538	 0.852414385534818 
1539	 0.852803060413493 
1540	 0.85317087143709 
1541	 0.853524687769457 
1542	 0.853884945893822 
1543	 0.854243131310327 
1544	 0.854576814812214 
1545	 0.854905004700116 
1546	 0.855225490927365 
1547	 0.855529109849061 
1548	 0.855812787747756 
1549	 0.856110133887559 
1550	 0.856347971210311 
1551	 0.856536450527848 
1552	 0.856714489578543 
1553	 0.856862966585867 
1554	 0.856995458460748 
1555	 0.857093938426502 
1556	 0.857205424117255 
1557	 0.85729690078846 
1558	 0.857405097230708 
1559	 0.857542878970142 
1560	 0.857635355404758 
1561	 0.857698380157147 
1562	 0.857782524094463 
1563	 0.857838165090877 
1564	 0.857928542758846 
1565	 0.858065968240226 
1566	 0.858167591185102 
1567	 0.858247707718162 
1568	 0.858356327579988 
1569	 0.858457220907817 
1570	 0.858582462208136 
1571	 0.858753419747202 
1572	 0.858894030095416 
1573	 0.859020620365641 
1574	 0.859163283593849 
1575	 0.859310377860033 
1576	 0.85944876673073 
1577	 0.859580863429954 
1578	 0.859736493805203 
1579	 0.859883593532535 
1580	 0.860057887556882 
1581	 0.860281692638259 
1582	 0.860477812538162 
1583	 0.860673459550388 
1584	 0.860861963861793 
1585	 0.861037713633939 
1586	 0.861217962498189 
1587	 0.861399143049693 
1588	 0.86157531611141 
1589	 0.86174083537218 
1590	 0.861920954908689 
1591	 0.862099241829486 
1592	 0.862291952314225 
1593	 0.862520969382461 
1594	 0.862713702168554 
1595	 0.86289488550717 
1596	 0.863072084646999 
1597	 0.863222224205239 
1598	 0.863382133231792 
1599	 0.863532148849094 
1600	 0.86370962411602 
1601	 0.863900245278146 
1602	 0.864095622064387 
1603	 0.864321370717715 
1604	 0.864533115227437 
1605	 0.86474011277334 
1606	 0.864944198277248 
1607	 0.865144487613979 
1608	 0.865347137185088 
1609	 0.865573920241474 
1610	 0.865750549869336 
1611	 0.865894090188585 
1612	 0.86604396763047 
1613	 0.866151463934134 
1614	 0.866278017568786 
1615	 0.866432228066546 
1616	 0.866569320021638 
1617	 0.866696598763165 
1618	 0.866820427856184 
1619	 0.866937139297034 
1620	 0.867052859376277 
1621	 0.867171343859954 
1622	 0.86727536600647 
1623	 0.867384216111147 
1624	 0.867463872034772 
1625	 0.867509342639445 
1626	 0.867561869799457 
1627	 0.867597137418996 
1628	 0.867635424701511 
1629	 0.867678162948578 
1630	 0.867719995151046 
1631	 0.867758277480133 
1632	 0.867795666665323 
1633	 0.867833994082737 
1634	 0.867867387858058 
1635	 0.867895767143955 
1636	 0.867923790986995 
1637	 0.867945619473397 
1638	 0.867975460452214 
1639	 0.868010771489646 
1640	 0.868041878714119 
1641	 0.868090851604844 
1642	 0.868113222805009 
1643	 0.868128037376053 
1644	 0.86811809218537 
1645	 0.868084140239298 
1646	 0.868032998671572 
1647	 0.86795498210767 
1648	 0.867877756928943 
1649	 0.867803740523272 
1650	 0.867691104500521 
1651	 0.867567687431041 
1652	 0.867406249727059 
1653	 0.867203459636534 
1654	 0.866979075887098 
1655	 0.866727448444621 
1656	 0.866451517088765 
1657	 0.866158659639408 
1658	 0.865814793750933 
1659	 0.86544716229835 
1660	 0.86502972075372 
1661	 0.864550811941493 
1662	 0.864049539965271 
1663	 0.863503292288977 
1664	 0.862927533620839 
1665	 0.862314629847761 
1666	 0.861682218083496 
1667	 0.861023910167088 
1668	 0.860349493961021 
1669	 0.859699986029594 
1670	 0.858934174524241 
1671	 0.858101959820333 
1672	 0.857206182536744 
1673	 0.856211905510973 
1674	 0.855176178876332 
1675	 0.854085613587058 
1676	 0.852989838728659 
1677	 0.851836139926324 
1678	 0.850683359048319 
1679	 0.849514363079637 
1680	 0.848326928522213 
1681	 0.847122833312775 
1682	 0.845880512654562 
1683	 0.844623807754608 
1684	 0.843362495767305 
1685	 0.842048782895318 
1686	 0.840765340647769 
1687	 0.839461984419499 
1688	 0.838207755366242 
1689	 0.836961652988339 
1690	 0.835772026601006 
1691	 0.834630824892977 
1692	 0.833552731006984 
1693	 0.832547648339274 
1694	 0.831523286767846 
1695	 0.830538005066491 
1696	 0.829542781940583 
1697	 0.828552449802767 
1698	 0.827525881675655 
1699	 0.826543093545919 
1700	 0.825480932451199 
1701	 0.824346359919545 
1702	 0.823219132890469 
1703	 0.822052186589223 
1704	 0.820860497020994 
1705	 0.819626776227411 
1706	 0.818374199972429 
1707	 0.81723391482123 
1708	 0.81609055584905 
1709	 0.815005730196069 
1710	 0.81397988696078 
1711	 0.812892615076229 
1712	 0.811875773570334 
1713	 0.810823113892212 
1714	 0.809709000361457 
1715	 0.808641082584518 
1716	 0.807501751014211 
1717	 0.806375481850801 
1718	 0.805256757119858 
1719	 0.804034191666236 
1720	 0.802832050755022 
1721	 0.801646455101876 
1722	 0.80045829632915 
1723	 0.79941422497514 
1724	 0.7984185932961 
1725	 0.797505129351159 
1726	 0.796778913851085 
1727	 0.796198817901807 
1728	 0.795850509801165 
1729	 0.795744047139876 
1730	 0.795860361239142 
1731	 0.796172095999221 
1732	 0.796694503968077 
1733	 0.797365596043236 
1734	 0.798211766488811 
1735	 0.799228521980287 
1736	 0.800302686568467 
1737	 0.80141194212935 
1738	 0.802474968400804 
1739	 0.803401094111099 
1740	 0.804251837045282 
1741	 0.805007877151005 
1742	 0.805681567127373 
1743	 0.806258070762389 
1744	 0.806743799174082 
1745	 0.807124988554007 
1746	 0.807383513611113 
1747	 0.807570840805979 
1748	 0.807638727331502 
1749	 0.807681919930456 
1750	 0.807668030645042 
1751	 0.807588420428357 
1752	 0.807433921907653 
1753	 0.807271559920183 
1754	 0.80704715102043 
1755	 0.806820331357306 
1756	 0.806564135331031 
1757	 0.806312990745851 
1758	 0.806041190691523 
1759	 0.805812238161278 
1760	 0.805689816316956 
1761	 0.805626690671263 
1762	 0.805654581835287 
1763	 0.805813613055947 
1764	 0.806010978586993 
1765	 0.806367015352499 
1766	 0.806903673977634 
1767	 0.807496957024654 
1768	 0.808221752996712 
1769	 0.808979587607195 
1770	 0.809651678621767 
1771	 0.810369850435159 
1772	 0.811079033577065 
1773	 0.811739558025948 
1774	 0.812405008913611 
1775	 0.812993437727966 
1776	 0.813566592595783 
1777	 0.814126290896342 
1778	 0.814592966087638 
1779	 0.815024817125697 
1780	 0.815350668110767 
1781	 0.815550489127955 
1782	 0.815761106281443 
1783	 0.815949872541717 
1784	 0.816094284709821 
1785	 0.816220536211376 
1786	 0.816354824432739 
1787	 0.816478775633236 
1788	 0.816600941547508 
1789	 0.81674045513207 
1790	 0.816863924553991 
1791	 0.816955453831717 
1792	 0.817033751784856 
1793	 0.817134945686389 
1794	 0.817148777098114 
1795	 0.817121916095176 
1796	 0.817109331369498 
1797	 0.817088181764163 
1798	 0.817105093542829 
1799	 0.81714664315009 
1800	 0.81716485727473 
1801	 0.82733564370844 
1802	 0.827502388750568 
1803	 0.827680970509659 
1804	 0.827903357147869 
1805	 0.828188416363533 
1806	 0.828410235277503 
1807	 0.828614996466143 
1808	 0.828844488914853 
1809	 0.829101373449882 
1810	 0.829284849151689 
1811	 0.829464613974539 
1812	 0.829616463553856 
1813	 0.829697139087067 
1814	 0.829794948594145 
1815	 0.829896806610492 
1816	 0.829984407471734 
1817	 0.830057304400829 
1818	 0.830117522409174 
1819	 0.830156360432789 
1820	 0.830151925363275 
1821	 0.830190575249472 
1822	 0.830235259864537 
1823	 0.830256999823682 
1824	 0.830348148924613 
1825	 0.830457425458426 
1826	 0.830550996400616 
1827	 0.830668612867588 
1828	 0.83075028900479 
1829	 0.830833608566226 
1830	 0.830873083320735 
1831	 0.830877572901446 
1832	 0.830872653417822 
1833	 0.830841272905842 
1834	 0.830820306424897 
1835	 0.830822392350161 
1836	 0.830829609076652 
1837	 0.830862798283033 
1838	 0.830922886234151 
1839	 0.830974311809252 
1840	 0.831067521642475 
1841	 0.831114646471608 
1842	 0.831152966751898 
1843	 0.831167193988993 
1844	 0.831148477295303 
1845	 0.831120873403404 
1846	 0.831057520560088 
1847	 0.830993480856383 
1848	 0.830914565436452 
1849	 0.830819842631935 
1850	 0.830690136923185 
1851	 0.830539741414811 
1852	 0.830387264469908 
1853	 0.830193729315766 
1854	 0.830009040224149 
1855	 0.829787289012449 
1856	 0.829500117758998 
1857	 0.829176301191007 
1858	 0.828806426735062 
1859	 0.828417527118858 
1860	 0.828028944803083 
1861	 0.827554958958321 
1862	 0.82703993738599 
1863	 0.826485966195451 
1864	 0.82581245715631 
1865	 0.825068729463689 
1866	 0.824240090471698 
1867	 0.823275148705227 
1868	 0.822281028406328 
1869	 0.821226098621628 
1870	 0.82011411975062 
1871	 0.818953297889416 
1872	 0.817756317861673 
1873	 0.816501100754782 
1874	 0.8152067199396 
1875	 0.813889172623638 
1876	 0.812437782649641 
1877	 0.810994587905 
1878	 0.809394634978296 
1879	 0.807656745411659 
1880	 0.805972762021103 
1881	 0.804121885940713 
1882	 0.802128100262268 
1883	 0.800090210094079 
1884	 0.797914559174136 
1885	 0.795379289046343 
1886	 0.792783750053731 
1887	 0.789940723164789 
1888	 0.78688001317195 
1889	 0.783936763521606 
1890	 0.78069316103032 
1891	 0.777368717844125 
1892	 0.773964405295316 
1893	 0.770293214125111 
1894	 0.766319073065255 
1895	 0.762429010932625 
1896	 0.758290673380951 
1897	 0.753991219598292 
1898	 0.749998275681837 
1899	 0.745775106158824 
1900	 0.741596368790611 
1901	 0.737499739913298 
1902	 0.733012276099071 
1903	 0.728658172509322 
1904	 0.724356400467207 
1905	 0.720007016342364 
1906	 0.715694897256645 
1907	 0.711811586855322 
1908	 0.707858038480019 
1909	 0.7040335368968 
1910	 0.700373132505201 
1911	 0.696468222430608 
1912	 0.69278164584392 
1913	 0.689122191021882 
1914	 0.685435534715842 
1915	 0.682027909235843 
1916	 0.678892645131508 
1917	 0.675688891061321 
1918	 0.672630925388855 
1919	 0.669769672274731 
1920	 0.666733675258075 
1921	 0.663911804121334 
1922	 0.66115784497667 
1923	 0.65839018976801 
1924	 0.655967353574405 
1925	 0.653558120238104 
1926	 0.651255451864966 
1927	 0.64914040785607 
1928	 0.647038744566342 
1929	 0.644931505485435 
1930	 0.64303090993675 
1931	 0.641228379805182 
1932	 0.639458209455789 
1933	 0.637966324784832 
1934	 0.636525905311984 
1935	 0.635201705537799 
1936	 0.634063520430522 
1937	 0.632975872884721 
1938	 0.631960187340186 
1939	 0.631111292532356 
1940	 0.630376948487515 
1941	 0.629728425253694 
1942	 0.629287784720367 
1943	 0.62894517832027 
1944	 0.628673929210716 
1945	 0.628549507054711 
1946	 0.628522890420927 
1947	 0.628545974972645 
1948	 0.628679576753457 
1949	 0.628897310289624 
1950	 0.629168840724837 
1951	 0.629508508520563 
1952	 0.629920251171344 
1953	 0.630400975186826 
1954	 0.630943877517459 
1955	 0.631565470848701 
1956	 0.632205964003341 
1957	 0.632904627953111 
1958	 0.633644294216097 
1959	 0.6343628680133 
1960	 0.635105880932352 
1961	 0.635846057337713 
1962	 0.636556978412734 
1963	 0.637327798914745 
1964	 0.638129031246618 
1965	 0.63894548864135 
1966	 0.639814169316868 
1967	 0.640679141211765 
1968	 0.641486522036002 
1969	 0.642290883217293 
1970	 0.643061918253942 
1971	 0.643836158242928 
1972	 0.644685451660343 
1973	 0.645519096896815 
1974	 0.64634449442675 
1975	 0.647190219885385 
1976	 0.648015993739854 
1977	 0.648794655442055 
1978	 0.64962957974977 
1979	 0.650488576448305 
1980	 0.651334083409448 
1981	 0.652260759992699 
1982	 0.653181417250161 
1983	 0.654113924615426 
1984	 0.655091261491215 
1985	 0.655986144924133 
1986	 0.656877867681176 
1987	 0.657745658136812 
1988	 0.658549365220786 
1989	 0.659397813687526 
1990	 0.660257789228441 
1991	 0.661107883034418 
1992	 0.661970426804065 
1993	 0.662846598743798 
1994	 0.663657253226468 
1995	 0.664492650691167 
1996	 0.66530764373048 
1997	 0.666114667856291 
1998	 0.666967959716 
1999	 0.667849870845681 
2000	 0.668713739986295 
2001	 0.66965937662592 
2002	 0.670487812904761 
2003	 0.671253468158957 
2004	 0.672012103769303 
2005	 0.672670466251887 
2006	 0.673375949888505 
2007	 0.674097758176273 
2008	 0.674827980135062 
2009	 0.675530917590244 
2010	 0.676262784988082 
2011	 0.676944399990512 
2012	 0.677607660682826 
2013	 0.678218513159804 
2014	 0.678790429402456 
2015	 0.679340030472396 
2016	 0.679867297498177 
2017	 0.680315144252035 
2018	 0.680761954851296 
2019	 0.681097807737259 
2020	 0.681325822146542 
2021	 0.681513955684126 
2022	 0.681638633218032 
2023	 0.681669177653604 
2024	 0.681657290248267 
2025	 0.681566558208947 
2026	 0.681394346280968 
2027	 0.681136063148668 
2028	 0.680830469138976 
2029	 0.680438848114613 
2030	 0.680003170693654 
2031	 0.679504542317627 
2032	 0.678971107432695 
2033	 0.678360986917792 
2034	 0.677744419233824 
2035	 0.677083984655014 
2036	 0.676402661497488 
2037	 0.675753217479251 
2038	 0.675115726019944 
2039	 0.674533297622418 
2040	 0.673992318244447 
2041	 0.673505796254034 
2042	 0.673028526408326 
2043	 0.67265737155873 
2044	 0.672370268744946 
2045	 0.672128173833962 
2046	 0.671967613730047 
2047	 0.671851739752499 
2048	 0.671769060433074 
2049	 0.671761604464205 
2050	 0.671827473807828 
2051	 0.671941529327635 
2052	 0.672108898845919 
2053	 0.672362500592715 
2054	 0.672666673931424 
2055	 0.673002509180418 
2056	 0.673460270139609 
2057	 0.673993862552447 
2058	 0.674638448407497 
2059	 0.675404076966304 
2060	 0.676225858158117 
2061	 0.677180910418998 
2062	 0.678126755764406 
2063	 0.679113812225721 
2064	 0.680167393684849 
2065	 0.681269946027158 
2066	 0.682378297303664 
2067	 0.683669826689488 
2068	 0.684907234026208 
2069	 0.686169189307111 
2070	 0.687514650029093 
2071	 0.688768496640052 
2072	 0.689985595626678 
2073	 0.691195286354408 
2074	 0.692351825149864 
2075	 0.693535618264286 
2076	 0.694761941774403 
2077	 0.695897734285549 
2078	 0.697056260982587 
2079	 0.698102482147145 
2080	 0.699027069891032 
2081	 0.699942084443846 
2082	 0.700805231885317 
2083	 0.701594278702126 
2084	 0.702434585673967 
2085	 0.70321587926795 
2086	 0.703938596806192 
2087	 0.704647256230058 
2088	 0.705263221289582 
2089	 0.70578501719235 
2090	 0.706281818113823 
2091	 0.7067023332394 
2092	 0.707123257543462 
2093	 0.707512265729916 
2094	 0.707867301772902 
2095	 0.708214041007638 
2096	 0.70851169627508 
2097	 0.708754723032035 
2098	 0.70897317663632 
2099	 0.709182788940384 
2100	 0.709300960163936 
2101	 0.709412224673393 
2102	 0.709481847830572 
2103	 0.709544076901504 
2104	 0.709559692019102 
2105	 0.709606062632413 
2106	 0.709644355084098 
2107	 0.709693096371478 
2108	 0.709770112583493 
2109	 0.709808638045886 
2110	 0.709848255530286 
2111	 0.709849419294396 
2112	 0.709821639028053 
2113	 0.70977306686095 
2114	 0.709672641979347 
2115	 0.709592167404059 
2116	 0.70951720074604 
2117	 0.70942080602287 
2118	 0.709293930484551 
2119	 0.709170589401706 
2120	 0.709006127205493 
2121	 0.708775040751764 
2122	 0.708577181202536 
2123	 0.708410055202831 
2124	 0.708162717536196 
2125	 0.707891653299996 
2126	 0.707589401319923 
2127	 0.70725727169697 
2128	 0.706846961589151 
2129	 0.70639659531709 
2130	 0.705898489704866 
2131	 0.705320428230902 
2132	 0.704703166528819 
2133	 0.704109474937382 
2134	 0.703376058438068 
2135	 0.702474887094356 
2136	 0.701604497822033 
2137	 0.70061374504794 
2138	 0.699494702781661 
2139	 0.698359233984621 
2140	 0.697184926804307 
2141	 0.695916959288893 
2142	 0.694546634164891 
2143	 0.693178879602887 
2144	 0.691742869592432 
2145	 0.690313351523852 
2146	 0.688800019876727 
2147	 0.687400758770869 
2148	 0.686044163321733 
2149	 0.684680205684631 
2150	 0.68343766139345 
2151	 0.682102511690741 
2152	 0.680681213159332 
2153	 0.679308152577341 
2154	 0.677886074329735 
2155	 0.676417743433591 
2156	 0.674995916495829 
2157	 0.673584308499936 
2158	 0.672135369741819 
2159	 0.670733269445525 
2160	 0.669205684734777 
2161	 0.667562455296368 
2162	 0.66600938526306 
2163	 0.664342382342367 
2164	 0.662867343014613 
2165	 0.66151138568104 
2166	 0.660179084689165 
2167	 0.658964220095401 
2168	 0.657737914600542 
2169	 0.656489737267339 
2170	 0.655359525864588 
2171	 0.654238503987958 
2172	 0.653261505756706 
2173	 0.652428026333793 
2174	 0.651651724997028 
2175	 0.65100227588153 
2176	 0.650410313577166 
2177	 0.649851949162104 
2178	 0.649358558452329 
2179	 0.64891052277604 
2180	 0.648495715235836 
2181	 0.648165503076943 
2182	 0.647926593704557 
2183	 0.64768409593107 
2184	 0.647476596249925 
2185	 0.647334836557971 
2186	 0.647214197400922 
2187	 0.647183465916203 
2188	 0.64726040493389 
2189	 0.647347813086647 
2190	 0.647500345993906 
2191	 0.647661179623847 
2192	 0.647856768403166 
2193	 0.648077818567999 
2194	 0.648362823262844 
2195	 0.648610385784103 
2196	 0.648872082822126 
2197	 0.649115743756365 
2198	 0.649337939514294 
2199	 0.649559175664896 
2200	 0.649759542746741 
2201	 0.649966375495716 
2202	 0.650127429109193 
2203	 0.650246748063945 
2204	 0.650362190811651 
2205	 0.650440404988898 
2206	 0.650543206805268 
2207	 0.650645550482853 
2208	 0.650742958455366 
2209	 0.650867085824296 
2210	 0.650931159528898 
2211	 0.650944795303293 
2212	 0.650980243309748 
2213	 0.650993524436297 
2214	 0.651018954845824 
2215	 0.651033503568482 
2216	 0.651087469683616 
2217	 0.65117589237523 
2218	 0.651233930136465 
2219	 0.651333520670636 
2220	 0.651392197928567 
2221	 0.651430840698596 
2222	 0.651406835694352 
2223	 0.651402618648462 
2224	 0.651357228086119 
2225	 0.651242139205258 
2226	 0.65103222266909 
2227	 0.650757116555165 
2228	 0.65040281592763 
2229	 0.649983372943829 
2230	 0.649474043977735 
2231	 0.648947996837219 
2232	 0.648377988903672 
2233	 0.647706929999025 
2234	 0.647008935263971 
2235	 0.646167530141209 
2236	 0.645222792533019 
2237	 0.644156262580395 
2238	 0.642913344945264 
2239	 0.641690187323729 
2240	 0.640410752257605 
2241	 0.639019279157757 
2242	 0.637650588213415 
2243	 0.63607490419742 
2244	 0.634275654456793 
2245	 0.6324672470997 
2246	 0.630514387118867 
2247	 0.628552607291589 
2248	 0.626558119034851 
2249	 0.624500411510188 
2250	 0.622391519781528 
2251	 0.620275330853411 
2252	 0.617901915930589 
2253	 0.615644934833838 
2254	 0.613276591046374 
2255	 0.610783274814517 
2256	 0.608543464150386 
2257	 0.606221891443975 
2258	 0.603964281294121 
2259	 0.60178306319259 
2260	 0.599572069822926 
2261	 0.597292764540592 
2262	 0.595208098083259 
2263	 0.593157666561122 
2264	 0.591255318643662 
2265	 0.589537422676948 
2266	 0.587816415274651 
2267	 0.586211973692492 
2268	 0.584560428638544 
2269	 0.582916918661571 
2270	 0.581344674586132 
2271	 0.579729280860988 
2272	 0.578265828132084 
2273	 0.576956916334625 
2274	 0.575623214044687 
2275	 0.574398986363359 
2276	 0.573125374183552 
2277	 0.571810719249282 
2278	 0.570554978982902 
2279	 0.569316208167725 
2280	 0.568088096578261 
2281	 0.566934313585188 
2282	 0.565716867160599 
2283	 0.564441453763809 
2284	 0.563219975079332 
2285	 0.561966975202337 
2286	 0.560750718550451 
2287	 0.559554825126485 
2288	 0.558320951464082 
2289	 0.557136920749825 
2290	 0.555991720879753 
2291	 0.554889785312395 
2292	 0.553774090047169 
2293	 0.552495641927135 
2294	 0.551157494732983 
2295	 0.549736389399787 
2296	 0.548216876108431 
2297	 0.54671441697262 
2298	 0.545220780551215 
2299	 0.543604834419993 
2300	 0.541932017953493 
2301	 0.540186585784621 
2302	 0.538277275474056 
2303	 0.536531637332902 
2304	 0.534671073309169 
2305	 0.533120083607323 
2306	 0.531621538406329 
2307	 0.530523454389155 
2308	 0.529593078759629 
2309	 0.529197048261441 
2310	 0.529168259118808 
2311	 0.529657736487558 
2312	 0.530730644259987 
2313	 0.532070120867515 
2314	 0.534042340774426 
2315	 0.535974059136248 
2316	 0.538319165629605 
2317	 0.540416745915675 
2318	 0.542648879211112 
2319	 0.54453258760434 
2320	 0.5463646786433 
2321	 0.547782609185666 
2322	 0.548873835830797 
2323	 0.549753221151659 
2324	 0.550216442075137 
2325	 0.55059477949235 
2326	 0.550735320342546 
2327	 0.550812958657276 
2328	 0.550758602955673 
2329	 0.550568588614133 
2330	 0.550277663107019 
2331	 0.549807690120519 
2332	 0.549192854895599 
2333	 0.548510800624343 
2334	 0.547634351726751 
2335	 0.546653477893857 
2336	 0.545473748242724 
2337	 0.544098303233448 
2338	 0.542674963081114 
2339	 0.54105501873077 
2340	 0.539389061834396 
2341	 0.53762421679318 
2342	 0.535656202143142 
2343	 0.533807404643789 
2344	 0.532078965577834 
2345	 0.530286454923782 
2346	 0.528790211725916 
2347	 0.527687329985421 
2348	 0.526898098604934 
2349	 0.526705933082952 
2350	 0.52703267538655 
2351	 0.52764972525105 
2352	 0.528597271039408 
2353	 0.529999211830927 
2354	 0.531513827742884 
2355	 0.533325919624099 
2356	 0.535207125711069 
2357	 0.536950182063826 
2358	 0.538828447217859 
2359	 0.540520282093874 
2360	 0.542113064872694 
2361	 0.543425635118188 
2362	 0.544362345372507 
2363	 0.545133517196829 
2364	 0.545674692559329 
2365	 0.546141336555581 
2366	 0.546566911477006 
2367	 0.546950407671164 
2368	 0.547343321658094 
2369	 0.547603932590606 
2370	 0.547840944286926 
2371	 0.547972785750158 
2372	 0.547930234847134 
2373	 0.547942570020894 
2374	 0.547966745780299 
2375	 0.547945358663684 
2376	 0.547905087624955 
2377	 0.547868104001475 
2378	 0.547775496484377 
2379	 0.54768597109251 
2380	 0.547595447452285 
2381	 0.547381866062938 
2382	 0.547194047159227 
2383	 0.54693169619832 
2384	 0.546750969079503 
2385	 0.546607303006573 
2386	 0.546468571265012 
2387	 0.546358588609977 
2388	 0.546224725458931 
2389	 0.546123657552079 
2390	 0.545993143796896 
2391	 0.545850383993935 
2392	 0.545678220780887 
2393	 0.545431629553382 
2394	 0.545218878861574 
2395	 0.545016670849192 
2396	 0.544847600799099 
2397	 0.544718859968811 
2398	 0.544548808731658 
2399	 0.544370877679109 
2400	 0.544158222652159 
2401	 0.543892830258524 
2402	 0.543711889096721 
2403	 0.543583783074382 
2404	 0.54358988118219 
2405	 0.543485990115445 
2406	 0.54336297616116 
2407	 0.543309499552756 
2408	 0.543121289848442 
2409	 0.542797277125854 
2410	 0.542591258443539 
2411	 0.542408421195953 
2412	 0.542093997540127 
2413	 0.54199091307382 
2414	 0.541917649398122 
2415	 0.541699244220602 
2416	 0.541555069842 
2417	 0.541425878472922 
2418	 0.541215105730219 
2419	 0.540936504694822 
2420	 0.540709925209667 
2421	 0.540407237692205 
2422	 0.540000697937239 
2423	 0.539594523290045 
2424	 0.539158832418779 
2425	 0.538748407829157 
2426	 0.538406360080496 
2427	 0.538065779996781 
2428	 0.537697164559302 
2429	 0.537404482714341 
2430	 0.536950356366223 
2431	 0.536340243809176 
2432	 0.535820053544708 
2433	 0.535218602242989 
2434	 0.534534326415916 
2435	 0.533820598075835 
2436	 0.533149015207908 
2437	 0.532533486123185 
2438	 0.53190283333265 
2439	 0.531345908458268 
2440	 0.530658385793555 
2441	 0.529723058305296 
2442	 0.528846449319323 
2443	 0.527992479225917 
2444	 0.527051056918497 
2445	 0.526117660935139 
2446	 0.525027798405155 
2447	 0.524050964900327 
2448	 0.523178113308387 
2449	 0.52208680486537 
2450	 0.52106376993527 
2451	 0.519820487048844 
2452	 0.518489009573988 
2453	 0.517501907771709 
2454	 0.516596335028438 
2455	 0.515704241611031 
2456	 0.514703503056168 
2457	 0.513605592378826 
2458	 0.512505821575923 
2459	 0.511690781819452 
2460	 0.511254451122453 
2461	 0.510492020681054 
2462	 0.509505268740212 
2463	 0.508595488687881 
2464	 0.507370182834211 
2465	 0.506318241780621 
2466	 0.505703012133404 
2467	 0.505016265182081 
2468	 0.504384897069875 
2469	 0.503880725669427 
2470	 0.503203125962152 
2471	 0.502466905587474 
2472	 0.501645053136226 
2473	 0.500824251755728 
2474	 0.500303700378971 
2475	 0.499580980908904 
2476	 0.498806191032556 
2477	 0.498148783773334 
2478	 0.497332351642616 
2479	 0.496661424461627 
2480	 0.496339688820994 
2481	 0.495928274507593 
2482	 0.495491631167201 
2483	 0.495046632348637 
2484	 0.494565915702796 
2485	 0.494085119192408 
2486	 0.493630083806112 
2487	 0.493185913817682 
2488	 0.492594913763284 
2489	 0.491911228870616 
2490	 0.491638077361024 
2491	 0.491539153765228 
2492	 0.490940732864135 
2493	 0.490484524412293 
2494	 0.489988900636667 
2495	 0.489054881146591 
2496	 0.488910775211689 
2497	 0.488826113456488 
2498	 0.488500925900704 
2499	 0.488272553357021 
2500	 0.48772411714593 
