Wavelength	ProbetaAcolman00021.asd
350	 0.756085763545674 
351	 0.749905843000548 
352	 0.73976470214206 
353	 0.727945781374737 
354	 0.718420918737541 
355	 0.706049043269565 
356	 0.703902356879442 
357	 0.715718313425082 
358	 0.706431112492137 
359	 0.700708768487257 
360	 0.699980150570636 
361	 0.693097555083296 
362	 0.678206294119652 
363	 0.671243446471646 
364	 0.674642842653903 
365	 0.670463022291561 
366	 0.665044594107727 
367	 0.666505391405125 
368	 0.676240142079043 
369	 0.674709238471249 
370	 0.668833575976316 
371	 0.666345307546098 
372	 0.672504575341207 
373	 0.67112392979079 
374	 0.660654206836529 
375	 0.648613032451767 
376	 0.65305574670456 
377	 0.655843854989023 
378	 0.655914617623907 
379	 0.654605492968477 
380	 0.643887494135948 
381	 0.643406740817661 
382	 0.651859401445669 
383	 0.655507148138387 
384	 0.653443238624241 
385	 0.648882480401888 
386	 0.645711476429782 
387	 0.648251697367864 
388	 0.644803782371089 
389	 0.639746778867464 
390	 0.639731441919495 
391	 0.644352373990345 
392	 0.641590565555445 
393	 0.636403839840015 
394	 0.642004660338791 
395	 0.64024598472911 
396	 0.638664647832893 
397	 0.640385909979655 
398	 0.636188581026695 
399	 0.636557674746625 
400	 0.639205880341289 
401	 0.639591267329348 
402	 0.638645642439368 
403	 0.640962652797153 
404	 0.644919763324901 
405	 0.645040456723652 
406	 0.647274321633393 
407	 0.649150192813449 
408	 0.649905895845777 
409	 0.654426161061377 
410	 0.656047214478453 
411	 0.656509108311875 
412	 0.659136595004539 
413	 0.661423574631868 
414	 0.663633302065511 
415	 0.666287545000026 
416	 0.669892320081912 
417	 0.673277039340669 
418	 0.675954096843161 
419	 0.677823658457744 
420	 0.679378869772215 
421	 0.679972491370448 
422	 0.68053528634967 
423	 0.682251151153702 
424	 0.683909886112608 
425	 0.686015869069654 
426	 0.688141492047561 
427	 0.688780527865738 
428	 0.689573405009786 
429	 0.691071058532195 
430	 0.69298463908073 
431	 0.693321574009333 
432	 0.694038444441195 
433	 0.695435468186255 
434	 0.696810758997336 
435	 0.697237369280344 
436	 0.698106953764352 
437	 0.699746647441354 
438	 0.70057693484329 
439	 0.701121940845494 
440	 0.701816141955799 
441	 0.702855521892108 
442	 0.703565901107942 
443	 0.703929325354823 
444	 0.704095901292349 
445	 0.704303313405973 
446	 0.704233815351906 
447	 0.704471723249483 
448	 0.705261684282815 
449	 0.70597422514606 
450	 0.705938483839855 
451	 0.705776126236952 
452	 0.706358950021736 
453	 0.70672718382008 
454	 0.707146797158597 
455	 0.707702732464938 
456	 0.708198657526529 
457	 0.70805654117795 
458	 0.707886660549612 
459	 0.708238038580631 
460	 0.708742046618856 
461	 0.709254371466429 
462	 0.709521564684771 
463	 0.709348732984377 
464	 0.709322761838287 
465	 0.709659719141329 
466	 0.710222845471733 
467	 0.710447632522206 
468	 0.71036210838183 
469	 0.710302769886796 
470	 0.71052442699112 
471	 0.710564957028705 
472	 0.710428202139145 
473	 0.710188473619789 
474	 0.709998690178699 
475	 0.710563317410361 
476	 0.710852661905737 
477	 0.71035640077408 
478	 0.710209097750343 
479	 0.710199604876849 
480	 0.710269148460257 
481	 0.710412987355993 
482	 0.710790943717353 
483	 0.71130568718515 
484	 0.711848922865996 
485	 0.712326828603275 
486	 0.712760834731308 
487	 0.713386802538916 
488	 0.714342240130284 
489	 0.715335996740877 
490	 0.716596756245252 
491	 0.717896933625011 
492	 0.718839868472708 
493	 0.720015061742066 
494	 0.721630355258686 
495	 0.723448530018018 
496	 0.724581133878178 
497	 0.725992300532831 
498	 0.727723287007389 
499	 0.729539996865273 
500	 0.73135675272636 
501	 0.733107304584432 
502	 0.734789638386254 
503	 0.736467112425493 
504	 0.738446557444708 
505	 0.74037599415466 
506	 0.742070700499014 
507	 0.744032587826933 
508	 0.74591873902851 
509	 0.747722288838981 
510	 0.749574828718682 
511	 0.751493656518918 
512	 0.75343651603484 
513	 0.755375002739713 
514	 0.757319257849134 
515	 0.759018621276163 
516	 0.760652042592672 
517	 0.762426148183219 
518	 0.764237664384924 
519	 0.765972029009784 
520	 0.767637720168385 
521	 0.769325546480988 
522	 0.771102249339412 
523	 0.772742353647296 
524	 0.774194909110566 
525	 0.775831364948677 
526	 0.777427473673001 
527	 0.778898323339545 
528	 0.780253115545397 
529	 0.781727414481818 
530	 0.783285054772941 
531	 0.784786325074989 
532	 0.786010883338904 
533	 0.787172189972164 
534	 0.788410082612787 
535	 0.789746427377211 
536	 0.790920298062797 
537	 0.79215328950437 
538	 0.793429934981079 
539	 0.794619742145562 
540	 0.795818813253387 
541	 0.796983308918992 
542	 0.798080966904924 
543	 0.799118060148009 
544	 0.800065911173569 
545	 0.800974810022364 
546	 0.801919937198865 
547	 0.802992156244406 
548	 0.803924853247019 
549	 0.80469363387844 
550	 0.805499088323515 
551	 0.806420446446776 
552	 0.807239051743397 
553	 0.807853071495341 
554	 0.808594350086249 
555	 0.809341825899587 
556	 0.810088961936113 
557	 0.810854112012898 
558	 0.811471586081589 
559	 0.812133843485724 
560	 0.812892149263606 
561	 0.813565767183355 
562	 0.814287683358382 
563	 0.814987445806096 
564	 0.815581477282251 
565	 0.816139338092039 
566	 0.816598403681422 
567	 0.817011093068283 
568	 0.817510719961139 
569	 0.818061232519637 
570	 0.818557388909303 
571	 0.818960852832386 
572	 0.819384861804719 
573	 0.819882773131468 
574	 0.820337469897793 
575	 0.820635052825977 
576	 0.821115815403726 
577	 0.821662031356446 
578	 0.822160850287784 
579	 0.822547678122279 
580	 0.823009456264554 
581	 0.823344117106633 
582	 0.823472820393726 
583	 0.823975825460322 
584	 0.824480367033796 
585	 0.824891008519398 
586	 0.825303035871196 
587	 0.825943413550732 
588	 0.826494578389537 
589	 0.8268951141845 
590	 0.827608474192684 
591	 0.828156324941607 
592	 0.828556215190527 
593	 0.828979605701704 
594	 0.829583151924051 
595	 0.829956432450135 
596	 0.830124597970247 
597	 0.830495601416332 
598	 0.831003330138091 
599	 0.831329206694586 
600	 0.831445634900196 
601	 0.832170768249221 
602	 0.832718586402717 
603	 0.833012738658289 
604	 0.833319779250987 
605	 0.833961260472738 
606	 0.834571223531951 
607	 0.834950351501483 
608	 0.835179330555751 
609	 0.835708031783497 
610	 0.83626749258601 
611	 0.836547548810121 
612	 0.836695813549884 
613	 0.837212064743783 
614	 0.837902655112115 
615	 0.838173842591372 
616	 0.838332106776165 
617	 0.838726884237687 
618	 0.839345550824622 
619	 0.83951989847552 
620	 0.839760162999235 
621	 0.840189887462584 
622	 0.84071787393032 
623	 0.840869931826223 
624	 0.841049989675455 
625	 0.841460106046608 
626	 0.842047636667042 
627	 0.842328235726401 
628	 0.842476432766969 
629	 0.842742296949242 
630	 0.8432635009461 
631	 0.843535153546789 
632	 0.843636309097055 
633	 0.843888134220027 
634	 0.844229458169555 
635	 0.844558446246426 
636	 0.844812915005967 
637	 0.844989102198629 
638	 0.845306812746353 
639	 0.84563462628318 
640	 0.845836627476554 
641	 0.84607311279979 
642	 0.846247848083247 
643	 0.846432077050832 
644	 0.846762193693482 
645	 0.846952352008207 
646	 0.847144666961913 
647	 0.847417370206645 
648	 0.847663461636996 
649	 0.847811570343802 
650	 0.847904813560957 
651	 0.848045819753871 
652	 0.848423110360943 
653	 0.848632539165115 
654	 0.848673873493166 
655	 0.84887139212566 
656	 0.849081685890802 
657	 0.849247857673823 
658	 0.849384158080263 
659	 0.849640173655146 
660	 0.849825587262127 
661	 0.849955673598886 
662	 0.850110450134265 
663	 0.850265225276564 
664	 0.850411242999664 
665	 0.850582261049285 
666	 0.850848222585947 
667	 0.851140716065241 
668	 0.851367609901182 
669	 0.851486392385067 
670	 0.851570757962194 
671	 0.851738760754755 
672	 0.851921961303614 
673	 0.852005935034853 
674	 0.852232229794125 
675	 0.852433487640502 
676	 0.852541704604069 
677	 0.852649428259615 
678	 0.852828599357478 
679	 0.853001003932162 
680	 0.85310901472876 
681	 0.853270703324278 
682	 0.853474607360518 
683	 0.853698871836454 
684	 0.853911018967439 
685	 0.854073664437501 
686	 0.854157807554542 
687	 0.85420103287992 
688	 0.854327247770772 
689	 0.854452355959173 
690	 0.854569042967145 
691	 0.854710810180665 
692	 0.854999041514103 
693	 0.855178989997021 
694	 0.855294173590363 
695	 0.855543105619308 
696	 0.855617924322825 
697	 0.855794145520581 
698	 0.856094158286113 
699	 0.856034214224894 
700	 0.8561666240508 
701	 0.856403782236887 
702	 0.856543075795996 
703	 0.856682842029318 
704	 0.856886807624072 
705	 0.857091056869523 
706	 0.857158441792564 
707	 0.857138903810656 
708	 0.857276750444596 
709	 0.857579418845687 
710	 0.857625824737134 
711	 0.857694753518313 
712	 0.857845614032596 
713	 0.858032394588368 
714	 0.858052670025955 
715	 0.858111868846614 
716	 0.858223214648455 
717	 0.858267217051733 
718	 0.858345293332013 
719	 0.858480187456715 
720	 0.858643260304862 
721	 0.85874516996459 
722	 0.858715010794013 
723	 0.858717367617817 
724	 0.858884931407251 
725	 0.858916298701598 
726	 0.858979906808922 
727	 0.859116314056294 
728	 0.859257134210985 
729	 0.859282106405978 
730	 0.859310345933496 
731	 0.859425636517009 
732	 0.859606430225493 
733	 0.85964117738514 
734	 0.859599242676634 
735	 0.859620069074933 
736	 0.859749571392265 
737	 0.859881222141412 
738	 0.859975427825691 
739	 0.860041973443778 
740	 0.860079284233862 
741	 0.86004837096107 
742	 0.860024424109315 
743	 0.860254110165118 
744	 0.86049338933962 
745	 0.860542284812668 
746	 0.860380438397702 
747	 0.860513300343631 
748	 0.860644590032113 
749	 0.860773695677797 
750	 0.861025725208534 
751	 0.861084361247312 
752	 0.861061410194172 
753	 0.861064961863235 
754	 0.861134184968404 
755	 0.86128022789601 
756	 0.861379503898828 
757	 0.861357580064603 
758	 0.861358884935169 
759	 0.861390272850236 
760	 0.861501378349368 
761	 0.861723516144165 
762	 0.861909061579579 
763	 0.861924326256313 
764	 0.861850672202592 
765	 0.861973599154162 
766	 0.862057932552389 
767	 0.862168670356649 
768	 0.862346324066812 
769	 0.862443208256433 
770	 0.862557239596195 
771	 0.862682034868776 
772	 0.86279340369935 
773	 0.86298621782129 
774	 0.863042029627097 
775	 0.862986872156477 
776	 0.86304604777294 
777	 0.863186565948072 
778	 0.863321424716259 
779	 0.86340480594603 
780	 0.863475788910377 
781	 0.863595736032615 
782	 0.863723692465652 
783	 0.863802440389467 
784	 0.863826549550509 
785	 0.863909013193994 
786	 0.864039930641312 
787	 0.864142686435882 
788	 0.8642355130061 
789	 0.864391251506166 
790	 0.864560702809944 
791	 0.864559757162502 
792	 0.86460150633124 
793	 0.864699404729214 
794	 0.864814053310162 
795	 0.864889901679284 
796	 0.864939526430498 
797	 0.864915393717758 
798	 0.864819792073138 
799	 0.864972697358684 
800	 0.865142673193107 
801	 0.865216047293789 
802	 0.865212330864825 
803	 0.865306620873513 
804	 0.865353702786475 
805	 0.865338856826508 
806	 0.865502003850504 
807	 0.86564055814572 
808	 0.86564484367593 
809	 0.865550462156632 
810	 0.865741701684827 
811	 0.865875987335536 
812	 0.865934103784572 
813	 0.866024235340118 
814	 0.866064181477451 
815	 0.866147394176409 
816	 0.866298035951313 
817	 0.866455743963464 
818	 0.866431246479095 
819	 0.866412309142393 
820	 0.866498846145879 
821	 0.866549570517535 
822	 0.866558189057224 
823	 0.866614188421295 
824	 0.866745576823669 
825	 0.866690636146676 
826	 0.866762851652467 
827	 0.866896130911296 
828	 0.866889541971806 
829	 0.866862864040307 
830	 0.866989666297661 
831	 0.86721205031836 
832	 0.867285847825804 
833	 0.867287375301039 
834	 0.867325545221592 
835	 0.867402899337187 
836	 0.867353284923061 
837	 0.867321845923235 
838	 0.867375304538947 
839	 0.86749008577109 
840	 0.867463437521758 
841	 0.86735350316199 
842	 0.867271565964373 
843	 0.86730336949687 
844	 0.867271379217957 
845	 0.867361878597126 
846	 0.867517272457775 
847	 0.867526167099334 
848	 0.867595417025136 
849	 0.86759489138057 
850	 0.867516216513705 
851	 0.867537764670777 
852	 0.867508190444361 
853	 0.867471809137237 
854	 0.867465948168663 
855	 0.867427160863031 
856	 0.867417155622767 
857	 0.867427540700302 
858	 0.867437288710592 
859	 0.867469193656862 
860	 0.867475717161235 
861	 0.867480125639919 
862	 0.867546214597267 
863	 0.867752396307516 
864	 0.867828904073769 
865	 0.867748881024151 
866	 0.86770478008025 
867	 0.867612113934148 
868	 0.867613065930616 
869	 0.867673265144822 
870	 0.867500541984749 
871	 0.867373653281968 
872	 0.867387279162656 
873	 0.86753385669134 
874	 0.867696899110559 
875	 0.86769837813839 
876	 0.867575484712583 
877	 0.867458929314171 
878	 0.867482383089262 
879	 0.867676371258336 
880	 0.867859518407199 
881	 0.867792018230972 
882	 0.867490008169188 
883	 0.86740413587497 
884	 0.867482198353433 
885	 0.867334404417812 
886	 0.867374531242749 
887	 0.867353837196706 
888	 0.867209013979758 
889	 0.867159800227779 
890	 0.867094718299807 
891	 0.867087790168382 
892	 0.86713242812491 
893	 0.867042751595436 
894	 0.866971032232774 
895	 0.866895122278979 
896	 0.866789377110438 
897	 0.866736877432635 
898	 0.866630523722272 
899	 0.866553055576966 
900	 0.866584068964647 
901	 0.8665487742711 
902	 0.866444779082632 
903	 0.866318244793696 
904	 0.866242557525791 
905	 0.866288867902585 
906	 0.866272036186816 
907	 0.866153695825439 
908	 0.866018495663008 
909	 0.865895330051078 
910	 0.865825992946744 
911	 0.865825877288116 
912	 0.865877132670294 
913	 0.865915995491489 
914	 0.8659298994321 
915	 0.865884914673038 
916	 0.865721950437043 
917	 0.865808496013179 
918	 0.865833196467135 
919	 0.865647420582591 
920	 0.865655632751976 
921	 0.865793283895663 
922	 0.865887940187343 
923	 0.865817598506624 
924	 0.865660101686454 
925	 0.865652093070082 
926	 0.865673516189163 
927	 0.865576014981173 
928	 0.865542852395741 
929	 0.865673335632309 
930	 0.865859250868522 
931	 0.86591917925552 
932	 0.865774941193652 
933	 0.865846695932386 
934	 0.866031602851675 
935	 0.866013805573182 
936	 0.866061674011 
937	 0.866224544322085 
938	 0.86636240917367 
939	 0.866281817923054 
940	 0.866273040637284 
941	 0.866396554811701 
942	 0.866595301439459 
943	 0.866722241215057 
944	 0.866612163842428 
945	 0.866579565175895 
946	 0.866688723519156 
947	 0.866696012317269 
948	 0.86667016765001 
949	 0.866750290979556 
950	 0.866837791842955 
951	 0.86657767606489 
952	 0.866449908542857 
953	 0.866321332465361 
954	 0.866149105822457 
955	 0.866169475421485 
956	 0.86632226265383 
957	 0.866181324547139 
958	 0.865699809638215 
959	 0.865564946790145 
960	 0.865291426488161 
961	 0.865082234554962 
962	 0.865055467632012 
963	 0.86486206742478 
964	 0.86496479100179 
965	 0.865151890407752 
966	 0.865187681573451 
967	 0.865204348457115 
968	 0.86508236438422 
969	 0.865073013800585 
970	 0.865324302174596 
971	 0.865485671086237 
972	 0.865467970951625 
973	 0.865341821795005 
974	 0.865235129399265 
975	 0.865225627247315 
976	 0.865432777778482 
977	 0.865592353331717 
978	 0.86546617594225 
979	 0.865264771376777 
980	 0.865299072259842 
981	 0.865366252438804 
982	 0.865254612737532 
983	 0.865365427002373 
984	 0.865356412464277 
985	 0.865397158567655 
986	 0.865647395019549 
987	 0.865647095010443 
988	 0.865460000612792 
989	 0.865309493749775 
990	 0.865362340341664 
991	 0.865379531835775 
992	 0.865414812442378 
993	 0.865434040364423 
994	 0.865396078782796 
995	 0.865325766416615 
996	 0.865267463294945 
997	 0.865298301107906 
998	 0.865447265216964 
999	 0.865571746922427 
1000	 0.865755464565454 
1001	 0.869532130046983 
1002	 0.869522799568251 
1003	 0.869574865135806 
1004	 0.869598924829687 
1005	 0.869695345679287 
1006	 0.869705790068842 
1007	 0.869675858002881 
1008	 0.869641179919782 
1009	 0.86958534055739 
1010	 0.869525095908491 
1011	 0.869416049539901 
1012	 0.869353572795591 
1013	 0.869316870440803 
1014	 0.869278638529235 
1015	 0.869284253292056 
1016	 0.869240361066667 
1017	 0.869183104236625 
1018	 0.869124156993528 
1019	 0.869015845866984 
1020	 0.868981583572828 
1021	 0.868972949306591 
1022	 0.869014653536114 
1023	 0.868998068927212 
1024	 0.868997149595917 
1025	 0.868973406532479 
1026	 0.868867338269644 
1027	 0.86884985448349 
1028	 0.868873158466814 
1029	 0.86891753925055 
1030	 0.86898741026943 
1031	 0.869051302056461 
1032	 0.869081006234568 
1033	 0.869097985027578 
1034	 0.869122916762289 
1035	 0.869145670852232 
1036	 0.869131389641854 
1037	 0.869083557029482 
1038	 0.869078351699416 
1039	 0.869036624350787 
1040	 0.869055885314202 
1041	 0.869130432938105 
1042	 0.869191519378999 
1043	 0.869272028297644 
1044	 0.869355916517132 
1045	 0.869421367859779 
1046	 0.86955642016509 
1047	 0.869613588759056 
1048	 0.869605797755574 
1049	 0.869589628381108 
1050	 0.869580160467761 
1051	 0.869693944202786 
1052	 0.869732114554281 
1053	 0.869754456252874 
1054	 0.869781699148414 
1055	 0.869816057029717 
1056	 0.869776897691173 
1057	 0.869859830527551 
1058	 0.870060149529168 
1059	 0.870129646120494 
1060	 0.87022628888655 
1061	 0.870314397443043 
1062	 0.870307724876757 
1063	 0.870348862428896 
1064	 0.87043633876609 
1065	 0.870496336243502 
1066	 0.870564117792011 
1067	 0.870634206022047 
1068	 0.870628484329973 
1069	 0.870634786615843 
1070	 0.870689839602504 
1071	 0.870771675790567 
1072	 0.870838854901197 
1073	 0.870971213077693 
1074	 0.871067942448485 
1075	 0.871093173972793 
1076	 0.871149243721685 
1077	 0.871185682423451 
1078	 0.871224813068325 
1079	 0.871279443478387 
1080	 0.871326110751957 
1081	 0.871379068154546 
1082	 0.871440466015494 
1083	 0.871522803526533 
1084	 0.871614939290618 
1085	 0.871646206904493 
1086	 0.871695363315839 
1087	 0.871733161718995 
1088	 0.871813639790777 
1089	 0.871864291770851 
1090	 0.871949871980356 
1091	 0.872056677422951 
1092	 0.872075927406855 
1093	 0.872127044041139 
1094	 0.87220118630438 
1095	 0.872206669197136 
1096	 0.872227917989663 
1097	 0.872202786330258 
1098	 0.872164086518725 
1099	 0.87219049094125 
1100	 0.872180281554838 
1101	 0.87219556047421 
1102	 0.872245056793604 
1103	 0.872231378259693 
1104	 0.872166700559626 
1105	 0.872129633310683 
1106	 0.87209090410571 
1107	 0.872007965720452 
1108	 0.871988586606223 
1109	 0.871966412207198 
1110	 0.871917729351058 
1111	 0.871875236683898 
1112	 0.871795372691771 
1113	 0.8716876501845 
1114	 0.871598942439611 
1115	 0.87149902348414 
1116	 0.871368633330967 
1117	 0.871276293082897 
1118	 0.8711940277015 
1119	 0.871117717903061 
1120	 0.871028782498674 
1121	 0.870961095081984 
1122	 0.870881501133956 
1123	 0.870746952767301 
1124	 0.870594258757 
1125	 0.870428338958373 
1126	 0.870212905022798 
1127	 0.869969183321274 
1128	 0.869705548166256 
1129	 0.869453456006185 
1130	 0.869190561293219 
1131	 0.868873197528216 
1132	 0.868553058775242 
1133	 0.868241723458167 
1134	 0.867919588053387 
1135	 0.867548709716461 
1136	 0.867176265630876 
1137	 0.866775204735414 
1138	 0.866285431830269 
1139	 0.865825616311055 
1140	 0.865383156092779 
1141	 0.864950162507684 
1142	 0.864437402382469 
1143	 0.863949145711757 
1144	 0.863444392426364 
1145	 0.862876785720112 
1146	 0.862348476765478 
1147	 0.861825855663975 
1148	 0.861241113002915 
1149	 0.860674824224807 
1150	 0.860131724986231 
1151	 0.859576549282342 
1152	 0.858994953820288 
1153	 0.85842902154649 
1154	 0.857818219674059 
1155	 0.857161345178425 
1156	 0.856487188067524 
1157	 0.855795980721804 
1158	 0.855112288067958 
1159	 0.85440637433185 
1160	 0.85369331316569 
1161	 0.852995322020974 
1162	 0.852205365527869 
1163	 0.851415412330404 
1164	 0.850604754028821 
1165	 0.849794240626391 
1166	 0.849098097572806 
1167	 0.848424420682284 
1168	 0.847805844084986 
1169	 0.847214213979026 
1170	 0.846660930549298 
1171	 0.846130904435534 
1172	 0.845637561883296 
1173	 0.845158046601454 
1174	 0.844720411414409 
1175	 0.844299171903743 
1176	 0.843921450379655 
1177	 0.843506849992156 
1178	 0.843102559875765 
1179	 0.842659187142966 
1180	 0.842259177901949 
1181	 0.841809504848266 
1182	 0.841332134389053 
1183	 0.840885682691497 
1184	 0.840341184427363 
1185	 0.839792778413151 
1186	 0.839270508100716 
1187	 0.838738432442429 
1188	 0.838246809823908 
1189	 0.837753673077918 
1190	 0.837324781592593 
1191	 0.836932350715131 
1192	 0.836596685033471 
1193	 0.836320973144902 
1194	 0.836071165912193 
1195	 0.835876687158581 
1196	 0.835677138266415 
1197	 0.835506076942375 
1198	 0.835343784874321 
1199	 0.835157475381979 
1200	 0.835027199531177 
1201	 0.834872871902368 
1202	 0.834695261491311 
1203	 0.834540025003741 
1204	 0.834366776615353 
1205	 0.834234698586047 
1206	 0.834121820780542 
1207	 0.83402729842491 
1208	 0.833927346436619 
1209	 0.833911477891447 
1210	 0.833904457968756 
1211	 0.833995998913363 
1212	 0.834163011378619 
1213	 0.834398618538649 
1214	 0.834693821335061 
1215	 0.835077177969303 
1216	 0.835518408695863 
1217	 0.836069177869092 
1218	 0.836738564965214 
1219	 0.837447814170092 
1220	 0.838243177934398 
1221	 0.839162306330752 
1222	 0.840030796837349 
1223	 0.840954593743367 
1224	 0.84187936466694 
1225	 0.842844568370168 
1226	 0.843726603229882 
1227	 0.844614576229875 
1228	 0.845448846598353 
1229	 0.846220122798823 
1230	 0.846983114606469 
1231	 0.847767530339961 
1232	 0.848455519762053 
1233	 0.849050750703473 
1234	 0.849650958472787 
1235	 0.85019468658685 
1236	 0.850733572740444 
1237	 0.851294138709947 
1238	 0.851795943565861 
1239	 0.852250353846504 
1240	 0.85268550438882 
1241	 0.853096170552535 
1242	 0.85343163820665 
1243	 0.853763214992479 
1244	 0.85406491291946 
1245	 0.854352560236561 
1246	 0.854611945702438 
1247	 0.854862688641101 
1248	 0.855086837834182 
1249	 0.855324055884299 
1250	 0.855560664882974 
1251	 0.855772338944017 
1252	 0.855982539976238 
1253	 0.856177812602041 
1254	 0.856353870578863 
1255	 0.856511218360715 
1256	 0.856686604797965 
1257	 0.856799620262063 
1258	 0.856854266143412 
1259	 0.856905043170605 
1260	 0.85689912164824 
1261	 0.856914042553452 
1262	 0.856924741673723 
1263	 0.856945635247705 
1264	 0.8569642475033 
1265	 0.856990841725605 
1266	 0.857005744629028 
1267	 0.857022768064753 
1268	 0.857020796190803 
1269	 0.857010087356552 
1270	 0.856989950984773 
1271	 0.856947283345059 
1272	 0.856917073854471 
1273	 0.856880979804621 
1274	 0.856855239921832 
1275	 0.856830397032695 
1276	 0.856817705560595 
1277	 0.856820902462484 
1278	 0.856815942355464 
1279	 0.856825900005336 
1280	 0.856818194791516 
1281	 0.856785423192486 
1282	 0.856771115531819 
1283	 0.856743498283101 
1284	 0.856740765710342 
1285	 0.856754795244086 
1286	 0.85679299803341 
1287	 0.856822774804819 
1288	 0.856866565851296 
1289	 0.856903016619673 
1290	 0.856935556646135 
1291	 0.856974206079376 
1292	 0.857023419955042 
1293	 0.857055991052558 
1294	 0.857084204675666 
1295	 0.857109145498818 
1296	 0.857123778010736 
1297	 0.857139681619113 
1298	 0.857159135794728 
1299	 0.857169003712908 
1300	 0.857179538238262 
1301	 0.857172752530826 
1302	 0.857153977839277 
1303	 0.857129816826636 
1304	 0.857101602687383 
1305	 0.857053119815322 
1306	 0.856989699306976 
1307	 0.856921813046914 
1308	 0.856828816685011 
1309	 0.85674269375249 
1310	 0.856655571723961 
1311	 0.856565624630031 
1312	 0.856488299785748 
1313	 0.856420822326181 
1314	 0.856335596480619 
1315	 0.856269850512123 
1316	 0.856153015933934 
1317	 0.856002102095949 
1318	 0.855852240812807 
1319	 0.855682237989293 
1320	 0.855503834374832 
1321	 0.855310081200432 
1322	 0.855125360725474 
1323	 0.854938193810056 
1324	 0.8547379614915 
1325	 0.854553781622472 
1326	 0.854334844486936 
1327	 0.854071001413864 
1328	 0.853828146896858 
1329	 0.853607039377598 
1330	 0.853340072774421 
1331	 0.853052552010463 
1332	 0.85276392335995 
1333	 0.852465948279423 
1334	 0.852118841114624 
1335	 0.85177602908506 
1336	 0.851446537417472 
1337	 0.851067374570084 
1338	 0.850646111271755 
1339	 0.850232782947912 
1340	 0.849812601933529 
1341	 0.849364126882241 
1342	 0.848900922454853 
1343	 0.848417490019066 
1344	 0.847917078266581 
1345	 0.847385136177116 
1346	 0.846823856837723 
1347	 0.846262773622334 
1348	 0.845696126113215 
1349	 0.845083743621427 
1350	 0.844453520260402 
1351	 0.843797234933498 
1352	 0.843107462068335 
1353	 0.842378410265406 
1354	 0.841609152345175 
1355	 0.840846109883664 
1356	 0.840040876549124 
1357	 0.839239729824443 
1358	 0.838414874821078 
1359	 0.837632673810536 
1360	 0.836874655758646 
1361	 0.836098163124638 
1362	 0.835307273562211 
1363	 0.834616611838211 
1364	 0.833914269532016 
1365	 0.833204005896986 
1366	 0.832535806820959 
1367	 0.831928491120456 
1368	 0.831284947442013 
1369	 0.830664018744435 
1370	 0.829976281051591 
1371	 0.829270370956164 
1372	 0.828543506258016 
1373	 0.827789430295616 
1374	 0.826974612544151 
1375	 0.826166411162705 
1376	 0.825237025419063 
1377	 0.82419071802306 
1378	 0.823127497094284 
1379	 0.821979840132971 
1380	 0.820824447102964 
1381	 0.819633401628856 
1382	 0.818411737111369 
1383	 0.817142739129309 
1384	 0.815869818068635 
1385	 0.814608876861382 
1386	 0.81328665437558 
1387	 0.811937583457317 
1388	 0.810582343726009 
1389	 0.809201229320185 
1390	 0.807791532026368 
1391	 0.806398117775263 
1392	 0.80491664201758 
1393	 0.803493738025176 
1394	 0.802031979763687 
1395	 0.800601580306266 
1396	 0.799207118056072 
1397	 0.797801665718174 
1398	 0.796410695229231 
1399	 0.794957704580319 
1400	 0.793540635025435 
1401	 0.791965644398715 
1402	 0.790373697088053 
1403	 0.788531321979835 
1404	 0.786613458690497 
1405	 0.784419492828036 
1406	 0.782008025336426 
1407	 0.779405434538925 
1408	 0.776429376968412 
1409	 0.77361905483744 
1410	 0.770449425095183 
1411	 0.767821229212354 
1412	 0.765176243091192 
1413	 0.763215107600701 
1414	 0.76163685519168 
1415	 0.760558468987498 
1416	 0.760192650734602 
1417	 0.759888108051122 
1418	 0.760151026728309 
1419	 0.760233164559246 
1420	 0.760532358113641 
1421	 0.760604966265616 
1422	 0.760619127242386 
1423	 0.760474422375642 
1424	 0.760159892801341 
1425	 0.759732659598429 
1426	 0.759251793394935 
1427	 0.758694391883697 
1428	 0.75811977435487 
1429	 0.757561683455542 
1430	 0.757010615712561 
1431	 0.756438579739743 
1432	 0.755902641910368 
1433	 0.75539257934006 
1434	 0.754882500956325 
1435	 0.75437205154599 
1436	 0.753892395584383 
1437	 0.753424315995297 
1438	 0.752990648434873 
1439	 0.75258524444388 
1440	 0.752197276586118 
1441	 0.751831624661397 
1442	 0.751486210012168 
1443	 0.751167327541043 
1444	 0.750852396240863 
1445	 0.750548126864685 
1446	 0.750275482247581 
1447	 0.750022982109693 
1448	 0.749780613238581 
1449	 0.749560929032695 
1450	 0.74935667291499 
1451	 0.749165390393027 
1452	 0.748980037722628 
1453	 0.748824987509898 
1454	 0.748662143862836 
1455	 0.748494589981905 
1456	 0.748334768039561 
1457	 0.74818871810398 
1458	 0.748030606342884 
1459	 0.747876428842913 
1460	 0.747708026171418 
1461	 0.747514951221975 
1462	 0.747340501366489 
1463	 0.747153692743835 
1464	 0.746991202339327 
1465	 0.746860620856437 
1466	 0.74671662066237 
1467	 0.746592729305101 
1468	 0.746477694889442 
1469	 0.7463661118865 
1470	 0.746297553744339 
1471	 0.746228405972501 
1472	 0.746187458986728 
1473	 0.746121516375018 
1474	 0.746059053413424 
1475	 0.74598183263002 
1476	 0.745895510888567 
1477	 0.745798567169427 
1478	 0.745703787435102 
1479	 0.745573950083604 
1480	 0.745430066179043 
1481	 0.745251604323294 
1482	 0.745046332215047 
1483	 0.744809575484391 
1484	 0.744533660528254 
1485	 0.744254170191918 
1486	 0.74393357547213 
1487	 0.743641325091555 
1488	 0.74334855722167 
1489	 0.743062523508386 
1490	 0.742772479637643 
1491	 0.742510983484958 
1492	 0.74224645847321 
1493	 0.742027223811494 
1494	 0.741853613162637 
1495	 0.741682950469079 
1496	 0.741523791214158 
1497	 0.741401270004277 
1498	 0.741290257404315 
1499	 0.74122081575527 
1500	 0.741198485841431 
1501	 0.741194386613568 
1502	 0.741221622187588 
1503	 0.741265339233123 
1504	 0.741322612577602 
1505	 0.741420228283174 
1506	 0.741543328219995 
1507	 0.741700389323892 
1508	 0.741920249347738 
1509	 0.742128159305607 
1510	 0.742350681102558 
1511	 0.742579943149322 
1512	 0.74280388055927 
1513	 0.743050043992954 
1514	 0.743321842037842 
1515	 0.743596840244291 
1516	 0.743888054392685 
1517	 0.744180452373801 
1518	 0.744484668149087 
1519	 0.744778947627262 
1520	 0.745081741815877 
1521	 0.745353247251502 
1522	 0.745643613537419 
1523	 0.745980563276667 
1524	 0.746316998609651 
1525	 0.746678110722732 
1526	 0.747054810919357 
1527	 0.74744496246888 
1528	 0.74783143912437 
1529	 0.748235510909346 
1530	 0.748645054083571 
1531	 0.749047215186751 
1532	 0.749474402276984 
1533	 0.749929712335214 
1534	 0.75037754819884 
1535	 0.750817916119862 
1536	 0.751292817947125 
1537	 0.751792322659928 
1538	 0.752283034961118 
1539	 0.752801036932255 
1540	 0.75328824687973 
1541	 0.753758940361309 
1542	 0.754231871171815 
1543	 0.754706465702482 
1544	 0.755153958641606 
1545	 0.755592853105067 
1546	 0.756011665033677 
1547	 0.756412310603371 
1548	 0.756788225739228 
1549	 0.757147244777882 
1550	 0.75748712144634 
1551	 0.757795926776385 
1552	 0.758098855470882 
1553	 0.758403233641828 
1554	 0.75866184391095 
1555	 0.758894686448158 
1556	 0.759100429670562 
1557	 0.759264711911122 
1558	 0.759422506135812 
1559	 0.759561615422028 
1560	 0.759683333891488 
1561	 0.759755907363778 
1562	 0.759881726496664 
1563	 0.760005209060051 
1564	 0.76015912238295 
1565	 0.760386331244556 
1566	 0.760546512183729 
1567	 0.760681345896302 
1568	 0.760823702162221 
1569	 0.76091939441837 
1570	 0.761066735175166 
1571	 0.761253543020383 
1572	 0.761425837861367 
1573	 0.761593879759147 
1574	 0.761796515071021 
1575	 0.762012221343605 
1576	 0.762237038063437 
1577	 0.762496964016021 
1578	 0.762753055955614 
1579	 0.763005267164104 
1580	 0.763268779297062 
1581	 0.763551564872163 
1582	 0.763828515159309 
1583	 0.764113091497536 
1584	 0.764384202616049 
1585	 0.764649438931006 
1586	 0.764915879326429 
1587	 0.765168524174712 
1588	 0.765430706075864 
1589	 0.765700855390861 
1590	 0.765969443871589 
1591	 0.766245021497093 
1592	 0.76651075332208 
1593	 0.766767279894868 
1594	 0.767031766807133 
1595	 0.767291026782601 
1596	 0.76755682878849 
1597	 0.767840770126885 
1598	 0.768108130343585 
1599	 0.768357363880535 
1600	 0.768625376141414 
1601	 0.768899321771302 
1602	 0.769170189821825 
1603	 0.769473654978319 
1604	 0.769733552139424 
1605	 0.769940451974593 
1606	 0.770186682346701 
1607	 0.770442828330339 
1608	 0.770683535579622 
1609	 0.770948103602512 
1610	 0.771191678408977 
1611	 0.77139957048235 
1612	 0.771615382367403 
1613	 0.771845095391821 
1614	 0.772052005150721 
1615	 0.772239536810856 
1616	 0.772428542253142 
1617	 0.772599862072614 
1618	 0.772780665014662 
1619	 0.772981411166394 
1620	 0.77315079552696 
1621	 0.773314511744417 
1622	 0.773459603701099 
1623	 0.773573551830804 
1624	 0.773685798543715 
1625	 0.773786667101028 
1626	 0.773881835730493 
1627	 0.773977458433392 
1628	 0.774049567637592 
1629	 0.774100686562209 
1630	 0.774151446832372 
1631	 0.77417694759364 
1632	 0.774216011171239 
1633	 0.774267829482078 
1634	 0.774310053161736 
1635	 0.774359269123987 
1636	 0.774387464739966 
1637	 0.774400641232549 
1638	 0.774405438935584 
1639	 0.774383120846797 
1640	 0.774377936624296 
1641	 0.774390217932229 
1642	 0.774378095466959 
1643	 0.774395681864322 
1644	 0.774340563071858 
1645	 0.774226506481214 
1646	 0.774100499740753 
1647	 0.773919693234801 
1648	 0.77374764119369 
1649	 0.773592218878504 
1650	 0.773380042527186 
1651	 0.773133967711607 
1652	 0.772868630823904 
1653	 0.772577632046915 
1654	 0.77224283826232 
1655	 0.771890692349842 
1656	 0.771482455090788 
1657	 0.771029299984489 
1658	 0.770507445540597 
1659	 0.769944932972473 
1660	 0.769316709845274 
1661	 0.768594582566251 
1662	 0.767853768656493 
1663	 0.767049922527992 
1664	 0.766228086788052 
1665	 0.765398556936733 
1666	 0.76448777684917 
1667	 0.763532791853853 
1668	 0.762542639489201 
1669	 0.761538928476853 
1670	 0.760388431339132 
1671	 0.759166343728735 
1672	 0.757827172738502 
1673	 0.756353745649106 
1674	 0.754770536696134 
1675	 0.75309457088741 
1676	 0.751351022135653 
1677	 0.749451319012298 
1678	 0.747564258744705 
1679	 0.745651615047595 
1680	 0.743636051484202 
1681	 0.741578224539169 
1682	 0.73938848825739 
1683	 0.737081738601878 
1684	 0.734765967905251 
1685	 0.732344210180406 
1686	 0.729927555987227 
1687	 0.727449631637321 
1688	 0.724980181187537 
1689	 0.722457273953528 
1690	 0.720007704654711 
1691	 0.717593888095216 
1692	 0.715258673519743 
1693	 0.713018367021789 
1694	 0.710716154786867 
1695	 0.708440019290638 
1696	 0.706087408969155 
1697	 0.703701356303673 
1698	 0.701226633243885 
1699	 0.698746915152427 
1700	 0.696181979076133 
1701	 0.693509423712233 
1702	 0.690822682475693 
1703	 0.688012507672378 
1704	 0.685293413055283 
1705	 0.682529371353124 
1706	 0.679802223172958 
1707	 0.677357278954054 
1708	 0.674969009382365 
1709	 0.672712368357372 
1710	 0.670653041855081 
1711	 0.668560412125249 
1712	 0.666612620595118 
1713	 0.664666106061203 
1714	 0.662702526701542 
1715	 0.660919258627066 
1716	 0.659035844306985 
1717	 0.657199575138889 
1718	 0.655469217373668 
1719	 0.653627971938613 
1720	 0.651895182444365 
1721	 0.650265044282923 
1722	 0.648680401476743 
1723	 0.647337403661931 
1724	 0.646134793763184 
1725	 0.645120966737565 
1726	 0.644400743487004 
1727	 0.643959005793058 
1728	 0.643914634380552 
1729	 0.644351215190476 
1730	 0.645228493472822 
1731	 0.646454768099467 
1732	 0.648101492879655 
1733	 0.649971342586214 
1734	 0.652145322967917 
1735	 0.6546313427913 
1736	 0.657137059495947 
1737	 0.659739922159765 
1738	 0.662294770055835 
1739	 0.664564794724561 
1740	 0.666761465193092 
1741	 0.668702284740585 
1742	 0.67047225240075 
1743	 0.671948372966922 
1744	 0.673164139661815 
1745	 0.674154426088457 
1746	 0.674828972402016 
1747	 0.675305998691731 
1748	 0.675557523697434 
1749	 0.675641319630033 
1750	 0.675453890240325 
1751	 0.675198085850816 
1752	 0.674763102258645 
1753	 0.674289172784466 
1754	 0.673655306024258 
1755	 0.673092686200711 
1756	 0.672471275049585 
1757	 0.671946621307856 
1758	 0.671423731477182 
1759	 0.670974718530056 
1760	 0.670680178488945 
1761	 0.670513485774272 
1762	 0.670531880251629 
1763	 0.670817502017927 
1764	 0.671280703578561 
1765	 0.672044787931789 
1766	 0.673123500395569 
1767	 0.674366774812684 
1768	 0.675841187970155 
1769	 0.677446166094693 
1770	 0.678992061753918 
1771	 0.680613347353094 
1772	 0.682222531539074 
1773	 0.683779888554962 
1774	 0.685383732038242 
1775	 0.686846771774573 
1776	 0.688263273909377 
1777	 0.689630304359015 
1778	 0.690791774271487 
1779	 0.691916547446875 
1780	 0.692946580711637 
1781	 0.69379083103264 
1782	 0.694595850067443 
1783	 0.69530571556371 
1784	 0.695944604754972 
1785	 0.696520676166821 
1786	 0.697060902993437 
1787	 0.697560575357799 
1788	 0.698008675263237 
1789	 0.698405774152115 
1790	 0.698790387662761 
1791	 0.699125715038167 
1792	 0.699458407974783 
1793	 0.69976347747884 
1794	 0.700045737406423 
1795	 0.700306273320957 
1796	 0.700538680627009 
1797	 0.700770793351366 
1798	 0.700997347023401 
1799	 0.701249090878424 
1800	 0.701520610790664 
1801	 0.693611255503571 
1802	 0.694111064599897 
1803	 0.69462859748878 
1804	 0.695225403602171 
1805	 0.69589401790201 
1806	 0.696511826795813 
1807	 0.697171626301235 
1808	 0.697764893474432 
1809	 0.698370355293848 
1810	 0.698889706656126 
1811	 0.699367768589412 
1812	 0.699797510353424 
1813	 0.700162118511298 
1814	 0.700496121038637 
1815	 0.700791852191189 
1816	 0.701091940167752 
1817	 0.701382445238857 
1818	 0.701656779660352 
1819	 0.701929855660995 
1820	 0.702178622514398 
1821	 0.702452849247294 
1822	 0.70272749328451 
1823	 0.703010231028452 
1824	 0.703327340427765 
1825	 0.703662079289394 
1826	 0.703989202684517 
1827	 0.704336904745894 
1828	 0.704651529822952 
1829	 0.704976154807416 
1830	 0.705259884704995 
1831	 0.705509801132411 
1832	 0.705763623630694 
1833	 0.705980126055216 
1834	 0.706180706832225 
1835	 0.706408774709315 
1836	 0.706647953055854 
1837	 0.706893297134765 
1838	 0.707152490106949 
1839	 0.707412266302833 
1840	 0.707673726082185 
1841	 0.707946822669881 
1842	 0.708220704422188 
1843	 0.708528654320423 
1844	 0.7088518288073 
1845	 0.709119405668456 
1846	 0.709384118097829 
1847	 0.709613406330841 
1848	 0.709833674752759 
1849	 0.710040046515431 
1850	 0.710221568654923 
1851	 0.710391012457387 
1852	 0.710539887574603 
1853	 0.710637362030281 
1854	 0.710689759252857 
1855	 0.710695382131001 
1856	 0.710662066908405 
1857	 0.710576379313371 
1858	 0.710444539706786 
1859	 0.710287385657636 
1860	 0.710104508841605 
1861	 0.709856386945288 
1862	 0.709582728459466 
1863	 0.709247909559303 
1864	 0.708813083597962 
1865	 0.70833296076161 
1866	 0.707728290554241 
1867	 0.70698158523663 
1868	 0.70615688710105 
1869	 0.70522699796593 
1870	 0.70422370872535 
1871	 0.703110509820687 
1872	 0.701991763858857 
1873	 0.700803245064956 
1874	 0.699590372762176 
1875	 0.698374632289576 
1876	 0.697046606230093 
1877	 0.69576085263132 
1878	 0.694319091205117 
1879	 0.692716026381711 
1880	 0.691171282587452 
1881	 0.689424916465107 
1882	 0.687518611879508 
1883	 0.685514303765804 
1884	 0.683366508653327 
1885	 0.680846481317379 
1886	 0.678231568548527 
1887	 0.675361941851173 
1888	 0.672224442759253 
1889	 0.669179121480261 
1890	 0.665845232822205 
1891	 0.662429050129694 
1892	 0.658962308079016 
1893	 0.655216490847144 
1894	 0.651170058655089 
1895	 0.647202772170768 
1896	 0.642998654968155 
1897	 0.638622918351685 
1898	 0.634596605183165 
1899	 0.630309885822464 
1900	 0.626051673700302 
1901	 0.621910101622082 
1902	 0.617348709028972 
1903	 0.612960702071817 
1904	 0.608638826320723 
1905	 0.604286855806417 
1906	 0.599971837498337 
1907	 0.59613094674445 
1908	 0.592228980814098 
1909	 0.588461126446933 
1910	 0.584870930678463 
1911	 0.581075803010259 
1912	 0.57748800685786 
1913	 0.57391942079392 
1914	 0.570353558278348 
1915	 0.567031901176581 
1916	 0.563944119761544 
1917	 0.560793357027635 
1918	 0.557825307388951 
1919	 0.555017573948046 
1920	 0.55205335982587 
1921	 0.54930449987738 
1922	 0.546580162853991 
1923	 0.543867420077926 
1924	 0.541508667479575 
1925	 0.539173818271353 
1926	 0.536949779943764 
1927	 0.534933185139098 
1928	 0.532914045374515 
1929	 0.530887089298015 
1930	 0.529060940537439 
1931	 0.527328814670679 
1932	 0.525655772235833 
1933	 0.524251257686401 
1934	 0.522910069288382 
1935	 0.521674003828915 
1936	 0.520615880193599 
1937	 0.519611868570905 
1938	 0.518664942016577 
1939	 0.51789456533987 
1940	 0.517249230165814 
1941	 0.516695160796441 
1942	 0.516314905551371 
1943	 0.516010871384688 
1944	 0.515768005837224 
1945	 0.515651616239803 
1946	 0.515633239693988 
1947	 0.515712876029532 
1948	 0.515899345316464 
1949	 0.516158941729112 
1950	 0.516469673214581 
1951	 0.516867488281501 
1952	 0.517293132612388 
1953	 0.517757242768712 
1954	 0.518280050264094 
1955	 0.518903435942169 
1956	 0.519530344233688 
1957	 0.520225745666837 
1958	 0.521013911176986 
1959	 0.521774807559492 
1960	 0.522574940022282 
1961	 0.523394470912089 
1962	 0.524231525591783 
1963	 0.525095298868502 
1964	 0.525998298533761 
1965	 0.526897105737095 
1966	 0.527830453681138 
1967	 0.528768755715363 
1968	 0.52962987233886 
1969	 0.530497658599793 
1970	 0.531345069029638 
1971	 0.532175963883181 
1972	 0.533092925959983 
1973	 0.533976799321777 
1974	 0.534852228565526 
1975	 0.535727115759532 
1976	 0.536614057844233 
1977	 0.537469907759278 
1978	 0.538380053051983 
1979	 0.539328053107943 
1980	 0.540265627045703 
1981	 0.541278075438973 
1982	 0.542249437329841 
1983	 0.543251000429533 
1984	 0.544301101536332 
1985	 0.545259594390572 
1986	 0.5462488581677 
1987	 0.547219054498898 
1988	 0.54814278398206 
1989	 0.54911009608121 
1990	 0.550108147961152 
1991	 0.551071743046857 
1992	 0.552040437756922 
1993	 0.553026165062823 
1994	 0.553910898724923 
1995	 0.554833885294905 
1996	 0.555751060630752 
1997	 0.556640630094784 
1998	 0.557583796740468 
1999	 0.558576654648019 
2000	 0.559518628630674 
2001	 0.560508866120251 
2002	 0.561408979169316 
2003	 0.562246758604369 
2004	 0.563073706654488 
2005	 0.563824929313867 
2006	 0.56460521675481 
2007	 0.565390901098617 
2008	 0.566166969892189 
2009	 0.566919312096225 
2010	 0.567668647660742 
2011	 0.568365378934574 
2012	 0.569058102793417 
2013	 0.569706901088151 
2014	 0.570336884221069 
2015	 0.570927165626677 
2016	 0.571497442109074 
2017	 0.571982437789858 
2018	 0.572445196337798 
2019	 0.572817131589009 
2020	 0.573098883952483 
2021	 0.573330986834526 
2022	 0.573484154115126 
2023	 0.573547227776451 
2024	 0.573547379745652 
2025	 0.573449034213816 
2026	 0.573272035711965 
2027	 0.573006641571089 
2028	 0.572680918106759 
2029	 0.572250964143029 
2030	 0.57178756227513 
2031	 0.571286787739674 
2032	 0.570701786366703 
2033	 0.569988056228313 
2034	 0.569317421524635 
2035	 0.568602824924673 
2036	 0.567848716585488 
2037	 0.567175447085614 
2038	 0.566532458791826 
2039	 0.565906776841192 
2040	 0.565284921519677 
2041	 0.564742857495539 
2042	 0.564205380600286 
2043	 0.563788139082213 
2044	 0.563473005075686 
2045	 0.563193993419723 
2046	 0.563004413618994 
2047	 0.562850208661905 
2048	 0.562725102970887 
2049	 0.56266367892394 
2050	 0.562665516900767 
2051	 0.562710229957692 
2052	 0.562813528487813 
2053	 0.563015014529861 
2054	 0.563293011728116 
2055	 0.563638941465492 
2056	 0.564092709455209 
2057	 0.564631404538365 
2058	 0.56528214575629 
2059	 0.566042210340602 
2060	 0.566879279472054 
2061	 0.567863031541738 
2062	 0.568849858057992 
2063	 0.569905081526058 
2064	 0.571012997851159 
2065	 0.572166433380057 
2066	 0.573337016975364 
2067	 0.574690047804591 
2068	 0.57599670678564 
2069	 0.577323142567841 
2070	 0.578751564455697 
2071	 0.580052659844529 
2072	 0.581285431234024 
2073	 0.582537596514506 
2074	 0.583734256136488 
2075	 0.584968398070863 
2076	 0.586273612111744 
2077	 0.587459188265429 
2078	 0.588658489745173 
2079	 0.589733353872528 
2080	 0.590653760096208 
2081	 0.591586802846108 
2082	 0.59247908309034 
2083	 0.593292719429149 
2084	 0.594142319798191 
2085	 0.594932279326253 
2086	 0.595657485590987 
2087	 0.596331981797421 
2088	 0.596956990855056 
2089	 0.597514897033032 
2090	 0.598041204585634 
2091	 0.598521408893569 
2092	 0.598963912533753 
2093	 0.599361493088013 
2094	 0.599708965417174 
2095	 0.60002830644685 
2096	 0.600284363585105 
2097	 0.600470338889 
2098	 0.600624462647028 
2099	 0.600742279809152 
2100	 0.600782355752031 
2101	 0.600799017806333 
2102	 0.600773849719367 
2103	 0.60071369859686 
2104	 0.600590040940186 
2105	 0.600481835375134 
2106	 0.600359739860085 
2107	 0.600203703212787 
2108	 0.600037994957459 
2109	 0.599840071124579 
2110	 0.599615469118431 
2111	 0.599342915461893 
2112	 0.599044562963853 
2113	 0.59870305869514 
2114	 0.598270747847901 
2115	 0.597865481865281 
2116	 0.597456939914369 
2117	 0.597034972009922 
2118	 0.59657568875261 
2119	 0.596103984460712 
2120	 0.595623616716994 
2121	 0.595088667820809 
2122	 0.594589346050311 
2123	 0.594132791152073 
2124	 0.593610896831757 
2125	 0.59304776683326 
2126	 0.592511020701522 
2127	 0.591986650884496 
2128	 0.591398043041704 
2129	 0.590786253317086 
2130	 0.590170961441702 
2131	 0.589527071545001 
2132	 0.588836715272374 
2133	 0.588193156687046 
2134	 0.587451823667725 
2135	 0.586519174059064 
2136	 0.585555488129918 
2137	 0.58446084704978 
2138	 0.583201982182307 
2139	 0.581950623335255 
2140	 0.580611135278081 
2141	 0.57927404465434 
2142	 0.577926604433797 
2143	 0.576494182741279 
2144	 0.574931493035448 
2145	 0.573507505477151 
2146	 0.572006414562485 
2147	 0.570659627021242 
2148	 0.569495009201671 
2149	 0.568292478419833 
2150	 0.567151326286246 
2151	 0.566009183465692 
2152	 0.564907897069969 
2153	 0.563775602853377 
2154	 0.562621047380839 
2155	 0.561438111821552 
2156	 0.560274508258187 
2157	 0.559103616046679 
2158	 0.557889800165684 
2159	 0.55673558477616 
2160	 0.55539132073272 
2161	 0.553895924536663 
2162	 0.552467778533721 
2163	 0.55089324919879 
2164	 0.549481757063369 
2165	 0.548158765305491 
2166	 0.546835672938929 
2167	 0.54557700905447 
2168	 0.544319568376805 
2169	 0.543013241748108 
2170	 0.541848433365952 
2171	 0.540671399171596 
2172	 0.539688069794542 
2173	 0.538890277625671 
2174	 0.538154610566749 
2175	 0.537535633843436 
2176	 0.537022199449107 
2177	 0.536510070794369 
2178	 0.536035893881641 
2179	 0.535635918625221 
2180	 0.535282867920934 
2181	 0.53501181442756 
2182	 0.534829260082799 
2183	 0.534667981623368 
2184	 0.534554682775228 
2185	 0.534519622708403 
2186	 0.534527352345891 
2187	 0.534625138027448 
2188	 0.534846163688633 
2189	 0.535069936483685 
2190	 0.535378358489656 
2191	 0.535667550165834 
2192	 0.535962597881124 
2193	 0.536299332701805 
2194	 0.536707112190957 
2195	 0.537056653244725 
2196	 0.537415691567814 
2197	 0.537763024256712 
2198	 0.53805728204039 
2199	 0.538313744806236 
2200	 0.538582227010445 
2201	 0.538865128083218 
2202	 0.539097056833249 
2203	 0.539295132147551 
2204	 0.539479913969134 
2205	 0.539638740827371 
2206	 0.539774417565765 
2207	 0.539887946994042 
2208	 0.539984948021201 
2209	 0.540042493422174 
2210	 0.540107748845858 
2211	 0.540175402054565 
2212	 0.540208566351106 
2213	 0.54021948509862 
2214	 0.540229404760962 
2215	 0.540188162169387 
2216	 0.540185488419155 
2217	 0.540231545190688 
2218	 0.540226968201076 
2219	 0.540216676950898 
2220	 0.540197641505064 
2221	 0.540170598119215 
2222	 0.540091055600075 
2223	 0.540021770261618 
2224	 0.539837337818444 
2225	 0.539626376744027 
2226	 0.539366053721336 
2227	 0.539022639593585 
2228	 0.538645868545561 
2229	 0.538165693796765 
2230	 0.537579452150273 
2231	 0.536931435254894 
2232	 0.536241256592127 
2233	 0.535395011985563 
2234	 0.534486379758833 
2235	 0.533356831242552 
2236	 0.532037482121607 
2237	 0.530632400098663 
2238	 0.528990481274236 
2239	 0.527382424145995 
2240	 0.52577392036026 
2241	 0.523982394195062 
2242	 0.522160727439572 
2243	 0.520126229795607 
2244	 0.517884869007442 
2245	 0.515541743574496 
2246	 0.512929183199115 
2247	 0.510384013502623 
2248	 0.507829589282628 
2249	 0.505143506011541 
2250	 0.502417093316189 
2251	 0.499669778344296 
2252	 0.496593760497691 
2253	 0.493589506417446 
2254	 0.490473895442818 
2255	 0.487293650678685 
2256	 0.484385556254418 
2257	 0.48134968430644 
2258	 0.478411499332586 
2259	 0.475634874410827 
2260	 0.472694162500018 
2261	 0.469636352887087 
2262	 0.466744593866351 
2263	 0.463781249195652 
2264	 0.46105557993865 
2265	 0.458520726677406 
2266	 0.455976647003586 
2267	 0.453604989247451 
2268	 0.451137452471285 
2269	 0.448622074788682 
2270	 0.446229032120967 
2271	 0.443750070937779 
2272	 0.441539876633914 
2273	 0.439533027506793 
2274	 0.43757208654491 
2275	 0.435835869192115 
2276	 0.434045386127637 
2277	 0.432305349815973 
2278	 0.43057004547785 
2279	 0.42883090872226 
2280	 0.427114004712271 
2281	 0.425474850895055 
2282	 0.423726217752933 
2283	 0.42193737201791 
2284	 0.420171053442215 
2285	 0.418193616193745 
2286	 0.416280077961815 
2287	 0.414277868284847 
2288	 0.412251433444874 
2289	 0.410413359405938 
2290	 0.408461148579286 
2291	 0.406517991047789 
2292	 0.404522916603629 
2293	 0.402174406127378 
2294	 0.399754413769117 
2295	 0.397147590740496 
2296	 0.394311976958962 
2297	 0.391513417680721 
2298	 0.3886244449989 
2299	 0.385663586538451 
2300	 0.382658104968032 
2301	 0.379572111735104 
2302	 0.376266032803936 
2303	 0.373267067961988 
2304	 0.370104016687032 
2305	 0.367549941471786 
2306	 0.365208564320686 
2307	 0.363440560920981 
2308	 0.362025944175193 
2309	 0.36137936634249 
2310	 0.361225444003154 
2311	 0.361955492596049 
2312	 0.363672278055743 
2313	 0.365718446784511 
2314	 0.368686701980182 
2315	 0.37167611566326 
2316	 0.375180554527414 
2317	 0.378565479086759 
2318	 0.382431676338268 
2319	 0.385687392416935 
2320	 0.388964260759234 
2321	 0.391597276611947 
2322	 0.393667731079194 
2323	 0.395482923906403 
2324	 0.396764422516964 
2325	 0.397891357418705 
2326	 0.398722764574478 
2327	 0.399343851468207 
2328	 0.399667025403238 
2329	 0.399855995106389 
2330	 0.399811653527339 
2331	 0.39961646037818 
2332	 0.399279775915962 
2333	 0.398804449276805 
2334	 0.398069693780684 
2335	 0.39711700495478 
2336	 0.395851821011861 
2337	 0.394252778083961 
2338	 0.392510903137497 
2339	 0.390430925796228 
2340	 0.388176693133786 
2341	 0.385738489104289 
2342	 0.383008420650691 
2343	 0.380293965883245 
2344	 0.377604500605298 
2345	 0.375013432381198 
2346	 0.372885706506424 
2347	 0.371105733143406 
2348	 0.36972315325251 
2349	 0.369041679264611 
2350	 0.36901494216066 
2351	 0.369635311322585 
2352	 0.370941820941579 
2353	 0.372975485602113 
2354	 0.375214796249558 
2355	 0.37779291249617 
2356	 0.380432029435537 
2357	 0.382940819247865 
2358	 0.385581530209987 
2359	 0.387861958185775 
2360	 0.38994460527101 
2361	 0.391704407291964 
2362	 0.39288437120409 
2363	 0.393770231222884 
2364	 0.394494611448497 
2365	 0.395050651198064 
2366	 0.395511045946858 
2367	 0.395908232698114 
2368	 0.3962255133021 
2369	 0.396465563300976 
2370	 0.396727211513156 
2371	 0.397000863307299 
2372	 0.397160212397692 
2373	 0.397351815478298 
2374	 0.397555989579919 
2375	 0.39766028163897 
2376	 0.397818962086901 
2377	 0.397946769333383 
2378	 0.397959948805737 
2379	 0.398028874789834 
2380	 0.398073199982381 
2381	 0.398036287780341 
2382	 0.398029114239686 
2383	 0.398025626409147 
2384	 0.398012719295293 
2385	 0.397984622705301 
2386	 0.397991136426 
2387	 0.39797343230358 
2388	 0.398040742888287 
2389	 0.398154971467231 
2390	 0.398272985958544 
2391	 0.398519274840381 
2392	 0.398604354433855 
2393	 0.398604169554355 
2394	 0.398661839246904 
2395	 0.398683333286879 
2396	 0.39866711535907 
2397	 0.39864986434102 
2398	 0.398642140040519 
2399	 0.398536287919332 
2400	 0.398577877299801 
2401	 0.398739464454427 
2402	 0.398845462036628 
2403	 0.398964389387695 
2404	 0.399044002658606 
2405	 0.399142245250398 
2406	 0.399260258814287 
2407	 0.399377317718826 
2408	 0.399453700194219 
2409	 0.399562558644429 
2410	 0.399795412940395 
2411	 0.400033845498733 
2412	 0.400225230792527 
2413	 0.400341061404184 
2414	 0.40028293030922 
2415	 0.400242762116422 
2416	 0.400278669618019 
2417	 0.400275704861158 
2418	 0.400331731823058 
2419	 0.40035934493524 
2420	 0.400370168979212 
2421	 0.400492330253841 
2422	 0.400658731003951 
2423	 0.400733900313298 
2424	 0.400648460289635 
2425	 0.400659665778777 
2426	 0.400635928058469 
2427	 0.400599756728042 
2428	 0.400784030403013 
2429	 0.400678602061065 
2430	 0.400473169343964 
2431	 0.400277034713248 
2432	 0.399971607153356 
2433	 0.39992137504289 
2434	 0.399810274442439 
2435	 0.399626372686972 
2436	 0.399411682214339 
2437	 0.398984509659658 
2438	 0.398612907142969 
2439	 0.398449090544975 
2440	 0.398240223626647 
2441	 0.397879239090806 
2442	 0.397685137292483 
2443	 0.397265467255251 
2444	 0.396669168790849 
2445	 0.396360723606519 
2446	 0.395813421162892 
2447	 0.395089116310037 
2448	 0.39449977730059 
2449	 0.39386822338187 
2450	 0.393220472045423 
2451	 0.392799596131027 
2452	 0.392458752259786 
2453	 0.391958738489867 
2454	 0.391353634550189 
2455	 0.390600582976694 
2456	 0.389787850073663 
2457	 0.388929393755005 
2458	 0.388305228257927 
2459	 0.387822311060688 
2460	 0.387267429467886 
2461	 0.386894939747681 
2462	 0.386458599108963 
2463	 0.386007010313753 
2464	 0.385662123839057 
2465	 0.385273353653195 
2466	 0.384956388676311 
2467	 0.384706681030237 
2468	 0.384552211933928 
2469	 0.384455372551881 
2470	 0.384237516453658 
2471	 0.383863793239414 
2472	 0.383329093264723 
2473	 0.382971124464753 
2474	 0.382758316750269 
2475	 0.382660273466039 
2476	 0.382846225987995 
2477	 0.38280316965405 
2478	 0.382757713303087 
2479	 0.382947533478141 
2480	 0.383063279494223 
2481	 0.383153910778582 
2482	 0.38323790606745 
2483	 0.383113236286797 
2484	 0.383156817262211 
2485	 0.383391599940634 
2486	 0.383378533235425 
2487	 0.383324221235675 
2488	 0.383241988516475 
2489	 0.382984270479894 
2490	 0.383256809232415 
2491	 0.383630412435049 
2492	 0.383651327304231 
2493	 0.384032831582211 
2494	 0.383882171500962 
2495	 0.3834742693088 
2496	 0.383594915146256 
2497	 0.383638322141035 
2498	 0.384283524557379 
2499	 0.384511549603348 
2500	 0.384222680469287 
