Wavelength	ProbetaAcolman00010.asd
350	 0.678201452994125 
351	 0.660226157165635 
352	 0.643465369834391 
353	 0.634990979784886 
354	 0.638778809286268 
355	 0.638043992756852 
356	 0.637036088399178 
357	 0.640290568150586 
358	 0.638009112206807 
359	 0.625678594198424 
360	 0.612613951603871 
361	 0.61098038713019 
362	 0.601325726301423 
363	 0.598010354084569 
364	 0.600910635769005 
365	 0.586447130968144 
366	 0.58531488844468 
367	 0.584455424021907 
368	 0.573300710051772 
369	 0.585174823172297 
370	 0.573112934464885 
371	 0.556020402519955 
372	 0.578879061207957 
373	 0.571443154749986 
374	 0.557362569643421 
375	 0.552618729169243 
376	 0.550388599565076 
377	 0.552709887029362 
378	 0.55444790313009 
379	 0.551185379686794 
380	 0.544867079045912 
381	 0.54522143247202 
382	 0.54865808396499 
383	 0.544756670572527 
384	 0.53883326517275 
385	 0.53589480412337 
386	 0.53596137180541 
387	 0.532149480791715 
388	 0.538141529373759 
389	 0.540358190386214 
390	 0.528238691799049 
391	 0.525783587135905 
392	 0.525247566476517 
393	 0.524611434167104 
394	 0.525329990899759 
395	 0.521986407837162 
396	 0.521473777603814 
397	 0.524967802357132 
398	 0.522347428410709 
399	 0.522704253814672 
400	 0.525178182325781 
401	 0.526272567544691 
402	 0.522874390949485 
403	 0.523908323356806 
404	 0.528575958922923 
405	 0.529485137767677 
406	 0.531607995420655 
407	 0.534891005298306 
408	 0.538604746881148 
409	 0.542236932623028 
410	 0.544190709173928 
411	 0.546844153520624 
412	 0.552320576234342 
413	 0.555571422492719 
414	 0.558007003651476 
415	 0.561422348298654 
416	 0.567295404292718 
417	 0.570894051852166 
418	 0.573374444897788 
419	 0.576200920042779 
420	 0.579325067579049 
421	 0.58139634091988 
422	 0.583613977158695 
423	 0.587402383189316 
424	 0.589107631947105 
425	 0.591031070005463 
426	 0.59371332514942 
427	 0.595362261387807 
428	 0.596405293919447 
429	 0.598044072024052 
430	 0.600546780883023 
431	 0.600996960337507 
432	 0.601472486708857 
433	 0.602809719336443 
434	 0.604872860468066 
435	 0.605634444985363 
436	 0.606325166607709 
437	 0.607576743979182 
438	 0.608630072708447 
439	 0.609132352129543 
440	 0.609565286100334 
441	 0.610353085634096 
442	 0.610572173515367 
443	 0.611191863994696 
444	 0.611686101801546 
445	 0.610590530229609 
446	 0.610535111379447 
447	 0.611142727412888 
448	 0.611606831933156 
449	 0.611244832745257 
450	 0.61077327327872 
451	 0.610345132586149 
452	 0.609928731502814 
453	 0.609756753896423 
454	 0.609053902150324 
455	 0.607952486033805 
456	 0.607574121345773 
457	 0.607075959861846 
458	 0.606334860183465 
459	 0.605419282197002 
460	 0.604448475377535 
461	 0.60365835924147 
462	 0.602904284086055 
463	 0.601843787195065 
464	 0.600431025300473 
465	 0.599034242935147 
466	 0.597663168472346 
467	 0.59572681892963 
468	 0.593972988593544 
469	 0.592329449185573 
470	 0.590556899640943 
471	 0.58877015994113 
472	 0.586929795763237 
473	 0.585037216297124 
474	 0.583121954941966 
475	 0.581196926062829 
476	 0.578977529747608 
477	 0.576479213586156 
478	 0.574451071706199 
479	 0.572411709541032 
480	 0.570298045271949 
481	 0.568163422382342 
482	 0.565806506980718 
483	 0.563387110123922 
484	 0.561083331766626 
485	 0.559052753031154 
486	 0.556987124572721 
487	 0.554856837242495 
488	 0.552733723645376 
489	 0.550746687412711 
490	 0.548945331003545 
491	 0.547324205976539 
492	 0.545810455287879 
493	 0.543987093065806 
494	 0.542457254419191 
495	 0.541322795597917 
496	 0.539676173947841 
497	 0.538352303195403 
498	 0.537213260779295 
499	 0.535947548905896 
500	 0.534872582074752 
501	 0.533780101096221 
502	 0.53253062249181 
503	 0.531077519930475 
504	 0.529640053956405 
505	 0.528056683647061 
506	 0.526291945640183 
507	 0.524781233573228 
508	 0.523114288115814 
509	 0.521445230448284 
510	 0.520076453965838 
511	 0.518556179219638 
512	 0.516854599319099 
513	 0.515138833135758 
514	 0.513768391887622 
515	 0.511981778528552 
516	 0.51012945431803 
517	 0.508563277729877 
518	 0.506627818584095 
519	 0.504593703611987 
520	 0.502591147210783 
521	 0.500632755780211 
522	 0.498595512438873 
523	 0.496437569891444 
524	 0.494201941459987 
525	 0.492055073854076 
526	 0.489961781413756 
527	 0.487834450435707 
528	 0.485634214577424 
529	 0.483702616109785 
530	 0.481887354282013 
531	 0.480142158904849 
532	 0.478568785408808 
533	 0.477162930282732 
534	 0.475876259751832 
535	 0.474699166404294 
536	 0.473761523269124 
537	 0.472989972292953 
538	 0.472369218901066 
539	 0.471924602475227 
540	 0.471743334058808 
541	 0.471760909733439 
542	 0.471953761432009 
543	 0.472397536525193 
544	 0.472958177028157 
545	 0.473710534709084 
546	 0.474759257095686 
547	 0.476034663360608 
548	 0.477553418398993 
549	 0.47926091653759 
550	 0.48104953620599 
551	 0.483141871364279 
552	 0.485326359704393 
553	 0.487418558673193 
554	 0.489515044794395 
555	 0.491514296487751 
556	 0.493330069254073 
557	 0.494896391850952 
558	 0.496253546638577 
559	 0.497330119350236 
560	 0.498067848158216 
561	 0.498435253000421 
562	 0.498619494384548 
563	 0.498595971317783 
564	 0.49827734473723 
565	 0.497587733789717 
566	 0.496627430071871 
567	 0.495418879196812 
568	 0.493922528524975 
569	 0.492127246410668 
570	 0.490061757257638 
571	 0.487749994998381 
572	 0.485209968088434 
573	 0.482437150173533 
574	 0.479367368541408 
575	 0.475966345279765 
576	 0.4725313715761 
577	 0.468999791243916 
578	 0.465289888763802 
579	 0.461334239102561 
580	 0.457358796026365 
581	 0.453330384869454 
582	 0.449239641568309 
583	 0.445359494103139 
584	 0.441591816382888 
585	 0.437954628392024 
586	 0.434535274278091 
587	 0.43141818731297 
588	 0.428560392655129 
589	 0.426058523689064 
590	 0.42427400109133 
591	 0.422791257539284 
592	 0.421675520293028 
593	 0.421065375451407 
594	 0.420772858960168 
595	 0.420682133540564 
596	 0.420797370834325 
597	 0.421213973422664 
598	 0.421788587594188 
599	 0.422330720317119 
600	 0.422805828266432 
601	 0.423570405925712 
602	 0.424289354422262 
603	 0.424877374708254 
604	 0.425388814509462 
605	 0.426028409625158 
606	 0.426624149694404 
607	 0.427110186628114 
608	 0.427589391955552 
609	 0.428137234196619 
610	 0.428683010626274 
611	 0.429146135628563 
612	 0.429534837003599 
613	 0.429989024441162 
614	 0.430458496657284 
615	 0.430778825589823 
616	 0.430972221572175 
617	 0.431234119628597 
618	 0.431582497069682 
619	 0.431683478747143 
620	 0.431721780082623 
621	 0.431727870016827 
622	 0.431664973440099 
623	 0.431412615417433 
624	 0.431054557934568 
625	 0.430671874657721 
626	 0.430316633166305 
627	 0.429712024062005 
628	 0.428938135868625 
629	 0.42813478600046 
630	 0.427430019135891 
631	 0.42652062034779 
632	 0.425506580906733 
633	 0.424639147435431 
634	 0.423811613510169 
635	 0.422986168029169 
636	 0.422166607191578 
637	 0.421403593784647 
638	 0.420767989574407 
639	 0.420258493488857 
640	 0.419853435723374 
641	 0.419536329797169 
642	 0.419339751417968 
643	 0.419327719132508 
644	 0.419558102261889 
645	 0.419857032072348 
646	 0.420341511381478 
647	 0.421059038662659 
648	 0.421887199095063 
649	 0.422856925715728 
650	 0.424007844355765 
651	 0.425396844674432 
652	 0.427136962182639 
653	 0.429009060396076 
654	 0.430974075265677 
655	 0.433151203506195 
656	 0.435622060099222 
657	 0.438346859835595 
658	 0.441271234521299 
659	 0.444353127726364 
660	 0.447674968087527 
661	 0.451247117266195 
662	 0.455049313773299 
663	 0.459055086140456 
664	 0.463335051057059 
665	 0.467889745010067 
666	 0.472649715684337 
667	 0.477659523114639 
668	 0.482922347627083 
669	 0.488415892679875 
670	 0.49409504022919 
671	 0.500032342902566 
672	 0.506227543543531 
673	 0.512650341939507 
674	 0.519292807846717 
675	 0.526131124224969 
676	 0.533155141761188 
677	 0.540379965650258 
678	 0.547673696305087 
679	 0.555146916032433 
680	 0.562862215707227 
681	 0.570552929149322 
682	 0.578418059206774 
683	 0.586403918920574 
684	 0.59433843645413 
685	 0.60224173932358 
686	 0.610158373027525 
687	 0.618063084656094 
688	 0.625840511080967 
689	 0.633542154547771 
690	 0.641115887894747 
691	 0.648519581616013 
692	 0.655803273700191 
693	 0.662901941191529 
694	 0.669793005587721 
695	 0.676475093877165 
696	 0.682841340881171 
697	 0.689029484762324 
698	 0.695040332067624 
699	 0.700610370539067 
700	 0.706048862766426 
701	 0.711285554320578 
702	 0.716188133349075 
703	 0.720832603706602 
704	 0.725216931160386 
705	 0.729341101104894 
706	 0.733206563794955 
707	 0.736766605169706 
708	 0.740198007329868 
709	 0.743534206984918 
710	 0.746515331862527 
711	 0.749298547284264 
712	 0.7519283309244 
713	 0.754406533486098 
714	 0.75669606755862 
715	 0.758826435487235 
716	 0.760788574518178 
717	 0.762563649251094 
718	 0.764368960458875 
719	 0.766026690616642 
720	 0.767476786942837 
721	 0.768957015505871 
722	 0.770207526988964 
723	 0.771247440800474 
724	 0.772207735128769 
725	 0.773294700525906 
726	 0.774331790646607 
727	 0.775268007516353 
728	 0.776144163610942 
729	 0.776896315295764 
730	 0.77762252685029 
731	 0.778352235355857 
732	 0.77897107076812 
733	 0.779513162234417 
734	 0.780036887875783 
735	 0.78057856624534 
736	 0.781063718784187 
737	 0.781483000951261 
738	 0.781907911331574 
739	 0.782423896412129 
740	 0.782762087158173 
741	 0.782945483296582 
742	 0.783113342555288 
743	 0.783512544064334 
744	 0.783976113893884 
745	 0.784288163298441 
746	 0.784368676298968 
747	 0.784610157485141 
748	 0.784896617804993 
749	 0.785222508216326 
750	 0.785603307923785 
751	 0.785714583807885 
752	 0.785838490498497 
753	 0.78609562778461 
754	 0.786316873721197 
755	 0.786567909486798 
756	 0.786794838049831 
757	 0.786953663097959 
758	 0.787084262589286 
759	 0.787297642440056 
760	 0.787581002533238 
761	 0.787854325293814 
762	 0.788061867974739 
763	 0.78825695290498 
764	 0.788474669381981 
765	 0.78871742188946 
766	 0.788916013564141 
767	 0.789168501688418 
768	 0.789512589211267 
769	 0.789769422892454 
770	 0.790076106934157 
771	 0.790393343978932 
772	 0.790653987700382 
773	 0.79098198583546 
774	 0.791298429547281 
775	 0.791583045465419 
776	 0.791877944468738 
777	 0.792276935338303 
778	 0.792689428970556 
779	 0.793035597618365 
780	 0.793295837625857 
781	 0.793713142164494 
782	 0.794211209055318 
783	 0.79465302318056 
784	 0.795043091037793 
785	 0.795526984613012 
786	 0.79602959273264 
787	 0.796405927822639 
788	 0.797019286392387 
789	 0.797678764127266 
790	 0.79825614749593 
791	 0.798769600068768 
792	 0.79934114312395 
793	 0.799958767132751 
794	 0.800599104890394 
795	 0.801301373940034 
796	 0.801923214387479 
797	 0.802490499406702 
798	 0.803115997940577 
799	 0.803977987527773 
800	 0.804808125656637 
801	 0.805548843182628 
802	 0.806321443935004 
803	 0.807113211173093 
804	 0.8078857019448 
805	 0.808672118394323 
806	 0.80961527081297 
807	 0.810521048595024 
808	 0.811357488803946 
809	 0.812181830882525 
810	 0.813181854903018 
811	 0.814141656249748 
812	 0.815095924650174 
813	 0.816154757364292 
814	 0.817167374790231 
815	 0.818087278234431 
816	 0.81901208079824 
817	 0.820126231953398 
818	 0.82113691584547 
819	 0.82217291157261 
820	 0.823266108301885 
821	 0.824185528198656 
822	 0.825214039311847 
823	 0.82626481535226 
824	 0.827233232719913 
825	 0.828274297986496 
826	 0.829390829927499 
827	 0.83049737873704 
828	 0.831506238460114 
829	 0.83256993885286 
830	 0.833734770912297 
831	 0.834909887033513 
832	 0.835924588607872 
833	 0.837034684137805 
834	 0.838095619787324 
835	 0.839061920398209 
836	 0.840127147418552 
837	 0.841118565319986 
838	 0.842169663386219 
839	 0.84333800566903 
840	 0.844242321710251 
841	 0.84530380688361 
842	 0.846455284814217 
843	 0.847474343517916 
844	 0.848429273751953 
845	 0.84949810603919 
846	 0.850631926761915 
847	 0.851641625935917 
848	 0.852717467418386 
849	 0.853773628626913 
850	 0.854750837428286 
851	 0.855668822366443 
852	 0.856729723561663 
853	 0.857748525816527 
854	 0.858643154191057 
855	 0.859730557743277 
856	 0.860774668960762 
857	 0.861741956597083 
858	 0.862670840558685 
859	 0.863616515887223 
860	 0.864592697415879 
861	 0.86560633088712 
862	 0.866647104840871 
863	 0.867662357976858 
864	 0.868623901836077 
865	 0.869535858175221 
866	 0.870421722714787 
867	 0.871179114052951 
868	 0.87199006474353 
869	 0.872911292654183 
870	 0.87378034945613 
871	 0.874714495812728 
872	 0.875676412558689 
873	 0.876615273405489 
874	 0.877533610941568 
875	 0.878353835677838 
876	 0.879096820615919 
877	 0.879824688642425 
878	 0.880581571383459 
879	 0.881553973544032 
880	 0.882549893404824 
881	 0.883274915366744 
882	 0.883970655702076 
883	 0.884692228541138 
884	 0.88541922390583 
885	 0.886098492919002 
886	 0.886868475583055 
887	 0.887671760164091 
888	 0.888447466265423 
889	 0.889164645454028 
890	 0.889861842560037 
891	 0.890648647724464 
892	 0.891482841876059 
893	 0.892059579776151 
894	 0.892611886667484 
895	 0.893308744842863 
896	 0.894144491790072 
897	 0.894725596987563 
898	 0.895255210810362 
899	 0.895889908783283 
900	 0.896682076545663 
901	 0.897352229503561 
902	 0.898078533818849 
903	 0.898793786546389 
904	 0.8993745780136 
905	 0.900096300284491 
906	 0.900818786236316 
907	 0.901485904584525 
908	 0.902116531801974 
909	 0.902662653444412 
910	 0.903220403372601 
911	 0.903853576167565 
912	 0.90456355996045 
913	 0.905233064221539 
914	 0.905889462474202 
915	 0.906535586934717 
916	 0.907115712598037 
917	 0.907761764161416 
918	 0.908353763654166 
919	 0.908861021426917 
920	 0.909504639060207 
921	 0.910200425897192 
922	 0.910879181836179 
923	 0.911515159169928 
924	 0.912199531351052 
925	 0.912735528938968 
926	 0.91321281997928 
927	 0.913746427779327 
928	 0.914176622104968 
929	 0.914745427099941 
930	 0.915399502327883 
931	 0.915978919054237 
932	 0.916464129544415 
933	 0.91707685055347 
934	 0.917772946004129 
935	 0.918367368421033 
936	 0.918814973142274 
937	 0.919303932898881 
938	 0.919807528894847 
939	 0.92020116539351 
940	 0.920845933724143 
941	 0.92149117497621 
942	 0.92203628726801 
943	 0.922559239023091 
944	 0.923049270490869 
945	 0.923497511135884 
946	 0.923910763937097 
947	 0.924315629306432 
948	 0.924767291776092 
949	 0.92522953419871 
950	 0.925617625888601 
951	 0.925834660913158 
952	 0.926187894232562 
953	 0.926547679387829 
954	 0.926869650344561 
955	 0.927337030186728 
956	 0.927667405765412 
957	 0.927866416576321 
958	 0.928065793555225 
959	 0.928479071718857 
960	 0.92869802935125 
961	 0.928879189836946 
962	 0.929170780056915 
963	 0.929425293522068 
964	 0.929921342729709 
965	 0.930427545329939 
966	 0.930766012673258 
967	 0.931186843640677 
968	 0.93160641746496 
969	 0.932062751791161 
970	 0.932605769639802 
971	 0.933254718555631 
972	 0.933656321339951 
973	 0.933952671226403 
974	 0.934364257960918 
975	 0.934859119035435 
976	 0.93523570556484 
977	 0.935469625748687 
978	 0.935608618659561 
979	 0.935665849095373 
980	 0.935998051273085 
981	 0.936464182444419 
982	 0.936832882861724 
983	 0.937227042120177 
984	 0.937426006512956 
985	 0.937664643014735 
986	 0.938147563428939 
987	 0.938428631871066 
988	 0.938779876627847 
989	 0.93902166767136 
990	 0.938996057385999 
991	 0.939127606490605 
992	 0.939492813384507 
993	 0.939886958467031 
994	 0.940098632980458 
995	 0.940305452791995 
996	 0.940423783866006 
997	 0.940517421597774 
998	 0.940682406542248 
999	 0.940949006769266 
1000	 0.941123366593797 
1001	 0.941317021209523 
1002	 0.941437077532524 
1003	 0.941588279772906 
1004	 0.941710818298959 
1005	 0.941910165750587 
1006	 0.942045491575073 
1007	 0.942074614420676 
1008	 0.942196684209337 
1009	 0.942429248274776 
1010	 0.942522961866855 
1011	 0.942575072894074 
1012	 0.94261404234681 
1013	 0.942540225792253 
1014	 0.942542802565195 
1015	 0.942604223177347 
1016	 0.942614001092265 
1017	 0.942648386035197 
1018	 0.942701295270991 
1019	 0.942648665962161 
1020	 0.942592758679359 
1021	 0.942549848474537 
1022	 0.942469275976016 
1023	 0.942415861971109 
1024	 0.942418895926472 
1025	 0.942361119511304 
1026	 0.942274122482447 
1027	 0.942184288250258 
1028	 0.942041297371052 
1029	 0.941966069328217 
1030	 0.941905341153102 
1031	 0.941758415040205 
1032	 0.941655432245562 
1033	 0.941508930318977 
1034	 0.941351515128855 
1035	 0.941268391681764 
1036	 0.941111917027813 
1037	 0.940929009958788 
1038	 0.940749872827802 
1039	 0.940522825536653 
1040	 0.940316325204786 
1041	 0.9401466858848 
1042	 0.939925244829639 
1043	 0.93967685954762 
1044	 0.939439561096581 
1045	 0.939129329702229 
1046	 0.938832142638553 
1047	 0.938554456801028 
1048	 0.938219112266521 
1049	 0.937906322805722 
1050	 0.937593163773399 
1051	 0.937189289836331 
1052	 0.936749932274315 
1053	 0.936314421157707 
1054	 0.935830721699784 
1055	 0.935377447078957 
1056	 0.934942708712613 
1057	 0.934507607631307 
1058	 0.934106197461894 
1059	 0.933629676225781 
1060	 0.933107993288482 
1061	 0.932619630560269 
1062	 0.932087218768095 
1063	 0.931545103199248 
1064	 0.931039267022179 
1065	 0.930471528449914 
1066	 0.929898028894142 
1067	 0.929311789278333 
1068	 0.928653462943011 
1069	 0.928000630748673 
1070	 0.927338561334879 
1071	 0.926638118805187 
1072	 0.925949653328325 
1073	 0.925312206036011 
1074	 0.92463657432703 
1075	 0.923956709406448 
1076	 0.923241772742837 
1077	 0.922471469258875 
1078	 0.92169459876615 
1079	 0.920871046448167 
1080	 0.92006624468077 
1081	 0.919304134422826 
1082	 0.918522029293259 
1083	 0.917733619216008 
1084	 0.916895396742595 
1085	 0.916003967466038 
1086	 0.915133909474181 
1087	 0.914260263812915 
1088	 0.91336454459725 
1089	 0.912505671690792 
1090	 0.911662502704231 
1091	 0.91072025442636 
1092	 0.909825235467894 
1093	 0.908938448559698 
1094	 0.907980106598621 
1095	 0.907054598894164 
1096	 0.90606230288982 
1097	 0.905008847181837 
1098	 0.903992385809795 
1099	 0.902953440941615 
1100	 0.901964930626662 
1101	 0.90096338603335 
1102	 0.899882010054893 
1103	 0.898815227788265 
1104	 0.897755303971053 
1105	 0.896612083293538 
1106	 0.895482221655203 
1107	 0.894442998271436 
1108	 0.893370809242252 
1109	 0.892350973169858 
1110	 0.891315374767725 
1111	 0.890167534209931 
1112	 0.889005616401743 
1113	 0.887823110111604 
1114	 0.886668654081464 
1115	 0.885566281350546 
1116	 0.88441978343259 
1117	 0.883323827939586 
1118	 0.882210589033307 
1119	 0.881070226858441 
1120	 0.87992569586053 
1121	 0.878821869086865 
1122	 0.877623890316507 
1123	 0.876358077425366 
1124	 0.875205886940488 
1125	 0.874013637760704 
1126	 0.872817998118478 
1127	 0.871663598917921 
1128	 0.870386731211312 
1129	 0.869115419733621 
1130	 0.867817328106334 
1131	 0.866452138282151 
1132	 0.865178264500503 
1133	 0.86387737914101 
1134	 0.862578252056579 
1135	 0.861241019233474 
1136	 0.859877752034756 
1137	 0.858507664866585 
1138	 0.857109272355241 
1139	 0.855686970379826 
1140	 0.854228239851016 
1141	 0.852875438641554 
1142	 0.851443550204122 
1143	 0.85002755731553 
1144	 0.848653955257545 
1145	 0.847135829512835 
1146	 0.845664604586879 
1147	 0.844196574848893 
1148	 0.842648054200048 
1149	 0.841226890664345 
1150	 0.839796081713836 
1151	 0.83834003748726 
1152	 0.836857657937147 
1153	 0.835384996293056 
1154	 0.833865350113586 
1155	 0.832280933918323 
1156	 0.830701591763527 
1157	 0.829136275267113 
1158	 0.82757484692167 
1159	 0.825977046281307 
1160	 0.824404044155904 
1161	 0.8228755749798 
1162	 0.821228498252455 
1163	 0.819669915923943 
1164	 0.81808467499626 
1165	 0.816401179776059 
1166	 0.814861139847993 
1167	 0.813292496979719 
1168	 0.811740399549108 
1169	 0.810210922571632 
1170	 0.808723720099265 
1171	 0.80722316159918 
1172	 0.805718242492867 
1173	 0.804225986090798 
1174	 0.802745282455225 
1175	 0.801327836430733 
1176	 0.799948861059144 
1177	 0.798565088315263 
1178	 0.797248548850353 
1179	 0.795854632706535 
1180	 0.794511469158832 
1181	 0.793117311931798 
1182	 0.79171132689591 
1183	 0.790407338822778 
1184	 0.789056742434092 
1185	 0.787729034941356 
1186	 0.786406143982333 
1187	 0.785082091438531 
1188	 0.783802190790319 
1189	 0.782527097486881 
1190	 0.781287091778818 
1191	 0.780100928816012 
1192	 0.778939138673417 
1193	 0.777796999906424 
1194	 0.77667770579745 
1195	 0.775594797410046 
1196	 0.774507310569635 
1197	 0.773441357616283 
1198	 0.772366198533278 
1199	 0.771252079896572 
1200	 0.770231532490055 
1201	 0.769210405904226 
1202	 0.768185067211463 
1203	 0.767200924919222 
1204	 0.766177198320438 
1205	 0.765199606759415 
1206	 0.764219090496578 
1207	 0.76326997093723 
1208	 0.762363863344022 
1209	 0.76146382028001 
1210	 0.760561756908827 
1211	 0.759690816319313 
1212	 0.758843087572177 
1213	 0.758009798716159 
1214	 0.757181421125244 
1215	 0.756391877025061 
1216	 0.755617146046121 
1217	 0.754896938253804 
1218	 0.754222357691736 
1219	 0.753589399758359 
1220	 0.752950598537812 
1221	 0.752310931479344 
1222	 0.751707523366407 
1223	 0.751080602528702 
1224	 0.750487977248598 
1225	 0.74995452059746 
1226	 0.749368585776733 
1227	 0.748755992912877 
1228	 0.748168519120011 
1229	 0.747562119224876 
1230	 0.746990234729179 
1231	 0.746483325458487 
1232	 0.745897762342417 
1233	 0.745276369025549 
1234	 0.744680348496145 
1235	 0.744042169964186 
1236	 0.743432255894276 
1237	 0.742861355367612 
1238	 0.742278593059047 
1239	 0.741693893937475 
1240	 0.741104850909451 
1241	 0.740494738651494 
1242	 0.739928548748396 
1243	 0.739335816897782 
1244	 0.738724922061876 
1245	 0.738132035647314 
1246	 0.737540845214584 
1247	 0.736958538441207 
1248	 0.736383365573702 
1249	 0.735808008200415 
1250	 0.735253136962785 
1251	 0.734676138284135 
1252	 0.734080856851528 
1253	 0.733499979123443 
1254	 0.732911669815413 
1255	 0.732325014056617 
1256	 0.731750756504036 
1257	 0.731165982915588 
1258	 0.730564654212463 
1259	 0.729980111791174 
1260	 0.729399055118442 
1261	 0.728825099345976 
1262	 0.728270527065387 
1263	 0.727691620935225 
1264	 0.727145212295388 
1265	 0.726606192000995 
1266	 0.726074856228151 
1267	 0.72556694949171 
1268	 0.72505103969252 
1269	 0.724531213516313 
1270	 0.724027173483206 
1271	 0.723527505767863 
1272	 0.723039691957361 
1273	 0.722566333782523 
1274	 0.722097463589518 
1275	 0.721635693071701 
1276	 0.721186702661132 
1277	 0.720743219991804 
1278	 0.720317346558097 
1279	 0.719930061307887 
1280	 0.719514108400536 
1281	 0.719085482511302 
1282	 0.718673867890902 
1283	 0.718229067009265 
1284	 0.717833762109905 
1285	 0.717468915373497 
1286	 0.717141955961361 
1287	 0.716817640303288 
1288	 0.716524637174756 
1289	 0.716224721246654 
1290	 0.715938592572696 
1291	 0.715641026545214 
1292	 0.715348091758176 
1293	 0.715051274303622 
1294	 0.714752775314129 
1295	 0.714445934119372 
1296	 0.714122410143421 
1297	 0.713827923258179 
1298	 0.713537335153942 
1299	 0.71325417618178 
1300	 0.71299171109404 
1301	 0.712733801307894 
1302	 0.712474237905739 
1303	 0.712224905653558 
1304	 0.711986293015595 
1305	 0.711761290631191 
1306	 0.711556671902297 
1307	 0.711339445748383 
1308	 0.711128334157014 
1309	 0.710915931902199 
1310	 0.710711705324898 
1311	 0.710492904074343 
1312	 0.710305171641011 
1313	 0.710138329306707 
1314	 0.709975652747335 
1315	 0.709828655627733 
1316	 0.709673155051922 
1317	 0.709513554681326 
1318	 0.709379350100462 
1319	 0.709244000424846 
1320	 0.70913399255457 
1321	 0.709055809355818 
1322	 0.70897595632978 
1323	 0.708907414962431 
1324	 0.708839605433983 
1325	 0.708787910204549 
1326	 0.708723656681101 
1327	 0.708637074808494 
1328	 0.708583343696102 
1329	 0.708546630530859 
1330	 0.708504949829785 
1331	 0.708478013004681 
1332	 0.708456311694003 
1333	 0.708440381378092 
1334	 0.70841617805569 
1335	 0.708377992198718 
1336	 0.708346722659113 
1337	 0.708302467172097 
1338	 0.708230360499488 
1339	 0.708177039254713 
1340	 0.708127524512325 
1341	 0.708090108278349 
1342	 0.708051802955575 
1343	 0.708027154558695 
1344	 0.708035984586282 
1345	 0.708007339607327 
1346	 0.707960552625123 
1347	 0.707925602764368 
1348	 0.707889555581362 
1349	 0.707838257341686 
1350	 0.707787524139474 
1351	 0.707731822663109 
1352	 0.70765955312329 
1353	 0.707583870235781 
1354	 0.707521784592433 
1355	 0.70743432724364 
1356	 0.707317752993961 
1357	 0.707207419856146 
1358	 0.707073337711708 
1359	 0.70696272199912 
1360	 0.706869919035426 
1361	 0.706771865449062 
1362	 0.70668132425528 
1363	 0.706590070274832 
1364	 0.706495827286425 
1365	 0.706400395858813 
1366	 0.70628999041208 
1367	 0.706175553837747 
1368	 0.706057864897546 
1369	 0.705939722995072 
1370	 0.705785519500455 
1371	 0.705616135445845 
1372	 0.705444388706472 
1373	 0.705253482375607 
1374	 0.705040248966813 
1375	 0.70484923505935 
1376	 0.704581817605911 
1377	 0.704245327006924 
1378	 0.703908366051661 
1379	 0.703527722687706 
1380	 0.703149063534211 
1381	 0.702776207501398 
1382	 0.702357163390823 
1383	 0.701921796528523 
1384	 0.701443237516266 
1385	 0.700956784910055 
1386	 0.700388180082471 
1387	 0.699778774658375 
1388	 0.699108963347468 
1389	 0.698358895836586 
1390	 0.697575722658099 
1391	 0.696763250314977 
1392	 0.695868574800901 
1393	 0.694996982248126 
1394	 0.694073405871698 
1395	 0.693126769442413 
1396	 0.692160994121046 
1397	 0.691175620945109 
1398	 0.690163607092254 
1399	 0.689107988455626 
1400	 0.688061168236478 
1401	 0.68689773445851 
1402	 0.685689259515794 
1403	 0.684352478027431 
1404	 0.682969200919988 
1405	 0.681408624567095 
1406	 0.679728962770963 
1407	 0.677912359324755 
1408	 0.675838039161498 
1409	 0.673880489529249 
1410	 0.671696238577563 
1411	 0.669861927370708 
1412	 0.667995983599461 
1413	 0.666616851219421 
1414	 0.66549158541038 
1415	 0.664726283748091 
1416	 0.664474446145968 
1417	 0.664254601375784 
1418	 0.664438985326138 
1419	 0.664477879250076 
1420	 0.664656110352593 
1421	 0.66466793529116 
1422	 0.664623346267526 
1423	 0.664464329431142 
1424	 0.664180604576964 
1425	 0.663811379260771 
1426	 0.663406530172753 
1427	 0.662936141520349 
1428	 0.662443956045208 
1429	 0.661964823054175 
1430	 0.661470395675386 
1431	 0.660947339652354 
1432	 0.660441176997461 
1433	 0.659941721625858 
1434	 0.65943066321826 
1435	 0.658904870495747 
1436	 0.658401590639012 
1437	 0.657896085031865 
1438	 0.657414911039349 
1439	 0.656958487005235 
1440	 0.656494753415282 
1441	 0.656034497999638 
1442	 0.655585464195478 
1443	 0.655140579981885 
1444	 0.654701401380408 
1445	 0.654269841821554 
1446	 0.653852880397547 
1447	 0.653445022759115 
1448	 0.65304013322644 
1449	 0.652650805646773 
1450	 0.652256894234352 
1451	 0.651867983418361 
1452	 0.651467518162541 
1453	 0.65104947503197 
1454	 0.650662011314704 
1455	 0.650278124068579 
1456	 0.649902959174576 
1457	 0.649564020278241 
1458	 0.649204415700398 
1459	 0.64882814636033 
1460	 0.648462901925359 
1461	 0.648099254929181 
1462	 0.647740382366451 
1463	 0.647386463679722 
1464	 0.647037025906101 
1465	 0.646693223220773 
1466	 0.646339124361915 
1467	 0.646021429326765 
1468	 0.64570429448825 
1469	 0.645412052762949 
1470	 0.645155168777346 
1471	 0.64489649057 
1472	 0.644661797566589 
1473	 0.644403020044631 
1474	 0.644143356705931 
1475	 0.64388202367625 
1476	 0.643605048772175 
1477	 0.643348162031142 
1478	 0.643114203597128 
1479	 0.642849383595074 
1480	 0.642581601375533 
1481	 0.642298484847831 
1482	 0.641987548445688 
1483	 0.641688241767653 
1484	 0.641401936432455 
1485	 0.641080348521599 
1486	 0.640731900904674 
1487	 0.640404410020084 
1488	 0.640052924026136 
1489	 0.639730913835247 
1490	 0.639438435828272 
1491	 0.63913769734358 
1492	 0.638817879390547 
1493	 0.63854897937853 
1494	 0.638306026033072 
1495	 0.638076240675921 
1496	 0.637879119828661 
1497	 0.637693348624254 
1498	 0.637508742322497 
1499	 0.637357430821155 
1500	 0.637235808727175 
1501	 0.637133576108406 
1502	 0.63704556081047 
1503	 0.636993823719776 
1504	 0.636974308869758 
1505	 0.636975406639673 
1506	 0.637008110752627 
1507	 0.637060902639551 
1508	 0.637139737128307 
1509	 0.637232817302236 
1510	 0.637357701051645 
1511	 0.637481299229385 
1512	 0.637612197404766 
1513	 0.637753882517524 
1514	 0.637891634137023 
1515	 0.638060435487487 
1516	 0.638256804009844 
1517	 0.638457998037169 
1518	 0.63868693130987 
1519	 0.638913274770872 
1520	 0.639124626526204 
1521	 0.639362534813078 
1522	 0.639642816499055 
1523	 0.639940407258768 
1524	 0.640242534871692 
1525	 0.64057542717709 
1526	 0.640916013993248 
1527	 0.641256353630087 
1528	 0.641608906740654 
1529	 0.641988452622231 
1530	 0.642366967384919 
1531	 0.642732831376251 
1532	 0.643142396511698 
1533	 0.643574027524977 
1534	 0.644039091363183 
1535	 0.644534658596006 
1536	 0.645037726332653 
1537	 0.645574920165104 
1538	 0.646107038937684 
1539	 0.646645834764914 
1540	 0.647190817388097 
1541	 0.647741753475616 
1542	 0.64831174826044 
1543	 0.648901074896489 
1544	 0.649471776886622 
1545	 0.650053234147869 
1546	 0.650625097607294 
1547	 0.651181319116605 
1548	 0.651740424700819 
1549	 0.652310539377272 
1550	 0.652862089751302 
1551	 0.653395716434515 
1552	 0.653933810726609 
1553	 0.654469866544126 
1554	 0.655000288168658 
1555	 0.655524874558974 
1556	 0.656051279449249 
1557	 0.656565048446105 
1558	 0.657100165632323 
1559	 0.657648394659115 
1560	 0.658192331524828 
1561	 0.658728935901222 
1562	 0.659302369678551 
1563	 0.659884772803776 
1564	 0.660487418543999 
1565	 0.661137013204003 
1566	 0.661766865671551 
1567	 0.662390885636374 
1568	 0.663029063831781 
1569	 0.663662550238016 
1570	 0.664325551810921 
1571	 0.665006642975587 
1572	 0.665700706850814 
1573	 0.666417087757924 
1574	 0.667142929071269 
1575	 0.667899442411844 
1576	 0.668629453492154 
1577	 0.669355378582534 
1578	 0.670086478294985 
1579	 0.670797132983206 
1580	 0.671526255870062 
1581	 0.672267805908838 
1582	 0.673020111982933 
1583	 0.673783262786604 
1584	 0.674548252532667 
1585	 0.675332355116059 
1586	 0.676106712101846 
1587	 0.676869919369319 
1588	 0.677643016491171 
1589	 0.678405840386986 
1590	 0.679199068056179 
1591	 0.680029826397259 
1592	 0.680834931431816 
1593	 0.681645768919834 
1594	 0.682455331016522 
1595	 0.683246377390009 
1596	 0.684040237312307 
1597	 0.684841035316142 
1598	 0.685642547935994 
1599	 0.686424799961224 
1600	 0.687236743247705 
1601	 0.688073292231066 
1602	 0.688908822021857 
1603	 0.689777438850383 
1604	 0.690606594189681 
1605	 0.691400523877897 
1606	 0.692221090520671 
1607	 0.693046277906811 
1608	 0.693859413652145 
1609	 0.694690018955067 
1610	 0.695506192211632 
1611	 0.696296887133788 
1612	 0.697081232637357 
1613	 0.697874468200543 
1614	 0.698642448533568 
1615	 0.699383050742762 
1616	 0.700127208345043 
1617	 0.700843568519523 
1618	 0.701587911362907 
1619	 0.702371935271815 
1620	 0.70310354923153 
1621	 0.703820094128696 
1622	 0.704532955970104 
1623	 0.705209708873647 
1624	 0.705887829312816 
1625	 0.706572210432001 
1626	 0.707250643393989 
1627	 0.707920562642385 
1628	 0.70856801816425 
1629	 0.709196605102854 
1630	 0.709838036448378 
1631	 0.710495651193692 
1632	 0.711103364127075 
1633	 0.711671121540621 
1634	 0.712273994938915 
1635	 0.712846180985568 
1636	 0.713430322599727 
1637	 0.714072554819253 
1638	 0.714680422416566 
1639	 0.715261119532623 
1640	 0.715841503409059 
1641	 0.71641428975489 
1642	 0.716988237925775 
1643	 0.717577457813523 
1644	 0.718113305387954 
1645	 0.718643036150627 
1646	 0.71912185156794 
1647	 0.719525960148976 
1648	 0.719946796188476 
1649	 0.720359872880521 
1650	 0.720747732079118 
1651	 0.721119955048552 
1652	 0.721470903423802 
1653	 0.721805952273484 
1654	 0.722103909814801 
1655	 0.722395086596026 
1656	 0.722635430708778 
1657	 0.722810391134549 
1658	 0.722980594998714 
1659	 0.72314142417171 
1660	 0.723244320198166 
1661	 0.72331703618349 
1662	 0.72334918954198 
1663	 0.723311374933976 
1664	 0.723266400789604 
1665	 0.723216675138084 
1666	 0.723107062044976 
1667	 0.722963276346429 
1668	 0.72277352574958 
1669	 0.722542106563219 
1670	 0.722242177864184 
1671	 0.721897894288557 
1672	 0.721480385423417 
1673	 0.721006748485196 
1674	 0.720438357969204 
1675	 0.719766075395865 
1676	 0.719087717275132 
1677	 0.718302727170442 
1678	 0.71756729976069 
1679	 0.716841132307304 
1680	 0.716091458367486 
1681	 0.715341455965315 
1682	 0.714562535421936 
1683	 0.713771501285925 
1684	 0.712967077595242 
1685	 0.712120476759739 
1686	 0.711305845672966 
1687	 0.710471667221686 
1688	 0.709671249075481 
1689	 0.708890133530269 
1690	 0.708146972965516 
1691	 0.707406647309514 
1692	 0.706759774481708 
1693	 0.706195531653303 
1694	 0.705621971483895 
1695	 0.705112954412366 
1696	 0.704573862596333 
1697	 0.704028091833868 
1698	 0.703470101864946 
1699	 0.702949470472637 
1700	 0.702351623716863 
1701	 0.701711105675489 
1702	 0.701046299516474 
1703	 0.700325931618882 
1704	 0.699583502710051 
1705	 0.698806132509616 
1706	 0.698004942801369 
1707	 0.69726673726371 
1708	 0.696546217848672 
1709	 0.69583950863022 
1710	 0.695164917505988 
1711	 0.694444316643676 
1712	 0.693778919249914 
1713	 0.693102836236906 
1714	 0.69238323174346 
1715	 0.691681891096507 
1716	 0.690895866682284 
1717	 0.690093103740873 
1718	 0.689275561754135 
1719	 0.688373827093992 
1720	 0.687492449360428 
1721	 0.686613912976588 
1722	 0.685735415181869 
1723	 0.684973122764549 
1724	 0.684247023215954 
1725	 0.683598476350155 
1726	 0.683105240269689 
1727	 0.682695942486416 
1728	 0.682458371040596 
1729	 0.682433631071252 
1730	 0.682575220429458 
1731	 0.68291764670396 
1732	 0.683459489461577 
1733	 0.684072432424678 
1734	 0.68480745083327 
1735	 0.685659478044005 
1736	 0.686532345106254 
1737	 0.687434521345134 
1738	 0.688286660079373 
1739	 0.68905368127952 
1740	 0.689761490869986 
1741	 0.690418017875139 
1742	 0.691038897703835 
1743	 0.691594691577921 
1744	 0.692087098110885 
1745	 0.692522290998493 
1746	 0.692882068942801 
1747	 0.693189258651105 
1748	 0.693427323048288 
1749	 0.693635879808176 
1750	 0.693806749392847 
1751	 0.693917893477307 
1752	 0.693971668295535 
1753	 0.694018741027425 
1754	 0.694000336562751 
1755	 0.693987401230182 
1756	 0.693954832178933 
1757	 0.693892138571284 
1758	 0.693872267799339 
1759	 0.693893035734663 
1760	 0.69400061379389 
1761	 0.694181780074609 
1762	 0.694391075516658 
1763	 0.694688389166056 
1764	 0.695050271848664 
1765	 0.695508497222191 
1766	 0.696106748338999 
1767	 0.69676467836549 
1768	 0.697465157830421 
1769	 0.698200665367019 
1770	 0.698872790382116 
1771	 0.699531219904051 
1772	 0.700205690047798 
1773	 0.700870278057207 
1774	 0.701557656217172 
1775	 0.702200727501184 
1776	 0.702833119702728 
1777	 0.703440462063428 
1778	 0.703945885681325 
1779	 0.704421213179155 
1780	 0.704849487407681 
1781	 0.705205653269767 
1782	 0.705581652605726 
1783	 0.705974732084613 
1784	 0.706336000246652 
1785	 0.706649411214282 
1786	 0.7069589317355 
1787	 0.707241805234884 
1788	 0.707501164125497 
1789	 0.707741599051351 
1790	 0.707989413332267 
1791	 0.70821513468043 
1792	 0.708463781675597 
1793	 0.708719891914688 
1794	 0.708969717114255 
1795	 0.709237292696913 
1796	 0.709496784212527 
1797	 0.709793239303319 
1798	 0.71010851786173 
1799	 0.710393805550812 
1800	 0.710685314426278 
1801	 0.711056439671296 
1802	 0.711367957422851 
1803	 0.711692103884613 
1804	 0.712015857503981 
1805	 0.71240447613468 
1806	 0.712788800549551 
1807	 0.713194627569503 
1808	 0.713604335129485 
1809	 0.714056495666403 
1810	 0.71446186779824 
1811	 0.714857752682714 
1812	 0.715245394054042 
1813	 0.715603164648517 
1814	 0.715981817869953 
1815	 0.716354838786062 
1816	 0.716729851071565 
1817	 0.71709042133885 
1818	 0.71743230928265 
1819	 0.717790017693004 
1820	 0.718135919051328 
1821	 0.718502565227955 
1822	 0.7188763298034 
1823	 0.719281701068469 
1824	 0.719679252223637 
1825	 0.720078733996956 
1826	 0.720482589301978 
1827	 0.720906295574947 
1828	 0.721295113955899 
1829	 0.721667937080288 
1830	 0.722042236820691 
1831	 0.722397036888979 
1832	 0.722766462092394 
1833	 0.72311735457119 
1834	 0.723501717151498 
1835	 0.723902708319406 
1836	 0.724258077197875 
1837	 0.724656556680027 
1838	 0.725101694283795 
1839	 0.725503257443096 
1840	 0.725903782736602 
1841	 0.726301557981994 
1842	 0.726681957887881 
1843	 0.727059174916541 
1844	 0.727439720188553 
1845	 0.727787821032052 
1846	 0.728140722455903 
1847	 0.728438570417621 
1848	 0.728741226718323 
1849	 0.729051651336615 
1850	 0.729328809167535 
1851	 0.729575120213515 
1852	 0.729833732923352 
1853	 0.730059907972431 
1854	 0.730234206026437 
1855	 0.730406058769675 
1856	 0.730518094630773 
1857	 0.730602650887662 
1858	 0.730672703577177 
1859	 0.730686901326905 
1860	 0.730652895428512 
1861	 0.730595992901963 
1862	 0.730515873993833 
1863	 0.730378508307649 
1864	 0.730175692107501 
1865	 0.729929550792122 
1866	 0.729607918974357 
1867	 0.72921851239888 
1868	 0.728815137967862 
1869	 0.72835159555789 
1870	 0.727808136430145 
1871	 0.727206263099854 
1872	 0.726531541670948 
1873	 0.725767678821766 
1874	 0.724970840259574 
1875	 0.724139231865007 
1876	 0.723177181884831 
1877	 0.722193153478211 
1878	 0.721059958933882 
1879	 0.719755719237722 
1880	 0.718478408652942 
1881	 0.717079295592422 
1882	 0.715563729447362 
1883	 0.713990982929492 
1884	 0.712329119074821 
1885	 0.710384855096465 
1886	 0.708363099343756 
1887	 0.7061357693834 
1888	 0.70369118382596 
1889	 0.701307521385672 
1890	 0.698687275555109 
1891	 0.695983484766022 
1892	 0.693215020285561 
1893	 0.690194679163169 
1894	 0.686910928075491 
1895	 0.683650173939026 
1896	 0.680172673191728 
1897	 0.676538876829245 
1898	 0.673179504628603 
1899	 0.669608337186407 
1900	 0.666065248917722 
1901	 0.662603496518413 
1902	 0.658803174628828 
1903	 0.65517844157787 
1904	 0.651607659927587 
1905	 0.648019973460481 
1906	 0.644478341858694 
1907	 0.641338957751501 
1908	 0.638117639640443 
1909	 0.635033283427177 
1910	 0.632133541199 
1911	 0.629040624727173 
1912	 0.626154470211719 
1913	 0.623308325568108 
1914	 0.620447917765998 
1915	 0.61781490375212 
1916	 0.615400602079901 
1917	 0.612952526150853 
1918	 0.610644596990164 
1919	 0.608489989084852 
1920	 0.606227173493349 
1921	 0.604138075620726 
1922	 0.60208421107375 
1923	 0.600013580211985 
1924	 0.598186800075323 
1925	 0.596388374977449 
1926	 0.594688059551273 
1927	 0.593134885959852 
1928	 0.591600668263561 
1929	 0.590091325092954 
1930	 0.588726398392679 
1931	 0.58740898678376 
1932	 0.586173549267515 
1933	 0.585174074809625 
1934	 0.584230416303549 
1935	 0.583379490958629 
1936	 0.582677562094991 
1937	 0.582025603777573 
1938	 0.58142258694982 
1939	 0.580955250898244 
1940	 0.580597607368538 
1941	 0.580311017635794 
1942	 0.580138559511867 
1943	 0.580040306894489 
1944	 0.580001830278492 
1945	 0.580095526691546 
1946	 0.580290926275152 
1947	 0.580539293346465 
1948	 0.580896945144669 
1949	 0.581323258519059 
1950	 0.581783614586196 
1951	 0.582314373686804 
1952	 0.582880770211495 
1953	 0.583485747184856 
1954	 0.584122402957141 
1955	 0.584872765804158 
1956	 0.585615890216966 
1957	 0.586409372418722 
1958	 0.587268500562407 
1959	 0.588069281733706 
1960	 0.588930460774103 
1961	 0.58980833796211 
1962	 0.590700735826872 
1963	 0.59162274324961 
1964	 0.592579491912507 
1965	 0.593540211303426 
1966	 0.594542004743162 
1967	 0.595542078240327 
1968	 0.596475381878095 
1969	 0.597427299684894 
1970	 0.598346998133407 
1971	 0.599268232022231 
1972	 0.60025995525454 
1973	 0.601210532199395 
1974	 0.602164512309919 
1975	 0.603128754925433 
1976	 0.604077699079956 
1977	 0.604997842897545 
1978	 0.60595901752841 
1979	 0.606938081891629 
1980	 0.607883045285489 
1981	 0.608920325972927 
1982	 0.609921763873736 
1983	 0.610961060872916 
1984	 0.612066865876197 
1985	 0.61308619662563 
1986	 0.614150115629186 
1987	 0.615192886214336 
1988	 0.616191666001632 
1989	 0.617227881303324 
1990	 0.618290099944242 
1991	 0.619333027389953 
1992	 0.620388242786493 
1993	 0.621461025782147 
1994	 0.622418718976724 
1995	 0.623411701202485 
1996	 0.624373001762209 
1997	 0.625309684935281 
1998	 0.626329110802721 
1999	 0.627415890765639 
2000	 0.628452306981097 
2001	 0.629550594335812 
2002	 0.630574815760726 
2003	 0.631546211890267 
2004	 0.632523221180192 
2005	 0.633458832322671 
2006	 0.634399807700361 
2007	 0.635352199935708 
2008	 0.636276195871919 
2009	 0.63718739969772 
2010	 0.63808392897552 
2011	 0.638869944076659 
2012	 0.639651879938319 
2013	 0.640396805348831 
2014	 0.641073326983788 
2015	 0.641771171000356 
2016	 0.64250012312319 
2017	 0.643124456420271 
2018	 0.643738543920353 
2019	 0.644260774508654 
2020	 0.644688796464678 
2021	 0.645076040552434 
2022	 0.645397884956758 
2023	 0.645617816685124 
2024	 0.645761686857203 
2025	 0.645814933985597 
2026	 0.6458003624307 
2027	 0.6456954128757 
2028	 0.645543412630325 
2029	 0.645307051494463 
2030	 0.64503878280901 
2031	 0.644692413298352 
2032	 0.644347843039431 
2033	 0.643963729364594 
2034	 0.643561689147664 
2035	 0.643126794726618 
2036	 0.642683696281019 
2037	 0.64225696733521 
2038	 0.641820594343446 
2039	 0.641447225289339 
2040	 0.641120933149849 
2041	 0.640819773113091 
2042	 0.640518815000404 
2043	 0.640316586398068 
2044	 0.640152783476551 
2045	 0.640078706356192 
2046	 0.640115424555725 
2047	 0.640171006416541 
2048	 0.640266210910678 
2049	 0.640436844257065 
2050	 0.640667851498613 
2051	 0.640937036862579 
2052	 0.6412904722118 
2053	 0.641733949118784 
2054	 0.642218594296214 
2055	 0.642752383753266 
2056	 0.643367515894709 
2057	 0.644036483191538 
2058	 0.644804833887841 
2059	 0.645662240966465 
2060	 0.646574187719073 
2061	 0.64760997992746 
2062	 0.648644235553225 
2063	 0.6497032539701 
2064	 0.65083623544843 
2065	 0.652025133536753 
2066	 0.653228594943484 
2067	 0.654584697351526 
2068	 0.655910964432868 
2069	 0.657247625019775 
2070	 0.658656902734912 
2071	 0.65997945664754 
2072	 0.661270982910366 
2073	 0.662546121349136 
2074	 0.663764653501761 
2075	 0.665012067899769 
2076	 0.666291848337808 
2077	 0.667486309691154 
2078	 0.668710302633307 
2079	 0.669817655909136 
2080	 0.670782004704584 
2081	 0.67177263079308 
2082	 0.672727568533709 
2083	 0.673624061864251 
2084	 0.674583882686683 
2085	 0.675460784201493 
2086	 0.676280183592219 
2087	 0.677069223922221 
2088	 0.677769297594849 
2089	 0.678369993272123 
2090	 0.678962436200606 
2091	 0.67946381759009 
2092	 0.680001768745297 
2093	 0.68054327043182 
2094	 0.681042824404818 
2095	 0.681558625020108 
2096	 0.682010353162292 
2097	 0.682403520920311 
2098	 0.682763382589385 
2099	 0.683100815667803 
2100	 0.683391609596626 
2101	 0.683662082433985 
2102	 0.683909112382516 
2103	 0.684104982111293 
2104	 0.684253428131034 
2105	 0.684392510538166 
2106	 0.684462498144771 
2107	 0.684584249616595 
2108	 0.684729450582783 
2109	 0.684841977603341 
2110	 0.684972629195127 
2111	 0.685061425492611 
2112	 0.685111096994383 
2113	 0.685152026128708 
2114	 0.685149949453545 
2115	 0.685170034915947 
2116	 0.685217572684711 
2117	 0.685213413417532 
2118	 0.685191560455933 
2119	 0.685169467069506 
2120	 0.685120780093386 
2121	 0.685023896378105 
2122	 0.684932917645995 
2123	 0.684863500564297 
2124	 0.684733586004863 
2125	 0.684562531609674 
2126	 0.684376151137448 
2127	 0.6841900962906 
2128	 0.683914907661513 
2129	 0.683589551495661 
2130	 0.683227527532984 
2131	 0.682814147542909 
2132	 0.682331296459392 
2133	 0.681849125417003 
2134	 0.681245241275263 
2135	 0.68045257246782 
2136	 0.67964858903603 
2137	 0.678752534678285 
2138	 0.677723813122129 
2139	 0.676686699705056 
2140	 0.675618749874692 
2141	 0.674461763012985 
2142	 0.673222379206768 
2143	 0.671956883159005 
2144	 0.67060245066622 
2145	 0.669278852191792 
2146	 0.667876819883806 
2147	 0.666564166811863 
2148	 0.665298635750415 
2149	 0.664023319083034 
2150	 0.662839196480845 
2151	 0.661576548207114 
2152	 0.660259059860158 
2153	 0.658966283910269 
2154	 0.657584851106204 
2155	 0.656155615850425 
2156	 0.654794725916624 
2157	 0.653452472128984 
2158	 0.652043391270315 
2159	 0.650673391926484 
2160	 0.649200648275436 
2161	 0.647601789697149 
2162	 0.64608017822646 
2163	 0.64450793775148 
2164	 0.643036048973165 
2165	 0.641579464920576 
2166	 0.640207911530704 
2167	 0.638941185187624 
2168	 0.63767076249358 
2169	 0.63640457591515 
2170	 0.635255215983761 
2171	 0.634108439041967 
2172	 0.633110921761362 
2173	 0.632282632975512 
2174	 0.631479987210613 
2175	 0.630810822653684 
2176	 0.630230108887939 
2177	 0.62963262201285 
2178	 0.629087228411072 
2179	 0.628588326548967 
2180	 0.628068036914512 
2181	 0.627697667799856 
2182	 0.627439768809492 
2183	 0.627213853195684 
2184	 0.627075246777818 
2185	 0.626984587225124 
2186	 0.626945720843222 
2187	 0.626971660246223 
2188	 0.62709191595023 
2189	 0.627223337476585 
2190	 0.627424622457292 
2191	 0.627619175263284 
2192	 0.627833716059847 
2193	 0.628070539296097 
2194	 0.628353077910361 
2195	 0.628609870580698 
2196	 0.62887210256813 
2197	 0.62914247392018 
2198	 0.62938685527807 
2199	 0.629625874706267 
2200	 0.629886950735714 
2201	 0.630174363892885 
2202	 0.630430199026578 
2203	 0.630688159174587 
2204	 0.630911313570491 
2205	 0.631105078288903 
2206	 0.631299296702586 
2207	 0.63146651418868 
2208	 0.631654448776271 
2209	 0.631846500773111 
2210	 0.632022340449524 
2211	 0.632192745921344 
2212	 0.632364598459759 
2213	 0.632544481823065 
2214	 0.632695985279803 
2215	 0.632822125821744 
2216	 0.632964924750771 
2217	 0.633064649422778 
2218	 0.633209456184579 
2219	 0.633411051194057 
2220	 0.633590903787184 
2221	 0.633797022463016 
2222	 0.633993785168623 
2223	 0.634096037786932 
2224	 0.63412834659626 
2225	 0.634118155727046 
2226	 0.634011239353677 
2227	 0.633867899351025 
2228	 0.633698361684966 
2229	 0.633437543385177 
2230	 0.633095207182328 
2231	 0.632688407219381 
2232	 0.632222064407343 
2233	 0.631668150525446 
2234	 0.631058055798939 
2235	 0.630310582616397 
2236	 0.629465876045185 
2237	 0.628516752480548 
2238	 0.627397452823227 
2239	 0.626265007089486 
2240	 0.625090929750429 
2241	 0.62379169266725 
2242	 0.622452513769841 
2243	 0.62096030525438 
2244	 0.619312103712629 
2245	 0.617588759778344 
2246	 0.615677196605341 
2247	 0.613790299277554 
2248	 0.611838518959719 
2249	 0.609865529873819 
2250	 0.607926550517496 
2251	 0.605916097232217 
2252	 0.603642708531441 
2253	 0.601450809136141 
2254	 0.599121870899156 
2255	 0.596742933396984 
2256	 0.594644834414389 
2257	 0.592492006550976 
2258	 0.590400446225997 
2259	 0.588410423465741 
2260	 0.586375702081917 
2261	 0.58429730156733 
2262	 0.582350341120095 
2263	 0.580412128036941 
2264	 0.578612399610299 
2265	 0.57694911474523 
2266	 0.575284062220622 
2267	 0.573700292018397 
2268	 0.572152112596667 
2269	 0.570620548665501 
2270	 0.569186109314192 
2271	 0.567829023613958 
2272	 0.566526141180055 
2273	 0.565292912275041 
2274	 0.564106338611171 
2275	 0.5630449340088 
2276	 0.561917707936257 
2277	 0.560809379919511 
2278	 0.559703021075832 
2279	 0.558538840732074 
2280	 0.557414935061425 
2281	 0.556348666509549 
2282	 0.555249047944313 
2283	 0.554135523925529 
2284	 0.553048376264572 
2285	 0.551893386848762 
2286	 0.550811193858811 
2287	 0.549705654151832 
2288	 0.548602012846451 
2289	 0.54762532762849 
2290	 0.546620399593103 
2291	 0.545647785979053 
2292	 0.544683144379564 
2293	 0.543553177516684 
2294	 0.542354855091648 
2295	 0.541102159100535 
2296	 0.539761604111928 
2297	 0.538384110285994 
2298	 0.536986634663292 
2299	 0.535445442422333 
2300	 0.533781900768845 
2301	 0.532123940875328 
2302	 0.530322070384007 
2303	 0.528671595144942 
2304	 0.526929422930427 
2305	 0.525513418385594 
2306	 0.524140035507381 
2307	 0.523167401717064 
2308	 0.522432094463443 
2309	 0.522151204771045 
2310	 0.522124958778208 
2311	 0.522753609519118 
2312	 0.524048908310396 
2313	 0.525522995657448 
2314	 0.527640963776202 
2315	 0.529713447763905 
2316	 0.532099722688585 
2317	 0.534329758717737 
2318	 0.536822169748527 
2319	 0.538889944682314 
2320	 0.54084670504367 
2321	 0.542450143134185 
2322	 0.54374447135494 
2323	 0.544791936721419 
2324	 0.545474650239264 
2325	 0.546033124971817 
2326	 0.546324705114003 
2327	 0.546507244393767 
2328	 0.546480998835417 
2329	 0.546381050630632 
2330	 0.546146313714199 
2331	 0.545771685440896 
2332	 0.545345018682602 
2333	 0.544859162535238 
2334	 0.544176386463195 
2335	 0.543358469532438 
2336	 0.542309566036389 
2337	 0.541081924642344 
2338	 0.539812488189075 
2339	 0.538307543742813 
2340	 0.536742874401359 
2341	 0.535095125187961 
2342	 0.533216287373733 
2343	 0.531387833321343 
2344	 0.529647275160516 
2345	 0.527935731433898 
2346	 0.526503242396413 
2347	 0.525367701769923 
2348	 0.524505886120791 
2349	 0.524111342568961 
2350	 0.524200600085916 
2351	 0.524772344997481 
2352	 0.525795186191082 
2353	 0.527300237847459 
2354	 0.529024199043833 
2355	 0.530962596498351 
2356	 0.532977286059315 
2357	 0.534939785408017 
2358	 0.536873510027874 
2359	 0.538586180553523 
2360	 0.540127759770259 
2361	 0.541373109580113 
2362	 0.542383427461347 
2363	 0.543233123569917 
2364	 0.543806869186024 
2365	 0.54423457828361 
2366	 0.544564540725414 
2367	 0.544775963422006 
2368	 0.54507178307556 
2369	 0.545358654563331 
2370	 0.545530270842458 
2371	 0.545699561425308 
2372	 0.545818474041261 
2373	 0.545916052726353 
2374	 0.546027034398127 
2375	 0.546082532524983 
2376	 0.546137831351077 
2377	 0.546157191957215 
2378	 0.546061503180874 
2379	 0.545986403597517 
2380	 0.545797335371572 
2381	 0.545544054914995 
2382	 0.545420123974665 
2383	 0.5453871553903 
2384	 0.54528276530074 
2385	 0.545231962323365 
2386	 0.545146804313885 
2387	 0.545017315871895 
2388	 0.544908741850084 
2389	 0.544772198494637 
2390	 0.544736307786135 
2391	 0.544778937830744 
2392	 0.54468828181773 
2393	 0.544641839484156 
2394	 0.544512337660216 
2395	 0.544175392688421 
2396	 0.54405641840952 
2397	 0.544109720430967 
2398	 0.543960495087398 
2399	 0.543801513572993 
2400	 0.54358182055331 
2401	 0.543120201734342 
2402	 0.542942614814864 
2403	 0.542777461893329 
2404	 0.542594197248091 
2405	 0.542603586052075 
2406	 0.542607811697564 
2407	 0.542676764641217 
2408	 0.542687627034355 
2409	 0.542549793530456 
2410	 0.542493055255582 
2411	 0.542336854289193 
2412	 0.542130634728342 
2413	 0.542062539811433 
2414	 0.541819407385676 
2415	 0.541559857456517 
2416	 0.54138776598407 
2417	 0.541106979731631 
2418	 0.540977261790161 
2419	 0.540793103268555 
2420	 0.540485316438544 
2421	 0.540339006725644 
2422	 0.53993939729417 
2423	 0.539442334152627 
2424	 0.539082349423382 
2425	 0.538544042732008 
2426	 0.538023296498684 
2427	 0.537496988100067 
2428	 0.537020277596607 
2429	 0.536657834270132 
2430	 0.536307215128808 
2431	 0.535952276287315 
2432	 0.535396634706298 
2433	 0.534721499098545 
2434	 0.533974645681967 
2435	 0.53332816318006 
2436	 0.532707387592239 
2437	 0.531993338169729 
2438	 0.531422514729908 
2439	 0.530790858754451 
2440	 0.530060373983321 
2441	 0.529359366960903 
2442	 0.528648467552243 
2443	 0.527911658050336 
2444	 0.52715773265342 
2445	 0.526381043019773 
2446	 0.525446034012311 
2447	 0.524334415076792 
2448	 0.523231578776433 
2449	 0.522192937206035 
2450	 0.521230440799455 
2451	 0.520309247524987 
2452	 0.519355692013308 
2453	 0.518383640819196 
2454	 0.517336106663145 
2455	 0.516365057363446 
2456	 0.515458498275116 
2457	 0.514436787040553 
2458	 0.513518710376457 
2459	 0.51264088931961 
2460	 0.511840183026315 
2461	 0.511185485809215 
2462	 0.510293779592047 
2463	 0.509438086669318 
2464	 0.508574377006943 
2465	 0.507518441547042 
2466	 0.506804251427116 
2467	 0.506056024820957 
2468	 0.505175894016042 
2469	 0.504844329037471 
2470	 0.504464178489399 
2471	 0.503924793874451 
2472	 0.503548437729911 
2473	 0.502812682050687 
2474	 0.502181306495287 
2475	 0.501710101286198 
2476	 0.501102082908314 
2477	 0.500560735313437 
2478	 0.499959299794669 
2479	 0.499433322848345 
2480	 0.499260508029242 
2481	 0.498911729787049 
2482	 0.498363317771273 
2483	 0.498433790478455 
2484	 0.498337388278865 
2485	 0.498309966370355 
2486	 0.498142004191308 
2487	 0.497334478672602 
2488	 0.496675827307131 
2489	 0.496323744375201 
2490	 0.496121202486729 
2491	 0.496141578701561 
2492	 0.495428814803738 
2493	 0.494262602797426 
2494	 0.493775789988022 
2495	 0.493578160139876 
2496	 0.493676581345994 
2497	 0.493702073748916 
2498	 0.493398772561788 
2499	 0.493198058382559 
2500	 0.492863644039464 
