Wavelength	ProbetaAcolman00016.asd
350	 0.422086750311521 
351	 0.439629217815094 
352	 0.436264929005178 
353	 0.410925674706453 
354	 0.413785271397862 
355	 0.414303065692587 
356	 0.407563654573843 
357	 0.399207544863137 
358	 0.413105605302723 
359	 0.400405119801929 
360	 0.379310547331305 
361	 0.392430235720808 
362	 0.379734737674619 
363	 0.377500392465349 
364	 0.391004684332331 
365	 0.372998378272351 
366	 0.363006162968147 
367	 0.368316414978582 
368	 0.380807016446777 
369	 0.371559917819431 
370	 0.361279022185964 
371	 0.361570063100275 
372	 0.374747962334845 
373	 0.380524832555602 
374	 0.373025084608988 
375	 0.360431528801268 
376	 0.367597886456813 
377	 0.37873938052518 
378	 0.383640889487641 
379	 0.37857494307395 
380	 0.373493868496118 
381	 0.375061324259426 
382	 0.379792199563342 
383	 0.379426646195304 
384	 0.381353828239179 
385	 0.382851209599147 
386	 0.38356313423034 
387	 0.387831729372091 
388	 0.396209082530431 
389	 0.401105166459582 
390	 0.397795198378578 
391	 0.399008340728033 
392	 0.396751476632276 
393	 0.394779068908178 
394	 0.402418231084416 
395	 0.405434418006322 
396	 0.408761472929861 
397	 0.414182547909855 
398	 0.413941980785985 
399	 0.41816653862656 
400	 0.424942369050343 
401	 0.429270218326333 
402	 0.427285785520166 
403	 0.429411957777406 
404	 0.436559405823582 
405	 0.44240344068125 
406	 0.444668279419363 
407	 0.445117921317512 
408	 0.445988051106207 
409	 0.449185572914343 
410	 0.453281613717493 
411	 0.457509108311861 
412	 0.461172058681779 
413	 0.462505231084492 
414	 0.465966088433649 
415	 0.471359235488734 
416	 0.474492136528607 
417	 0.478097844839081 
418	 0.481412192406121 
419	 0.484060152915094 
420	 0.488145945797054 
421	 0.490006809056339 
422	 0.491321271385486 
423	 0.494947837345227 
424	 0.497301885955325 
425	 0.499011299927659 
426	 0.500835743211293 
427	 0.503294977414855 
428	 0.505839218858159 
429	 0.507781095045645 
430	 0.509032441239299 
431	 0.511200035888899 
432	 0.512988833107535 
433	 0.514559597377018 
434	 0.516641858493617 
435	 0.517544475441089 
436	 0.518745245590694 
437	 0.520670830429097 
438	 0.521712659269559 
439	 0.522819030432417 
440	 0.524023033997094 
441	 0.525180195992801 
442	 0.526549912340132 
443	 0.527050648532026 
444	 0.527240898439054 
445	 0.528731155664214 
446	 0.529023741132588 
447	 0.529132464224088 
448	 0.529920984020287 
449	 0.530850863712043 
450	 0.531445076614223 
451	 0.531679519300563 
452	 0.531772842458299 
453	 0.53201099721715 
454	 0.532400697218388 
455	 0.532752268313216 
456	 0.532713502486528 
457	 0.532718445560777 
458	 0.53278849792349 
459	 0.532870785725708 
460	 0.533018412374897 
461	 0.532855811621462 
462	 0.532540415041585 
463	 0.532455136826681 
464	 0.532214936945674 
465	 0.531943437455255 
466	 0.531658015665219 
467	 0.531129869025 
468	 0.530736099300173 
469	 0.530500436115584 
470	 0.530300890533808 
471	 0.529898269367616 
472	 0.529543336784724 
473	 0.529143615278372 
474	 0.528404801845325 
475	 0.5283321464364 
476	 0.528203547848484 
477	 0.52752413151109 
478	 0.526817769673743 
479	 0.52636656538554 
480	 0.526010710845982 
481	 0.525461920644055 
482	 0.524910378200519 
483	 0.524531628698773 
484	 0.524239465507512 
485	 0.523672064155028 
486	 0.522994433658869 
487	 0.522468671930766 
488	 0.522163326087684 
489	 0.521485468069935 
490	 0.52100757700046 
491	 0.520675307249325 
492	 0.520129781691905 
493	 0.519832016340066 
494	 0.519416360928952 
495	 0.518767976678749 
496	 0.518319925324632 
497	 0.517901956211751 
498	 0.517545646434671 
499	 0.517263359531887 
500	 0.516780892904131 
501	 0.516077632676983 
502	 0.515376903513673 
503	 0.515058706328355 
504	 0.514657178281081 
505	 0.514146142783045 
506	 0.513581356211309 
507	 0.513011947792228 
508	 0.512360733790006 
509	 0.511706015894733 
510	 0.511152205856566 
511	 0.510481880953465 
512	 0.509825950429064 
513	 0.509202203324322 
514	 0.508449639025459 
515	 0.507545397116369 
516	 0.506661195979576 
517	 0.505897629827856 
518	 0.504947452274816 
519	 0.503895072582999 
520	 0.50282035016014 
521	 0.501791246655747 
522	 0.500784719481401 
523	 0.49977185357715 
524	 0.498715387322394 
525	 0.49755929102755 
526	 0.496346332314095 
527	 0.495055509472457 
528	 0.493685703559873 
529	 0.492452115591697 
530	 0.491252953134726 
531	 0.490000108244573 
532	 0.488649378475066 
533	 0.487249209929769 
534	 0.485828053087826 
535	 0.484393800976686 
536	 0.482888731366723 
537	 0.481509149341899 
538	 0.480200392055098 
539	 0.478787834461591 
540	 0.477421092099245 
541	 0.476021000991881 
542	 0.474575180912439 
543	 0.47322553153914 
544	 0.471820283336691 
545	 0.470393358852736 
546	 0.469006411311231 
547	 0.467575857004059 
548	 0.466129531947182 
549	 0.464667184829351 
550	 0.46316797010777 
551	 0.461775956757212 
552	 0.460324910621227 
553	 0.458720320142604 
554	 0.457194417799466 
555	 0.455623640899823 
556	 0.454055219844172 
557	 0.452599605636521 
558	 0.451209692263515 
559	 0.449858686332086 
560	 0.448541008895631 
561	 0.447275370603385 
562	 0.44615859195686 
563	 0.445089555019395 
564	 0.44393578477184 
565	 0.442671253809979 
566	 0.441359333866996 
567	 0.440004470515862 
568	 0.438578635192768 
569	 0.437266477892737 
570	 0.436040065221955 
571	 0.434868429783083 
572	 0.433811743864065 
573	 0.432792799663573 
574	 0.431753470803592 
575	 0.430678372454204 
576	 0.429757876343766 
577	 0.428867533612775 
578	 0.427972459600771 
579	 0.42715975517278 
580	 0.426278771653621 
581	 0.425230407343779 
582	 0.424023745237932 
583	 0.422933195245358 
584	 0.421907816089643 
585	 0.420884916460692 
586	 0.419823301009524 
587	 0.418985657429074 
588	 0.418201568026329 
589	 0.417374893339812 
590	 0.416621523903821 
591	 0.415792330687693 
592	 0.414839454006505 
593	 0.413773582954842 
594	 0.412707344972169 
595	 0.411540552726344 
596	 0.410317953054874 
597	 0.409213975985838 
598	 0.408263930508531 
599	 0.407308404421748 
600	 0.406300673607935 
601	 0.405568997592289 
602	 0.4048541596356 
603	 0.404052897136461 
604	 0.403181962949056 
605	 0.402560535576157 
606	 0.401947966354572 
607	 0.401238759133599 
608	 0.400553535009743 
609	 0.399944610614946 
610	 0.399324797340281 
611	 0.398624606161789 
612	 0.397946819020781 
613	 0.397444923277513 
614	 0.397006213344021 
615	 0.39637337378559 
616	 0.395719264466916 
617	 0.395215172438485 
618	 0.394862320276375 
619	 0.394369008532608 
620	 0.393831924683006 
621	 0.393386057956379 
622	 0.393099415171136 
623	 0.392629655753493 
624	 0.392207768401783 
625	 0.391933790383355 
626	 0.391751730851205 
627	 0.391487090356547 
628	 0.391154020775886 
629	 0.390844218999315 
630	 0.390756409766643 
631	 0.390584821363823 
632	 0.390317657208346 
633	 0.390093531059654 
634	 0.39005908002586 
635	 0.390064786866683 
636	 0.389999109188612 
637	 0.38983512231705 
638	 0.389785447359262 
639	 0.389845875930743 
640	 0.389929508895102 
641	 0.389880981328843 
642	 0.389868567660052 
643	 0.389979488557795 
644	 0.390211555708549 
645	 0.390277179826364 
646	 0.390319287397963 
647	 0.390457146062104 
648	 0.390683620674993 
649	 0.39088575818458 
650	 0.391052420527858 
651	 0.391236148589157 
652	 0.391614273420591 
653	 0.39186320404719 
654	 0.391998119555404 
655	 0.392304683712113 
656	 0.392662402645412 
657	 0.393020450661975 
658	 0.393366824953087 
659	 0.393755417598837 
660	 0.394119090719442 
661	 0.394466384760791 
662	 0.394831141422269 
663	 0.395206371285433 
664	 0.395645629594987 
665	 0.396153208919142 
666	 0.396679469068813 
667	 0.397152742017702 
668	 0.397621261862655 
669	 0.398121636544559 
670	 0.398592434126288 
671	 0.399064500820081 
672	 0.399583655674016 
673	 0.400181042788287 
674	 0.400748061034692 
675	 0.401274314836808 
676	 0.401796746535695 
677	 0.40239533677231 
678	 0.403010464251255 
679	 0.403600436323859 
680	 0.404150638396511 
681	 0.404700124487824 
682	 0.405333838855968 
683	 0.406032776856552 
684	 0.406712618292599 
685	 0.407295366851449 
686	 0.407856828003084 
687	 0.408442711535063 
688	 0.409030699777553 
689	 0.409693471668258 
690	 0.410367653696951 
691	 0.410993690386823 
692	 0.411655827911432 
693	 0.412306144925945 
694	 0.412949984378402 
695	 0.413623091516064 
696	 0.41430178129148 
697	 0.414990360764717 
698	 0.415671537600473 
699	 0.416287853458257 
700	 0.416930795285365 
701	 0.417618792557112 
702	 0.418328453930952 
703	 0.418970216654575 
704	 0.419639907861968 
705	 0.420327700587361 
706	 0.420955197939205 
707	 0.421549172867163 
708	 0.422214441217175 
709	 0.422948102655072 
710	 0.423551372600187 
711	 0.424177030019579 
712	 0.424827106844004 
713	 0.425465670451698 
714	 0.426092817319719 
715	 0.426694880632293 
716	 0.427289534494538 
717	 0.427907125389331 
718	 0.428453128841816 
719	 0.429052676774783 
720	 0.42972651652079 
721	 0.430271011649965 
722	 0.430829976296769 
723	 0.431374425026049 
724	 0.431864915851374 
725	 0.432424993829547 
726	 0.433004565241549 
727	 0.433570741387526 
728	 0.434109006619668 
729	 0.43463707258155 
730	 0.435158950703813 
731	 0.435682273046926 
732	 0.436226448884413 
733	 0.436697650023743 
734	 0.437145067127788 
735	 0.43763734351418 
736	 0.438146126441154 
737	 0.438636706178998 
738	 0.439105278666248 
739	 0.439566531159991 
740	 0.440006834023733 
741	 0.4404042312507 
742	 0.440786334055256 
743	 0.441251697857716 
744	 0.441862338636422 
745	 0.442351469898547 
746	 0.442562169162524 
747	 0.442996514882123 
748	 0.443450896153056 
749	 0.443895221159582 
750	 0.444381670652491 
751	 0.444787231801926 
752	 0.445113772199349 
753	 0.445394701859451 
754	 0.445683001837666 
755	 0.446086160943289 
756	 0.446495249763152 
757	 0.446814018889351 
758	 0.447138401902885 
759	 0.447423284008922 
760	 0.447765476151934 
761	 0.448266933952433 
762	 0.448650799223259 
763	 0.448920296140755 
764	 0.449157462900665 
765	 0.449493549300819 
766	 0.449811896005938 
767	 0.450126396031153 
768	 0.450455774403057 
769	 0.450770420267046 
770	 0.451103122620541 
771	 0.451421699421685 
772	 0.451701385172175 
773	 0.45207822333816 
774	 0.452413996204109 
775	 0.452677521601821 
776	 0.4529417851869 
777	 0.45329710333385 
778	 0.453608019709901 
779	 0.453838010915867 
780	 0.454170800569727 
781	 0.454537393652743 
782	 0.454848538856785 
783	 0.455064638708827 
784	 0.455333986139412 
785	 0.455643738211801 
786	 0.456010443096985 
787	 0.456440691631265 
788	 0.456771823750417 
789	 0.457097334885635 
790	 0.457438446342654 
791	 0.457707593399771 
792	 0.458029294373322 
793	 0.458371325913634 
794	 0.458696478994999 
795	 0.459041822745795 
796	 0.459361861052759 
797	 0.4596291944091 
798	 0.459863454250682 
799	 0.460255917392272 
800	 0.460668493157663 
801	 0.461026060726027 
802	 0.461326630505331 
803	 0.461648843252246 
804	 0.461960033762153 
805	 0.462275000398619 
806	 0.462700357512814 
807	 0.462961937702226 
808	 0.463232126343994 
809	 0.463672195694621 
810	 0.464061866067823 
811	 0.464471312479385 
812	 0.464911148495921 
813	 0.465353076397162 
814	 0.465696087385787 
815	 0.466051203114403 
816	 0.46646721381299 
817	 0.466916919214614 
818	 0.467320571183865 
819	 0.467728483553764 
820	 0.46816897683593 
821	 0.468598912065727 
822	 0.469051426845089 
823	 0.469487812839695 
824	 0.469891932076002 
825	 0.470369827894431 
826	 0.470902369204158 
827	 0.471416084545749 
828	 0.471844197248673 
829	 0.472300590302597 
830	 0.472854968044951 
831	 0.473477084844151 
832	 0.474056526694956 
833	 0.474584724271797 
834	 0.475101560627175 
835	 0.475644165815413 
836	 0.476230062743863 
837	 0.476799489984855 
838	 0.477358896343059 
839	 0.477927114284204 
840	 0.478508591048522 
841	 0.479062575901323 
842	 0.479605064886486 
843	 0.480175836635272 
844	 0.480789470027665 
845	 0.4814788466211 
846	 0.482198194765316 
847	 0.482858525190553 
848	 0.48352325960915 
849	 0.484211303266108 
850	 0.484869089335428 
851	 0.485376146963423 
852	 0.486057160164749 
853	 0.48681692665718 
854	 0.487533871501189 
855	 0.488232350791089 
856	 0.488923062019288 
857	 0.489589235859424 
858	 0.490268183457045 
859	 0.491247354743873 
860	 0.492039585862516 
861	 0.492716622435688 
862	 0.49359076509198 
863	 0.494470941889317 
864	 0.495338708650233 
865	 0.496215117636964 
866	 0.497133465467045 
867	 0.497935576852959 
868	 0.498798631260833 
869	 0.499780782065791 
870	 0.500715580543697 
871	 0.501527685450126 
872	 0.502432794575088 
873	 0.503525121788644 
874	 0.504492268508581 
875	 0.505481083676112 
876	 0.506487656337484 
877	 0.507491768265915 
878	 0.508561393398727 
879	 0.509696682052586 
880	 0.510819650531868 
881	 0.511833590453285 
882	 0.512740021066671 
883	 0.513807331171577 
884	 0.514993197139658 
885	 0.516049146681774 
886	 0.517231583419918 
887	 0.51836961650029 
888	 0.519444239503687 
889	 0.520645077024059 
890	 0.521789866634329 
891	 0.522962329836609 
892	 0.524202113504135 
893	 0.525395960794314 
894	 0.52651610174621 
895	 0.527738382299831 
896	 0.529108280996776 
897	 0.530210132354003 
898	 0.531220466837748 
899	 0.53233450739326 
900	 0.533659239738657 
901	 0.534945228755941 
902	 0.536173788998213 
903	 0.537383047537824 
904	 0.53863930390235 
905	 0.539982727619082 
906	 0.541251438117527 
907	 0.542472838832513 
908	 0.543787706374143 
909	 0.545011349976755 
910	 0.546282593463094 
911	 0.547627272700103 
912	 0.548933515850341 
913	 0.550228005113317 
914	 0.551572076892713 
915	 0.552938497303284 
916	 0.554186440676615 
917	 0.555507596357696 
918	 0.556867739601037 
919	 0.558217004639839 
920	 0.559566063401083 
921	 0.561016191850262 
922	 0.562425606602106 
923	 0.563720466713027 
924	 0.565167725313295 
925	 0.566556234304027 
926	 0.567920924977623 
927	 0.569307689916566 
928	 0.570496879205004 
929	 0.571928804418631 
930	 0.573418296807802 
931	 0.574637374295936 
932	 0.575876674921082 
933	 0.577347228221994 
934	 0.578876558631829 
935	 0.580178107152739 
936	 0.581583944556471 
937	 0.583032675410539 
938	 0.584456900389248 
939	 0.585813151741413 
940	 0.587150857583846 
941	 0.58851054019317 
942	 0.589877110999719 
943	 0.591202483457578 
944	 0.592554719211017 
945	 0.59395620054637 
946	 0.595368152992004 
947	 0.596702380777638 
948	 0.597945618124413 
949	 0.599201147854546 
950	 0.600465771523868 
951	 0.601603677024018 
952	 0.60290717422718 
953	 0.604174760506549 
954	 0.60533575379897 
955	 0.606629429299553 
956	 0.607903726593112 
957	 0.609003689652161 
958	 0.609959533703737 
959	 0.611095658914725 
960	 0.612252778807272 
961	 0.613309440938465 
962	 0.614278729250722 
963	 0.615407229810228 
964	 0.616582488533398 
965	 0.617820087867342 
966	 0.619057624650987 
967	 0.620003636727663 
968	 0.621088268957102 
969	 0.622246868280872 
970	 0.623367628351426 
971	 0.624611737375572 
972	 0.62571989371135 
973	 0.626696592068043 
974	 0.627645187911414 
975	 0.628667870152979 
976	 0.629817450316167 
977	 0.630896391118096 
978	 0.631761865510937 
979	 0.632689586774847 
980	 0.633560444543501 
981	 0.63450308649047 
982	 0.635611090525857 
983	 0.636654263669681 
984	 0.637391555915824 
985	 0.638182132456756 
986	 0.639363380826487 
987	 0.640475892268797 
988	 0.64132208013015 
989	 0.642034314562991 
990	 0.642849060668491 
991	 0.64383678600295 
992	 0.644897777087922 
993	 0.645838453355389 
994	 0.646567509625992 
995	 0.647420325642694 
996	 0.648187328609711 
997	 0.648947385638714 
998	 0.649829069799764 
999	 0.650779778990519 
1000	 0.651668516241237 
1001	 0.665195996059504 
1002	 0.666012714534717 
1003	 0.666844715610641 
1004	 0.667615471623872 
1005	 0.668372936904865 
1006	 0.669161020561328 
1007	 0.669915644442608 
1008	 0.670694717292615 
1009	 0.671541732896988 
1010	 0.6722938715919 
1011	 0.672993579203297 
1012	 0.673698793434319 
1013	 0.674367344124297 
1014	 0.67505174428188 
1015	 0.675740521530343 
1016	 0.676393802980962 
1017	 0.67712518555301 
1018	 0.677850638670455 
1019	 0.678514339984794 
1020	 0.679217428883532 
1021	 0.679849217374196 
1022	 0.680362272610801 
1023	 0.680981629970961 
1024	 0.681628293447716 
1025	 0.682263769426149 
1026	 0.682941130113538 
1027	 0.683587543843924 
1028	 0.684239162009994 
1029	 0.684869239784704 
1030	 0.68539453950871 
1031	 0.68590922410675 
1032	 0.686396887251433 
1033	 0.686863072665814 
1034	 0.687443852343046 
1035	 0.688001556335051 
1036	 0.688501157016561 
1037	 0.688992896137415 
1038	 0.689448244067352 
1039	 0.689835536734786 
1040	 0.690256251520745 
1041	 0.690644507771597 
1042	 0.691078622694519 
1043	 0.691551470551895 
1044	 0.691974137934109 
1045	 0.69243694847984 
1046	 0.692937418030436 
1047	 0.693321088930162 
1048	 0.693709465478901 
1049	 0.694092838955923 
1050	 0.694440293884813 
1051	 0.694870307047073 
1052	 0.695230537431727 
1053	 0.695593017544601 
1054	 0.695948625103525 
1055	 0.696333529801428 
1056	 0.696723422739369 
1057	 0.69712559380437 
1058	 0.697575369821373 
1059	 0.697921981404934 
1060	 0.698325383287983 
1061	 0.698723765216103 
1062	 0.699122499462602 
1063	 0.69959948957051 
1064	 0.70001831320204 
1065	 0.700431679209227 
1066	 0.700896291720054 
1067	 0.701316868417658 
1068	 0.701726407157093 
1069	 0.702099269616161 
1070	 0.702470756777414 
1071	 0.702795455678799 
1072	 0.703182939290664 
1073	 0.703589697653375 
1074	 0.703989116939819 
1075	 0.70441029453331 
1076	 0.704805802965846 
1077	 0.705179632905208 
1078	 0.705565831875132 
1079	 0.705962247531088 
1080	 0.706376497968871 
1081	 0.706793280920596 
1082	 0.707197079319811 
1083	 0.707623349613322 
1084	 0.70805147952358 
1085	 0.708428625352224 
1086	 0.70882013833311 
1087	 0.709226731586705 
1088	 0.709629850616302 
1089	 0.709991108400548 
1090	 0.710357101180227 
1091	 0.710699494537613 
1092	 0.710983916013601 
1093	 0.711256076315314 
1094	 0.711570700248353 
1095	 0.711863645846913 
1096	 0.712155018552315 
1097	 0.712471101487324 
1098	 0.712738549167326 
1099	 0.71300663068565 
1100	 0.713251853719089 
1101	 0.713490924461028 
1102	 0.713766352599404 
1103	 0.713974663610675 
1104	 0.71414609565052 
1105	 0.714323281720649 
1106	 0.714488255162238 
1107	 0.714607784943849 
1108	 0.714804079736672 
1109	 0.715007777687161 
1110	 0.715157152391766 
1111	 0.715276110653687 
1112	 0.715354911742771 
1113	 0.715428657104509 
1114	 0.715511522976668 
1115	 0.715595356336164 
1116	 0.715672611750826 
1117	 0.715762047107683 
1118	 0.715859429550268 
1119	 0.715994348568739 
1120	 0.716062871175626 
1121	 0.716122031254775 
1122	 0.716143971378991 
1123	 0.71611121359769 
1124	 0.71609175622543 
1125	 0.716111550489763 
1126	 0.716100473777355 
1127	 0.716056368710971 
1128	 0.715995208607757 
1129	 0.715920924593432 
1130	 0.71584820061449 
1131	 0.715776943046952 
1132	 0.715723654381187 
1133	 0.715670949471407 
1134	 0.715599662373292 
1135	 0.715487800809206 
1136	 0.715352014303471 
1137	 0.715215439251654 
1138	 0.715014483749288 
1139	 0.714851255543517 
1140	 0.714699013903167 
1141	 0.714601338335543 
1142	 0.714467601986246 
1143	 0.714337136511304 
1144	 0.714214003716776 
1145	 0.714005402604986 
1146	 0.713779074536812 
1147	 0.713589755035911 
1148	 0.713382709783688 
1149	 0.713207169125372 
1150	 0.713068654247743 
1151	 0.712925781911702 
1152	 0.712766031929172 
1153	 0.71261319444468 
1154	 0.712439945658779 
1155	 0.712238513693055 
1156	 0.712039797769349 
1157	 0.71185326489656 
1158	 0.711645720672837 
1159	 0.711411042043701 
1160	 0.711194570956762 
1161	 0.710960967844139 
1162	 0.710723445153607 
1163	 0.710524218323555 
1164	 0.710294368671725 
1165	 0.710080653408645 
1166	 0.709884630825473 
1167	 0.709663184155541 
1168	 0.709475021819978 
1169	 0.709287288166333 
1170	 0.709102278579079 
1171	 0.708917225525898 
1172	 0.708739912743202 
1173	 0.708569215551881 
1174	 0.708378231159562 
1175	 0.708243983693234 
1176	 0.708166443939857 
1177	 0.708055464190519 
1178	 0.70794426713579 
1179	 0.707856915977541 
1180	 0.707790245571817 
1181	 0.707677928643752 
1182	 0.707587589031094 
1183	 0.707508942114835 
1184	 0.707384334769951 
1185	 0.707292207738162 
1186	 0.707207410723002 
1187	 0.70714163853918 
1188	 0.707079883586558 
1189	 0.707012569411747 
1190	 0.706976418965629 
1191	 0.706948822115945 
1192	 0.706955928964342 
1193	 0.70699820910082 
1194	 0.707049611656698 
1195	 0.707147497177437 
1196	 0.707220539248103 
1197	 0.707292643114972 
1198	 0.707355255669269 
1199	 0.70743431299691 
1200	 0.707524574784446 
1201	 0.707640947068873 
1202	 0.707739942809401 
1203	 0.707815742132826 
1204	 0.707929856088409 
1205	 0.708056026155398 
1206	 0.708198156346753 
1207	 0.708347549269423 
1208	 0.708524400634671 
1209	 0.708681998342883 
1210	 0.708822253067409 
1211	 0.708993054019577 
1212	 0.709151283789802 
1213	 0.709364387051511 
1214	 0.709625836273529 
1215	 0.709891859421306 
1216	 0.710186707539833 
1217	 0.710493445932106 
1218	 0.710825980690303 
1219	 0.711137567493914 
1220	 0.711475068790066 
1221	 0.711849988126616 
1222	 0.712177768629926 
1223	 0.712532255665304 
1224	 0.712912763942763 
1225	 0.713324566766282 
1226	 0.713689212233618 
1227	 0.714063714636481 
1228	 0.714424763758742 
1229	 0.714746399233791 
1230	 0.715087702889418 
1231	 0.715474555227802 
1232	 0.715801706825824 
1233	 0.716091076998135 
1234	 0.716370809663133 
1235	 0.716612598107474 
1236	 0.716861664672513 
1237	 0.717103422593957 
1238	 0.717345713320002 
1239	 0.717576246892252 
1240	 0.717825229943302 
1241	 0.718082125270696 
1242	 0.71829735928288 
1243	 0.718484864146467 
1244	 0.718631519334178 
1245	 0.718820853687734 
1246	 0.719000792522466 
1247	 0.719177178138108 
1248	 0.719387531098492 
1249	 0.719564492379788 
1250	 0.719709830656254 
1251	 0.719847807081879 
1252	 0.719991389200759 
1253	 0.720111173584083 
1254	 0.720200493278526 
1255	 0.720289086257814 
1256	 0.720373551802597 
1257	 0.720444584184006 
1258	 0.720495099002941 
1259	 0.720544076829044 
1260	 0.72058045220425 
1261	 0.720620311305409 
1262	 0.720651590795348 
1263	 0.720698827858093 
1264	 0.720728095609628 
1265	 0.720751477644698 
1266	 0.720780667334166 
1267	 0.720816853938281 
1268	 0.720818152392417 
1269	 0.720800327458599 
1270	 0.720803312759783 
1271	 0.720775778747051 
1272	 0.7207834927061 
1273	 0.720839487192847 
1274	 0.720862292211256 
1275	 0.720863750732613 
1276	 0.72088954747246 
1277	 0.72092433003411 
1278	 0.720953828960033 
1279	 0.721003989680821 
1280	 0.721035564845948 
1281	 0.72103511328222 
1282	 0.721061264095104 
1283	 0.721066268669112 
1284	 0.721120886393275 
1285	 0.721206060645627 
1286	 0.721322966977451 
1287	 0.721450105959653 
1288	 0.721622524589519 
1289	 0.721765270852309 
1290	 0.721906732143294 
1291	 0.722051366989432 
1292	 0.722192342098354 
1293	 0.722339574523467 
1294	 0.722492938212205 
1295	 0.722644394920627 
1296	 0.722788593387151 
1297	 0.72295072780263 
1298	 0.723131746886075 
1299	 0.723294224180148 
1300	 0.723450955161953 
1301	 0.72361997659012 
1302	 0.723787092977007 
1303	 0.72395039241856 
1304	 0.724151402195005 
1305	 0.724304412025328 
1306	 0.724414164293427 
1307	 0.724532054926151 
1308	 0.724619742077497 
1309	 0.724722263473898 
1310	 0.724829203460328 
1311	 0.724956982637543 
1312	 0.725043876480742 
1313	 0.725122360315152 
1314	 0.725185339741876 
1315	 0.72522235130138 
1316	 0.725260137734729 
1317	 0.725292101982257 
1318	 0.725318564514817 
1319	 0.725326523728461 
1320	 0.725348512030266 
1321	 0.725379860286998 
1322	 0.725397849688088 
1323	 0.725437629238669 
1324	 0.725427245167885 
1325	 0.725400028410623 
1326	 0.725339486069807 
1327	 0.725226157125065 
1328	 0.725120937940781 
1329	 0.725001107969469 
1330	 0.724870950021573 
1331	 0.72473114825573 
1332	 0.724589270288376 
1333	 0.724452230680368 
1334	 0.724286847387915 
1335	 0.724097075242357 
1336	 0.723898466453516 
1337	 0.723674903544422 
1338	 0.723420124080931 
1339	 0.723152295199404 
1340	 0.722863862604724 
1341	 0.7225837034131 
1342	 0.722274936841455 
1343	 0.721992859337925 
1344	 0.721747108248791 
1345	 0.721452180216335 
1346	 0.721146422132456 
1347	 0.720822318021996 
1348	 0.720472197119683 
1349	 0.720112542794528 
1350	 0.719740648713772 
1351	 0.719355020699275 
1352	 0.718952207167773 
1353	 0.718536512361942 
1354	 0.718103567582694 
1355	 0.717671606396278 
1356	 0.717228266625313 
1357	 0.716777323611347 
1358	 0.716305743138455 
1359	 0.715854922852547 
1360	 0.715394759543822 
1361	 0.714954983314409 
1362	 0.714535677154624 
1363	 0.714143477432633 
1364	 0.713764475087281 
1365	 0.713408377853838 
1366	 0.713047492142711 
1367	 0.712699221428247 
1368	 0.71235938856403 
1369	 0.712041924684625 
1370	 0.711678017902273 
1371	 0.71132643414231 
1372	 0.710922423701489 
1373	 0.710476973843351 
1374	 0.710002616353801 
1375	 0.709511521150467 
1376	 0.708963435677553 
1377	 0.708352475284549 
1378	 0.707732238818957 
1379	 0.707052220402848 
1380	 0.706393763076587 
1381	 0.705726013688751 
1382	 0.705049697921346 
1383	 0.70435000660131 
1384	 0.703680713415735 
1385	 0.703046085571994 
1386	 0.702375319517773 
1387	 0.701742110969539 
1388	 0.701061363641715 
1389	 0.700350403059402 
1390	 0.699599964007225 
1391	 0.698845087885284 
1392	 0.698001514831772 
1393	 0.697183327514735 
1394	 0.696306795110674 
1395	 0.695404080936519 
1396	 0.694483580217036 
1397	 0.693535613466853 
1398	 0.69254508533654 
1399	 0.691535623236254 
1400	 0.690531202587708 
1401	 0.689439380013482 
1402	 0.688347925925006 
1403	 0.687072797185318 
1404	 0.685748940479097 
1405	 0.684229506117302 
1406	 0.682557820945923 
1407	 0.680744797417578 
1408	 0.678679885901104 
1409	 0.676702535854538 
1410	 0.674427093943275 
1411	 0.672584775844474 
1412	 0.670687678415367 
1413	 0.669382178366741 
1414	 0.668396581107219 
1415	 0.667832455389572 
1416	 0.66785859852162 
1417	 0.667958629158093 
1418	 0.668546501522199 
1419	 0.668990181189361 
1420	 0.669645083900776 
1421	 0.670090203841067 
1422	 0.670484672033415 
1423	 0.670737003999308 
1424	 0.670838576948914 
1425	 0.670850255374585 
1426	 0.670763919961341 
1427	 0.670608342741539 
1428	 0.670411964228562 
1429	 0.670181221715532 
1430	 0.669962328224068 
1431	 0.669719741083414 
1432	 0.669485329367989 
1433	 0.669246537869431 
1434	 0.669019641809895 
1435	 0.668780770060324 
1436	 0.668573859499747 
1437	 0.668389309994815 
1438	 0.668205531510652 
1439	 0.668037410007318 
1440	 0.667871060109847 
1441	 0.667716012228115 
1442	 0.667548721631972 
1443	 0.667373979588469 
1444	 0.667214962345869 
1445	 0.667051400199328 
1446	 0.666905193455642 
1447	 0.666777859662929 
1448	 0.666654637023635 
1449	 0.666535222681857 
1450	 0.666423509315685 
1451	 0.666332004817548 
1452	 0.666228114878099 
1453	 0.666129870420306 
1454	 0.66602070943591 
1455	 0.665899739787734 
1456	 0.665780338330541 
1457	 0.665654687410857 
1458	 0.66552900623632 
1459	 0.665404469132395 
1460	 0.665277190697001 
1461	 0.665154884505821 
1462	 0.66501916465159 
1463	 0.664865434372303 
1464	 0.66472357561461 
1465	 0.664585645318637 
1466	 0.66443323463573 
1467	 0.664300703693227 
1468	 0.66416078252905 
1469	 0.664009572832082 
1470	 0.66386563373855 
1471	 0.663722138335322 
1472	 0.663589667693103 
1473	 0.663425946867398 
1474	 0.663262324881805 
1475	 0.663059996493941 
1476	 0.66282462773402 
1477	 0.662585574875233 
1478	 0.662331540779586 
1479	 0.662057678984367 
1480	 0.661780220042197 
1481	 0.661454373212131 
1482	 0.661089510391615 
1483	 0.660714580263678 
1484	 0.660302328148768 
1485	 0.659891861797356 
1486	 0.659459976382884 
1487	 0.659047896728517 
1488	 0.658619281850203 
1489	 0.658225012451774 
1490	 0.657836242298834 
1491	 0.657491889234909 
1492	 0.657173883764172 
1493	 0.656885464683348 
1494	 0.656641642669333 
1495	 0.656411379494249 
1496	 0.656193471785654 
1497	 0.65601535221899 
1498	 0.655850092546836 
1499	 0.655746454893669 
1500	 0.655671777555987 
1501	 0.655670825510521 
1502	 0.655717549639395 
1503	 0.655847779422144 
1504	 0.656028808519569 
1505	 0.656317538810566 
1506	 0.656712315930516 
1507	 0.657165658228543 
1508	 0.657749802571278 
1509	 0.658328119999404 
1510	 0.658998347811506 
1511	 0.659607424350735 
1512	 0.660229484786402 
1513	 0.660803264474877 
1514	 0.661341410647747 
1515	 0.661839992839107 
1516	 0.662300698634917 
1517	 0.662727425019877 
1518	 0.663092398983201 
1519	 0.663453817408572 
1520	 0.663783608192643 
1521	 0.66410221425739 
1522	 0.664445361152499 
1523	 0.664809733637823 
1524	 0.665154910101452 
1525	 0.665508594640528 
1526	 0.665868240204678 
1527	 0.666212306943698 
1528	 0.666579399151655 
1529	 0.66697338958587 
1530	 0.667352959836556 
1531	 0.667724990898392 
1532	 0.668114228363199 
1533	 0.66852345252115 
1534	 0.668901549014294 
1535	 0.669276318130622 
1536	 0.669639645427611 
1537	 0.669973093366483 
1538	 0.670335233695536 
1539	 0.670709577238532 
1540	 0.671076715237818 
1541	 0.671451018173651 
1542	 0.671816846338108 
1543	 0.672203838974816 
1544	 0.672515144054553 
1545	 0.672790894502209 
1546	 0.673061158324956 
1547	 0.673284813937183 
1548	 0.673502759334867 
1549	 0.673723312236005 
1550	 0.673919720709458 
1551	 0.674073540559176 
1552	 0.674237622192769 
1553	 0.674417137142711 
1554	 0.674552937050032 
1555	 0.674649929241247 
1556	 0.674764064241588 
1557	 0.674858266144754 
1558	 0.674964112174246 
1559	 0.67508979249981 
1560	 0.675192301577152 
1561	 0.675271317346317 
1562	 0.675372768701272 
1563	 0.67545880160287 
1564	 0.67558576370313 
1565	 0.675759182973327 
1566	 0.675901972548314 
1567	 0.676062473018072 
1568	 0.676197872280881 
1569	 0.676293134656411 
1570	 0.676418715582159 
1571	 0.676554851807672 
1572	 0.676686359804808 
1573	 0.676823014116444 
1574	 0.676965175667882 
1575	 0.67711592281676 
1576	 0.677249361109362 
1577	 0.677378563257206 
1578	 0.677512290888065 
1579	 0.677618829627278 
1580	 0.677758118147933 
1581	 0.677926717331148 
1582	 0.678087889837362 
1583	 0.678257169978267 
1584	 0.678429472172384 
1585	 0.678612634316661 
1586	 0.678780637941116 
1587	 0.678953989815488 
1588	 0.679109287213691 
1589	 0.679237029782574 
1590	 0.679378062362157 
1591	 0.679510618033762 
1592	 0.679656421368827 
1593	 0.679807398535325 
1594	 0.679969360727288 
1595	 0.680157652912697 
1596	 0.680322414105736 
1597	 0.680481913690005 
1598	 0.68064131921826 
1599	 0.680768851330393 
1600	 0.680931233213757 
1601	 0.6811254156582 
1602	 0.681306136447809 
1603	 0.681519604919783 
1604	 0.681685995996638 
1605	 0.681798160274273 
1606	 0.68194786171949 
1607	 0.682090535479063 
1608	 0.682242094484174 
1609	 0.682435248666039 
1610	 0.682598699584319 
1611	 0.68274413021514 
1612	 0.68288472894728 
1613	 0.683024244798205 
1614	 0.683142699714172 
1615	 0.683237130395746 
1616	 0.683337294937157 
1617	 0.683408323321438 
1618	 0.68350974066754 
1619	 0.683651669986541 
1620	 0.683757357914516 
1621	 0.683866347465733 
1622	 0.683956310149764 
1623	 0.684003021316841 
1624	 0.684063668485773 
1625	 0.684128264788851 
1626	 0.684187230608391 
1627	 0.684256581012324 
1628	 0.684302148400003 
1629	 0.684333629829473 
1630	 0.684355518250258 
1631	 0.68434436942533 
1632	 0.684352095804218 
1633	 0.684357438057556 
1634	 0.684373158630838 
1635	 0.684403590362354 
1636	 0.684434051918252 
1637	 0.684471044357823 
1638	 0.684508424499708 
1639	 0.68455792805625 
1640	 0.684590644279249 
1641	 0.684606654600804 
1642	 0.684632890022689 
1643	 0.684661465493806 
1644	 0.684680896961085 
1645	 0.684712391286976 
1646	 0.684724153750663 
1647	 0.684715118429338 
1648	 0.684702905892646 
1649	 0.684699253955651 
1650	 0.684658397982204 
1651	 0.684599097325671 
1652	 0.684514579096298 
1653	 0.684396782452986 
1654	 0.684262376409421 
1655	 0.684116417290266 
1656	 0.683940276777395 
1657	 0.683735972813876 
1658	 0.683500313248398 
1659	 0.683236369634464 
1660	 0.682948207538174 
1661	 0.682626281357447 
1662	 0.682294828574343 
1663	 0.681951731604458 
1664	 0.681558968147744 
1665	 0.681150070354578 
1666	 0.680681277721156 
1667	 0.680147753519396 
1668	 0.679610751289853 
1669	 0.679080047478916 
1670	 0.678437959178529 
1671	 0.677744949042714 
1672	 0.676975242153753 
1673	 0.676103461091098 
1674	 0.67517517801025 
1675	 0.674165379064399 
1676	 0.673167708239148 
1677	 0.672110183651915 
1678	 0.671052239508415 
1679	 0.669983055886837 
1680	 0.668909958087069 
1681	 0.667818046594785 
1682	 0.666700513703076 
1683	 0.665602889541547 
1684	 0.66446531784361 
1685	 0.663256461960024 
1686	 0.662084704527486 
1687	 0.660885253640005 
1688	 0.659732402650246 
1689	 0.658590262123461 
1690	 0.657510399069876 
1691	 0.656463183812214 
1692	 0.655501178894165 
1693	 0.65462862370044 
1694	 0.653734324207599 
1695	 0.652897845620547 
1696	 0.652031503077292 
1697	 0.651160419590732 
1698	 0.650265896366368 
1699	 0.649381803186564 
1700	 0.648481239815062 
1701	 0.647550532492193 
1702	 0.646625421415757 
1703	 0.645689733510651 
1704	 0.644743994636152 
1705	 0.643769521327655 
1706	 0.642810124914506 
1707	 0.641936415224353 
1708	 0.641023072531822 
1709	 0.640150998354549 
1710	 0.639339639191124 
1711	 0.638501292503688 
1712	 0.637740231119976 
1713	 0.63695823975328 
1714	 0.636123516924816 
1715	 0.63530076534561 
1716	 0.634402741170322 
1717	 0.633494845754247 
1718	 0.632582193024952 
1719	 0.63160799901064 
1720	 0.630678571747333 
1721	 0.629810249202449 
1722	 0.628979408674437 
1723	 0.628268628420275 
1724	 0.627641970318921 
1725	 0.627092409792996 
1726	 0.626654026075327 
1727	 0.626328720596628 
1728	 0.626170022409468 
1729	 0.626188801157369 
1730	 0.626391570536809 
1731	 0.626755217472258 
1732	 0.627265014688335 
1733	 0.627850048635302 
1734	 0.628544753955708 
1735	 0.629339275824097 
1736	 0.630151618640751 
1737	 0.630978961786788 
1738	 0.63175251162056 
1739	 0.632434389592061 
1740	 0.63304107562903 
1741	 0.633602795346302 
1742	 0.634124519992932 
1743	 0.634573757416572 
1744	 0.634961216467248 
1745	 0.635284696591675 
1746	 0.635522382513949 
1747	 0.635718725302666 
1748	 0.635862874700732 
1749	 0.635946386650565 
1750	 0.63597032771685 
1751	 0.635951863593854 
1752	 0.635862891961244 
1753	 0.635763580751225 
1754	 0.635605871996514 
1755	 0.635472474171275 
1756	 0.635304354238137 
1757	 0.635187806685325 
1758	 0.635097205441492 
1759	 0.635044347745174 
1760	 0.635049762364135 
1761	 0.635098806714988 
1762	 0.635236668209332 
1763	 0.635462198833674 
1764	 0.635730619158451 
1765	 0.636102037260948 
1766	 0.636564972288531 
1767	 0.637077748873733 
1768	 0.637674755642673 
1769	 0.638281108384975 
1770	 0.638835278223524 
1771	 0.639396912463232 
1772	 0.639935813296199 
1773	 0.640469711916075 
1774	 0.641044125322508 
1775	 0.641553666941043 
1776	 0.642057932170739 
1777	 0.642602584423555 
1778	 0.643022050212789 
1779	 0.643379767267318 
1780	 0.643691726532022 
1781	 0.643855734093145 
1782	 0.644027692859803 
1783	 0.644241980438053 
1784	 0.644436659382887 
1785	 0.644614808994851 
1786	 0.64477631105535 
1787	 0.644914308553073 
1788	 0.645056824244333 
1789	 0.645219473056128 
1790	 0.645343069219623 
1791	 0.645419914039205 
1792	 0.64551732803349 
1793	 0.645603060534373 
1794	 0.645671800721654 
1795	 0.645757858024295 
1796	 0.645796236980035 
1797	 0.645807820347378 
1798	 0.645845222154378 
1799	 0.645878758822337 
1800	 0.645891295161066 
1801	 0.635643885191466 
1802	 0.635879040752585 
1803	 0.636138786144678 
1804	 0.636458695347822 
1805	 0.636824563135942 
1806	 0.637148411324061 
1807	 0.637490793969659 
1808	 0.637801942956438 
1809	 0.63811818376097 
1810	 0.63838104066816 
1811	 0.638616650069946 
1812	 0.638834388433358 
1813	 0.639019258491541 
1814	 0.639182844830144 
1815	 0.639334734986033 
1816	 0.639472135582266 
1817	 0.639580674818377 
1818	 0.63965273768623 
1819	 0.639728423639143 
1820	 0.639774518322524 
1821	 0.639835714796572 
1822	 0.639895618960511 
1823	 0.639955085384561 
1824	 0.640016489186651 
1825	 0.640083279785075 
1826	 0.640157438504779 
1827	 0.640236349738817 
1828	 0.640309907642772 
1829	 0.64040599528661 
1830	 0.640470854267517 
1831	 0.640511477738662 
1832	 0.640564931325632 
1833	 0.640609752327803 
1834	 0.640649389375645 
1835	 0.640699646530519 
1836	 0.640743844054672 
1837	 0.640800714516453 
1838	 0.640854302168881 
1839	 0.640917861682938 
1840	 0.641000320321474 
1841	 0.641078979065347 
1842	 0.641153931111107 
1843	 0.641248125924567 
1844	 0.641339641796075 
1845	 0.641398080994117 
1846	 0.641471581763274 
1847	 0.641545136501843 
1848	 0.641603845533244 
1849	 0.64166980981561 
1850	 0.641707935987467 
1851	 0.641737400559325 
1852	 0.641739076507702 
1853	 0.641680081472452 
1854	 0.641622943046095 
1855	 0.641559490614155 
1856	 0.641437029337586 
1857	 0.641328233749602 
1858	 0.641187592747963 
1859	 0.64099369145062 
1860	 0.640740702553551 
1861	 0.640481815742045 
1862	 0.64019837263855 
1863	 0.639888245369893 
1864	 0.639519963452403 
1865	 0.639103289263551 
1866	 0.638618388277814 
1867	 0.638032493934322 
1868	 0.637417291843795 
1869	 0.63674395552535 
1870	 0.636003885983864 
1871	 0.635176520005337 
1872	 0.634360943632219 
1873	 0.63348988450167 
1874	 0.632615375354462 
1875	 0.631765703665831 
1876	 0.630832656359061 
1877	 0.629957603721811 
1878	 0.628993055081979 
1879	 0.627950777959569 
1880	 0.626945352169245 
1881	 0.625821655861228 
1882	 0.624600081860619 
1883	 0.623347557379927 
1884	 0.621983341909202 
1885	 0.620393871462457 
1886	 0.618746600273649 
1887	 0.616927259169152 
1888	 0.614948641197907 
1889	 0.61304057306228 
1890	 0.610981813707465 
1891	 0.608877968802319 
1892	 0.606756295353805 
1893	 0.604462221749773 
1894	 0.601997388325598 
1895	 0.599564072004535 
1896	 0.596980836475539 
1897	 0.594282096337314 
1898	 0.591783233980342 
1899	 0.589126908663259 
1900	 0.586493608430251 
1901	 0.583910196900812 
1902	 0.581072800897185 
1903	 0.578349287399553 
1904	 0.575638356113361 
1905	 0.572880526064474 
1906	 0.570153382120492 
1907	 0.567720837195679 
1908	 0.565212596522424 
1909	 0.562791058538937 
1910	 0.560491785542856 
1911	 0.55804181564786 
1912	 0.555727118289867 
1913	 0.553432654705863 
1914	 0.551114653362687 
1915	 0.548968233977885 
1916	 0.546976685770552 
1917	 0.544954196225273 
1918	 0.543027810189139 
1919	 0.541215995047472 
1920	 0.539292972640505 
1921	 0.537478448919237 
1922	 0.535687881891518 
1923	 0.533881917172238 
1924	 0.532277568569394 
1925	 0.530711862034335 
1926	 0.529223594088765 
1927	 0.527870528032219 
1928	 0.526520124347156 
1929	 0.525182818106948 
1930	 0.523961633190299 
1931	 0.52278616463424 
1932	 0.52166997045436 
1933	 0.520740852123374 
1934	 0.519819869344089 
1935	 0.518954981792027 
1936	 0.518232617547051 
1937	 0.517533386348827 
1938	 0.516866074794623 
1939	 0.516300801521938 
1940	 0.515821821467921 
1941	 0.515368701624922 
1942	 0.515031111238045 
1943	 0.514777278678132 
1944	 0.51456926315455 
1945	 0.514465880394077 
1946	 0.514433902979495 
1947	 0.514436869235853 
1948	 0.5145246503616 
1949	 0.514659008668372 
1950	 0.514820009450734 
1951	 0.515026410887305 
1952	 0.515262276528415 
1953	 0.515526315383348 
1954	 0.515828187117806 
1955	 0.516193642700296 
1956	 0.516550129085802 
1957	 0.516958215775092 
1958	 0.51741454429508 
1959	 0.517852236625519 
1960	 0.518355296112888 
1961	 0.518873055314608 
1962	 0.519429305714499 
1963	 0.519978153584311 
1964	 0.520544640386648 
1965	 0.521106852253561 
1966	 0.521678070728612 
1967	 0.522258360367806 
1968	 0.522795232210005 
1969	 0.523382367520832 
1970	 0.523944191278628 
1971	 0.524490786324853 
1972	 0.525104399984037 
1973	 0.525666299415971 
1974	 0.526223312984368 
1975	 0.526777318891647 
1976	 0.527327249537008 
1977	 0.527843108225988 
1978	 0.528395374525735 
1979	 0.528964466293976 
1980	 0.529514227823633 
1981	 0.530133805095774 
1982	 0.530749258074061 
1983	 0.531390143290583 
1984	 0.532079925315046 
1985	 0.53272083435643 
1986	 0.533396534047112 
1987	 0.534063469483922 
1988	 0.534731396178091 
1989	 0.535398115868373 
1990	 0.53607005419836 
1991	 0.536722595922054 
1992	 0.537371242598265 
1993	 0.538031271079075 
1994	 0.538624845070721 
1995	 0.539246982182215 
1996	 0.539831975559984 
1997	 0.540386930395057 
1998	 0.540986804363955 
1999	 0.541609415273642 
2000	 0.542203198006891 
2001	 0.542830478405259 
2002	 0.543407470853765 
2003	 0.54393597154481 
2004	 0.544475522774832 
2005	 0.544974916495548 
2006	 0.545511581585828 
2007	 0.546074097398842 
2008	 0.54663749253314 
2009	 0.547161973910299 
2010	 0.547691755467144 
2011	 0.548141390305364 
2012	 0.548548369178834 
2013	 0.548958403236191 
2014	 0.549364349694611 
2015	 0.54972744133965 
2016	 0.55008307591639 
2017	 0.550374668980593 
2018	 0.550634482686482 
2019	 0.550838149035995 
2020	 0.550981704475205 
2021	 0.551090061805428 
2022	 0.551164046405751 
2023	 0.551163509941473 
2024	 0.5511302932783 
2025	 0.551062499762168 
2026	 0.550925495046215 
2027	 0.550722543598299 
2028	 0.550489715520996 
2029	 0.550175246951072 
2030	 0.549872139811198 
2031	 0.549562877388482 
2032	 0.549202080293796 
2033	 0.548790018308325 
2034	 0.548391915458759 
2035	 0.547954629536581 
2036	 0.547507901413359 
2037	 0.547113750283623 
2038	 0.546728328161549 
2039	 0.546356013893773 
2040	 0.545981860599851 
2041	 0.545664334289929 
2042	 0.5453323516687 
2043	 0.545123359986842 
2044	 0.544975209583508 
2045	 0.544912639029111 
2046	 0.544955816112187 
2047	 0.545045154517661 
2048	 0.545188450980046 
2049	 0.545416015892271 
2050	 0.545750312962393 
2051	 0.546092679469515 
2052	 0.54649531909393 
2053	 0.546962641560642 
2054	 0.547409141787675 
2055	 0.547860057053126 
2056	 0.548340361349918 
2057	 0.548809029312439 
2058	 0.54936243629363 
2059	 0.549968501369799 
2060	 0.550596392268392 
2061	 0.551317103860977 
2062	 0.552001748294661 
2063	 0.552657723009473 
2064	 0.553373314862517 
2065	 0.55410833646101 
2066	 0.554863412965906 
2067	 0.555716909761042 
2068	 0.556546489163811 
2069	 0.557383794865446 
2070	 0.558271594227143 
2071	 0.559084907327081 
2072	 0.559863920281902 
2073	 0.560645485832608 
2074	 0.561378927305378 
2075	 0.5621427642899 
2076	 0.562944398369728 
2077	 0.563686717044211 
2078	 0.564458289442389 
2079	 0.565134756921944 
2080	 0.565713161439775 
2081	 0.566305399390569 
2082	 0.566869583444727 
2083	 0.567366229255577 
2084	 0.567914846383026 
2085	 0.568418443356083 
2086	 0.568888343331997 
2087	 0.569331558989244 
2088	 0.569741315204345 
2089	 0.570097609383234 
2090	 0.570460866445982 
2091	 0.570798453625218 
2092	 0.571134060479458 
2093	 0.571476155836156 
2094	 0.571780395284901 
2095	 0.57208925533694 
2096	 0.572332126008424 
2097	 0.572521967739929 
2098	 0.572682270365496 
2099	 0.572810997436031 
2100	 0.572918828841217 
2101	 0.573039938167941 
2102	 0.573170637101127 
2103	 0.57326342688003 
2104	 0.573329368991438 
2105	 0.57341106202047 
2106	 0.573472149361048 
2107	 0.573547434166134 
2108	 0.573662841939189 
2109	 0.573722583340303 
2110	 0.57374857623088 
2111	 0.573775849678149 
2112	 0.573787493521249 
2113	 0.573782233105963 
2114	 0.573761879433665 
2115	 0.573741252419666 
2116	 0.573709241686327 
2117	 0.573657039513576 
2118	 0.573602785767677 
2119	 0.573546925761756 
2120	 0.57349225760541 
2121	 0.573421977892372 
2122	 0.573357061886577 
2123	 0.573324154756189 
2124	 0.57323354991256 
2125	 0.573114849262273 
2126	 0.572984163179242 
2127	 0.572838234181117 
2128	 0.572647756356682 
2129	 0.572442901500606 
2130	 0.572196807737906 
2131	 0.57189149093596 
2132	 0.571576689701665 
2133	 0.571285995486976 
2134	 0.570886450540489 
2135	 0.570418867604024 
2136	 0.569940826629095 
2137	 0.569364769169203 
2138	 0.568680945141229 
2139	 0.567994225986483 
2140	 0.567267830192836 
2141	 0.566480056099496 
2142	 0.565632893809402 
2143	 0.56476436204662 
2144	 0.563821049395986 
2145	 0.562908294304806 
2146	 0.561972661898118 
2147	 0.561048769288399 
2148	 0.560150862219083 
2149	 0.559205908275672 
2150	 0.55825379262184 
2151	 0.557275504093083 
2152	 0.556252744066912 
2153	 0.555236411980577 
2154	 0.554163794607508 
2155	 0.55307273940053 
2156	 0.552027355959453 
2157	 0.550976001553133 
2158	 0.549925683954777 
2159	 0.548948500396679 
2160	 0.547854651450855 
2161	 0.546668514544427 
2162	 0.545553746742425 
2163	 0.544377482571599 
2164	 0.54329651437123 
2165	 0.542303643711706 
2166	 0.541280452401904 
2167	 0.540272876152359 
2168	 0.539290580642444 
2169	 0.538269846270541 
2170	 0.537355222510318 
2171	 0.536495919285051 
2172	 0.535689681610595 
2173	 0.534966587006145 
2174	 0.534271386882522 
2175	 0.533664317164659 
2176	 0.533075984174081 
2177	 0.532505683483559 
2178	 0.531978581490707 
2179	 0.531499226857509 
2180	 0.53101426641597 
2181	 0.530637208195985 
2182	 0.530368445352081 
2183	 0.530076222347581 
2184	 0.52983516191508 
2185	 0.529597410861631 
2186	 0.529357405346379 
2187	 0.529174203536726 
2188	 0.529023663962022 
2189	 0.528907862386571 
2190	 0.528857326863662 
2191	 0.528795113817534 
2192	 0.52877327080155 
2193	 0.528730372852972 
2194	 0.528709631141124 
2195	 0.528643821113035 
2196	 0.52852088462712 
2197	 0.528426781912433 
2198	 0.528366406832549 
2199	 0.528273710157669 
2200	 0.528222620950413 
2201	 0.528250449991959 
2202	 0.528181395287164 
2203	 0.528071952308386 
2204	 0.527965657542543 
2205	 0.527835319927093 
2206	 0.527684397481126 
2207	 0.527517904218269 
2208	 0.527354028113369 
2209	 0.527152131641596 
2210	 0.526975143763482 
2211	 0.526785101234079 
2212	 0.526653868639155 
2213	 0.526520785752917 
2214	 0.526472029027781 
2215	 0.526487406982932 
2216	 0.52655036918342 
2217	 0.526750023648479 
2218	 0.526856799980132 
2219	 0.52694391872732 
2220	 0.527053813626432 
2221	 0.527162999573078 
2222	 0.527221271694698 
2223	 0.527276743936955 
2224	 0.527314733614943 
2225	 0.52728825768103 
2226	 0.527152520268133 
2227	 0.526988031777836 
2228	 0.52680106007661 
2229	 0.526544261896518 
2230	 0.526195135093842 
2231	 0.525826709251047 
2232	 0.525445081496509 
2233	 0.524961597925861 
2234	 0.52441499860474 
2235	 0.523787752473849 
2236	 0.523111046826502 
2237	 0.522291980009154 
2238	 0.521335090750495 
2239	 0.520354386010202 
2240	 0.519257111982028 
2241	 0.518116359148691 
2242	 0.517001910379633 
2243	 0.515718729392782 
2244	 0.514283371808206 
2245	 0.512825192563416 
2246	 0.511223325172714 
2247	 0.509623816442145 
2248	 0.508039278962471 
2249	 0.506343022513913 
2250	 0.504581944138786 
2251	 0.502791078928131 
2252	 0.500731588342139 
2253	 0.498789679026304 
2254	 0.496788918326423 
2255	 0.494635690978418 
2256	 0.492697889481625 
2257	 0.490682573448752 
2258	 0.488737390078578 
2259	 0.48686243355536 
2260	 0.484949867483512 
2261	 0.48301924178468 
2262	 0.481163836563126 
2263	 0.479277853670011 
2264	 0.477527398474832 
2265	 0.475910943015613 
2266	 0.474237418739061 
2267	 0.472687920378515 
2268	 0.470982628130961 
2269	 0.469244389074135 
2270	 0.467400821051932 
2271	 0.46543587573022 
2272	 0.463440835715495 
2273	 0.461452914033227 
2274	 0.459244110723805 
2275	 0.457012125400614 
2276	 0.454485903728107 
2277	 0.451571204757966 
2278	 0.448751746414745 
2279	 0.445609811721562 
2280	 0.442743529532989 
2281	 0.439914915225885 
2282	 0.437295034315125 
2283	 0.434749979661111 
2284	 0.432561576197974 
2285	 0.430529118276521 
2286	 0.428915666130606 
2287	 0.427686552857514 
2288	 0.426854117139282 
2289	 0.426419887276894 
2290	 0.426285309989906 
2291	 0.426361909273368 
2292	 0.42660939655633 
2293	 0.42707417029837 
2294	 0.427568138747857 
2295	 0.42804884252983 
2296	 0.428565087428349 
2297	 0.428927695000172 
2298	 0.429206961649999 
2299	 0.429336242854911 
2300	 0.429369371420094 
2301	 0.42926768077763 
2302	 0.428958505458202 
2303	 0.428651222129499 
2304	 0.428180630961291 
2305	 0.427856922011008 
2306	 0.427418937068389 
2307	 0.427295022702578 
2308	 0.427273587012407 
2309	 0.42756132075602 
2310	 0.42806028857911 
2311	 0.428863593920739 
2312	 0.430059818126612 
2313	 0.431288705767315 
2314	 0.43280177634615 
2315	 0.43432546643717 
2316	 0.436030216771913 
2317	 0.437586627609276 
2318	 0.439310065774583 
2319	 0.440692615491127 
2320	 0.441937914991413 
2321	 0.442915262964726 
2322	 0.443636202764265 
2323	 0.444192218863996 
2324	 0.444494216713182 
2325	 0.44464993521821 
2326	 0.444659485195557 
2327	 0.444441429470444 
2328	 0.443973826342121 
2329	 0.443355828277218 
2330	 0.442589323001229 
2331	 0.441504812682365 
2332	 0.440292289365979 
2333	 0.438928711272291 
2334	 0.437103110567076 
2335	 0.435104253324861 
2336	 0.432737143969931 
2337	 0.430023122298535 
2338	 0.427349495993838 
2339	 0.424336189203758 
2340	 0.421291517475494 
2341	 0.418204369272602 
2342	 0.414812140845574 
2343	 0.41167615277062 
2344	 0.408690581668218 
2345	 0.405904732885035 
2346	 0.40371986353806 
2347	 0.401903967186248 
2348	 0.400495030943939 
2349	 0.399677048166684 
2350	 0.399151613241236 
2351	 0.399001191433454 
2352	 0.399009161908168 
2353	 0.399067050971842 
2354	 0.399301920316986 
2355	 0.39949424469116 
2356	 0.399943568974214 
2357	 0.400717661971265 
2358	 0.401964983278467 
2359	 0.403831133963214 
2360	 0.406277539437182 
2361	 0.409461774348523 
2362	 0.412785669014656 
2363	 0.416374462462492 
2364	 0.419947861119009 
2365	 0.4232540680485 
2366	 0.426650195055024 
2367	 0.429645270233763 
2368	 0.432348148283692 
2369	 0.43469988903731 
2370	 0.436504690817233 
2371	 0.438048799984955 
2372	 0.439350037894763 
2373	 0.440395516975409 
2374	 0.441273938909092 
2375	 0.442011006189095 
2376	 0.44255050714631 
2377	 0.442876687247475 
2378	 0.443104506467945 
2379	 0.443205175776195 
2380	 0.443258987951815 
2381	 0.44337797739668 
2382	 0.443429606149601 
2383	 0.443411722679561 
2384	 0.44344389376914 
2385	 0.443436363857025 
2386	 0.443549256888011 
2387	 0.443749531321845 
2388	 0.443967666912701 
2389	 0.444257275252685 
2390	 0.444472268206617 
2391	 0.444750161541298 
2392	 0.444924425459066 
2393	 0.445007454397806 
2394	 0.445121621195638 
2395	 0.445137604015169 
2396	 0.445196480529449 
2397	 0.445359066813591 
2398	 0.44538178934095 
2399	 0.445332849817018 
2400	 0.445305578564038 
2401	 0.445175470252283 
2402	 0.445090769556144 
2403	 0.445084562797785 
2404	 0.445135359777714 
2405	 0.445212866675866 
2406	 0.445365876941851 
2407	 0.445608400716861 
2408	 0.445774304114966 
2409	 0.445891722979286 
2410	 0.446036341870777 
2411	 0.446075542184403 
2412	 0.44612245577414 
2413	 0.446206100992041 
2414	 0.446257871377255 
2415	 0.446304446894068 
2416	 0.446331079131542 
2417	 0.446313089195202 
2418	 0.446226252736314 
2419	 0.446080013816805 
2420	 0.44593282618628 
2421	 0.445746198507436 
2422	 0.445500842363262 
2423	 0.445300716933169 
2424	 0.445076442493193 
2425	 0.444917840334038 
2426	 0.44481634535037 
2427	 0.444689980787245 
2428	 0.444664189246358 
2429	 0.444627704357285 
2430	 0.444512846534667 
2431	 0.444417762775702 
2432	 0.444198572178014 
2433	 0.44389344883268 
2434	 0.443645902424919 
2435	 0.443346113690846 
2436	 0.443047283580805 
2437	 0.442683334887115 
2438	 0.44222975503711 
2439	 0.441817379276857 
2440	 0.441499004758268 
2441	 0.441173690730218 
2442	 0.440761285176621 
2443	 0.440148670414562 
2444	 0.439296861378959 
2445	 0.438616553871715 
2446	 0.43806740256538 
2447	 0.437686372838185 
2448	 0.437400833781336 
2449	 0.436743896486153 
2450	 0.436000020483664 
2451	 0.435316806963309 
2452	 0.434591504096598 
2453	 0.433883220894355 
2454	 0.433301511015418 
2455	 0.432749982832357 
2456	 0.432117353425066 
2457	 0.431744273220102 
2458	 0.431407064976546 
2459	 0.430791580372643 
2460	 0.430401167968927 
2461	 0.429983595069057 
2462	 0.429284925708868 
2463	 0.428842551681734 
2464	 0.428208569414612 
2465	 0.427489578509791 
2466	 0.427081777434286 
2467	 0.426598986753831 
2468	 0.426288224796098 
2469	 0.4259295090042 
2470	 0.425366275983695 
2471	 0.425014757233822 
2472	 0.424501098650393 
2473	 0.423992148857837 
2474	 0.423673649932915 
2475	 0.423146873974527 
2476	 0.422763078349877 
2477	 0.422459976093128 
2478	 0.422168861533689 
2479	 0.421924637220815 
2480	 0.421462080819874 
2481	 0.421257547848213 
2482	 0.421232134748621 
2483	 0.421311704330544 
2484	 0.42122703451694 
2485	 0.420989277679833 
2486	 0.420536202355347 
2487	 0.420012882434488 
2488	 0.419555055912743 
2489	 0.419088670969979 
2490	 0.418657294320297 
2491	 0.418113532804814 
2492	 0.417798375834929 
2493	 0.417742649320788 
2494	 0.417739529902093 
2495	 0.417802391942391 
2496	 0.417783982837887 
2497	 0.417705974241836 
2498	 0.417729280608769 
2499	 0.417672759511894 
2500	 0.417228470252444 
