Wavelength	ProbetaAcolman00001.asd
350	 1.08528094135606 
351	 1.08214728869484 
352	 1.06978063629474 
353	 1.05571795890528 
354	 1.08307166140987 
355	 1.07424246208884 
356	 1.05692798735168 
357	 1.06258698570111 
358	 1.05701172439429 
359	 1.06618810067151 
360	 1.0833064650807 
361	 1.08432913081612 
362	 1.05380532792536 
363	 1.05281316691373 
364	 1.08738345130927 
365	 1.08443859502918 
366	 1.06910768440351 
367	 1.05910557595406 
368	 1.06149556704091 
369	 1.05224438555342 
370	 1.06576774033498 
371	 1.07978771445563 
372	 1.05088862091611 
373	 1.05614895388854 
374	 1.06158277725365 
375	 1.05111728595747 
376	 1.04890649630274 
377	 1.05047818644303 
378	 1.0446989271316 
379	 1.02961555107554 
380	 1.03825205607607 
381	 1.03943387401277 
382	 1.03073777834375 
383	 1.0269329535553 
384	 1.02594678414132 
385	 1.03056054917606 
386	 1.03490848153711 
387	 1.0197258199689 
388	 1.01656544364242 
389	 1.02088570254516 
390	 1.02104342068929 
391	 1.01558597248225 
392	 1.01165066719906 
393	 1.01133861939016 
394	 1.01282305794887 
395	 1.01042481261291 
396	 1.00893091931012 
397	 1.01053299901232 
398	 1.01132727894768 
399	 1.01338186735221 
400	 1.01413613574501 
401	 1.01179183558076 
402	 1.01191047327698 
403	 1.01264374603489 
404	 1.01428068470233 
405	 1.0180794287347 
406	 1.01409760338138 
407	 1.01258044920875 
408	 1.01785265984095 
409	 1.01851450874245 
410	 1.02310011353311 
411	 1.0289358862595 
412	 1.03115517444657 
413	 1.03154112719168 
414	 1.03318799424214 
415	 1.03578749609634 
416	 1.03633267169439 
417	 1.03778131049552 
418	 1.04070131302102 
419	 1.04421775599433 
420	 1.04519973519366 
421	 1.04597796698548 
422	 1.04701496833827 
423	 1.04803198792838 
424	 1.04911947373332 
425	 1.05044791323107 
426	 1.05162038179349 
427	 1.05167308256851 
428	 1.05270222123534 
429	 1.05346610777994 
430	 1.05285566123532 
431	 1.05207575655982 
432	 1.05189787404274 
433	 1.05182138410945 
434	 1.05095203957976 
435	 1.05145340911298 
436	 1.05256171435183 
437	 1.05315294054989 
438	 1.05200448274828 
439	 1.05123981381832 
440	 1.0510373966497 
441	 1.05091175406716 
442	 1.05021406711608 
443	 1.04942881232154 
444	 1.04868559708653 
445	 1.0478781332405 
446	 1.04817772018559 
447	 1.04829609268964 
448	 1.04740511452416 
449	 1.04632143873797 
450	 1.04580278414834 
451	 1.04518969082815 
452	 1.04361275386345 
453	 1.04246864889711 
454	 1.04179538088633 
455	 1.04126589052442 
456	 1.0402953162471 
457	 1.0396183211445 
458	 1.03891807833546 
459	 1.03794052845068 
460	 1.03727401220695 
461	 1.0366144035114 
462	 1.03566108564068 
463	 1.03426719717895 
464	 1.03351561689963 
465	 1.03286264387642 
466	 1.03193477571939 
467	 1.03085684432128 
468	 1.03050475302223 
469	 1.02989405633109 
470	 1.0282383410159 
471	 1.02777852612807 
472	 1.02724416245712 
473	 1.02650847769349 
474	 1.02632064125526 
475	 1.02565358774502 
476	 1.02502190896669 
477	 1.02476940839495 
478	 1.02438535524805 
479	 1.02380324576768 
480	 1.02330275662799 
481	 1.02319400668002 
482	 1.02304727733236 
483	 1.02274832982215 
484	 1.02233130987586 
485	 1.02196439359046 
486	 1.02190155136304 
487	 1.02185777391735 
488	 1.02165351257164 
489	 1.0218258862619 
490	 1.0219843307816 
491	 1.02215247479462 
492	 1.02255679984628 
493	 1.0229716346506 
494	 1.02313492169899 
495	 1.02318778622041 
496	 1.02393267377888 
497	 1.02455080872971 
498	 1.02504425395642 
499	 1.02565611175995 
500	 1.02650410125127 
501	 1.02739822081787 
502	 1.02820846090926 
503	 1.02889376868646 
504	 1.02982169708914 
505	 1.03088218353326 
506	 1.03192376699488 
507	 1.0328940911494 
508	 1.03406779887992 
509	 1.03524700837664 
510	 1.03613709895984 
511	 1.03734327459643 
512	 1.03853333744008 
513	 1.03957470172841 
514	 1.04069094694951 
515	 1.0418133505833 
516	 1.04294040012259 
517	 1.04406079625096 
518	 1.04505085731892 
519	 1.0462383538711 
520	 1.04752424287357 
521	 1.04854881141051 
522	 1.04964704203452 
523	 1.05073476651394 
524	 1.0517247912075 
525	 1.05262406590864 
526	 1.05359127818732 
527	 1.05452786682627 
528	 1.05530798143387 
529	 1.05621009046789 
530	 1.05708458616456 
531	 1.05787316907428 
532	 1.05863777491483 
533	 1.0593340260398 
534	 1.0600591585643 
535	 1.06086106506472 
536	 1.06157365555585 
537	 1.06224063806091 
538	 1.06284836676211 
539	 1.06337982328129 
540	 1.06406040298074 
541	 1.0646910804542 
542	 1.06517486983559 
543	 1.06564960575124 
544	 1.06605508026008 
545	 1.06649790877261 
546	 1.06706622807973 
547	 1.06755526729205 
548	 1.06801648460244 
549	 1.06850778983312 
550	 1.06907591796539 
551	 1.06961507870679 
552	 1.07016671522612 
553	 1.070732516688 
554	 1.07111892260289 
555	 1.07161591039434 
556	 1.07224242498694 
557	 1.0728621567673 
558	 1.07327412176187 
559	 1.07366185805006 
560	 1.07412030305231 
561	 1.074574103294 
562	 1.07504272647836 
563	 1.0754820068433 
564	 1.07586464498024 
565	 1.07629180815842 
566	 1.07661775817321 
567	 1.0768149376537 
568	 1.07695869588574 
569	 1.07713469509219 
570	 1.07738283377893 
571	 1.07769752239484 
572	 1.07799833889977 
573	 1.07838270655155 
574	 1.07869837473115 
575	 1.07878133090629 
576	 1.07899948432077 
577	 1.07916232991158 
578	 1.07919656651725 
579	 1.07920604678798 
580	 1.07936502406995 
581	 1.07962175676897 
582	 1.07989299567924 
583	 1.0802193195166 
584	 1.08034003807675 
585	 1.08036344413173 
586	 1.08060242544083 
587	 1.0810432159444 
588	 1.08127828632505 
589	 1.08131076055074 
590	 1.0818877993202 
591	 1.08222166604993 
592	 1.08238878758905 
593	 1.08272281608093 
594	 1.08350116952307 
595	 1.08391363174184 
596	 1.08398190942785 
597	 1.08445628545914 
598	 1.08509907876561 
599	 1.08545337223733 
600	 1.08542298553742 
601	 1.08587331850176 
602	 1.08633176410997 
603	 1.08656261926536 
604	 1.086537081837 
605	 1.08693465282727 
606	 1.08736710180152 
607	 1.08757705855183 
608	 1.08758426699345 
609	 1.08807643443263 
610	 1.08852151267554 
611	 1.08845324320794 
612	 1.08866534064509 
613	 1.08911590944041 
614	 1.08955090283717 
615	 1.08962849304504 
616	 1.08959480617394 
617	 1.08989925871917 
618	 1.09053070564924 
619	 1.09063057668172 
620	 1.09065584493143 
621	 1.09089239603599 
622	 1.09140821644775 
623	 1.09149050242157 
624	 1.09147156204978 
625	 1.09162930292602 
626	 1.0921045897529 
627	 1.09229449588331 
628	 1.09224325640596 
629	 1.09219695437624 
630	 1.09259610019906 
631	 1.09284861031277 
632	 1.09289120227599 
633	 1.09292915959595 
634	 1.09320393693444 
635	 1.09343092748884 
636	 1.09346600329323 
637	 1.09339918023438 
638	 1.09363966272778 
639	 1.09397360425639 
640	 1.0940979114749 
641	 1.09394510236907 
642	 1.09399200866069 
643	 1.09426287861992 
644	 1.09447519728649 
645	 1.0944237028817 
646	 1.0943399409892 
647	 1.09440557066652 
648	 1.09463789624426 
649	 1.09467556381996 
650	 1.09468483383142 
651	 1.09487337649146 
652	 1.09485427359302 
653	 1.09489503038478 
654	 1.09500858267064 
655	 1.09500212217409 
656	 1.09502172651186 
657	 1.09507983690813 
658	 1.09517391257023 
659	 1.09534229892847 
660	 1.09529501597388 
661	 1.09512983350117 
662	 1.09507287671043 
663	 1.09513446103708 
664	 1.09520178622364 
665	 1.09522959566211 
666	 1.09525484605852 
667	 1.09540138674403 
668	 1.0955387649247 
669	 1.0955609732391 
670	 1.09555072387612 
671	 1.09557476403548 
672	 1.09562318650506 
673	 1.09565736968006 
674	 1.09574179506552 
675	 1.09579473551243 
676	 1.09578615089192 
677	 1.09576215101193 
678	 1.09572993574678 
679	 1.09576759044258 
680	 1.09587168879613 
681	 1.09572750353525 
682	 1.09579678959044 
683	 1.09596050688189 
684	 1.09584777857733 
685	 1.09587452940112 
686	 1.09592909861586 
687	 1.09595686694805 
688	 1.0960619322048 
689	 1.09602338291233 
690	 1.09590703068591 
691	 1.09584677445005 
692	 1.09592196293399 
693	 1.09601746310846 
694	 1.09608648652437 
695	 1.09613594136 
696	 1.09621340644677 
697	 1.0962769876966 
698	 1.09631298024978 
699	 1.09637350964159 
700	 1.09627032835391 
701	 1.09619628409594 
702	 1.09634622188444 
703	 1.09651304468294 
704	 1.09651480730589 
705	 1.09647755553544 
706	 1.09667361386298 
707	 1.09651029153141 
708	 1.09637154078497 
709	 1.09647848844704 
710	 1.09657681661588 
711	 1.09656821636809 
712	 1.09648926266211 
713	 1.09643394547256 
714	 1.09650708368581 
715	 1.09654072204458 
716	 1.09649337021773 
717	 1.09642380733082 
718	 1.09634253839239 
719	 1.09632923259371 
720	 1.09639622588855 
721	 1.09644114118155 
722	 1.09634700335848 
723	 1.09616166589734 
724	 1.09601674348698 
725	 1.0961253847243 
726	 1.09626429552611 
727	 1.09626728211384 
728	 1.0960688281329 
729	 1.09605438560531 
730	 1.09608645868886 
731	 1.09607173889001 
732	 1.0961158701676 
733	 1.09603216428221 
734	 1.09594734959016 
735	 1.09599624290549 
736	 1.09599166841221 
737	 1.0958949652864 
738	 1.09578854240392 
739	 1.09580244709149 
740	 1.09570821747018 
741	 1.09566544302135 
742	 1.09572626847992 
743	 1.09571663149049 
744	 1.09568154358977 
745	 1.09563728292125 
746	 1.09560602914799 
747	 1.09565399314882 
748	 1.09562070937578 
749	 1.09552274810579 
750	 1.09548486714039 
751	 1.09558619164615 
752	 1.095629456699 
753	 1.09557861666097 
754	 1.09563707110737 
755	 1.09555245180848 
756	 1.09542349675725 
757	 1.09538944101166 
758	 1.09546637924219 
759	 1.09555430040726 
760	 1.09559570863944 
761	 1.09556971661937 
762	 1.09551660388987 
763	 1.09549975823674 
764	 1.09549392320922 
765	 1.09538839641562 
766	 1.09530865194906 
767	 1.09532318919198 
768	 1.09543959950721 
769	 1.09556658852452 
770	 1.09569084478156 
771	 1.09572597845104 
772	 1.09561709439529 
773	 1.09554279883959 
774	 1.09558541130569 
775	 1.09567017100214 
776	 1.09561525431409 
777	 1.09550735256314 
778	 1.0954652583843 
779	 1.09554380758261 
780	 1.09569066581853 
781	 1.09568493586519 
782	 1.09560388698101 
783	 1.09556589508447 
784	 1.09547011385116 
785	 1.09547338417828 
786	 1.09554936007491 
787	 1.09556855683008 
788	 1.09551221068598 
789	 1.09545878673983 
790	 1.09549205156639 
791	 1.09567256969245 
792	 1.09565960075284 
793	 1.09552413337228 
794	 1.09542445817795 
795	 1.09550409143539 
796	 1.0955929448124 
797	 1.09563383122058 
798	 1.09561697625248 
799	 1.09551984657225 
800	 1.09556038258593 
801	 1.09572981762431 
802	 1.09582946530218 
803	 1.09573921915293 
804	 1.09559854022761 
805	 1.09553180347876 
806	 1.09557627254941 
807	 1.0955459016972 
808	 1.0955111682182 
809	 1.09554118824251 
810	 1.09547901359511 
811	 1.09554443573864 
812	 1.09571829806064 
813	 1.09585413172231 
814	 1.09579949410978 
815	 1.09566820937003 
816	 1.0956230137014 
817	 1.09580368728536 
818	 1.09580519866657 
819	 1.09569214013134 
820	 1.0955997014798 
821	 1.09564497652038 
822	 1.09570173106989 
823	 1.09573856260842 
824	 1.09573855228079 
825	 1.09564657794472 
826	 1.0954968115288 
827	 1.09542647169815 
828	 1.09554186291346 
829	 1.09551396224237 
830	 1.09551774806206 
831	 1.0955614247936 
832	 1.09549728443594 
833	 1.09542474065908 
834	 1.09539793748642 
835	 1.09542703599738 
836	 1.09546706307553 
837	 1.09530841794114 
838	 1.09520833510775 
839	 1.09534639690529 
840	 1.09536012400352 
841	 1.09527140759616 
842	 1.09513348991516 
843	 1.09502928256482 
844	 1.09504246854109 
845	 1.09513786166708 
846	 1.09519958440508 
847	 1.09509972055916 
848	 1.09507956638301 
849	 1.09501565150841 
850	 1.0949337992627 
851	 1.09507554798888 
852	 1.09507126701552 
853	 1.09509251485623 
854	 1.09520623405692 
855	 1.09501236655667 
856	 1.09487336910625 
857	 1.09485769395388 
858	 1.09491029885249 
859	 1.09491815992737 
860	 1.09479412560747 
861	 1.09466823801962 
862	 1.09472425668718 
863	 1.09473500506782 
864	 1.09477601787176 
865	 1.09479309975321 
866	 1.09464544151851 
867	 1.09464970326812 
868	 1.09461003076412 
869	 1.09448769763213 
870	 1.09454184160425 
871	 1.09452643101774 
872	 1.09448474623874 
873	 1.09445389622648 
874	 1.09430564408332 
875	 1.09430965102284 
876	 1.09432900578488 
877	 1.09421894064824 
878	 1.09431357193072 
879	 1.09420354324924 
880	 1.09401206494621 
881	 1.09403174955328 
882	 1.09391599179821 
883	 1.09387758693447 
884	 1.09392332182 
885	 1.09388826836374 
886	 1.09375695212155 
887	 1.09367221319349 
888	 1.09363448548127 
889	 1.09347719339512 
890	 1.09339207393273 
891	 1.09339953357261 
892	 1.09342602874545 
893	 1.09330429449954 
894	 1.09320962736823 
895	 1.09317622704058 
896	 1.0931941472575 
897	 1.09326040879217 
898	 1.09314722053279 
899	 1.09292724871463 
900	 1.09277334849945 
901	 1.09277361829625 
902	 1.09279236191344 
903	 1.09280566195669 
904	 1.09283815489877 
905	 1.0928309229695 
906	 1.09280943087602 
907	 1.09279665043994 
908	 1.09279371571258 
909	 1.09269341043002 
910	 1.09251188075552 
911	 1.09241366370412 
912	 1.09262536878985 
913	 1.09257052134887 
914	 1.09241176245218 
915	 1.09232426183914 
916	 1.09232718253545 
917	 1.09236947283961 
918	 1.09234153317827 
919	 1.09222561696675 
920	 1.09218433492197 
921	 1.09215869551275 
922	 1.0921448975247 
923	 1.09216552163281 
924	 1.09228987806371 
925	 1.09231058068475 
926	 1.09222593441116 
927	 1.09210726872752 
928	 1.09198720172809 
929	 1.09199650466601 
930	 1.09197761711246 
931	 1.09175540347272 
932	 1.09160271609097 
933	 1.09175959543142 
934	 1.09193382682413 
935	 1.0917010826238 
936	 1.09158932446631 
937	 1.0915648771755 
938	 1.09155222546388 
939	 1.09150262602507 
940	 1.0916582655645 
941	 1.09158071334014 
942	 1.09128257906584 
943	 1.09117249412242 
944	 1.09109451758015 
945	 1.09101758856193 
946	 1.09098660220575 
947	 1.09108011882821 
948	 1.090988901029 
949	 1.09076776211691 
950	 1.09056365490443 
951	 1.09053623792322 
952	 1.09052665852995 
953	 1.09036435370975 
954	 1.09004670476142 
955	 1.08980840486266 
956	 1.08973182118939 
957	 1.0897550922377 
958	 1.0897405710249 
959	 1.08950903270773 
960	 1.08922698410648 
961	 1.08888966367249 
962	 1.08860654989076 
963	 1.08876816210789 
964	 1.08870408130909 
965	 1.08854809438701 
966	 1.08851159228358 
967	 1.08846890409534 
968	 1.08845432091394 
969	 1.08850668917364 
970	 1.08861357692125 
971	 1.08862382220288 
972	 1.08887574190382 
973	 1.08904078288318 
974	 1.08883139115161 
975	 1.08864332641314 
976	 1.08861139481546 
977	 1.08848230928249 
978	 1.08816004449047 
979	 1.08847070810269 
980	 1.08842407169741 
981	 1.08819225573824 
982	 1.08817459587423 
983	 1.08812792818186 
984	 1.08804090146421 
985	 1.08806503760163 
986	 1.08822296505163 
987	 1.08791338615038 
988	 1.08777579827063 
989	 1.08766644396458 
990	 1.08741909836149 
991	 1.08783423543741 
992	 1.08786229151581 
993	 1.08777625089926 
994	 1.08798361651122 
995	 1.0875435134898 
996	 1.08754427597504 
997	 1.08783381452767 
998	 1.08788811018729 
999	 1.08759446057053 
1000	 1.08757839789835 
1001	 1.08297694723972 
1002	 1.08299795137587 
1003	 1.08299135581719 
1004	 1.08295702887342 
1005	 1.08296599414856 
1006	 1.08291207608159 
1007	 1.08278511243534 
1008	 1.08272401753907 
1009	 1.08267578726133 
1010	 1.08263402819574 
1011	 1.0826132761754 
1012	 1.08255421750506 
1013	 1.08247351368299 
1014	 1.08243315629541 
1015	 1.08240177727351 
1016	 1.08238248549566 
1017	 1.08232275948044 
1018	 1.08221769203886 
1019	 1.08212204289654 
1020	 1.08203350627227 
1021	 1.08197812469899 
1022	 1.08202063405963 
1023	 1.0819806821063 
1024	 1.08188019893069 
1025	 1.08183164962402 
1026	 1.08177008496102 
1027	 1.08174082274446 
1028	 1.08173152502823 
1029	 1.08176038471783 
1030	 1.08181084849391 
1031	 1.08185965375079 
1032	 1.08191601416181 
1033	 1.08196143927126 
1034	 1.08190598919755 
1035	 1.08184154068832 
1036	 1.08183754175599 
1037	 1.08185359332284 
1038	 1.08181708024707 
1039	 1.08180836949052 
1040	 1.08178687937507 
1041	 1.08169404845978 
1042	 1.08164919811855 
1043	 1.08164759348593 
1044	 1.08163656277897 
1045	 1.08164908754153 
1046	 1.08158378867953 
1047	 1.08150018649073 
1048	 1.08150069173494 
1049	 1.08146701331025 
1050	 1.08136386760143 
1051	 1.08129116242553 
1052	 1.08125909637882 
1053	 1.08124413133275 
1054	 1.08127115188775 
1055	 1.08125956038712 
1056	 1.08126736569465 
1057	 1.08122643169663 
1058	 1.08111954731009 
1059	 1.08103784793967 
1060	 1.08100082615786 
1061	 1.08098374162211 
1062	 1.08099594589001 
1063	 1.08100336595636 
1064	 1.08097136361431 
1065	 1.08094906912645 
1066	 1.08095258029627 
1067	 1.08097415255604 
1068	 1.08097744511241 
1069	 1.08095183714682 
1070	 1.08089520518306 
1071	 1.08077933665087 
1072	 1.08066135386354 
1073	 1.08063070248234 
1074	 1.08056874282561 
1075	 1.08053213874623 
1076	 1.08053523897307 
1077	 1.08048749782017 
1078	 1.08045270624901 
1079	 1.08048746767088 
1080	 1.08051681039416 
1081	 1.08043185919252 
1082	 1.08036597369264 
1083	 1.08029302289433 
1084	 1.08014211462184 
1085	 1.08011313584966 
1086	 1.08009215189218 
1087	 1.08012304608895 
1088	 1.08006804303487 
1089	 1.0800602741537 
1090	 1.08006513177365 
1091	 1.07999944989413 
1092	 1.07996134715509 
1093	 1.07993972423398 
1094	 1.0798388503499 
1095	 1.07977139363243 
1096	 1.07975154201924 
1097	 1.07969543453557 
1098	 1.07963168024666 
1099	 1.07953891649801 
1100	 1.07945776264379 
1101	 1.07940981617038 
1102	 1.07935461702393 
1103	 1.07932251168487 
1104	 1.07932099505003 
1105	 1.07931470617872 
1106	 1.07927921888092 
1107	 1.07923529344374 
1108	 1.07915629025999 
1109	 1.07906749147068 
1110	 1.07896783421836 
1111	 1.07887097828413 
1112	 1.07879531388072 
1113	 1.07872043382391 
1114	 1.07870184241132 
1115	 1.07871342610961 
1116	 1.07870546728395 
1117	 1.07866596468581 
1118	 1.07861624577487 
1119	 1.07854343107953 
1120	 1.07846446494444 
1121	 1.07837636608561 
1122	 1.07826476365473 
1123	 1.07817328621003 
1124	 1.0780673139284 
1125	 1.07796385674716 
1126	 1.07787886361333 
1127	 1.07781795687315 
1128	 1.07770418265397 
1129	 1.07757808273943 
1130	 1.07748137077605 
1131	 1.07733162304104 
1132	 1.07714859540608 
1133	 1.07692857552904 
1134	 1.07671805316262 
1135	 1.0765102087661 
1136	 1.07624343459501 
1137	 1.07607800143723 
1138	 1.07601066079644 
1139	 1.07586267520209 
1140	 1.07573418166283 
1141	 1.07559192337312 
1142	 1.07535691918178 
1143	 1.07510850301392 
1144	 1.07484995646971 
1145	 1.07460139428927 
1146	 1.0743815645289 
1147	 1.07410690261553 
1148	 1.07384668048203 
1149	 1.07359623731673 
1150	 1.07332402376216 
1151	 1.07309305899019 
1152	 1.0728607599412 
1153	 1.0726582354722 
1154	 1.07242875743183 
1155	 1.07220755626472 
1156	 1.07194945098269 
1157	 1.07166803420592 
1158	 1.07137405162305 
1159	 1.07104545808276 
1160	 1.07073058682327 
1161	 1.0704216982878 
1162	 1.0701281292034 
1163	 1.06984550552526 
1164	 1.06951977841949 
1165	 1.06919827101058 
1166	 1.06892483123246 
1167	 1.06860022142981 
1168	 1.06828589950725 
1169	 1.06798305067402 
1170	 1.06763890490233 
1171	 1.06735253600461 
1172	 1.06711185456645 
1173	 1.06687639051721 
1174	 1.06666189427202 
1175	 1.06647141504318 
1176	 1.06631375363795 
1177	 1.06614224995457 
1178	 1.06598379216061 
1179	 1.06581877163881 
1180	 1.06566055547229 
1181	 1.06552182273434 
1182	 1.06537484185324 
1183	 1.0652296042828 
1184	 1.06507691618613 
1185	 1.06494978923061 
1186	 1.0648764257229 
1187	 1.06485137947097 
1188	 1.06483347154181 
1189	 1.06486174354098 
1190	 1.06487908384469 
1191	 1.06491158216942 
1192	 1.06493731707946 
1193	 1.06496628975014 
1194	 1.06500003337906 
1195	 1.06504126989226 
1196	 1.0650731095398 
1197	 1.0651086118602 
1198	 1.06513022706532 
1199	 1.06516315591014 
1200	 1.06520566427697 
1201	 1.06524520795895 
1202	 1.06531455545626 
1203	 1.06538308265089 
1204	 1.06542695531677 
1205	 1.06552641099269 
1206	 1.06568412145584 
1207	 1.06578977989485 
1208	 1.0659161250458 
1209	 1.06600175706247 
1210	 1.06602053456778 
1211	 1.06608748104022 
1212	 1.06617499248616 
1213	 1.06624620041022 
1214	 1.06633933093749 
1215	 1.06640495264535 
1216	 1.06644441453824 
1217	 1.06647894584447 
1218	 1.06650000714506 
1219	 1.0665188956493 
1220	 1.06654173037695 
1221	 1.06654859505328 
1222	 1.06655247364872 
1223	 1.06656859481797 
1224	 1.0665661971654 
1225	 1.06655087910486 
1226	 1.0665342290816 
1227	 1.06650149861478 
1228	 1.06648875686141 
1229	 1.06647990326505 
1230	 1.06647276343535 
1231	 1.06648720053121 
1232	 1.06648259652614 
1233	 1.06645744252477 
1234	 1.06644957208154 
1235	 1.06643297486182 
1236	 1.06643561465159 
1237	 1.06647683241967 
1238	 1.06648917753218 
1239	 1.06650534249153 
1240	 1.06650024490746 
1241	 1.06647040868638 
1242	 1.06645060469996 
1243	 1.06647188643757 
1244	 1.06652548919691 
1245	 1.06655594137135 
1246	 1.06661760015258 
1247	 1.06664086325227 
1248	 1.06663677318923 
1249	 1.06662995963168 
1250	 1.06661536384483 
1251	 1.06659437667911 
1252	 1.06654935466192 
1253	 1.06652302652721 
1254	 1.06651200011689 
1255	 1.0664796231583 
1256	 1.0664498233329 
1257	 1.06640277348287 
1258	 1.06631230301679 
1259	 1.06625556314736 
1260	 1.06622753187577 
1261	 1.06617382632688 
1262	 1.06612290830605 
1263	 1.06607931597016 
1264	 1.0659871525277 
1265	 1.0658441727178 
1266	 1.06573337331634 
1267	 1.06561778138063 
1268	 1.0654967777719 
1269	 1.06537461519767 
1270	 1.06526131977849 
1271	 1.06511901558797 
1272	 1.0650301734019 
1273	 1.06499351191965 
1274	 1.06492654509192 
1275	 1.06488169740559 
1276	 1.06481281121107 
1277	 1.06471967868545 
1278	 1.0646284320745 
1279	 1.06453570713678 
1280	 1.06443526296161 
1281	 1.06429932385138 
1282	 1.06420459274489 
1283	 1.06412566727439 
1284	 1.06405617700837 
1285	 1.06400354687809 
1286	 1.06398728594146 
1287	 1.06394594853081 
1288	 1.06389849139839 
1289	 1.06386287879376 
1290	 1.0638412346101 
1291	 1.06379308474122 
1292	 1.06374150248713 
1293	 1.06368285620109 
1294	 1.06359562041147 
1295	 1.06353326188139 
1296	 1.06349524305521 
1297	 1.06342717262141 
1298	 1.06335953056118 
1299	 1.06327262230061 
1300	 1.06313947950481 
1301	 1.06304624746939 
1302	 1.06296994545809 
1303	 1.06288451304755 
1304	 1.06282630493042 
1305	 1.06274313022392 
1306	 1.06263272949146 
1307	 1.06252957082374 
1308	 1.06243561795155 
1309	 1.06232176015937 
1310	 1.06218972292471 
1311	 1.06205059286258 
1312	 1.06189779873955 
1313	 1.06170631701974 
1314	 1.06155846069248 
1315	 1.06142183813614 
1316	 1.06128896868726 
1317	 1.06116702363907 
1318	 1.06105528826811 
1319	 1.06096761395324 
1320	 1.06084331192213 
1321	 1.06072658823462 
1322	 1.06058270756203 
1323	 1.06038890029274 
1324	 1.06022380141728 
1325	 1.06006096819854 
1326	 1.05990226029651 
1327	 1.05976442016763 
1328	 1.05960332814207 
1329	 1.05943379094784 
1330	 1.05925980962938 
1331	 1.05908778588173 
1332	 1.05888732316856 
1333	 1.05868009410109 
1334	 1.05844541743355 
1335	 1.05820829456613 
1336	 1.05793950549181 
1337	 1.05769412283994 
1338	 1.0574545777973 
1339	 1.05721267925377 
1340	 1.05696851927144 
1341	 1.05673265151281 
1342	 1.05650939720482 
1343	 1.05626245911506 
1344	 1.05602798700648 
1345	 1.05574833803379 
1346	 1.05541983288319 
1347	 1.05512554100928 
1348	 1.05481428648959 
1349	 1.05452061599756 
1350	 1.05426933764368 
1351	 1.05397454066409 
1352	 1.05366899015358 
1353	 1.05334597281402 
1354	 1.0529887846762 
1355	 1.05264105286115 
1356	 1.05226997840945 
1357	 1.05192295850384 
1358	 1.0515670217138 
1359	 1.05124851563527 
1360	 1.05096394535149 
1361	 1.05068788578214 
1362	 1.05042357832953 
1363	 1.05017528861259 
1364	 1.04991342624761 
1365	 1.04965276187067 
1366	 1.04937515914554 
1367	 1.04910297798884 
1368	 1.04879378932492 
1369	 1.04845211344823 
1370	 1.04812034870475 
1371	 1.04776847870771 
1372	 1.0474315935682 
1373	 1.04710642564659 
1374	 1.04676541571449 
1375	 1.04642654364881 
1376	 1.04606193526269 
1377	 1.04568642404912 
1378	 1.04528475749068 
1379	 1.04485413605696 
1380	 1.04441819163259 
1381	 1.04397047725922 
1382	 1.04349457887597 
1383	 1.04303072276411 
1384	 1.0424948232683 
1385	 1.04190815796512 
1386	 1.04129882030264 
1387	 1.0406611619833 
1388	 1.0399762654123 
1389	 1.03928401101096 
1390	 1.03852255892998 
1391	 1.03772718180666 
1392	 1.03682023653744 
1393	 1.03592641303737 
1394	 1.03495683079895 
1395	 1.033948381462 
1396	 1.03288570479392 
1397	 1.03183499195246 
1398	 1.03076491836296 
1399	 1.02962508931374 
1400	 1.02848348633533 
1401	 1.02724265713395 
1402	 1.02594548691932 
1403	 1.02452516902744 
1404	 1.02308433472915 
1405	 1.02144725012584 
1406	 1.01968130546053 
1407	 1.0177591800579 
1408	 1.01555231584182 
1409	 1.01350110431129 
1410	 1.011178732251 
1411	 1.00929921728991 
1412	 1.00744810561799 
1413	 1.00611564388025 
1414	 1.00510654435042 
1415	 1.00445017220039 
1416	 1.00434267015582 
1417	 1.00426139876114 
1418	 1.00461112901213 
1419	 1.0047764912178 
1420	 1.00509423695496 
1421	 1.00519442498425 
1422	 1.00517766758446 
1423	 1.00505184408365 
1424	 1.00477141144119 
1425	 1.00439466359596 
1426	 1.00402919565983 
1427	 1.00359406791326 
1428	 1.00316399848208 
1429	 1.0027527530937 
1430	 1.0022790509097 
1431	 1.00174828838239 
1432	 1.00125098757474 
1433	 1.00071910295581 
1434	 1.00024396817728 
1435	 0.999797907239269 
1436	 0.999353657089787 
1437	 0.998923768501918 
1438	 0.998519567659062 
1439	 0.998139751564667 
1440	 0.997748368115648 
1441	 0.997371063366759 
1442	 0.996997866351371 
1443	 0.996614985589894 
1444	 0.996245085053407 
1445	 0.99589507297914 
1446	 0.995547835835674 
1447	 0.995188685025427 
1448	 0.994859778586468 
1449	 0.994561353372676 
1450	 0.994253624159345 
1451	 0.993956046368136 
1452	 0.993656951904064 
1453	 0.993353075212504 
1454	 0.993059442132423 
1455	 0.992755967507491 
1456	 0.992488369383111 
1457	 0.992232960886832 
1458	 0.992002148405691 
1459	 0.991826812644184 
1460	 0.991628257613213 
1461	 0.991437806786997 
1462	 0.991239474479478 
1463	 0.991029727278902 
1464	 0.990817970030127 
1465	 0.990605202139309 
1466	 0.990382665429236 
1467	 0.990173450730053 
1468	 0.989957492772033 
1469	 0.989776502733083 
1470	 0.989624668969822 
1471	 0.989465132246375 
1472	 0.989325248336791 
1473	 0.989175007448853 
1474	 0.989015934515372 
1475	 0.988874744776047 
1476	 0.98874498145635 
1477	 0.988609829073377 
1478	 0.988493666411773 
1479	 0.988339643897843 
1480	 0.988179555855677 
1481	 0.987987787982547 
1482	 0.987755698801572 
1483	 0.987538627081735 
1484	 0.987302265935296 
1485	 0.98708063327984 
1486	 0.98686251616475 
1487	 0.986653815540456 
1488	 0.986449741265414 
1489	 0.986250083483177 
1490	 0.986076731841951 
1491	 0.985867260615005 
1492	 0.985635145847549 
1493	 0.985416234995172 
1494	 0.98515437447201 
1495	 0.984961366368748 
1496	 0.984802279765622 
1497	 0.984666595286686 
1498	 0.984569659330708 
1499	 0.984490008149989 
1500	 0.984424979926467 
1501	 0.9843959930763 
1502	 0.984391055597766 
1503	 0.984426025179511 
1504	 0.984517712719017 
1505	 0.984600411708566 
1506	 0.984713015821924 
1507	 0.98482720332362 
1508	 0.984939576994582 
1509	 0.985061482629799 
1510	 0.985201004471585 
1511	 0.985339489599136 
1512	 0.98548712914291 
1513	 0.9856260488042 
1514	 0.98575273596351 
1515	 0.985898437697299 
1516	 0.986042991532619 
1517	 0.986198561077215 
1518	 0.986370841412155 
1519	 0.986551962246383 
1520	 0.986730268624305 
1521	 0.986936417251193 
1522	 0.987144641575167 
1523	 0.987379115835491 
1524	 0.987581386870242 
1525	 0.987779599798055 
1526	 0.987974038107042 
1527	 0.988151726678826 
1528	 0.988339079415623 
1529	 0.988522166971572 
1530	 0.988735440329159 
1531	 0.988952746612199 
1532	 0.9891935423256 
1533	 0.989457822751887 
1534	 0.989744511473007 
1535	 0.990057850937413 
1536	 0.990350534875364 
1537	 0.990678802302961 
1538	 0.990948333440337 
1539	 0.991178051037923 
1540	 0.991415843001347 
1541	 0.991633243560017 
1542	 0.991857943428183 
1543	 0.992090938768285 
1544	 0.992293385021347 
1545	 0.992480896658153 
1546	 0.992663473916214 
1547	 0.992834773989061 
1548	 0.992982058684855 
1549	 0.993135717394807 
1550	 0.993232700593198 
1551	 0.993276855144558 
1552	 0.993326221174981 
1553	 0.993339155948656 
1554	 0.993367502219234 
1555	 0.993392287492742 
1556	 0.993421660891874 
1557	 0.993442301797913 
1558	 0.99348429694771 
1559	 0.993544270579043 
1560	 0.993594440045165 
1561	 0.993651996085728 
1562	 0.993708502418394 
1563	 0.993747845817904 
1564	 0.993815665036494 
1565	 0.993921485595592 
1566	 0.993986029642552 
1567	 0.994038443873188 
1568	 0.994098835837365 
1569	 0.994123951604303 
1570	 0.994187992290156 
1571	 0.99426821856604 
1572	 0.994378049575033 
1573	 0.994516178232099 
1574	 0.994656825690912 
1575	 0.994843671548321 
1576	 0.994995144076233 
1577	 0.995134685775758 
1578	 0.995267978715392 
1579	 0.99537650855797 
1580	 0.995503955018719 
1581	 0.995639124475352 
1582	 0.995767981802356 
1583	 0.995915839404003 
1584	 0.996034687644759 
1585	 0.99612525303074 
1586	 0.996228141539771 
1587	 0.996309044934066 
1588	 0.996415806900857 
1589	 0.996544921739395 
1590	 0.996670714597576 
1591	 0.996805525089407 
1592	 0.996943029191442 
1593	 0.997065696768696 
1594	 0.997221843417676 
1595	 0.997410600545213 
1596	 0.99758554821178 
1597	 0.997771414668712 
1598	 0.997960064840359 
1599	 0.998148208384373 
1600	 0.998329864226506 
1601	 0.998543165395134 
1602	 0.99870893340748 
1603	 0.99883034871979 
1604	 0.998959601902535 
1605	 0.999053995725035 
1606	 0.999174216152607 
1607	 0.999307633311859 
1608	 0.999445871309633 
1609	 0.999596044549392 
1610	 0.999745062007383 
1611	 0.999904752886967 
1612	 1.00005473393817 
1613	 1.00021144826276 
1614	 1.00034779955283 
1615	 1.00047401958264 
1616	 1.00058786208517 
1617	 1.00067456499955 
1618	 1.00077245571279 
1619	 1.00087216876912 
1620	 1.00095722637285 
1621	 1.00103239123949 
1622	 1.00111739808722 
1623	 1.00118780535253 
1624	 1.00127452444717 
1625	 1.00140215146319 
1626	 1.00148876787249 
1627	 1.00156023178402 
1628	 1.00162337345556 
1629	 1.00164287791445 
1630	 1.00168787485348 
1631	 1.00174622553771 
1632	 1.00180283566515 
1633	 1.00184957446096 
1634	 1.00192892768602 
1635	 1.0020246311859 
1636	 1.00212389326872 
1637	 1.00229655340485 
1638	 1.00238585788088 
1639	 1.0024303873616 
1640	 1.00246583139916 
1641	 1.00244546386657 
1642	 1.00243077412958 
1643	 1.00240360699784 
1644	 1.0023859519646 
1645	 1.00236567600667 
1646	 1.00233840507476 
1647	 1.00230067963997 
1648	 1.00229220024078 
1649	 1.00230350537808 
1650	 1.00229208049729 
1651	 1.00232429140211 
1652	 1.00229035063966 
1653	 1.00221331620572 
1654	 1.00210713091455 
1655	 1.00194719802742 
1656	 1.00178809324468 
1657	 1.00158609806228 
1658	 1.00140325206922 
1659	 1.00124392249703 
1660	 1.00105361901754 
1661	 1.00086608877337 
1662	 1.00064125753412 
1663	 1.00036837438696 
1664	 1.00009579831374 
1665	 0.999820934884514 
1666	 0.999508225305803 
1667	 0.999218540509877 
1668	 0.998824504839317 
1669	 0.998381184853909 
1670	 0.99784529935539 
1671	 0.997182227948861 
1672	 0.996520456816902 
1673	 0.995780234192652 
1674	 0.995055001490769 
1675	 0.994310087284835 
1676	 0.993588972495107 
1677	 0.99287192079966 
1678	 0.992157772711157 
1679	 0.991440491148185 
1680	 0.990737792238883 
1681	 0.990035542558002 
1682	 0.989344908380181 
1683	 0.988659218013597 
1684	 0.9880294254555 
1685	 0.987402251531045 
1686	 0.986845509774372 
1687	 0.986355695090098 
1688	 0.985888693258924 
1689	 0.98544797374759 
1690	 0.985072383717236 
1691	 0.984736644493163 
1692	 0.984491395786043 
1693	 0.984343624860861 
1694	 0.984198411168246 
1695	 0.984115665741131 
1696	 0.984025141792235 
1697	 0.983939407173523 
1698	 0.983888211340059 
1699	 0.983891864754876 
1700	 0.983856746416602 
1701	 0.983837379229166 
1702	 0.98378616616143 
1703	 0.983698517195409 
1704	 0.983627784691475 
1705	 0.983564641481664 
1706	 0.983431231983438 
1707	 0.983319580303655 
1708	 0.98316585570442 
1709	 0.982994966292512 
1710	 0.982835646038695 
1711	 0.982610165177449 
1712	 0.982343077810552 
1713	 0.982017374159897 
1714	 0.981605618098682 
1715	 0.981137871870738 
1716	 0.980568159458862 
1717	 0.980022103373951 
1718	 0.979463005499808 
1719	 0.97882332607306 
1720	 0.978247970710558 
1721	 0.977623479206175 
1722	 0.976965076516226 
1723	 0.976412101120125 
1724	 0.975812517961525 
1725	 0.975205318480347 
1726	 0.974671501183289 
1727	 0.974161830368055 
1728	 0.973765214593623 
1729	 0.973415584749797 
1730	 0.973100327816943 
1731	 0.972867755788523 
1732	 0.972636087076918 
1733	 0.972440802721547 
1734	 0.972269483629393 
1735	 0.972076776462611 
1736	 0.971927152721205 
1737	 0.971780416304323 
1738	 0.971693830558082 
1739	 0.971609697186186 
1740	 0.971531204294881 
1741	 0.971467107194118 
1742	 0.971404816512688 
1743	 0.971358746993868 
1744	 0.971316390736534 
1745	 0.971321514331703 
1746	 0.971373862019824 
1747	 0.971434833271477 
1748	 0.971530639068444 
1749	 0.971609852970986 
1750	 0.971678058740057 
1751	 0.971778953121899 
1752	 0.971910595539565 
1753	 0.972018174029883 
1754	 0.972143661187605 
1755	 0.972235682925558 
1756	 0.972308704957009 
1757	 0.97233586829033 
1758	 0.972355586416253 
1759	 0.972357431489553 
1760	 0.972369933811662 
1761	 0.972408728856334 
1762	 0.972430116510945 
1763	 0.972443853156084 
1764	 0.972421964270076 
1765	 0.972394013117629 
1766	 0.972438649201774 
1767	 0.972497713977191 
1768	 0.97257176349538 
1769	 0.972649811945303 
1770	 0.972663482528385 
1771	 0.972674360020684 
1772	 0.972695416869137 
1773	 0.972689019317829 
1774	 0.972683405593847 
1775	 0.972676220233072 
1776	 0.972642025158413 
1777	 0.972614286140147 
1778	 0.972600055090845 
1779	 0.972567052883315 
1780	 0.972508195260592 
1781	 0.972465736118804 
1782	 0.972477209416291 
1783	 0.972474253208226 
1784	 0.972441492125182 
1785	 0.972389025768003 
1786	 0.972293973597806 
1787	 0.972166101938883 
1788	 0.972063393129651 
1789	 0.971934415724136 
1790	 0.971825496937931 
1791	 0.971699144442716 
1792	 0.971612819275976 
1793	 0.971568498226751 
1794	 0.971524036184748 
1795	 0.971514291655989 
1796	 0.971499973416366 
1797	 0.971477418394098 
1798	 0.971506285069677 
1799	 0.97150220122722 
1800	 0.971435208613495 
1801	 0.970820913340365 
1802	 0.970868692912989 
1803	 0.970880350836138 
1804	 0.970888182219138 
1805	 0.970918865248524 
1806	 0.970946749916444 
1807	 0.970953801706161 
1808	 0.970973912502162 
1809	 0.971028082071995 
1810	 0.971051887187369 
1811	 0.971053820409996 
1812	 0.971057591999291 
1813	 0.971041028674324 
1814	 0.971057700603632 
1815	 0.97106644624572 
1816	 0.971066301657695 
1817	 0.971104773738705 
1818	 0.971173261178044 
1819	 0.971238683803459 
1820	 0.971315242507993 
1821	 0.971407600044257 
1822	 0.971528748478651 
1823	 0.971635609785181 
1824	 0.971729674502582 
1825	 0.971814125542954 
1826	 0.971838442341585 
1827	 0.971797198597827 
1828	 0.971778517525842 
1829	 0.971734267196023 
1830	 0.971683538666205 
1831	 0.971612796843415 
1832	 0.971575470819506 
1833	 0.971530261825812 
1834	 0.971472912523828 
1835	 0.971404422047239 
1836	 0.971313277747237 
1837	 0.971228090781732 
1838	 0.971085676852833 
1839	 0.971028107393002 
1840	 0.971024426047725 
1841	 0.970996808080633 
1842	 0.971008629331538 
1843	 0.970984853475157 
1844	 0.970922802155817 
1845	 0.970890720693407 
1846	 0.970821878695653 
1847	 0.970729854212025 
1848	 0.970619114452993 
1849	 0.970489454964037 
1850	 0.970335885086845 
1851	 0.97015405508389 
1852	 0.969962613933936 
1853	 0.969782491156757 
1854	 0.969583800253218 
1855	 0.969369940279985 
1856	 0.969169642625936 
1857	 0.968914180265659 
1858	 0.968586717212291 
1859	 0.968213878267606 
1860	 0.967773196617066 
1861	 0.967309425649906 
1862	 0.966789209392277 
1863	 0.966271995738351 
1864	 0.96572602141247 
1865	 0.965208146977959 
1866	 0.964608929967241 
1867	 0.963881521154394 
1868	 0.96315231482193 
1869	 0.962307504761398 
1870	 0.961449557761976 
1871	 0.960605178313279 
1872	 0.959684107370896 
1873	 0.958701263789715 
1874	 0.957659232884172 
1875	 0.956606123398207 
1876	 0.955371926403298 
1877	 0.954098402435641 
1878	 0.952798180475288 
1879	 0.951412376635637 
1880	 0.950052317207136 
1881	 0.948602576874401 
1882	 0.94709993861447 
1883	 0.945566001095357 
1884	 0.943923191111171 
1885	 0.942070431592527 
1886	 0.940260012820654 
1887	 0.938244467605754 
1888	 0.936053440573481 
1889	 0.933995826657609 
1890	 0.931748295541659 
1891	 0.929463814907916 
1892	 0.927164935053407 
1893	 0.924662103978607 
1894	 0.921943036716164 
1895	 0.919282374340115 
1896	 0.91647136733279 
1897	 0.913504094721292 
1898	 0.910732858214478 
1899	 0.907731102058641 
1900	 0.904733787412971 
1901	 0.901789429763517 
1902	 0.898537318608714 
1903	 0.895375350399712 
1904	 0.892214705640865 
1905	 0.888978824311916 
1906	 0.885724151440128 
1907	 0.882797129412015 
1908	 0.879844586598392 
1909	 0.876969994573781 
1910	 0.874259196013362 
1911	 0.871385831905495 
1912	 0.868623123303009 
1913	 0.865897800958866 
1914	 0.863140246946783 
1915	 0.860565992547622 
1916	 0.858163330149954 
1917	 0.855742327518332 
1918	 0.8534105638442 
1919	 0.851169713200896 
1920	 0.848806332684297 
1921	 0.846564501151518 
1922	 0.844337468934522 
1923	 0.84212225090805 
1924	 0.840149291400023 
1925	 0.838209810299673 
1926	 0.836348421889087 
1927	 0.834625104630081 
1928	 0.832915121128619 
1929	 0.831230799259326 
1930	 0.829651081869106 
1931	 0.82809042555818 
1932	 0.826596281845093 
1933	 0.825298944172807 
1934	 0.824035052800768 
1935	 0.822882745845583 
1936	 0.821843877319386 
1937	 0.820847744981777 
1938	 0.819892817863513 
1939	 0.819051084945823 
1940	 0.818288637884806 
1941	 0.817612564822871 
1942	 0.817056940938118 
1943	 0.81655743836688 
1944	 0.816190256437253 
1945	 0.815918295165083 
1946	 0.81570517052576 
1947	 0.815597749944013 
1948	 0.815522040894609 
1949	 0.815532496747328 
1950	 0.815606648131796 
1951	 0.815762117830993 
1952	 0.815952586762429 
1953	 0.816224107101004 
1954	 0.816495063217011 
1955	 0.816808669550175 
1956	 0.817143767536268 
1957	 0.817540533567551 
1958	 0.818025345850227 
1959	 0.818505876885475 
1960	 0.819054353487315 
1961	 0.819606840124481 
1962	 0.820142888666481 
1963	 0.820750366035843 
1964	 0.821434862778623 
1965	 0.822086922134597 
1966	 0.822752364609161 
1967	 0.823465633698417 
1968	 0.824144436178269 
1969	 0.82483729592536 
1970	 0.825550491196463 
1971	 0.8262872890697 
1972	 0.827030472657344 
1973	 0.827752234827677 
1974	 0.828482858738394 
1975	 0.829233393436459 
1976	 0.829943656458719 
1977	 0.830632712073023 
1978	 0.831333695769934 
1979	 0.832013705028088 
1980	 0.83269505561302 
1981	 0.833446847936636 
1982	 0.83416194818677 
1983	 0.834891474033967 
1984	 0.835665342939344 
1985	 0.836371256885457 
1986	 0.83712518402533 
1987	 0.837878415595233 
1988	 0.83863893544211 
1989	 0.839390979770558 
1990	 0.840146011397167 
1991	 0.840909562114585 
1992	 0.841682950474707 
1993	 0.842456005641943 
1994	 0.843206629386995 
1995	 0.843937687595243 
1996	 0.844612212312465 
1997	 0.845295038829516 
1998	 0.846033217945888 
1999	 0.846807247579133 
2000	 0.847563080758509 
2001	 0.848358387955409 
2002	 0.849133048249502 
2003	 0.849886580655039 
2004	 0.850653987687529 
2005	 0.851431776131311 
2006	 0.852206167293017 
2007	 0.853002652988179 
2008	 0.853755783654619 
2009	 0.854484996128577 
2010	 0.855198674457122 
2011	 0.855859490033419 
2012	 0.856496732964954 
2013	 0.857118120355009 
2014	 0.857730269050937 
2015	 0.85831599043306 
2016	 0.858898420758023 
2017	 0.859408266780892 
2018	 0.859912810781485 
2019	 0.860317661474927 
2020	 0.860643033386 
2021	 0.860901503419252 
2022	 0.861114243821862 
2023	 0.861262611938764 
2024	 0.861349574427348 
2025	 0.861402968890993 
2026	 0.861391405868956 
2027	 0.861314800556529 
2028	 0.86118733729057 
2029	 0.860986425808204 
2030	 0.860772384096807 
2031	 0.860512447447184 
2032	 0.860217909871759 
2033	 0.859845150689299 
2034	 0.859523443884529 
2035	 0.859191545207699 
2036	 0.858836322625408 
2037	 0.858538689907969 
2038	 0.858295162433767 
2039	 0.8580897396102 
2040	 0.857901796305199 
2041	 0.857782159822506 
2042	 0.857693403104606 
2043	 0.857721983294617 
2044	 0.857819463669802 
2045	 0.857990936415323 
2046	 0.858285153442777 
2047	 0.858605917620941 
2048	 0.858949752100657 
2049	 0.859393133975952 
2050	 0.859928031576806 
2051	 0.860519527190825 
2052	 0.861179319100652 
2053	 0.861899665475041 
2054	 0.862574119538163 
2055	 0.863252505470453 
2056	 0.86394750517732 
2057	 0.864604462738526 
2058	 0.86534555066193 
2059	 0.866139779757784 
2060	 0.866945519840979 
2061	 0.867828555645007 
2062	 0.868674372882076 
2063	 0.869491300256094 
2064	 0.87036406809154 
2065	 0.871290240775897 
2066	 0.872149940704794 
2067	 0.873070776330692 
2068	 0.873971901415981 
2069	 0.874862085435347 
2070	 0.875745129757903 
2071	 0.876586993066589 
2072	 0.877427443157305 
2073	 0.878216712835471 
2074	 0.878899988993278 
2075	 0.87968252089413 
2076	 0.880518060619076 
2077	 0.881283538406944 
2078	 0.882102055140674 
2079	 0.88282901550614 
2080	 0.883417365286527 
2081	 0.884074543781683 
2082	 0.884779450128524 
2083	 0.88539593623798 
2084	 0.886013542009696 
2085	 0.886587767217998 
2086	 0.887140954516304 
2087	 0.887627869116158 
2088	 0.888132106443919 
2089	 0.888647425483247 
2090	 0.889117313665955 
2091	 0.889578671603785 
2092	 0.889961800232643 
2093	 0.890274607789848 
2094	 0.890597112476985 
2095	 0.890872219417269 
2096	 0.89113284014113 
2097	 0.89138634957505 
2098	 0.891631083632988 
2099	 0.891823086830281 
2100	 0.892027602846543 
2101	 0.892248500809123 
2102	 0.892492093451247 
2103	 0.892705619583901 
2104	 0.892912026760069 
2105	 0.893113664012873 
2106	 0.89328632935656 
2107	 0.893497883311034 
2108	 0.893720922818631 
2109	 0.893957844827131 
2110	 0.894242723076865 
2111	 0.89448109541215 
2112	 0.894701743385916 
2113	 0.894928668064674 
2114	 0.895130757570584 
2115	 0.895340623125762 
2116	 0.895557235177563 
2117	 0.895794112543404 
2118	 0.895990583649931 
2119	 0.89615187580936 
2120	 0.896352866447003 
2121	 0.896586848223325 
2122	 0.896736966342348 
2123	 0.896871394897213 
2124	 0.89699796160488 
2125	 0.897090157271955 
2126	 0.897124590096291 
2127	 0.89716741025819 
2128	 0.89714519344543 
2129	 0.897036038300423 
2130	 0.896887512506163 
2131	 0.896738393870949 
2132	 0.8964972107752 
2133	 0.896160828207702 
2134	 0.895792768445202 
2135	 0.895337490585494 
2136	 0.894832475994815 
2137	 0.89424875536897 
2138	 0.893578111416614 
2139	 0.892867921280904 
2140	 0.892103217380053 
2141	 0.891262330310205 
2142	 0.890368280039456 
2143	 0.889389402617917 
2144	 0.888315679035577 
2145	 0.887212841074278 
2146	 0.886007080923215 
2147	 0.884824173986729 
2148	 0.883616808413349 
2149	 0.882374807687303 
2150	 0.881172975374633 
2151	 0.879853446176304 
2152	 0.878401173300967 
2153	 0.87701266861467 
2154	 0.875516076133324 
2155	 0.873958133417766 
2156	 0.872481133903888 
2157	 0.871036858287581 
2158	 0.869547724469932 
2159	 0.868091186033221 
2160	 0.866558639203997 
2161	 0.864963544542087 
2162	 0.863384385571921 
2163	 0.861732633688675 
2164	 0.860175868321958 
2165	 0.858626348753975 
2166	 0.857136577227462 
2167	 0.855741465393408 
2168	 0.854322129234358 
2169	 0.852874797718687 
2170	 0.851540156524265 
2171	 0.850169598419085 
2172	 0.848972881686855 
2173	 0.847963650508184 
2174	 0.846969172113854 
2175	 0.846022597504446 
2176	 0.845226261570123 
2177	 0.844431757329432 
2178	 0.843669210273383 
2179	 0.842973981236098 
2180	 0.842345909129762 
2181	 0.841769383818099 
2182	 0.841244303614507 
2183	 0.840763031549683 
2184	 0.840344305085766 
2185	 0.839980285494644 
2186	 0.83966591366138 
2187	 0.839393708023916 
2188	 0.839208913022092 
2189	 0.839021866639368 
2190	 0.838852654765277 
2191	 0.838726909035241 
2192	 0.838635705756624 
2193	 0.838568197577313 
2194	 0.838563408119841 
2195	 0.838548105362491 
2196	 0.838538198425839 
2197	 0.838572527729705 
2198	 0.838560401641281 
2199	 0.838526479351075 
2200	 0.838527653449539 
2201	 0.838521249484609 
2202	 0.838525303532751 
2203	 0.838558894493625 
2204	 0.838597415851337 
2205	 0.838624345559389 
2206	 0.838684132830697 
2207	 0.838783707300153 
2208	 0.83885267394739 
2209	 0.838912638106334 
2210	 0.838994370448985 
2211	 0.83907403621185 
2212	 0.839178069427844 
2213	 0.839336614877923 
2214	 0.839430045134048 
2215	 0.839488194981374 
2216	 0.839567299998319 
2217	 0.839616281491896 
2218	 0.839686485614878 
2219	 0.83980091152649 
2220	 0.839889878275572 
2221	 0.839986457699708 
2222	 0.840044260337332 
2223	 0.840061577589587 
2224	 0.840028211282133 
2225	 0.840012360517217 
2226	 0.839966402879307 
2227	 0.839893970380896 
2228	 0.839838304379788 
2229	 0.839711994720944 
2230	 0.839518962788641 
2231	 0.839313103731127 
2232	 0.8390994767146 
2233	 0.838817499935838 
2234	 0.838486104495657 
2235	 0.838101722243532 
2236	 0.837683822104736 
2237	 0.837176499625074 
2238	 0.836560653357786 
2239	 0.835968657733993 
2240	 0.83533695360113 
2241	 0.83465806783652 
2242	 0.834045603104336 
2243	 0.833245338337567 
2244	 0.832302433286826 
2245	 0.83132544994568 
2246	 0.830200818185092 
2247	 0.829078513136632 
2248	 0.827937499980217 
2249	 0.826732804723987 
2250	 0.825482775652955 
2251	 0.824203928179692 
2252	 0.822759500382638 
2253	 0.821341462807394 
2254	 0.819890990235734 
2255	 0.818441027849941 
2256	 0.817132576376404 
2257	 0.815807539976191 
2258	 0.814512543170315 
2259	 0.813206610668851 
2260	 0.812036499098191 
2261	 0.810893205888354 
2262	 0.809908435458082 
2263	 0.809043820792605 
2264	 0.80828881553889 
2265	 0.807702439201164 
2266	 0.807088142519594 
2267	 0.80656499875948 
2268	 0.806047322772194 
2269	 0.805524127070112 
2270	 0.805072868983771 
2271	 0.804721141042479 
2272	 0.804336411683474 
2273	 0.804009411371587 
2274	 0.803604341294907 
2275	 0.803175281009731 
2276	 0.802715939660126 
2277	 0.802150272738429 
2278	 0.801686428178761 
2279	 0.80121670704638 
2280	 0.800810579275808 
2281	 0.800510999601269 
2282	 0.800180404386918 
2283	 0.799841400567247 
2284	 0.799559308317561 
2285	 0.799291060965628 
2286	 0.799098266595035 
2287	 0.798937554385146 
2288	 0.798909596827606 
2289	 0.798996218560463 
2290	 0.799113365838792 
2291	 0.799280808016871 
2292	 0.799472918323331 
2293	 0.799758702773374 
2294	 0.800118798659357 
2295	 0.800613417854334 
2296	 0.801203220523908 
2297	 0.80174785876966 
2298	 0.802293757547431 
2299	 0.802915149230764 
2300	 0.803567013663168 
2301	 0.804232734205724 
2302	 0.804986740476557 
2303	 0.805648665135751 
2304	 0.806321363412383 
2305	 0.806914418632551 
2306	 0.807479380195566 
2307	 0.807925631305019 
2308	 0.808263201118272 
2309	 0.808560288528502 
2310	 0.808771658245087 
2311	 0.808947059261034 
2312	 0.809070507306685 
2313	 0.809150445481877 
2314	 0.809202701594088 
2315	 0.809148588184166 
2316	 0.809038421007508 
2317	 0.808811013139578 
2318	 0.808412014478235 
2319	 0.808042456667526 
2320	 0.807636394274287 
2321	 0.80716448350322 
2322	 0.806595485428483 
2323	 0.806091151579322 
2324	 0.805527369532944 
2325	 0.805028452457101 
2326	 0.804618210881001 
2327	 0.804209707222845 
2328	 0.803775150969092 
2329	 0.803407265656509 
2330	 0.803107962183222 
2331	 0.802803760394448 
2332	 0.802544869526282 
2333	 0.802309620130433 
2334	 0.802039447343417 
2335	 0.801843485219029 
2336	 0.801711180740679 
2337	 0.801591369591349 
2338	 0.801519225508704 
2339	 0.80138553606416 
2340	 0.801240746956376 
2341	 0.801180559857267 
2342	 0.801143898902873 
2343	 0.801169699751204 
2344	 0.801217917584214 
2345	 0.80124148471229 
2346	 0.801283855583981 
2347	 0.80142093343476 
2348	 0.801623439804093 
2349	 0.801823115032691 
2350	 0.802107099622955 
2351	 0.802406076475631 
2352	 0.80264011578215 
2353	 0.802884025087724 
2354	 0.803138122976246 
2355	 0.803367042884371 
2356	 0.803641853381172 
2357	 0.803849291649398 
2358	 0.803989635521578 
2359	 0.804308871340125 
2360	 0.804630066718993 
2361	 0.80491772654077 
2362	 0.805199419436369 
2363	 0.805384055239327 
2364	 0.805594288678946 
2365	 0.805863775665926 
2366	 0.806243110727013 
2367	 0.806563438247089 
2368	 0.80669218742303 
2369	 0.80676820827074 
2370	 0.806774686477885 
2371	 0.806808900271785 
2372	 0.806940844686055 
2373	 0.807089387526642 
2374	 0.807270893189869 
2375	 0.807361576307177 
2376	 0.807343683976124 
2377	 0.807308334695012 
2378	 0.807197361725941 
2379	 0.807040405830971 
2380	 0.806884584320672 
2381	 0.806753063356283 
2382	 0.806692897811429 
2383	 0.806746294681795 
2384	 0.806645656857853 
2385	 0.806500188377548 
2386	 0.806419878520781 
2387	 0.806275887813626 
2388	 0.806154483770793 
2389	 0.806162064008646 
2390	 0.806037421709527 
2391	 0.805790735208929 
2392	 0.805590779550593 
2393	 0.805318830627901 
2394	 0.805138965516462 
2395	 0.805021678144646 
2396	 0.804853013634938 
2397	 0.804829111560599 
2398	 0.804603711221031 
2399	 0.804147601158506 
2400	 0.803849390273846 
2401	 0.803563880038508 
2402	 0.803277074161019 
2403	 0.803005338713204 
2404	 0.802780617779951 
2405	 0.802469993492902 
2406	 0.802202792947086 
2407	 0.802013685015809 
2408	 0.801785926503408 
2409	 0.80138483102536 
2410	 0.801049234531262 
2411	 0.800827610839674 
2412	 0.800490172307262 
2413	 0.800242675812363 
2414	 0.799927396368575 
2415	 0.799455650108485 
2416	 0.799040850494504 
2417	 0.798466058088068 
2418	 0.797866444675521 
2419	 0.797296136757831 
2420	 0.796629027863237 
2421	 0.796237738223988 
2422	 0.796041957484992 
2423	 0.795780146905737 
2424	 0.795373314368638 
2425	 0.794780260586558 
2426	 0.79424202586895 
2427	 0.793685911715377 
2428	 0.793091475132739 
2429	 0.792596141736625 
2430	 0.791959341650793 
2431	 0.791142697010134 
2432	 0.790532957042172 
2433	 0.790002201114768 
2434	 0.789326352903891 
2435	 0.788781945451352 
2436	 0.788147556897538 
2437	 0.787426557864594 
2438	 0.786663863932881 
2439	 0.785586135465289 
2440	 0.784454220449185 
2441	 0.783206260417806 
2442	 0.78216675208638 
2443	 0.781567089103828 
2444	 0.780805719284405 
2445	 0.780139487013721 
2446	 0.779402973480612 
2447	 0.778268087375912 
2448	 0.777294327535566 
2449	 0.776251641939592 
2450	 0.774803020028911 
2451	 0.773495378915517 
2452	 0.772496084320671 
2453	 0.771370551397854 
2454	 0.770325726870165 
2455	 0.769404631749232 
2456	 0.768333185876486 
2457	 0.767359794110845 
2458	 0.76656178458987 
2459	 0.765794046020815 
2460	 0.764759043140248 
2461	 0.763743709900428 
2462	 0.762902743766346 
2463	 0.761926137501624 
2464	 0.761048159443717 
2465	 0.760162689811387 
2466	 0.759291381272381 
2467	 0.758469747152376 
2468	 0.757594442813992 
2469	 0.756818319788372 
2470	 0.75601773397023 
2471	 0.755195332110679 
2472	 0.754300430049587 
2473	 0.753413270432267 
2474	 0.752591233403495 
2475	 0.751554069332714 
2476	 0.750569980945015 
2477	 0.74974987764572 
2478	 0.748802802779153 
2479	 0.748033180329921 
2480	 0.747381309652944 
2481	 0.746671184961266 
2482	 0.746106948298836 
2483	 0.745393636789035 
2484	 0.744620052902933 
2485	 0.743596122806135 
2486	 0.742560009982714 
2487	 0.741513279243037 
2488	 0.740846114265469 
2489	 0.74065760313033 
2490	 0.740397509554353 
2491	 0.740150813977538 
2492	 0.739951067223032 
2493	 0.739714495119768 
2494	 0.738827816943526 
2495	 0.737596315965827 
2496	 0.736536005283855 
2497	 0.735451522284194 
2498	 0.734967667299122 
2499	 0.73508385633097 
2500	 0.735360163655565 
