Wavelength	ProbetaAcolman00034.asd
350	 0.296481668738249 
351	 0.27886464813285 
352	 0.267815414752942 
353	 0.26744742283498 
354	 0.257596466651854 
355	 0.246574874651304 
356	 0.237948277966855 
357	 0.233033586387136 
358	 0.229651154176471 
359	 0.226529860483817 
360	 0.220811388589201 
361	 0.211077826040272 
362	 0.209457316977242 
363	 0.208922914960746 
364	 0.206573531931396 
365	 0.205785273917473 
366	 0.204080800560015 
367	 0.202389526474986 
368	 0.20137719125591 
369	 0.198661639507092 
370	 0.198790274493111 
371	 0.200085867196874 
372	 0.198477128080294 
373	 0.197034750206592 
374	 0.196091616329169 
375	 0.195477010610208 
376	 0.194744972513206 
377	 0.195182772869994 
378	 0.194927968668073 
379	 0.192992240679515 
380	 0.193261891301679 
381	 0.194513408919086 
382	 0.195370719053409 
383	 0.194731920606449 
384	 0.193970059771923 
385	 0.19377844863407 
386	 0.194209085781043 
387	 0.194634884245838 
388	 0.193975167785862 
389	 0.193622738635649 
390	 0.194715424062607 
391	 0.195206709845333 
392	 0.195331012580169 
393	 0.195442074256068 
394	 0.1958708911344 
395	 0.196147884350566 
396	 0.196305547012413 
397	 0.196626704717271 
398	 0.19776287566604 
399	 0.198116148333098 
400	 0.198309087153013 
401	 0.199224715737721 
402	 0.20011199104854 
403	 0.200425772649674 
404	 0.200470693844332 
405	 0.201127422416154 
406	 0.202654838428412 
407	 0.203759149005147 
408	 0.204057530497237 
409	 0.205270644278343 
410	 0.206417606196529 
411	 0.20752559438523 
412	 0.20876691773453 
413	 0.209433667220006 
414	 0.210206976204762 
415	 0.211168496426542 
416	 0.211835423143969 
417	 0.212695132866357 
418	 0.213705192978029 
419	 0.214702076993577 
420	 0.215472286349106 
421	 0.216231308338027 
422	 0.217034402710074 
423	 0.217850891307158 
424	 0.218561020892446 
425	 0.21921109633859 
426	 0.219860903561468 
427	 0.220565956558253 
428	 0.220997369746989 
429	 0.221517197381028 
430	 0.222348943303491 
431	 0.222831365975161 
432	 0.223334454219083 
433	 0.223881915808836 
434	 0.224316661048989 
435	 0.224756394834952 
436	 0.225237142357741 
437	 0.225730765805286 
438	 0.226123490826963 
439	 0.226560131726891 
440	 0.226989725789698 
441	 0.22734433255531 
442	 0.227747493908244 
443	 0.228042873986318 
444	 0.228288448054705 
445	 0.228701162448257 
446	 0.229073614041868 
447	 0.229414452673037 
448	 0.229732453822416 
449	 0.229937817939052 
450	 0.230260511057276 
451	 0.230596219742517 
452	 0.230762026382162 
453	 0.23098387122056 
454	 0.23121695264457 
455	 0.231452439063701 
456	 0.231741847569838 
457	 0.232031851238883 
458	 0.232303842426055 
459	 0.232543595451189 
460	 0.23272348323241 
461	 0.232854833881368 
462	 0.232993244628273 
463	 0.233210511621745 
464	 0.233493325412472 
465	 0.233722198959884 
466	 0.233864969274806 
467	 0.23403824436675 
468	 0.234282687513356 
469	 0.234516184523441 
470	 0.234659835533683 
471	 0.234823094861099 
472	 0.234994446896213 
473	 0.235204098284114 
474	 0.235506976394079 
475	 0.235798702585208 
476	 0.236006323579841 
477	 0.236158804541002 
478	 0.236503778306361 
479	 0.236798721126695 
480	 0.237031215746519 
481	 0.237288047944477 
482	 0.237650227172491 
483	 0.238044144970325 
484	 0.238425660476852 
485	 0.238799438305707 
486	 0.239240081009683 
487	 0.239682430436246 
488	 0.240084050679383 
489	 0.240588421548807 
490	 0.241052125138653 
491	 0.241525570555688 
492	 0.242154835117319 
493	 0.242815769964371 
494	 0.243478913993646 
495	 0.244130870447931 
496	 0.244754722650131 
497	 0.245483795157477 
498	 0.24631269594504 
499	 0.247173168656045 
500	 0.247951956726582 
501	 0.248755347293696 
502	 0.249642207050954 
503	 0.250610795875593 
504	 0.251506849845819 
505	 0.252450013525142 
506	 0.253511073463753 
507	 0.25452275481051 
508	 0.255497042068066 
509	 0.256475825565053 
510	 0.257511144560684 
511	 0.258591345126337 
512	 0.259649420807217 
513	 0.26067685446978 
514	 0.261747837806619 
515	 0.262908199481416 
516	 0.264050771149818 
517	 0.265107066867837 
518	 0.266293224649564 
519	 0.267459719998053 
520	 0.268564947407098 
521	 0.269653851904529 
522	 0.270830310238021 
523	 0.272016811223614 
524	 0.273154082733238 
525	 0.274271674408628 
526	 0.275405444420484 
527	 0.276561418891796 
528	 0.277739100019477 
529	 0.278988428867831 
530	 0.280173109739449 
531	 0.281290374630634 
532	 0.282485958283807 
533	 0.283709284299095 
534	 0.284948655275561 
535	 0.286201634774306 
536	 0.287468981655514 
537	 0.288844423223735 
538	 0.290261599715075 
539	 0.291590647450105 
540	 0.293001687538463 
541	 0.29444605982317 
542	 0.29588733618238 
543	 0.297347968405038 
544	 0.298792424087533 
545	 0.300284503398923 
546	 0.301872066062576 
547	 0.303386059796865 
548	 0.304928313514408 
549	 0.30654834879642 
550	 0.30823297991207 
551	 0.30994604550325 
552	 0.311698347938788 
553	 0.313532750534727 
554	 0.315543403531731 
555	 0.317671108631615 
556	 0.31995983112854 
557	 0.322483654541032 
558	 0.325155641496025 
559	 0.328009357952647 
560	 0.331032902404559 
561	 0.334139781230761 
562	 0.337299965838125 
563	 0.340548499542989 
564	 0.34393473558461 
565	 0.34743943790215 
566	 0.351107057168925 
567	 0.354988622577073 
568	 0.359133525794395 
569	 0.363531481034573 
570	 0.368053471835962 
571	 0.372623564090286 
572	 0.377293439290546 
573	 0.38203787298874 
574	 0.386852604169969 
575	 0.391770624486871 
576	 0.396881530305081 
577	 0.402283936959277 
578	 0.407973662165916 
579	 0.413840275972102 
580	 0.420023019226208 
581	 0.426428864014788 
582	 0.432948900366369 
583	 0.439559047329624 
584	 0.446410171365454 
585	 0.453624193370583 
586	 0.461283025707401 
587	 0.469310192595122 
588	 0.477580862660928 
589	 0.485979178693136 
590	 0.494390695092488 
591	 0.502822016057493 
592	 0.5112885984612 
593	 0.519779279375714 
594	 0.528161712435241 
595	 0.536468467286063 
596	 0.54480312529005 
597	 0.553316387349051 
598	 0.561802291376579 
599	 0.570249755774197 
600	 0.578663043556963 
601	 0.587008405192177 
602	 0.595198892886156 
603	 0.603224215618449 
604	 0.611079044354731 
605	 0.618588900949017 
606	 0.625722338738054 
607	 0.632538172775312 
608	 0.639177589169448 
609	 0.645380147503964 
610	 0.651165893499046 
611	 0.656625554866426 
612	 0.661809700115389 
613	 0.666656420393361 
614	 0.671117273409317 
615	 0.675180660085081 
616	 0.67907809453676 
617	 0.682772533469601 
618	 0.686210979670024 
619	 0.689392100118596 
620	 0.692272470636344 
621	 0.694905205028991 
622	 0.697360293762694 
623	 0.699583619282023 
624	 0.701762947601296 
625	 0.703873165757495 
626	 0.705691581268878 
627	 0.707392348719953 
628	 0.708932241088929 
629	 0.710306875108613 
630	 0.711703853546509 
631	 0.712978876476908 
632	 0.714133323296501 
633	 0.715229925026133 
634	 0.716276462013561 
635	 0.717219166420416 
636	 0.718068041802326 
637	 0.718917441151661 
638	 0.719752857486872 
639	 0.720563171228872 
640	 0.721324723534827 
641	 0.721982696903419 
642	 0.722598313495181 
643	 0.723225469016719 
644	 0.723892530090459 
645	 0.724438089717075 
646	 0.724996624025134 
647	 0.725604410785237 
648	 0.726074034810891 
649	 0.726569355120939 
650	 0.727067757364105 
651	 0.727519076400663 
652	 0.728020937305787 
653	 0.72845604623455 
654	 0.72881324759973 
655	 0.72917501332257 
656	 0.729597076346343 
657	 0.729990730465418 
658	 0.730319023309309 
659	 0.730708940651734 
660	 0.731096427729074 
661	 0.731471242784797 
662	 0.731817547365701 
663	 0.731978826121293 
664	 0.732205981705255 
665	 0.732584771901641 
666	 0.733003996928073 
667	 0.733362873218521 
668	 0.733672065628758 
669	 0.733966573104253 
670	 0.734275730961146 
671	 0.734518690238904 
672	 0.734783003300092 
673	 0.735188639882178 
674	 0.735511676422969 
675	 0.735801209247462 
676	 0.736067262715977 
677	 0.736245919359281 
678	 0.736493371978155 
679	 0.736749301511484 
680	 0.736948228456271 
681	 0.737161219623013 
682	 0.737499708402913 
683	 0.737877504501013 
684	 0.738131585900746 
685	 0.738475387946728 
686	 0.7387686427084 
687	 0.738963514898545 
688	 0.739190746253656 
689	 0.739470684709416 
690	 0.739758698322386 
691	 0.740010000858309 
692	 0.740255432355592 
693	 0.74050869154023 
694	 0.740753220587908 
695	 0.740961776421622 
696	 0.741199158365419 
697	 0.741448204186778 
698	 0.741702800908119 
699	 0.74199277661225 
700	 0.742238658514051 
701	 0.742521150854333 
702	 0.742885434121321 
703	 0.743062969673566 
704	 0.743213022082997 
705	 0.74339645893073 
706	 0.743599875858406 
707	 0.743859949970631 
708	 0.744121470774323 
709	 0.744372441320746 
710	 0.74469666345654 
711	 0.744975144968452 
712	 0.745202095514367 
713	 0.745408632313753 
714	 0.745609877932143 
715	 0.745862226001169 
716	 0.746127224791215 
717	 0.746315594241934 
718	 0.746582053626025 
719	 0.746866797103203 
720	 0.747095938468119 
721	 0.747220570134147 
722	 0.747358203737014 
723	 0.747519739011794 
724	 0.747699620337213 
725	 0.74797474785725 
726	 0.748264939925955 
727	 0.748538718882378 
728	 0.748802798346568 
729	 0.749041066286124 
730	 0.749244795422223 
731	 0.749432839199801 
732	 0.749668388393314 
733	 0.749849875235537 
734	 0.749953201549388 
735	 0.750022641369169 
736	 0.750256525594727 
737	 0.750472633243852 
738	 0.750634312283426 
739	 0.750806036476351 
740	 0.750962673930877 
741	 0.751194235246087 
742	 0.751506955813213 
743	 0.751767786860213 
744	 0.751999272408807 
745	 0.752162927702133 
746	 0.752243229987652 
747	 0.752316278771293 
748	 0.752537268477068 
749	 0.752818903731744 
750	 0.752964946563768 
751	 0.753159224366511 
752	 0.753397149521667 
753	 0.753586836289938 
754	 0.753557835057707 
755	 0.753624945248493 
756	 0.753834436486429 
757	 0.754121362805395 
758	 0.754329534744566 
759	 0.754421452497013 
760	 0.754485961086009 
761	 0.754654525392036 
762	 0.754868272888514 
763	 0.755133225226841 
764	 0.755354064012043 
765	 0.755347902164062 
766	 0.755411677678772 
767	 0.755580766027926 
768	 0.755800986269536 
769	 0.755951145418724 
770	 0.756022972361061 
771	 0.75612688756477 
772	 0.756368361992108 
773	 0.756579248781371 
774	 0.756815100267441 
775	 0.757010187902726 
776	 0.757024594014691 
777	 0.757121836187266 
778	 0.757212401421405 
779	 0.757261734618014 
780	 0.757415895080174 
781	 0.75764996114179 
782	 0.757832012904043 
783	 0.757877393616436 
784	 0.757980407587427 
785	 0.758063011013357 
786	 0.758138337558424 
787	 0.758257481228712 
788	 0.758332055559972 
789	 0.758454935638053 
790	 0.758653421752895 
791	 0.758857086562953 
792	 0.759024576654024 
793	 0.759171509516985 
794	 0.759303856061285 
795	 0.759360594782068 
796	 0.759439817401919 
797	 0.759527000104507 
798	 0.759592738318927 
799	 0.759761608604808 
800	 0.759894403955371 
801	 0.759994956961015 
802	 0.76016479199887 
803	 0.760209093120419 
804	 0.760246722772754 
805	 0.760361178923362 
806	 0.760517460594324 
807	 0.76063005503017 
808	 0.76069742901812 
809	 0.760748678428988 
810	 0.760820655675878 
811	 0.760911768553237 
812	 0.761000176003414 
813	 0.761068423054328 
814	 0.761189087886867 
815	 0.761271966219432 
816	 0.761322126299314 
817	 0.761429742846544 
818	 0.761533366639876 
819	 0.761638504047233 
820	 0.761749009416625 
821	 0.761850717580342 
822	 0.761943565785312 
823	 0.762096903939536 
824	 0.762330206875364 
825	 0.762461510867033 
826	 0.762557100570464 
827	 0.76263295716956 
828	 0.762687478823212 
829	 0.762740663871691 
830	 0.762808317211205 
831	 0.762903157671105 
832	 0.763026090607621 
833	 0.763080723030743 
834	 0.763133441138454 
835	 0.763236750186983 
836	 0.763381467893273 
837	 0.763465576518012 
838	 0.763503605417837 
839	 0.763524887701465 
840	 0.763497029047498 
841	 0.763496290432096 
842	 0.76355399097071 
843	 0.763668552887679 
844	 0.763801990999113 
845	 0.763905075181966 
846	 0.763968206238517 
847	 0.764013558346472 
848	 0.764035613898023 
849	 0.764122080358305 
850	 0.764265680687248 
851	 0.764334557217688 
852	 0.764378772289764 
853	 0.764414394117971 
854	 0.764458660646367 
855	 0.76454215346857 
856	 0.764633200349425 
857	 0.764682012655519 
858	 0.764656301093523 
859	 0.764584187660765 
860	 0.764639785887218 
861	 0.764812005360111 
862	 0.764973965074649 
863	 0.765000468173349 
864	 0.765029829418671 
865	 0.765087574269947 
866	 0.765086402672051 
867	 0.765015467465605 
868	 0.764976381545284 
869	 0.765030355422636 
870	 0.76515635176945 
871	 0.765300736943092 
872	 0.765405737194528 
873	 0.765456406794737 
874	 0.765528560076662 
875	 0.765533917741818 
876	 0.765519998669482 
877	 0.765560812843025 
878	 0.765670064467525 
879	 0.765706854028844 
880	 0.765697211109816 
881	 0.765744445788592 
882	 0.765859344413964 
883	 0.765970182072038 
884	 0.76605869124276 
885	 0.766139298476484 
886	 0.766076137283686 
887	 0.766054815726489 
888	 0.766091412214015 
889	 0.765986976999711 
890	 0.766019809843273 
891	 0.766070342757648 
892	 0.76602382980369 
893	 0.765901566887334 
894	 0.765899247250411 
895	 0.765984545868987 
896	 0.766065044135677 
897	 0.766065716447806 
898	 0.766111096592923 
899	 0.766197850366072 
900	 0.766278126118039 
901	 0.766333195330088 
902	 0.766311279987682 
903	 0.766272997621116 
904	 0.766306496462524 
905	 0.766328125655003 
906	 0.766251553117427 
907	 0.766190970746968 
908	 0.766331652599769 
909	 0.766246720245716 
910	 0.766211507510996 
911	 0.766294216563922 
912	 0.766289904455076 
913	 0.766204902649589 
914	 0.766177539947462 
915	 0.766246913496479 
916	 0.766290767795414 
917	 0.766400509986101 
918	 0.766477508660575 
919	 0.766477614202774 
920	 0.766523163833267 
921	 0.766562605363992 
922	 0.766607333534859 
923	 0.76664660763575 
924	 0.766571434888347 
925	 0.766571197293579 
926	 0.766583241406367 
927	 0.766548479153552 
928	 0.766739278338039 
929	 0.766724424608038 
930	 0.766642534483655 
931	 0.766770780932872 
932	 0.766821042832889 
933	 0.766985449384236 
934	 0.76722990063711 
935	 0.767401248137594 
936	 0.767475068301278 
937	 0.767539855571877 
938	 0.767599279738526 
939	 0.76759926165361 
940	 0.767556180427758 
941	 0.767575540762987 
942	 0.76766643985915 
943	 0.767748594842599 
944	 0.767801077922484 
945	 0.767903027485547 
946	 0.768037926882246 
947	 0.768083816003757 
948	 0.768045662470559 
949	 0.767927722501377 
950	 0.767832889727413 
951	 0.767948130034303 
952	 0.767983121419805 
953	 0.767944605880444 
954	 0.767928913207303 
955	 0.768057052956059 
956	 0.767917587701637 
957	 0.767742175784565 
958	 0.767709971884318 
959	 0.767666307771677 
960	 0.767559685370746 
961	 0.767284354294254 
962	 0.766948150976472 
963	 0.767060395431804 
964	 0.76695959244357 
965	 0.76693448695481 
966	 0.767194816766023 
967	 0.767205551328986 
968	 0.767355467663269 
969	 0.767585060053034 
970	 0.767743084403647 
971	 0.767783948838734 
972	 0.767781381747072 
973	 0.76786617226484 
974	 0.768073423135094 
975	 0.768137612094703 
976	 0.768306678261269 
977	 0.768332466460521 
978	 0.768072776231742 
979	 0.768182432826388 
980	 0.768229798428093 
981	 0.768248810755807 
982	 0.768350387522842 
983	 0.768374186530139 
984	 0.768440935893217 
985	 0.76850187242406 
986	 0.768483346952708 
987	 0.768431772590541 
988	 0.76837800181154 
989	 0.768493028625353 
990	 0.768779827237224 
991	 0.768544724147133 
992	 0.768459478378277 
993	 0.768477651254664 
994	 0.768449459583024 
995	 0.768873769100836 
996	 0.768924338257425 
997	 0.768837494815988 
998	 0.769024045734561 
999	 0.769063911728694 
1000	 0.769069589801878 
1001	 0.797128886899987 
1002	 0.797004524366923 
1003	 0.79697776298989 
1004	 0.796991767643104 
1005	 0.797041756303749 
1006	 0.797036824304645 
1007	 0.797066031350783 
1008	 0.797060263151984 
1009	 0.796964418801591 
1010	 0.796991928567113 
1011	 0.797128002546604 
1012	 0.797174131058302 
1013	 0.79723702225813 
1014	 0.797250376861114 
1015	 0.797215609363433 
1016	 0.7971579907429 
1017	 0.797052793669516 
1018	 0.796927989697277 
1019	 0.796902447553406 
1020	 0.796932168084629 
1021	 0.796887747565049 
1022	 0.796865988868924 
1023	 0.796873789455161 
1024	 0.796785973180039 
1025	 0.796805404089377 
1026	 0.796965945164438 
1027	 0.797062949574745 
1028	 0.79717478661797 
1029	 0.797235952246985 
1030	 0.797206695853916 
1031	 0.797307419089642 
1032	 0.797306507862325 
1033	 0.797276907457122 
1034	 0.797436476133775 
1035	 0.797443305714082 
1036	 0.797502747522233 
1037	 0.797642102624388 
1038	 0.797686682715318 
1039	 0.797631948441489 
1040	 0.797695345248962 
1041	 0.797703794271117 
1042	 0.797826071500904 
1043	 0.79807483096984 
1044	 0.798381104836801 
1045	 0.798472919595957 
1046	 0.798495617863549 
1047	 0.798520851355716 
1048	 0.798466484054463 
1049	 0.798518536347623 
1050	 0.798669912875122 
1051	 0.798733842117331 
1052	 0.798682261066099 
1053	 0.798698175223304 
1054	 0.798735002520772 
1055	 0.798788089338802 
1056	 0.798874462278834 
1057	 0.798941121738788 
1058	 0.799029290138851 
1059	 0.799027955214311 
1060	 0.799046350110363 
1061	 0.799062029570973 
1062	 0.799120005093093 
1063	 0.799189669622651 
1064	 0.799271980623361 
1065	 0.799442794007939 
1066	 0.799478187014962 
1067	 0.79944798984185 
1068	 0.799478388215105 
1069	 0.799405044858184 
1070	 0.799322640466441 
1071	 0.799240453167532 
1072	 0.799190632404581 
1073	 0.799039346183867 
1074	 0.798919355865777 
1075	 0.798862180270462 
1076	 0.798854133803867 
1077	 0.7988702831202 
1078	 0.798895695649708 
1079	 0.798968775598863 
1080	 0.799044949650822 
1081	 0.799137842349809 
1082	 0.799214895481386 
1083	 0.799261209256203 
1084	 0.799209665723679 
1085	 0.799116000787013 
1086	 0.799094598089154 
1087	 0.79909437058678 
1088	 0.799069073329912 
1089	 0.799076988477251 
1090	 0.799106618955893 
1091	 0.799060598092933 
1092	 0.799028788235971 
1093	 0.799057842148913 
1094	 0.79903877292304 
1095	 0.798982253587242 
1096	 0.79901758784072 
1097	 0.799043095302641 
1098	 0.799080692282621 
1099	 0.799126606495164 
1100	 0.79905992811657 
1101	 0.799013503395645 
1102	 0.798998840401803 
1103	 0.798996631663776 
1104	 0.799026861320111 
1105	 0.799081634810041 
1106	 0.799114943251876 
1107	 0.799136160215679 
1108	 0.799145315557764 
1109	 0.799156382233632 
1110	 0.799122320010614 
1111	 0.799107016903516 
1112	 0.799106314651811 
1113	 0.799138370922803 
1114	 0.799191921735735 
1115	 0.799171331058455 
1116	 0.799178165193903 
1117	 0.799209234785279 
1118	 0.799214605949403 
1119	 0.799227285612221 
1120	 0.799239167572362 
1121	 0.799260052864944 
1122	 0.799204625728976 
1123	 0.799149137323298 
1124	 0.7991123797 
1125	 0.798987730681782 
1126	 0.798933363564865 
1127	 0.798875375461065 
1128	 0.798742684782629 
1129	 0.798734611009501 
1130	 0.798673621419733 
1131	 0.798558533154916 
1132	 0.798505263595491 
1133	 0.798338490837346 
1134	 0.798119709330517 
1135	 0.797953121279196 
1136	 0.797798706200392 
1137	 0.797653782630189 
1138	 0.797564578812489 
1139	 0.797394509704889 
1140	 0.797182999298551 
1141	 0.796982980745896 
1142	 0.796760135484805 
1143	 0.79655961357495 
1144	 0.79641160297408 
1145	 0.796175689609899 
1146	 0.795878731975572 
1147	 0.795609506402993 
1148	 0.795373395899328 
1149	 0.795213126300689 
1150	 0.795036184238776 
1151	 0.794819356456212 
1152	 0.794594728466106 
1153	 0.794336125608153 
1154	 0.794040596837483 
1155	 0.793720577019584 
1156	 0.793422994662252 
1157	 0.793093453656771 
1158	 0.792747860693151 
1159	 0.792406552987538 
1160	 0.792080858450279 
1161	 0.791686863228372 
1162	 0.791368151535116 
1163	 0.791101741265002 
1164	 0.79080370444508 
1165	 0.790515565085172 
1166	 0.790216572553438 
1167	 0.789921258932923 
1168	 0.789622288593179 
1169	 0.78930751626974 
1170	 0.788984897779876 
1171	 0.788669859850471 
1172	 0.788318330180343 
1173	 0.788032186232013 
1174	 0.787790745594429 
1175	 0.787527502161682 
1176	 0.787287808411754 
1177	 0.787037911088883 
1178	 0.78673747307315 
1179	 0.786544135249071 
1180	 0.786338059321943 
1181	 0.786080950324736 
1182	 0.785889327870679 
1183	 0.785616733353311 
1184	 0.785397646982668 
1185	 0.785243698605768 
1186	 0.785030986437545 
1187	 0.784779231887707 
1188	 0.784639704190221 
1189	 0.784507827815806 
1190	 0.78440297058622 
1191	 0.784432019360958 
1192	 0.784356735261045 
1193	 0.784187871114901 
1194	 0.784097519127221 
1195	 0.784014764533109 
1196	 0.783956961570631 
1197	 0.783912108633243 
1198	 0.783952012180916 
1199	 0.783974622363081 
1200	 0.783993872078964 
1201	 0.784043391175628 
1202	 0.784104299077754 
1203	 0.78417814768456 
1204	 0.784231157264527 
1205	 0.784269140695129 
1206	 0.784277416742121 
1207	 0.784322154564088 
1208	 0.784360686998585 
1209	 0.78441814221167 
1210	 0.784500435284222 
1211	 0.784594467200683 
1212	 0.784680185464099 
1213	 0.784809391333806 
1214	 0.784970152194406 
1215	 0.785149693438291 
1216	 0.785330518369434 
1217	 0.78557061497245 
1218	 0.78585289086417 
1219	 0.786173331220999 
1220	 0.786516192451594 
1221	 0.78686785619236 
1222	 0.787211878314313 
1223	 0.787553271511047 
1224	 0.787892965464334 
1225	 0.788248863911646 
1226	 0.788571768552374 
1227	 0.788857924399434 
1228	 0.789184125249747 
1229	 0.789545075484279 
1230	 0.789849047506897 
1231	 0.79016996254286 
1232	 0.790433163620171 
1233	 0.790591625704451 
1234	 0.79081477544624 
1235	 0.791070937012082 
1236	 0.791278555381655 
1237	 0.791468807501729 
1238	 0.791677146424134 
1239	 0.79186861617978 
1240	 0.792062501849057 
1241	 0.792233097824637 
1242	 0.792382404462489 
1243	 0.792481342715957 
1244	 0.792470047028968 
1245	 0.792570840412963 
1246	 0.792693489423366 
1247	 0.792825401876166 
1248	 0.793021398096051 
1249	 0.793153974022599 
1250	 0.793296956494127 
1251	 0.793363517620025 
1252	 0.79335129694612 
1253	 0.793378785973658 
1254	 0.793350531568152 
1255	 0.793374882864019 
1256	 0.793476484229605 
1257	 0.793514590160252 
1258	 0.793520892502525 
1259	 0.793542816168563 
1260	 0.793557843784704 
1261	 0.793553764294898 
1262	 0.79356994123371 
1263	 0.793551842574772 
1264	 0.793514249228167 
1265	 0.793402370828887 
1266	 0.793405291529934 
1267	 0.793464538188048 
1268	 0.793470781934951 
1269	 0.793519722963337 
1270	 0.793520881243116 
1271	 0.793437805549739 
1272	 0.79342457471274 
1273	 0.793478696126727 
1274	 0.793460199681804 
1275	 0.793403651250901 
1276	 0.793377986545681 
1277	 0.793328263332227 
1278	 0.793290320226367 
1279	 0.793271800992142 
1280	 0.793268619319812 
1281	 0.793277880053584 
1282	 0.793267596040329 
1283	 0.793272716778995 
1284	 0.793275820176193 
1285	 0.793269822604264 
1286	 0.793233021035655 
1287	 0.793215305534692 
1288	 0.793222749405062 
1289	 0.793189570521249 
1290	 0.793142176991561 
1291	 0.793072856108118 
1292	 0.792990632665927 
1293	 0.792879951712602 
1294	 0.792729820773443 
1295	 0.792596852325037 
1296	 0.79241970462851 
1297	 0.792309021389983 
1298	 0.792257846619151 
1299	 0.792159651313282 
1300	 0.792071543259771 
1301	 0.791978566247997 
1302	 0.791874551680922 
1303	 0.791742949039402 
1304	 0.791603493082228 
1305	 0.791464600213522 
1306	 0.791280653455952 
1307	 0.791118391485734 
1308	 0.790988472377356 
1309	 0.790834790669843 
1310	 0.790712176119628 
1311	 0.790593710577457 
1312	 0.790486795720889 
1313	 0.790400829161076 
1314	 0.790313410356651 
1315	 0.790233291580774 
1316	 0.790141732797557 
1317	 0.790061300537608 
1318	 0.789963581495932 
1319	 0.789850510147274 
1320	 0.789736616951494 
1321	 0.789617306444962 
1322	 0.789497229353018 
1323	 0.789355854796045 
1324	 0.789243456169202 
1325	 0.789122979748124 
1326	 0.789045030863925 
1327	 0.789036625010716 
1328	 0.788974934291913 
1329	 0.78894861484128 
1330	 0.788856349539164 
1331	 0.78868904451533 
1332	 0.788529300477964 
1333	 0.788324385254848 
1334	 0.788132671284856 
1335	 0.787986266442949 
1336	 0.787864787496843 
1337	 0.787723908368073 
1338	 0.78762461113205 
1339	 0.787464196876988 
1340	 0.787279971692519 
1341	 0.787060963387136 
1342	 0.786799998999571 
1343	 0.786560282442623 
1344	 0.78627716069318 
1345	 0.78604516442386 
1346	 0.785873355703159 
1347	 0.785636760438515 
1348	 0.785393975546004 
1349	 0.785128768031777 
1350	 0.784799999836751 
1351	 0.784513923636654 
1352	 0.784213450025407 
1353	 0.783961680853492 
1354	 0.783794376418186 
1355	 0.783547222292289 
1356	 0.783301957588295 
1357	 0.783025917343185 
1358	 0.78267269117857 
1359	 0.782331868090764 
1360	 0.782001643019106 
1361	 0.781646750045584 
1362	 0.781237221434486 
1363	 0.780902644238795 
1364	 0.780587051275761 
1365	 0.78030056579791 
1366	 0.779996684953147 
1367	 0.77973074569924 
1368	 0.779432411089093 
1369	 0.779126098733162 
1370	 0.778781520356035 
1371	 0.778455815540444 
1372	 0.778042462070928 
1373	 0.777560784702411 
1374	 0.777061209683816 
1375	 0.776491766635814 
1376	 0.775947590071997 
1377	 0.775357908355155 
1378	 0.774817773351762 
1379	 0.774321090537384 
1380	 0.773776272893099 
1381	 0.77324346871145 
1382	 0.772668895002619 
1383	 0.772054219902048 
1384	 0.771412283468545 
1385	 0.770800372632081 
1386	 0.770080688015228 
1387	 0.769278368773456 
1388	 0.768470760775583 
1389	 0.767586259676122 
1390	 0.766708515074065 
1391	 0.765843755983823 
1392	 0.764948158568422 
1393	 0.764034472399942 
1394	 0.763079941664271 
1395	 0.762098219777379 
1396	 0.761085243001013 
1397	 0.760053558053638 
1398	 0.759021721057254 
1399	 0.75788826586918 
1400	 0.756714442549482 
1401	 0.755471046359561 
1402	 0.754187939442252 
1403	 0.752752288254497 
1404	 0.751317242712983 
1405	 0.749615962667833 
1406	 0.747768450508721 
1407	 0.745698747130935 
1408	 0.743264875270924 
1409	 0.741001478919751 
1410	 0.738387269899581 
1411	 0.736303298483996 
1412	 0.734254166810714 
1413	 0.73279701385844 
1414	 0.731655523722762 
1415	 0.731023202928495 
1416	 0.731038702110887 
1417	 0.73115070675898 
1418	 0.731859914288455 
1419	 0.732371114710718 
1420	 0.733122287194701 
1421	 0.733592063741097 
1422	 0.733992128821106 
1423	 0.734189554980986 
1424	 0.734175179351072 
1425	 0.734004265006523 
1426	 0.733750538418238 
1427	 0.733396267113325 
1428	 0.733019042006631 
1429	 0.732636987002701 
1430	 0.732292432628817 
1431	 0.731932507564289 
1432	 0.731630258335157 
1433	 0.731389868843596 
1434	 0.731097605495242 
1435	 0.73080955445222 
1436	 0.730514055310387 
1437	 0.730178407004836 
1438	 0.729899342538645 
1439	 0.729659819932482 
1440	 0.729392890768604 
1441	 0.729138068010259 
1442	 0.728878806909734 
1443	 0.728601126108286 
1444	 0.728336829608135 
1445	 0.72807112071765 
1446	 0.727832436628617 
1447	 0.72761647808374 
1448	 0.727383479108064 
1449	 0.72714625520503 
1450	 0.726943132561889 
1451	 0.726753265264048 
1452	 0.726552152321996 
1453	 0.726370377322375 
1454	 0.726199569285928 
1455	 0.726004624601105 
1456	 0.725835466845309 
1457	 0.725705246306623 
1458	 0.725574518570303 
1459	 0.725437748466899 
1460	 0.725324517781548 
1461	 0.725259116023019 
1462	 0.725159011660047 
1463	 0.725022911277498 
1464	 0.724927428798342 
1465	 0.724843492653203 
1466	 0.72475873710734 
1467	 0.72467914036297 
1468	 0.724622138603849 
1469	 0.724531958244863 
1470	 0.724417390803192 
1471	 0.724323018516975 
1472	 0.724244206972246 
1473	 0.724147323322325 
1474	 0.724035819343905 
1475	 0.723948349579178 
1476	 0.723859978921285 
1477	 0.723793559725455 
1478	 0.723760930834214 
1479	 0.723688253003474 
1480	 0.723618208008953 
1481	 0.723521278169309 
1482	 0.723387172123742 
1483	 0.723276551991613 
1484	 0.723163047751276 
1485	 0.723052516794399 
1486	 0.722958279027323 
1487	 0.72283945187402 
1488	 0.722727946528522 
1489	 0.722566076657761 
1490	 0.722354238989088 
1491	 0.722168628128693 
1492	 0.721942561193503 
1493	 0.72176495765889 
1494	 0.721612829555639 
1495	 0.7214829675543 
1496	 0.721357426449007 
1497	 0.721287776613969 
1498	 0.721264129984238 
1499	 0.721257405186167 
1500	 0.721303042984258 
1501	 0.721338405033105 
1502	 0.721372459825346 
1503	 0.72144246079603 
1504	 0.721510702820518 
1505	 0.721636709977471 
1506	 0.72180262837243 
1507	 0.7220089829057 
1508	 0.722293196119496 
1509	 0.722557124508314 
1510	 0.722890037280804 
1511	 0.723145229483212 
1512	 0.723344960253324 
1513	 0.723548897050301 
1514	 0.723706332300762 
1515	 0.723873889331543 
1516	 0.724043874157933 
1517	 0.72422030307795 
1518	 0.724399614379925 
1519	 0.724568701390824 
1520	 0.724739818078514 
1521	 0.724904761099648 
1522	 0.725070790473784 
1523	 0.725252789076552 
1524	 0.725479781563699 
1525	 0.725747742875154 
1526	 0.726009591277868 
1527	 0.72631513427233 
1528	 0.726554212622537 
1529	 0.726763334406694 
1530	 0.726999360847366 
1531	 0.727201178171629 
1532	 0.727469981941298 
1533	 0.727781462286153 
1534	 0.728094548817789 
1535	 0.728428293912221 
1536	 0.728774560028405 
1537	 0.72915211498645 
1538	 0.729494892123737 
1539	 0.729851791747842 
1540	 0.730166958136433 
1541	 0.730420806679502 
1542	 0.730748542855351 
1543	 0.731108292442914 
1544	 0.73142438836492 
1545	 0.731763813172523 
1546	 0.732071880768658 
1547	 0.732343036377601 
1548	 0.732594429424694 
1549	 0.732871841302097 
1550	 0.733055382116033 
1551	 0.733157662638782 
1552	 0.733263698868718 
1553	 0.733320422636443 
1554	 0.733384488712502 
1555	 0.733430127049704 
1556	 0.733483580674646 
1557	 0.733532235041185 
1558	 0.733575292808192 
1559	 0.73362518398655 
1560	 0.73365630244499 
1561	 0.733654072018837 
1562	 0.733688163700971 
1563	 0.733725503370912 
1564	 0.733777830090844 
1565	 0.73384143201658 
1566	 0.733936253542955 
1567	 0.734039235107802 
1568	 0.734177046216692 
1569	 0.734370905726599 
1570	 0.734546408074618 
1571	 0.734727177842471 
1572	 0.73492273741809 
1573	 0.735116292390759 
1574	 0.735334621997694 
1575	 0.735615346179603 
1576	 0.735826126005114 
1577	 0.736014785681065 
1578	 0.736198759581716 
1579	 0.736305041444481 
1580	 0.736486332176861 
1581	 0.736740600512777 
1582	 0.736933903818381 
1583	 0.737136018265371 
1584	 0.737313372474675 
1585	 0.737463278446338 
1586	 0.737575461374017 
1587	 0.737670008487666 
1588	 0.737741482483623 
1589	 0.737736166040531 
1590	 0.737774998003416 
1591	 0.737800435982393 
1592	 0.737876947915909 
1593	 0.737982004571147 
1594	 0.738110365350312 
1595	 0.738294098323791 
1596	 0.738467657943089 
1597	 0.738650761028355 
1598	 0.738840748327438 
1599	 0.739042900685853 
1600	 0.739242789658263 
1601	 0.73945494759383 
1602	 0.739657802980872 
1603	 0.739886577474942 
1604	 0.740054694364212 
1605	 0.740168798535078 
1606	 0.740306417909766 
1607	 0.740400996001214 
1608	 0.740525498512316 
1609	 0.740719553751764 
1610	 0.740842914126565 
1611	 0.74091375479508 
1612	 0.741011147768521 
1613	 0.741047867305406 
1614	 0.741162136313601 
1615	 0.741354717581668 
1616	 0.741516192904297 
1617	 0.741710966209365 
1618	 0.74188070698592 
1619	 0.742058965929626 
1620	 0.742182614028465 
1621	 0.742259879322763 
1622	 0.742342491787949 
1623	 0.742350451184762 
1624	 0.742414864190835 
1625	 0.742520083887924 
1626	 0.742626434696342 
1627	 0.742792912260412 
1628	 0.742895182419171 
1629	 0.742964439394751 
1630	 0.7430262854184 
1631	 0.743044772606052 
1632	 0.743064821132353 
1633	 0.743062595268298 
1634	 0.743101032355853 
1635	 0.743167382759936 
1636	 0.743202288164918 
1637	 0.743260470259812 
1638	 0.743293526395318 
1639	 0.743265465690963 
1640	 0.743274431369081 
1641	 0.743306149903273 
1642	 0.743323039686542 
1643	 0.74337496264854 
1644	 0.743376208650491 
1645	 0.743343109405337 
1646	 0.7433029901712 
1647	 0.7432187302891 
1648	 0.743135640554167 
1649	 0.743085633706119 
1650	 0.742965600876228 
1651	 0.742784791154398 
1652	 0.742623283421718 
1653	 0.742388764751335 
1654	 0.742225590427883 
1655	 0.742141174832115 
1656	 0.742002045689694 
1657	 0.741907510072872 
1658	 0.74172012218117 
1659	 0.741462352765649 
1660	 0.74119019769551 
1661	 0.740879740118054 
1662	 0.740506658337357 
1663	 0.740060658166139 
1664	 0.739634371428466 
1665	 0.739184867815056 
1666	 0.738706276693574 
1667	 0.738249230262196 
1668	 0.7377301821683 
1669	 0.737166174352162 
1670	 0.736526530549585 
1671	 0.735840439251421 
1672	 0.735083308737027 
1673	 0.734256501707338 
1674	 0.733360012828583 
1675	 0.732383036747191 
1676	 0.731400008028391 
1677	 0.730353381510982 
1678	 0.729273295998265 
1679	 0.728138957272228 
1680	 0.727035458773875 
1681	 0.725919464464271 
1682	 0.724770278705768 
1683	 0.723623587820214 
1684	 0.722488867942088 
1685	 0.721279718433155 
1686	 0.720144395002962 
1687	 0.719078655232311 
1688	 0.71798884546431 
1689	 0.716886288449846 
1690	 0.715848569392082 
1691	 0.714824527086029 
1692	 0.713875914641578 
1693	 0.713009047583612 
1694	 0.712114814612782 
1695	 0.71128570892339 
1696	 0.71037336693813 
1697	 0.709444141398913 
1698	 0.70845269341249 
1699	 0.707407006945516 
1700	 0.706367700102887 
1701	 0.705271442886477 
1702	 0.704242490368927 
1703	 0.703208647173939 
1704	 0.702194145300835 
1705	 0.701224792369075 
1706	 0.700123082463157 
1707	 0.699159776792215 
1708	 0.698165062247195 
1709	 0.697184860564197 
1710	 0.696249406360981 
1711	 0.695259642405781 
1712	 0.694330529527685 
1713	 0.693361345554702 
1714	 0.692406413566594 
1715	 0.691523980917523 
1716	 0.690558464161222 
1717	 0.689594296322316 
1718	 0.688613084359277 
1719	 0.687534647471023 
1720	 0.686477839627119 
1721	 0.685475893946337 
1722	 0.684471564291563 
1723	 0.683601167696438 
1724	 0.682802421442868 
1725	 0.682092181232826 
1726	 0.681585344753863 
1727	 0.681239042856007 
1728	 0.681078765470219 
1729	 0.681029139283571 
1730	 0.681231671814596 
1731	 0.681614724624146 
1732	 0.682061053436434 
1733	 0.682675534944687 
1734	 0.683412290097828 
1735	 0.684228318807039 
1736	 0.685165346421169 
1737	 0.68622108691869 
1738	 0.687227858954551 
1739	 0.68808917051397 
1740	 0.68891613874608 
1741	 0.689605058178991 
1742	 0.690133925544768 
1743	 0.690668092075887 
1744	 0.691123916723571 
1745	 0.691540120688426 
1746	 0.691964568657475 
1747	 0.69223471820725 
1748	 0.692396304979172 
1749	 0.692520053520857 
1750	 0.692546959353086 
1751	 0.692485377039797 
1752	 0.692324019925242 
1753	 0.692194216108629 
1754	 0.691970558628956 
1755	 0.691794599352693 
1756	 0.691642249094492 
1757	 0.691471077939636 
1758	 0.691366233482164 
1759	 0.691298003648738 
1760	 0.691265227162669 
1761	 0.691280756463777 
1762	 0.69131363572316 
1763	 0.69143857248661 
1764	 0.691680440305873 
1765	 0.691983000544856 
1766	 0.692312392122676 
1767	 0.692738892335731 
1768	 0.693295428162635 
1769	 0.693891892635672 
1770	 0.694597699766468 
1771	 0.695367872343188 
1772	 0.696026294841165 
1773	 0.696696583413535 
1774	 0.697366086436508 
1775	 0.697963760595459 
1776	 0.69851905551856 
1777	 0.69899560904836 
1778	 0.699453309234016 
1779	 0.699865148442758 
1780	 0.700264173428857 
1781	 0.700656669270917 
1782	 0.70092787036967 
1783	 0.701107325810402 
1784	 0.701255554766778 
1785	 0.701438367400365 
1786	 0.70161848296307 
1787	 0.701857683318651 
1788	 0.702009797963728 
1789	 0.70206802082025 
1790	 0.702135382902419 
1791	 0.702136014036094 
1792	 0.70223520987227 
1793	 0.702403504584804 
1794	 0.702522961724498 
1795	 0.702668537184135 
1796	 0.702727957655123 
1797	 0.702762522590361 
1798	 0.702888729309513 
1799	 0.702976188663843 
1800	 0.70303262608018 
1801	 0.688433821642427 
1802	 0.688770680970394 
1803	 0.689095499310063 
1804	 0.689416201787547 
1805	 0.689801775157432 
1806	 0.690089460173557 
1807	 0.690393756855127 
1808	 0.690628231678626 
1809	 0.690790323727014 
1810	 0.690914722193242 
1811	 0.690954524043653 
1812	 0.691057409220239 
1813	 0.691081014011293 
1814	 0.691213660517085 
1815	 0.691471319608752 
1816	 0.691737338644318 
1817	 0.69193302568275 
1818	 0.692145650815675 
1819	 0.692300749560232 
1820	 0.692344354644078 
1821	 0.692460432009276 
1822	 0.692561557594116 
1823	 0.692756989942374 
1824	 0.69292628379942 
1825	 0.693084849288747 
1826	 0.693244971888674 
1827	 0.693415691737137 
1828	 0.69355042215583 
1829	 0.693661020734832 
1830	 0.693781915860769 
1831	 0.693893291623504 
1832	 0.694002965349681 
1833	 0.694115171345259 
1834	 0.69423846700774 
1835	 0.694313966291552 
1836	 0.694342509327465 
1837	 0.694405461776935 
1838	 0.694471344250097 
1839	 0.694509140484101 
1840	 0.69454812669651 
1841	 0.694609589481661 
1842	 0.694640096274082 
1843	 0.694680617766333 
1844	 0.69486267030994 
1845	 0.694882483304069 
1846	 0.694879866794704 
1847	 0.694948514430863 
1848	 0.694970404007033 
1849	 0.694974593315329 
1850	 0.694968458386242 
1851	 0.694995416459868 
1852	 0.694896953616261 
1853	 0.694745616631816 
1854	 0.694583940655242 
1855	 0.694526808438424 
1856	 0.694488449412032 
1857	 0.694417959006416 
1858	 0.694348532192014 
1859	 0.694193460625313 
1860	 0.693916388678364 
1861	 0.693653551839351 
1862	 0.693388133632106 
1863	 0.693067996810045 
1864	 0.692668227338596 
1865	 0.692270650392755 
1866	 0.691798464330393 
1867	 0.691242215146208 
1868	 0.69069429443117 
1869	 0.690046669258254 
1870	 0.689318074216229 
1871	 0.688512830887557 
1872	 0.687684323025117 
1873	 0.686759634538897 
1874	 0.685837755916548 
1875	 0.684926108376875 
1876	 0.683887013104782 
1877	 0.682969848617661 
1878	 0.681958186860715 
1879	 0.680870362429189 
1880	 0.679888148773633 
1881	 0.678739374393241 
1882	 0.677480519672329 
1883	 0.676144326523961 
1884	 0.674699831089794 
1885	 0.673098077508242 
1886	 0.671519240809965 
1887	 0.66975327235095 
1888	 0.667886525052699 
1889	 0.666119068489644 
1890	 0.664129439542566 
1891	 0.662106496490503 
1892	 0.660109227219504 
1893	 0.657891488491532 
1894	 0.655448146622347 
1895	 0.653013653617744 
1896	 0.650483241560568 
1897	 0.647788902422681 
1898	 0.645240454078277 
1899	 0.642498978906714 
1900	 0.639777127924663 
1901	 0.637099500538238 
1902	 0.634166356165007 
1903	 0.631335615025399 
1904	 0.628499065971949 
1905	 0.625580873358413 
1906	 0.622720271381804 
1907	 0.620138987060513 
1908	 0.617498135761678 
1909	 0.615020519285951 
1910	 0.612634880393837 
1911	 0.610100495565509 
1912	 0.607734817405051 
1913	 0.605298062542728 
1914	 0.602807112997611 
1915	 0.600480320596518 
1916	 0.598281030407403 
1917	 0.59600920655421 
1918	 0.593882330706437 
1919	 0.591792700613983 
1920	 0.589527689369172 
1921	 0.587404564485791 
1922	 0.585296235678885 
1923	 0.583194388828789 
1924	 0.581271682329531 
1925	 0.579424585374867 
1926	 0.577666611901567 
1927	 0.576039059347462 
1928	 0.574390526887994 
1929	 0.57278850993421 
1930	 0.571282884418605 
1931	 0.56974547774825 
1932	 0.568261593066083 
1933	 0.566975656010839 
1934	 0.565701473340861 
1935	 0.564509294852009 
1936	 0.563444343874216 
1937	 0.562443658146907 
1938	 0.56150643437501 
1939	 0.560703484215823 
1940	 0.559985307900929 
1941	 0.559383480286029 
1942	 0.558940642388001 
1943	 0.558572059474726 
1944	 0.558297844465725 
1945	 0.558079226682059 
1946	 0.557866442749812 
1947	 0.557723353750265 
1948	 0.557711631277972 
1949	 0.557832329282561 
1950	 0.557984698806084 
1951	 0.55830634299552 
1952	 0.558555887266712 
1953	 0.558792528317797 
1954	 0.559055664061314 
1955	 0.559380507323891 
1956	 0.55977037828447 
1957	 0.560279726631816 
1958	 0.560790666336512 
1959	 0.561290970481852 
1960	 0.561862280512896 
1961	 0.562401225430529 
1962	 0.562918985755519 
1963	 0.563460475371236 
1964	 0.563997731207185 
1965	 0.564553429218937 
1966	 0.565120006493556 
1967	 0.565710176525225 
1968	 0.566304291696097 
1969	 0.566951179520183 
1970	 0.567592006388039 
1971	 0.568250698200677 
1972	 0.568909966845442 
1973	 0.569534499175361 
1974	 0.570145154921393 
1975	 0.570683904171951 
1976	 0.571310025920034 
1977	 0.571971526956709 
1978	 0.57263049560749 
1979	 0.573322155910446 
1980	 0.574037328006172 
1981	 0.574748504495476 
1982	 0.575422372361718 
1983	 0.576121447637755 
1984	 0.576837753429459 
1985	 0.577416771689399 
1986	 0.578020804076598 
1987	 0.578641128635035 
1988	 0.579198013075793 
1989	 0.579837570188433 
1990	 0.580589190498416 
1991	 0.581248687121098 
1992	 0.581897403194485 
1993	 0.582569572814865 
1994	 0.58311020624019 
1995	 0.583644830000736 
1996	 0.584210301685931 
1997	 0.584751054284387 
1998	 0.585323314070446 
1999	 0.585913008921696 
2000	 0.58652065153423 
2001	 0.587177588020508 
2002	 0.587785293101381 
2003	 0.588397005380341 
2004	 0.589007232868132 
2005	 0.589551843705786 
2006	 0.590133202841798 
2007	 0.59074764218801 
2008	 0.591363658454352 
2009	 0.592007961355793 
2010	 0.592639519799469 
2011	 0.593150150489523 
2012	 0.593639950384186 
2013	 0.594057415374743 
2014	 0.594328564237261 
2015	 0.594666435970459 
2016	 0.595006969737566 
2017	 0.595311911923907 
2018	 0.595607886240875 
2019	 0.595890313913249 
2020	 0.596167303116353 
2021	 0.596417117653875 
2022	 0.596552167411472 
2023	 0.596631276162281 
2024	 0.596621848295755 
2025	 0.596540425035755 
2026	 0.596461528615721 
2027	 0.596412610207992 
2028	 0.596223417015835 
2029	 0.595921895870469 
2030	 0.595629247784753 
2031	 0.595228062076912 
2032	 0.594888156144011 
2033	 0.594582793131941 
2034	 0.594256981765719 
2035	 0.593952341717988 
2036	 0.593571326836018 
2037	 0.593202442283771 
2038	 0.592818759599805 
2039	 0.592525609813617 
2040	 0.592242897559711 
2041	 0.592075487197055 
2042	 0.591996060155149 
2043	 0.591965657491075 
2044	 0.592019690449296 
2045	 0.592094740376448 
2046	 0.59222455527971 
2047	 0.59239099975393 
2048	 0.592584477283695 
2049	 0.592839042275819 
2050	 0.593131839835374 
2051	 0.593509780764695 
2052	 0.593909240300611 
2053	 0.594392732341681 
2054	 0.594908035998095 
2055	 0.595471216369548 
2056	 0.596064006401481 
2057	 0.596714236659504 
2058	 0.597380291219674 
2059	 0.598113897599517 
2060	 0.598814007948172 
2061	 0.599540531021806 
2062	 0.600233099477064 
2063	 0.60087012643562 
2064	 0.601554209723251 
2065	 0.602248962385134 
2066	 0.602942848158791 
2067	 0.603707104985316 
2068	 0.604472271283069 
2069	 0.605230770057596 
2070	 0.606055368613569 
2071	 0.606742993319614 
2072	 0.607334503258596 
2073	 0.607989667479436 
2074	 0.608587174376871 
2075	 0.609211240527116 
2076	 0.609887000939055 
2077	 0.610552967515707 
2078	 0.611230794327882 
2079	 0.611856474784568 
2080	 0.612467705633833 
2081	 0.613083029379753 
2082	 0.613699164377891 
2083	 0.61421901391756 
2084	 0.61477345480977 
2085	 0.615252856619232 
2086	 0.615675879313733 
2087	 0.615994565886967 
2088	 0.616328762314264 
2089	 0.616635410323636 
2090	 0.616920654434401 
2091	 0.617143386887181 
2092	 0.617404738766571 
2093	 0.617696925604645 
2094	 0.617918763420586 
2095	 0.618131172510348 
2096	 0.618320474267954 
2097	 0.618437316699503 
2098	 0.61856897136272 
2099	 0.618681838692111 
2100	 0.618800710670389 
2101	 0.618914413119081 
2102	 0.619005010766826 
2103	 0.619103210396502 
2104	 0.619215761054369 
2105	 0.619295462505109 
2106	 0.619366719790646 
2107	 0.619417793961757 
2108	 0.619418458567005 
2109	 0.619477479743735 
2110	 0.619582260812037 
2111	 0.619618977392348 
2112	 0.619689214675862 
2113	 0.619694259508709 
2114	 0.619634457394348 
2115	 0.619523479563723 
2116	 0.61933957274616 
2117	 0.619153687066391 
2118	 0.619000708161115 
2119	 0.618804514455599 
2120	 0.618657417377655 
2121	 0.618551373017737 
2122	 0.618467487134503 
2123	 0.618426884730343 
2124	 0.61831903099667 
2125	 0.618277215251753 
2126	 0.61810860253739 
2127	 0.617809441136281 
2128	 0.617540297551368 
2129	 0.61722081057758 
2130	 0.616916331178322 
2131	 0.616647739287104 
2132	 0.616301003872189 
2133	 0.615944807775076 
2134	 0.615537073815033 
2135	 0.614986129268251 
2136	 0.614368875461486 
2137	 0.613713610426691 
2138	 0.612945588652268 
2139	 0.612225128117677 
2140	 0.611492582813649 
2141	 0.610738632940222 
2142	 0.609988944171023 
2143	 0.609171891727629 
2144	 0.608299122205389 
2145	 0.607435436754488 
2146	 0.606514379350615 
2147	 0.605630662521363 
2148	 0.604767824603558 
2149	 0.603891909583779 
2150	 0.603088573301261 
2151	 0.602155653126383 
2152	 0.601095516596016 
2153	 0.600116725933792 
2154	 0.599082307708661 
2155	 0.597979265633596 
2156	 0.597047957350508 
2157	 0.59628402257819 
2158	 0.595332673309199 
2159	 0.594407589477186 
2160	 0.593375785293863 
2161	 0.592156979702799 
2162	 0.591097377879328 
2163	 0.590093726106339 
2164	 0.589033326648217 
2165	 0.588011344263769 
2166	 0.586936810644898 
2167	 0.585678865379857 
2168	 0.584656072184924 
2169	 0.583744344946628 
2170	 0.582858032219145 
2171	 0.58209102025879 
2172	 0.581367708919364 
2173	 0.580687604503759 
2174	 0.579987488987235 
2175	 0.579527806782312 
2176	 0.579121446088681 
2177	 0.578627796151874 
2178	 0.578159565219112 
2179	 0.577711808070238 
2180	 0.577114422059738 
2181	 0.576840535847723 
2182	 0.576787227343296 
2183	 0.576672465302778 
2184	 0.576698003297344 
2185	 0.576689590359191 
2186	 0.576661559719697 
2187	 0.576668208949376 
2188	 0.576737372626523 
2189	 0.576803044071653 
2190	 0.576838945276888 
2191	 0.576942511750548 
2192	 0.577123931307833 
2193	 0.577284601228044 
2194	 0.577477442737754 
2195	 0.577652398067788 
2196	 0.577770288947296 
2197	 0.578002030682085 
2198	 0.578178939664571 
2199	 0.578341637661226 
2200	 0.578494269816325 
2201	 0.578608651912069 
2202	 0.57877189753766 
2203	 0.579012443034971 
2204	 0.579071981872042 
2205	 0.579043702460971 
2206	 0.579099069993828 
2207	 0.579052236198833 
2208	 0.579078727826883 
2209	 0.579197529637598 
2210	 0.579315694105398 
2211	 0.579424114127221 
2212	 0.579522545916733 
2213	 0.579753604012981 
2214	 0.579818970009132 
2215	 0.579713399251311 
2216	 0.579693296393932 
2217	 0.579618981556587 
2218	 0.579604947774564 
2219	 0.579683157071153 
2220	 0.579697804352084 
2221	 0.579721385715335 
2222	 0.579706262020504 
2223	 0.579554130404033 
2224	 0.579465526605359 
2225	 0.579458665761933 
2226	 0.579411616614502 
2227	 0.579416151831049 
2228	 0.579583315478573 
2229	 0.579525194897353 
2230	 0.579428928257871 
2231	 0.579130439560071 
2232	 0.578673646337692 
2233	 0.578160297869685 
2234	 0.577502937658424 
2235	 0.576789920038914 
2236	 0.576025928337093 
2237	 0.57514106297211 
2238	 0.574101576566898 
2239	 0.573047507343942 
2240	 0.571877198583245 
2241	 0.570740466502774 
2242	 0.569689870767576 
2243	 0.568411116608046 
2244	 0.567045418743744 
2245	 0.565589540564267 
2246	 0.563900461625892 
2247	 0.562234420052477 
2248	 0.560553802453571 
2249	 0.558815667130961 
2250	 0.55708695852331 
2251	 0.555197856749705 
2252	 0.553130567121878 
2253	 0.551135354522985 
2254	 0.549055081554082 
2255	 0.546951325674746 
2256	 0.544930891277261 
2257	 0.542844578477885 
2258	 0.540851933085873 
2259	 0.538836422484782 
2260	 0.536925327520487 
2261	 0.535113202586006 
2262	 0.533337517987721 
2263	 0.531594834432418 
2264	 0.529876273999783 
2265	 0.528215538035079 
2266	 0.526619992084327 
2267	 0.52504986177391 
2268	 0.523551471520268 
2269	 0.522167919764994 
2270	 0.520772048303168 
2271	 0.519345269409684 
2272	 0.518032018326053 
2273	 0.516848918505614 
2274	 0.515566994947125 
2275	 0.514363736522852 
2276	 0.513080602109008 
2277	 0.511619047330844 
2278	 0.510329780802406 
2279	 0.509061893607316 
2280	 0.507863766516739 
2281	 0.506891803701991 
2282	 0.505735400268724 
2283	 0.50449884962516 
2284	 0.503312626317516 
2285	 0.501973060772906 
2286	 0.500669025438805 
2287	 0.499416577987202 
2288	 0.498301208319282 
2289	 0.497249633852624 
2290	 0.496119503244849 
2291	 0.495144467673794 
2292	 0.494034185730509 
2293	 0.492768578720448 
2294	 0.491612930182981 
2295	 0.490172737369431 
2296	 0.488542377501658 
2297	 0.487026739335665 
2298	 0.485407856806974 
2299	 0.483876560193196 
2300	 0.48243897777085 
2301	 0.480953475530929 
2302	 0.47940160945917 
2303	 0.478024459426697 
2304	 0.476636255234497 
2305	 0.475519418021934 
2306	 0.474504704161013 
2307	 0.473756890353624 
2308	 0.473161399486017 
2309	 0.472965469682809 
2310	 0.473094094877657 
2311	 0.473497946632774 
2312	 0.474325894670259 
2313	 0.475269311358057 
2314	 0.476414307407905 
2315	 0.477830377691025 
2316	 0.479700952045573 
2317	 0.481376003284791 
2318	 0.483422341684777 
2319	 0.484999480573308 
2320	 0.486305842416969 
2321	 0.487477949629722 
2322	 0.488386523130087 
2323	 0.489200921576446 
2324	 0.48991372830679 
2325	 0.490440979320202 
2326	 0.490779318596613 
2327	 0.490990526239027 
2328	 0.490922382702912 
2329	 0.490893115834866 
2330	 0.490755177160112 
2331	 0.490655686947197 
2332	 0.490529843365243 
2333	 0.4902369358582 
2334	 0.489667643345822 
2335	 0.488856939368008 
2336	 0.48759151543707 
2337	 0.486367755524946 
2338	 0.485473365133959 
2339	 0.484291753849638 
2340	 0.48305914019412 
2341	 0.481658019429581 
2342	 0.479878113026031 
2343	 0.47819316078337 
2344	 0.476776253688954 
2345	 0.475540817515022 
2346	 0.474520389562085 
2347	 0.473460258071878 
2348	 0.472670125562323 
2349	 0.472447614290538 
2350	 0.472239330885893 
2351	 0.472465086256378 
2352	 0.47320608726057 
2353	 0.47397061143813 
2354	 0.47500563698351 
2355	 0.476492218158451 
2356	 0.47787484845761 
2357	 0.479331530373547 
2358	 0.481035174192391 
2359	 0.482473896755497 
2360	 0.483699751305945 
2361	 0.48465209622238 
2362	 0.485447139480349 
2363	 0.486061658260376 
2364	 0.486554416134836 
2365	 0.487044960799621 
2366	 0.487246549441961 
2367	 0.487507601310242 
2368	 0.487927307255919 
2369	 0.488063220918211 
2370	 0.488208771309056 
2371	 0.488404997919413 
2372	 0.488336157909891 
2373	 0.488467298223487 
2374	 0.488804134097408 
2375	 0.489009159077458 
2376	 0.489273096432822 
2377	 0.489606413711881 
2378	 0.489592123946352 
2379	 0.489353832775449 
2380	 0.48926655250464 
2381	 0.489024486927753 
2382	 0.488771868629463 
2383	 0.488629696585483 
2384	 0.48841526686057 
2385	 0.487910326057004 
2386	 0.487722406155832 
2387	 0.487725214805428 
2388	 0.487689981772975 
2389	 0.487779525164161 
2390	 0.48781425214584 
2391	 0.487890835932796 
2392	 0.487912817334999 
2393	 0.487988012196769 
2394	 0.487989679884588 
2395	 0.487848674842528 
2396	 0.487645525282957 
2397	 0.48734935548262 
2398	 0.487089551689718 
2399	 0.486813395085107 
2400	 0.486599097127707 
2401	 0.486388722598034 
2402	 0.486381691569367 
2403	 0.486067865413326 
2404	 0.486013955279563 
2405	 0.4861344907939 
2406	 0.485857460417375 
2407	 0.486075673986856 
2408	 0.486464533458902 
2409	 0.486604245243241 
2410	 0.48661762545791 
2411	 0.486782181268568 
2412	 0.486926301822515 
2413	 0.486598420215135 
2414	 0.48651662448484 
2415	 0.486479304339214 
2416	 0.486081452081178 
2417	 0.486289609352918 
2418	 0.487091223153184 
2419	 0.487424067980421 
2420	 0.487169763862865 
2421	 0.486856179565647 
2422	 0.486541560951965 
2423	 0.485880648854055 
2424	 0.485613797038546 
2425	 0.485688411031869 
2426	 0.485374673030581 
2427	 0.485399746237467 
2428	 0.485679694887092 
2429	 0.485961840207966 
2430	 0.485857202484141 
2431	 0.485290953621648 
2432	 0.484727856999703 
2433	 0.483915680891178 
2434	 0.48325260279274 
2435	 0.483015222338548 
2436	 0.48306374858288 
2437	 0.48270336898527 
2438	 0.482270025942368 
2439	 0.481879853250015 
2440	 0.480890736805202 
2441	 0.480561145821348 
2442	 0.48001089192006 
2443	 0.478934133171854 
2444	 0.478164748144239 
2445	 0.477159852889255 
2446	 0.47688596758655 
2447	 0.476973930372986 
2448	 0.476889386022262 
2449	 0.476533064144441 
2450	 0.475774170446139 
2451	 0.475365252372142 
2452	 0.474756251662705 
2453	 0.474012181860531 
2454	 0.473336339803925 
2455	 0.472414487226525 
2456	 0.472180754494855 
2457	 0.471966418798451 
2458	 0.471031593730606 
2459	 0.47003408274583 
2460	 0.468767750610953 
2461	 0.46852452106887 
2462	 0.469169558012654 
2463	 0.469355381116429 
2464	 0.469074674071317 
2465	 0.467582711649009 
2466	 0.465777399086222 
2467	 0.464770560844681 
2468	 0.463907802858696 
2469	 0.463285078695648 
2470	 0.463659747124944 
2471	 0.463077973585037 
2472	 0.462385650364502 
2473	 0.463176504249996 
2474	 0.463017090197504 
2475	 0.463194149796723 
2476	 0.46327672116368 
2477	 0.461642871028222 
2478	 0.460231953975276 
2479	 0.459828179169688 
2480	 0.459719321631421 
2481	 0.459599749227964 
2482	 0.459681144253543 
2483	 0.458626736610001 
2484	 0.459479013704646 
2485	 0.460112518694485 
2486	 0.458907428897414 
2487	 0.458661830492601 
2488	 0.458736758130496 
2489	 0.458902096686994 
2490	 0.459855951462881 
2491	 0.459722644411969 
2492	 0.458586279414815 
2493	 0.45781080701947 
2494	 0.458504673079184 
2495	 0.458353220089843 
2496	 0.457485447670258 
2497	 0.457139036593424 
2498	 0.454974590624664 
2499	 0.453607789292657 
2500	 0.4543097349305 
