Wavelength	ProbetaAcolman00023.asd
350	 0.478010365484927 
351	 0.472345937543666 
352	 0.474488796256878 
353	 0.47285993030293 
354	 0.452784907108921 
355	 0.443779251859958 
356	 0.446318422321005 
357	 0.451011511691227 
358	 0.443084961481372 
359	 0.430363365959679 
360	 0.420773427618277 
361	 0.418956130300447 
362	 0.414131118778784 
363	 0.408885062403622 
364	 0.40344823672298 
365	 0.392563264240321 
366	 0.392782050728561 
367	 0.395533742345632 
368	 0.392338661869214 
369	 0.396556034422233 
370	 0.385234620612517 
371	 0.373046520803857 
372	 0.388553328659838 
373	 0.388421751206754 
374	 0.378302157945985 
375	 0.369141544685013 
376	 0.372602144392213 
377	 0.369945432395471 
378	 0.366201720824388 
379	 0.367432274479106 
380	 0.360790787768746 
381	 0.364495891587901 
382	 0.372979826429038 
383	 0.369018389403402 
384	 0.364209436730872 
385	 0.365704511773573 
386	 0.371608245633374 
387	 0.368331724353285 
388	 0.364986086273495 
389	 0.365580574680788 
390	 0.370083012991456 
391	 0.369794093369411 
392	 0.369939030658059 
393	 0.371861673324904 
394	 0.373737415000027 
395	 0.367725744029025 
396	 0.367892088699035 
397	 0.37651130232993 
398	 0.37340227111399 
399	 0.374233988067908 
400	 0.377839901743039 
401	 0.37996849668161 
402	 0.383421209421948 
403	 0.385855828364445 
404	 0.38655476959851 
405	 0.386352919931022 
406	 0.389479249459229 
407	 0.392097867834661 
408	 0.392454563214791 
409	 0.394731835643477 
410	 0.395332781266003 
411	 0.396705053241187 
412	 0.401196530823074 
413	 0.40188259770883 
414	 0.402114867337369 
415	 0.404422540747448 
416	 0.409782795112836 
417	 0.412233767513914 
418	 0.413289063400807 
419	 0.41497001797084 
420	 0.417601346945182 
421	 0.418823460025217 
422	 0.419561444759703 
423	 0.42152071779255 
424	 0.422504623359575 
425	 0.423798330053688 
426	 0.425495652102746 
427	 0.426172880871104 
428	 0.427828334434713 
429	 0.429461282151937 
430	 0.430090073675123 
431	 0.430601676616928 
432	 0.430832234342211 
433	 0.431063296350783 
434	 0.431750910107121 
435	 0.432818026409008 
436	 0.433679536098657 
437	 0.434186364924484 
438	 0.434890710545004 
439	 0.435586959535424 
440	 0.436133295628638 
441	 0.436407922773768 
442	 0.43625237451558 
443	 0.436335784637945 
444	 0.436647631502178 
445	 0.436650202529893 
446	 0.436265695493734 
447	 0.436037912943598 
448	 0.436226368638883 
449	 0.436350686779256 
450	 0.436153972236484 
451	 0.435827096741328 
452	 0.435616477733212 
453	 0.434868204501902 
454	 0.434188081835626 
455	 0.433843115543907 
456	 0.433638070482332 
457	 0.432891097528726 
458	 0.432085248188892 
459	 0.431659047959561 
460	 0.431136086329731 
461	 0.430784675416823 
462	 0.430446696101167 
463	 0.429758844994267 
464	 0.428646079392429 
465	 0.427785881575923 
466	 0.427344342936159 
467	 0.426641283861084 
468	 0.425714411047924 
469	 0.424825304779553 
470	 0.424154792418293 
471	 0.423225378774342 
472	 0.422353074971785 
473	 0.421520833907461 
474	 0.420476489434721 
475	 0.419737029910117 
476	 0.418981548559429 
477	 0.418036151168444 
478	 0.41732955807395 
479	 0.416622684560365 
480	 0.415934901072512 
481	 0.415324847857558 
482	 0.414491892710496 
483	 0.413757442820239 
484	 0.413272072890031 
485	 0.412943605816564 
486	 0.412224407906462 
487	 0.41147029877082 
488	 0.410998500360859 
489	 0.410328806534874 
490	 0.409823914367252 
491	 0.409384065026227 
492	 0.408706106434993 
493	 0.408216663014997 
494	 0.407897445950442 
495	 0.407556885667207 
496	 0.40679678975861 
497	 0.406238542673278 
498	 0.4056127842769 
499	 0.404637542021342 
500	 0.404241097804913 
501	 0.403861648378249 
502	 0.403187398436173 
503	 0.402210798859436 
504	 0.401440060518396 
505	 0.400820802243116 
506	 0.400217312957416 
507	 0.399598925892642 
508	 0.398790145995423 
509	 0.397892862247712 
510	 0.397100314695118 
511	 0.396303346809746 
512	 0.395314219954323 
513	 0.394201928960087 
514	 0.393355512498909 
515	 0.392441455433544 
516	 0.391433293207975 
517	 0.390371759211824 
518	 0.389250288077344 
519	 0.388091954194422 
520	 0.386953142669434 
521	 0.385894761639118 
522	 0.384731307029985 
523	 0.383501318260274 
524	 0.382300286260773 
525	 0.38129635365074 
526	 0.380086148300411 
527	 0.378758601190716 
528	 0.377534515324487 
529	 0.376293243947638 
530	 0.375028885085851 
531	 0.373754037703976 
532	 0.372496213402192 
533	 0.371160971365687 
534	 0.369884774921313 
535	 0.368731144357756 
536	 0.367403597914356 
537	 0.366134415611964 
538	 0.364943664392606 
539	 0.363733312640223 
540	 0.362517482887127 
541	 0.361260540676173 
542	 0.359983089860227 
543	 0.358806431797019 
544	 0.357636425416325 
545	 0.356484049395493 
546	 0.355375341142486 
547	 0.35424991476763 
548	 0.353194229100254 
549	 0.352192727916739 
550	 0.351143988068746 
551	 0.350167053894572 
552	 0.349207590573209 
553	 0.3482300254711 
554	 0.347333809369992 
555	 0.346409622640069 
556	 0.345488562485025 
557	 0.344655315936689 
558	 0.343855513996889 
559	 0.343088619978781 
560	 0.342312373436771 
561	 0.341422374404904 
562	 0.340601368255461 
563	 0.339752639514096 
564	 0.338753988099066 
565	 0.337671637493387 
566	 0.336629091921807 
567	 0.335596059712648 
568	 0.334444250576903 
569	 0.333435868355921 
570	 0.332401626901404 
571	 0.331233494336289 
572	 0.33009317343635 
573	 0.329052353252724 
574	 0.328067604925948 
575	 0.327064537412394 
576	 0.32615567394619 
577	 0.325258495305215 
578	 0.3243085189697 
579	 0.323279657983598 
580	 0.322266999184048 
581	 0.321210151454067 
582	 0.320058902773468 
583	 0.318897825379911 
584	 0.317827657772987 
585	 0.316827569157748 
586	 0.315801063434 
587	 0.314765103306322 
588	 0.313538256535527 
589	 0.312161206072921 
590	 0.311060321382267 
591	 0.309929113216281 
592	 0.308792419822261 
593	 0.307753634259539 
594	 0.306835127230388 
595	 0.305871792414537 
596	 0.304834340093584 
597	 0.303821333492632 
598	 0.302893728807909 
599	 0.301891133084352 
600	 0.300784021664745 
601	 0.299974433717789 
602	 0.299099932624394 
603	 0.298126201194277 
604	 0.297170633360688 
605	 0.296320469329471 
606	 0.295494880007665 
607	 0.294642507272864 
608	 0.293769934297807 
609	 0.29288112724025 
610	 0.292029255663031 
611	 0.291233173986968 
612	 0.290360766619117 
613	 0.289586980718015 
614	 0.288845743361649 
615	 0.287937735085049 
616	 0.287021874146766 
617	 0.286211363988745 
618	 0.285476556303027 
619	 0.284543287086722 
620	 0.283649321320215 
621	 0.282827602623162 
622	 0.282022931752132 
623	 0.281104861637031 
624	 0.280200930189316 
625	 0.279356188451874 
626	 0.278524501871669 
627	 0.277647259260632 
628	 0.276707422837755 
629	 0.275755523203066 
630	 0.274996430437576 
631	 0.274174516831729 
632	 0.273301014305223 
633	 0.272495562191244 
634	 0.271711080532948 
635	 0.270977284065705 
636	 0.270270197283408 
637	 0.269496758097176 
638	 0.268815873472168 
639	 0.268217550064497 
640	 0.267645431756741 
641	 0.267038439853156 
642	 0.266481605919672 
643	 0.265989816213784 
644	 0.265526133948876 
645	 0.265027890165528 
646	 0.264599305011571 
647	 0.264277802261115 
648	 0.263959436471136 
649	 0.263667354394414 
650	 0.263427360199174 
651	 0.263258587458723 
652	 0.263143096845602 
653	 0.263043243800588 
654	 0.262964375573903 
655	 0.262948754441878 
656	 0.263024636929432 
657	 0.263206679346161 
658	 0.263469212631681 
659	 0.263701367992452 
660	 0.264068985888204 
661	 0.264528718083628 
662	 0.264995490528383 
663	 0.265611950113038 
664	 0.266325037543951 
665	 0.267129630338275 
666	 0.268076165074524 
667	 0.269083301361788 
668	 0.270165326850105 
669	 0.271342774231326 
670	 0.272598170961477 
671	 0.273994224564246 
672	 0.275523807796856 
673	 0.277159992029929 
674	 0.278985815452677 
675	 0.280887428475468 
676	 0.282859780104613 
677	 0.285046394142719 
678	 0.287357577138709 
679	 0.289785795648174 
680	 0.292343001264077 
681	 0.295037211976021 
682	 0.29790269766516 
683	 0.30094745007225 
684	 0.304160588839232 
685	 0.307493858306624 
686	 0.310983607438558 
687	 0.314652889955073 
688	 0.318496897849144 
689	 0.322540446043239 
690	 0.326741460043551 
691	 0.331078721073766 
692	 0.335641998763671 
693	 0.340405885428612 
694	 0.34537349737737 
695	 0.350555204546637 
696	 0.355842756789581 
697	 0.361326059182723 
698	 0.367012914688144 
699	 0.372739608027034 
700	 0.378736291123446 
701	 0.384945073036901 
702	 0.391242667539147 
703	 0.397604863347026 
704	 0.404103203864077 
705	 0.4107374301972 
706	 0.417455724105796 
707	 0.424220729980676 
708	 0.431025056484247 
709	 0.437845729694485 
710	 0.444598681226577 
711	 0.451381513427989 
712	 0.458175611405822 
713	 0.464910934769327 
714	 0.471466649147986 
715	 0.477943664723074 
716	 0.484346163123993 
717	 0.490596826157576 
718	 0.496625956992436 
719	 0.502523964076489 
720	 0.508311208200837 
721	 0.513860178385088 
722	 0.51909738812371 
723	 0.524110522377148 
724	 0.528997430992273 
725	 0.533690605915368 
726	 0.538246889594282 
727	 0.542607077193085 
728	 0.546645123720644 
729	 0.550496122153566 
730	 0.554158836037225 
731	 0.557626318558865 
732	 0.560915414269403 
733	 0.563940960138101 
734	 0.56680222762989 
735	 0.56959757249767 
736	 0.57221151607479 
737	 0.574688039191438 
738	 0.577007712106913 
739	 0.579117926255067 
740	 0.58112724966292 
741	 0.583006444115156 
742	 0.584773648946139 
743	 0.586546755864518 
744	 0.588204615557189 
745	 0.589643374083957 
746	 0.590878557761676 
747	 0.592289304684232 
748	 0.593622492202969 
749	 0.594870348508234 
750	 0.596132475695191 
751	 0.597151435417862 
752	 0.598071341815104 
753	 0.598997013813649 
754	 0.599922593553563 
755	 0.600773527166671 
756	 0.601564460548411 
757	 0.602317555152398 
758	 0.602999100562022 
759	 0.60365392157519 
760	 0.604353935027128 
761	 0.605131397834267 
762	 0.605710122969577 
763	 0.606274760779172 
764	 0.606879969527894 
765	 0.607412458881324 
766	 0.607974275315662 
767	 0.608565812129757 
768	 0.60916287462084 
769	 0.609741608030547 
770	 0.610216114214596 
771	 0.610633264130764 
772	 0.611083741846229 
773	 0.611588903701334 
774	 0.612065338477031 
775	 0.612512082426494 
776	 0.612986192710952 
777	 0.613325505363198 
778	 0.613688673430065 
779	 0.614140501279927 
780	 0.614506184753677 
781	 0.614980517198002 
782	 0.615437954860507 
783	 0.615743880028105 
784	 0.616048152137079 
785	 0.616423050436531 
786	 0.616857041518454 
787	 0.617283989352424 
788	 0.617666696479062 
789	 0.618056158276115 
790	 0.618459471475588 
791	 0.618824232707439 
792	 0.619197751112273 
793	 0.619568017067526 
794	 0.619910174759921 
795	 0.620193323119665 
796	 0.620480315916582 
797	 0.620814062151118 
798	 0.621212350110776 
799	 0.621638359470987 
800	 0.621976940155037 
801	 0.622260316064758 
802	 0.6226199295179 
803	 0.622920215674393 
804	 0.62324590222825 
805	 0.623635676065103 
806	 0.624018674603966 
807	 0.624352327696121 
808	 0.624658809998385 
809	 0.624973889917046 
810	 0.625308673378437 
811	 0.625672345993952 
812	 0.626065280914828 
813	 0.626479018454612 
814	 0.626898026298587 
815	 0.627249824046767 
816	 0.627571903666959 
817	 0.627987584565063 
818	 0.628403254354953 
819	 0.628791597642864 
820	 0.629152196507461 
821	 0.629510528597847 
822	 0.629889887130491 
823	 0.630283193156117 
824	 0.630681315540469 
825	 0.631104372720179 
826	 0.631509755735689 
827	 0.631886236746691 
828	 0.632253984050875 
829	 0.632699761560067 
830	 0.633198506682 
831	 0.633705895015179 
832	 0.634173652897819 
833	 0.634610827808304 
834	 0.635089834443523 
835	 0.63559755761409 
836	 0.635982386550791 
837	 0.636331796048148 
838	 0.636769073025169 
839	 0.637336149203329 
840	 0.637840359657796 
841	 0.638278579297039 
842	 0.638691316052623 
843	 0.639141708219973 
844	 0.63965991015264 
845	 0.640254828473268 
846	 0.640852303878936 
847	 0.641341826653552 
848	 0.641824811907191 
849	 0.642342892591015 
850	 0.642882441916696 
851	 0.643375233188182 
852	 0.643931352427826 
853	 0.644473478631825 
854	 0.64497540744303 
855	 0.645604539433489 
856	 0.646208057100937 
857	 0.646776775704744 
858	 0.647363626142756 
859	 0.648080385915331 
860	 0.64873191666756 
861	 0.649333547514702 
862	 0.649999423024264 
863	 0.650699969243223 
864	 0.65139286054155 
865	 0.652071438869824 
866	 0.652760095112438 
867	 0.653431367385336 
868	 0.654094141722915 
869	 0.654778891015396 
870	 0.655532399057715 
871	 0.656270268421727 
872	 0.657055426551933 
873	 0.657900821954314 
874	 0.658641692589074 
875	 0.659409475442669 
876	 0.660175445196585 
877	 0.660892763939974 
878	 0.66159581706472 
879	 0.662594447142324 
880	 0.663647918208211 
881	 0.66436435362075 
882	 0.665128211913999 
883	 0.665918358329082 
884	 0.666734994110536 
885	 0.667602692230825 
886	 0.668503870931891 
887	 0.669398503358281 
888	 0.670286014736154 
889	 0.671204186999855 
890	 0.671995729622327 
891	 0.672890256509167 
892	 0.673935414955675 
893	 0.674763868748224 
894	 0.675616250252742 
895	 0.676517353621132 
896	 0.677437702545332 
897	 0.678349362755756 
898	 0.679256890085169 
899	 0.680162375843887 
900	 0.681080044258063 
901	 0.682066152368213 
902	 0.683030187091668 
903	 0.683957818496614 
904	 0.684883072074281 
905	 0.685863578924834 
906	 0.686779209895865 
907	 0.687667879738763 
908	 0.688652897755535 
909	 0.689529678390225 
910	 0.690413933325451 
911	 0.691394893710631 
912	 0.692478673732668 
913	 0.693451829922288 
914	 0.694395072113142 
915	 0.69534799900088 
916	 0.696238525386135 
917	 0.697309489859359 
918	 0.698356044666365 
919	 0.699252104919799 
920	 0.700187471541588 
921	 0.701200326736691 
922	 0.702219390453537 
923	 0.703191814059114 
924	 0.704202241395847 
925	 0.705216469960167 
926	 0.706206739483171 
927	 0.707154240279606 
928	 0.708049839845577 
929	 0.709060605518975 
930	 0.710113413284357 
931	 0.711082843494371 
932	 0.712117338400831 
933	 0.713131165755364 
934	 0.714164822721191 
935	 0.715280223249761 
936	 0.716258225036632 
937	 0.717249003581799 
938	 0.71827319325616 
939	 0.719264209428539 
940	 0.720332418045862 
941	 0.721361406394943 
942	 0.722339454304486 
943	 0.723358800813946 
944	 0.724436982706224 
945	 0.725412060505777 
946	 0.726226426771667 
947	 0.726975262390241 
948	 0.72788555625345 
949	 0.728855262722438 
950	 0.729778021886295 
951	 0.730627777968274 
952	 0.731602542081935 
953	 0.732436789998747 
954	 0.733085492405691 
955	 0.733926704173511 
956	 0.734851299389804 
957	 0.735581855896341 
958	 0.736087470249033 
959	 0.736798513990236 
960	 0.737423850174371 
961	 0.738044838660135 
962	 0.738746188969479 
963	 0.739447231051145 
964	 0.740358173250671 
965	 0.741275362858622 
966	 0.742021287898651 
967	 0.742730286272185 
968	 0.743488750127258 
969	 0.744255539919457 
970	 0.745016325893133 
971	 0.745940341582237 
972	 0.746733456797499 
973	 0.747302668666116 
974	 0.74776585031223 
975	 0.748597224137646 
976	 0.749367776154899 
977	 0.750044721018351 
978	 0.750673680311597 
979	 0.751104989503918 
980	 0.751678302184939 
981	 0.752423833965503 
982	 0.753219537089237 
983	 0.753886499077481 
984	 0.754373394371425 
985	 0.754940727226391 
986	 0.755770608622502 
987	 0.756432877001127 
988	 0.756909110752815 
989	 0.757380618143913 
990	 0.757982792692053 
991	 0.758407526779066 
992	 0.758896248399675 
993	 0.759516590019257 
994	 0.760212870641062 
995	 0.760783307721755 
996	 0.761302614890893 
997	 0.761745361125303 
998	 0.762140223862925 
999	 0.762788153989448 
1000	 0.763437740869108 
1001	 0.764105993006461 
1002	 0.764605501666888 
1003	 0.76512465879475 
1004	 0.765633894453131 
1005	 0.766145482171451 
1006	 0.766611377758549 
1007	 0.767058114404808 
1008	 0.767531869091472 
1009	 0.767965722145269 
1010	 0.768426065934885 
1011	 0.768948712778171 
1012	 0.76940683506729 
1013	 0.769859290452625 
1014	 0.77028132427941 
1015	 0.770677256375414 
1016	 0.771007717409 
1017	 0.77141270322208 
1018	 0.771791601529696 
1019	 0.772151307108606 
1020	 0.772542538202708 
1021	 0.772917991012801 
1022	 0.773261503309117 
1023	 0.773618804619787 
1024	 0.774018874440385 
1025	 0.774375971224709 
1026	 0.774708842082214 
1027	 0.775002766035945 
1028	 0.775286181084513 
1029	 0.775521377521365 
1030	 0.775704258778774 
1031	 0.775943117999419 
1032	 0.77622005151303 
1033	 0.776515361290128 
1034	 0.776907719702178 
1035	 0.777307933654736 
1036	 0.777610746148635 
1037	 0.777892041545619 
1038	 0.778147962736587 
1039	 0.778289159542538 
1040	 0.7785096331838 
1041	 0.778745813756544 
1042	 0.779001141768041 
1043	 0.779289923877873 
1044	 0.779564672972546 
1045	 0.779827738999426 
1046	 0.780150528339264 
1047	 0.780396533441421 
1048	 0.78062652897239 
1049	 0.780896386153544 
1050	 0.781141541992563 
1051	 0.781441032232912 
1052	 0.781731423934838 
1053	 0.78200272069119 
1054	 0.782283222014379 
1055	 0.782548265057227 
1056	 0.78275269691888 
1057	 0.783035215875869 
1058	 0.783370240468816 
1059	 0.783640463398568 
1060	 0.783978037219382 
1061	 0.784282593548613 
1062	 0.784504992749269 
1063	 0.784814447015547 
1064	 0.785121593267781 
1065	 0.785418308670597 
1066	 0.785762288256019 
1067	 0.786028838894602 
1068	 0.786235093848369 
1069	 0.786484359595095 
1070	 0.786743498460469 
1071	 0.786999121117892 
1072	 0.787295381304147 
1073	 0.787628347502885 
1074	 0.787874562787483 
1075	 0.788092823252646 
1076	 0.788302235364139 
1077	 0.788474510788851 
1078	 0.788663858624093 
1079	 0.788885341463066 
1080	 0.789125738681531 
1081	 0.789360534867382 
1082	 0.789594511383179 
1083	 0.789798740487284 
1084	 0.789996438861285 
1085	 0.790212517710135 
1086	 0.790403004285976 
1087	 0.790575901074739 
1088	 0.790785497628245 
1089	 0.791003932455893 
1090	 0.791168688245604 
1091	 0.791331670876158 
1092	 0.79149690540617 
1093	 0.791642112235778 
1094	 0.791800295733796 
1095	 0.791982790017311 
1096	 0.792149862814094 
1097	 0.792277977578345 
1098	 0.792351786502605 
1099	 0.792440515352217 
1100	 0.792536801513068 
1101	 0.79261975331044 
1102	 0.792774943168176 
1103	 0.79287812547784 
1104	 0.792970187183174 
1105	 0.793008065234254 
1106	 0.793053160435917 
1107	 0.793067735304248 
1108	 0.793110809581349 
1109	 0.793196706704101 
1110	 0.793254245235965 
1111	 0.793265659924236 
1112	 0.793236355166589 
1113	 0.793212602912296 
1114	 0.793249699235352 
1115	 0.793289891684825 
1116	 0.793289333857915 
1117	 0.793284979441464 
1118	 0.793300332913063 
1119	 0.793302770676215 
1120	 0.793294691760959 
1121	 0.793314974390578 
1122	 0.793329063128744 
1123	 0.793216755701436 
1124	 0.793108628776454 
1125	 0.793038738235529 
1126	 0.792901287758143 
1127	 0.792796189204411 
1128	 0.792717814196092 
1129	 0.792575392568688 
1130	 0.792410695574306 
1131	 0.792227020882827 
1132	 0.792029654372075 
1133	 0.791843701035374 
1134	 0.791636406699689 
1135	 0.791392679277088 
1136	 0.79112592299157 
1137	 0.79085071703382 
1138	 0.790531842548676 
1139	 0.79022229788567 
1140	 0.78991766021734 
1141	 0.789613821140221 
1142	 0.789279807171328 
1143	 0.788949120225917 
1144	 0.788621521932597 
1145	 0.788251796179949 
1146	 0.787880792982323 
1147	 0.787487062899197 
1148	 0.787058049242985 
1149	 0.786649285600205 
1150	 0.786227086591156 
1151	 0.785825906612905 
1152	 0.785388234044337 
1153	 0.784942638559813 
1154	 0.784466324709345 
1155	 0.783957919401608 
1156	 0.783429893097481 
1157	 0.782888125736916 
1158	 0.782351452607479 
1159	 0.781796968846479 
1160	 0.781231803980862 
1161	 0.780666855928449 
1162	 0.78006678111135 
1163	 0.779462036371945 
1164	 0.778855582184878 
1165	 0.778289640860118 
1166	 0.777781062814049 
1167	 0.777290081267356 
1168	 0.776842979419194 
1169	 0.776407627787609 
1170	 0.775979518593907 
1171	 0.775583150005152 
1172	 0.775232198320117 
1173	 0.774872143678589 
1174	 0.774526903352488 
1175	 0.774201682561246 
1176	 0.773902650516111 
1177	 0.773577642892454 
1178	 0.773260765837264 
1179	 0.772933800036218 
1180	 0.77261132781639 
1181	 0.772235886429021 
1182	 0.771831071583186 
1183	 0.771430452908591 
1184	 0.770993833389171 
1185	 0.770564924072474 
1186	 0.770110829192908 
1187	 0.7696436083794 
1188	 0.769190801198157 
1189	 0.768675436797202 
1190	 0.768259121087032 
1191	 0.767881611467847 
1192	 0.767563165431332 
1193	 0.76732028818877 
1194	 0.767082625354369 
1195	 0.766900102539518 
1196	 0.766701904855114 
1197	 0.766511196830939 
1198	 0.766328419946307 
1199	 0.766140228345026 
1200	 0.765995070858344 
1201	 0.765858688775185 
1202	 0.765700319680341 
1203	 0.765531951477653 
1204	 0.765367566700608 
1205	 0.765229163318737 
1206	 0.765086975874278 
1207	 0.764983179979602 
1208	 0.764893796236274 
1209	 0.764859083971751 
1210	 0.764826761267284 
1211	 0.764883980188054 
1212	 0.764993780288767 
1213	 0.765184333917184 
1214	 0.765429080613929 
1215	 0.765773899288544 
1216	 0.766205210043378 
1217	 0.76670816291294 
1218	 0.767320081735632 
1219	 0.767963925994866 
1220	 0.768657845792084 
1221	 0.769455965660975 
1222	 0.770254116381528 
1223	 0.771111132932254 
1224	 0.771954969960676 
1225	 0.772843275126686 
1226	 0.773664695605164 
1227	 0.774475744264892 
1228	 0.775259466186681 
1229	 0.776020405002687 
1230	 0.776751981591626 
1231	 0.777491737101882 
1232	 0.77815183909442 
1233	 0.778740651469227 
1234	 0.779310820007696 
1235	 0.779828305237678 
1236	 0.780328033667813 
1237	 0.780808672983452 
1238	 0.781264089732184 
1239	 0.781685180324901 
1240	 0.782081628199291 
1241	 0.782489452420057 
1242	 0.782844142699105 
1243	 0.78316863141509 
1244	 0.78345439880069 
1245	 0.783748771904766 
1246	 0.78400750725023 
1247	 0.784278637996027 
1248	 0.784584022307594 
1249	 0.784819663216511 
1250	 0.785013269058788 
1251	 0.785197337426498 
1252	 0.785346557369519 
1253	 0.785488310226794 
1254	 0.785638847097848 
1255	 0.785738462310093 
1256	 0.785784443088213 
1257	 0.785840356408945 
1258	 0.785874361155583 
1259	 0.785893485907338 
1260	 0.785909760147389 
1261	 0.785915534416475 
1262	 0.785883209483457 
1263	 0.785863750296149 
1264	 0.785854409599275 
1265	 0.785845326509488 
1266	 0.785853197111892 
1267	 0.785890191827822 
1268	 0.785884852278102 
1269	 0.785868261069164 
1270	 0.785861643898493 
1271	 0.785811947859501 
1272	 0.785825300964708 
1273	 0.785891299350184 
1274	 0.785931020059173 
1275	 0.785972814846527 
1276	 0.786034810738608 
1277	 0.786094201413553 
1278	 0.786169422535779 
1279	 0.786276785932939 
1280	 0.786379804111237 
1281	 0.786481060157243 
1282	 0.78659015802893 
1283	 0.786692599538036 
1284	 0.786824530777594 
1285	 0.786972998520642 
1286	 0.787138311052682 
1287	 0.787294683818727 
1288	 0.787476459406181 
1289	 0.787634111178941 
1290	 0.787780107110941 
1291	 0.787916502268118 
1292	 0.788052931543327 
1293	 0.788170222744131 
1294	 0.788275354983238 
1295	 0.788358346370333 
1296	 0.788415302316802 
1297	 0.788483539094694 
1298	 0.788535295085627 
1299	 0.788591448734244 
1300	 0.788665031739502 
1301	 0.788717095612351 
1302	 0.788747564801235 
1303	 0.788785434060499 
1304	 0.788824683309878 
1305	 0.788853671895534 
1306	 0.788878136962955 
1307	 0.788900822754365 
1308	 0.788916934489606 
1309	 0.7889317210254 
1310	 0.788926168168379 
1311	 0.788920847315372 
1312	 0.788887777861469 
1313	 0.78881972852948 
1314	 0.788776920899918 
1315	 0.788735725862463 
1316	 0.788682320127115 
1317	 0.788640654856219 
1318	 0.788569886260727 
1319	 0.788466774304931 
1320	 0.788382356056455 
1321	 0.788296222025947 
1322	 0.788206562051313 
1323	 0.788135038670116 
1324	 0.788030995938528 
1325	 0.787910549686182 
1326	 0.787778741230752 
1327	 0.78762218356257 
1328	 0.787467974505417 
1329	 0.78732145445029 
1330	 0.787145115180343 
1331	 0.786942075118474 
1332	 0.786747302722111 
1333	 0.786546543340297 
1334	 0.786331961555452 
1335	 0.7860978344159 
1336	 0.785870603969218 
1337	 0.785602293026244 
1338	 0.785296396279683 
1339	 0.784989120979839 
1340	 0.784661792691959 
1341	 0.784342340751195 
1342	 0.784010490778565 
1343	 0.783681500174774 
1344	 0.783376613297426 
1345	 0.783019156040341 
1346	 0.782644509639632 
1347	 0.7822425881984 
1348	 0.781811108091082 
1349	 0.781355414596365 
1350	 0.780867609318031 
1351	 0.780374572972715 
1352	 0.779869493296607 
1353	 0.779330122882676 
1354	 0.77877619701643 
1355	 0.778197782208457 
1356	 0.777580247329238 
1357	 0.776951263611562 
1358	 0.776268515751937 
1359	 0.775629559899888 
1360	 0.775004785871215 
1361	 0.774363866511346 
1362	 0.7737382328407 
1363	 0.773193699769616 
1364	 0.772632156942931 
1365	 0.772079905430802 
1366	 0.771533908116087 
1367	 0.771015227885558 
1368	 0.770476933810817 
1369	 0.769958775436466 
1370	 0.769367872832383 
1371	 0.768771384356859 
1372	 0.76810845220067 
1373	 0.767391930149807 
1374	 0.766619333502554 
1375	 0.765805347488512 
1376	 0.764923802025476 
1377	 0.763950480227527 
1378	 0.762963652513074 
1379	 0.761909391508392 
1380	 0.760859407374541 
1381	 0.759768322458737 
1382	 0.758686083407589 
1383	 0.757581527866835 
1384	 0.756496764101918 
1385	 0.755455061951881 
1386	 0.754367643730649 
1387	 0.753292017046358 
1388	 0.752194349072453 
1389	 0.751078578018407 
1390	 0.749929922406961 
1391	 0.748778279031822 
1392	 0.747554564279379 
1393	 0.746381018565492 
1394	 0.74522214614273 
1395	 0.744094471922313 
1396	 0.743029739538634 
1397	 0.741928071897983 
1398	 0.740842584698795 
1399	 0.739697027414045 
1400	 0.738585917573659 
1401	 0.737304123079397 
1402	 0.736007164974882 
1403	 0.73445544128045 
1404	 0.73279978903589 
1405	 0.73089299018324 
1406	 0.728785349927775 
1407	 0.726487151279368 
1408	 0.723819524529187 
1409	 0.721321140179539 
1410	 0.718473059496125 
1411	 0.71616185951937 
1412	 0.713832187508617 
1413	 0.712189971571468 
1414	 0.710916565673891 
1415	 0.710171457064252 
1416	 0.710147140362557 
1417	 0.71020798268107 
1418	 0.710864994052651 
1419	 0.711348783553277 
1420	 0.712076112080391 
1421	 0.712565566851789 
1422	 0.713014196917105 
1423	 0.713283242400465 
1424	 0.713366263876976 
1425	 0.713351249517055 
1426	 0.713211949429019 
1427	 0.71299183257275 
1428	 0.712752157117356 
1429	 0.712460704078314 
1430	 0.712187971761131 
1431	 0.711894128309091 
1432	 0.71160806717134 
1433	 0.711309789433957 
1434	 0.711038875277243 
1435	 0.710765330151786 
1436	 0.710524388395441 
1437	 0.710317030300242 
1438	 0.710097976289818 
1439	 0.709889771795465 
1440	 0.709686917868416 
1441	 0.709475263266258 
1442	 0.709292537315607 
1443	 0.709132017809325 
1444	 0.708970522652714 
1445	 0.708825306359297 
1446	 0.708681755671498 
1447	 0.708533708551688 
1448	 0.708405536694274 
1449	 0.708290695656852 
1450	 0.708181610486083 
1451	 0.708096462537788 
1452	 0.70799637472987 
1453	 0.707890863270222 
1454	 0.707792202306146 
1455	 0.707689171794649 
1456	 0.707592302978142 
1457	 0.707519784247374 
1458	 0.70741937861507 
1459	 0.707301767446442 
1460	 0.707186460567229 
1461	 0.707056226477096 
1462	 0.706929017744159 
1463	 0.706802717629281 
1464	 0.706679657886636 
1465	 0.706561367698982 
1466	 0.706424799195984 
1467	 0.706310361566792 
1468	 0.706205013368723 
1469	 0.706102140218617 
1470	 0.706013716036129 
1471	 0.70592600429295 
1472	 0.70585604663405 
1473	 0.705751176257565 
1474	 0.705641100572463 
1475	 0.70551411941054 
1476	 0.705358830638739 
1477	 0.705213347735013 
1478	 0.705077357371915 
1479	 0.704906509717738 
1480	 0.70472711837884 
1481	 0.704514137235503 
1482	 0.70427731127849 
1483	 0.70400486425536 
1484	 0.703697161630916 
1485	 0.703381527088988 
1486	 0.7030243308894 
1487	 0.702684598514402 
1488	 0.702333500027252 
1489	 0.701998454485134 
1490	 0.701644228305027 
1491	 0.701344971433574 
1492	 0.701071506275768 
1493	 0.700822973475419 
1494	 0.700616170002197 
1495	 0.700423189557795 
1496	 0.700242916048873 
1497	 0.700093174061161 
1498	 0.699963562230836 
1499	 0.699871092431808 
1500	 0.699795998181378 
1501	 0.699776896454766 
1502	 0.699793149537361 
1503	 0.699866342778064 
1504	 0.699977185589178 
1505	 0.700161178242973 
1506	 0.700417843136713 
1507	 0.70071557761215 
1508	 0.701101461156811 
1509	 0.701489108539073 
1510	 0.701942071518899 
1511	 0.702354733310842 
1512	 0.702773868971206 
1513	 0.703173113937454 
1514	 0.703554902248576 
1515	 0.703914230451598 
1516	 0.704259897195465 
1517	 0.704585371567778 
1518	 0.70486147596321 
1519	 0.705155342672587 
1520	 0.705447538891385 
1521	 0.705731707939041 
1522	 0.706042346459832 
1523	 0.706374020450502 
1524	 0.706695848393816 
1525	 0.707030522927923 
1526	 0.707351050945511 
1527	 0.707661186088933 
1528	 0.707982250587359 
1529	 0.708300485199349 
1530	 0.70863278906727 
1531	 0.708974136465567 
1532	 0.709319426622235 
1533	 0.709673635185305 
1534	 0.710027999399226 
1535	 0.710385341781818 
1536	 0.710746531306801 
1537	 0.711110844525603 
1538	 0.71148069038064 
1539	 0.711859318457548 
1540	 0.712230536225761 
1541	 0.712605708083315 
1542	 0.712973019352722 
1543	 0.713341517312435 
1544	 0.713688183419766 
1545	 0.714022362691097 
1546	 0.714354132443838 
1547	 0.714684180536003 
1548	 0.714977804360013 
1549	 0.715263990623281 
1550	 0.715519468176047 
1551	 0.715728329433677 
1552	 0.715943491443404 
1553	 0.716160549378007 
1554	 0.716339087366995 
1555	 0.716485570475073 
1556	 0.716635668081358 
1557	 0.716760814503301 
1558	 0.716888956527729 
1559	 0.717028418197197 
1560	 0.717138266188184 
1561	 0.717230687891256 
1562	 0.717308817301425 
1563	 0.717348490721546 
1564	 0.717422175421168 
1565	 0.717495711390536 
1566	 0.717578479044187 
1567	 0.71768792699693 
1568	 0.717783389221752 
1569	 0.717862985203089 
1570	 0.717964595449711 
1571	 0.718074082354084 
1572	 0.718192127437839 
1573	 0.718328353220055 
1574	 0.718460060924436 
1575	 0.71859214638705 
1576	 0.718731665590273 
1577	 0.718868165608837 
1578	 0.719023349582559 
1579	 0.719187055858722 
1580	 0.719367096927497 
1581	 0.719587434431745 
1582	 0.719770589375463 
1583	 0.719947204989149 
1584	 0.720120025769014 
1585	 0.720273325583881 
1586	 0.720423079049951 
1587	 0.720571107780288 
1588	 0.720719527325922 
1589	 0.72083841948855 
1590	 0.720992668325607 
1591	 0.721182401785193 
1592	 0.721352432622134 
1593	 0.72152512245049 
1594	 0.721703268798645 
1595	 0.721880034156639 
1596	 0.722047314643958 
1597	 0.722236078406472 
1598	 0.722389207901658 
1599	 0.722487616448624 
1600	 0.722628317409198 
1601	 0.722769935625029 
1602	 0.72292522598106 
1603	 0.723130262084769 
1604	 0.723295654921576 
1605	 0.723435442192145 
1606	 0.723586177561687 
1607	 0.723741487392946 
1608	 0.723871807308282 
1609	 0.72399797167205 
1610	 0.724111222932367 
1611	 0.724177222814311 
1612	 0.724273740923457 
1613	 0.724398395150742 
1614	 0.72449804328319 
1615	 0.724595000938701 
1616	 0.724688686011316 
1617	 0.724759317604914 
1618	 0.724840661182005 
1619	 0.724947878426656 
1620	 0.725022056032002 
1621	 0.725089479506637 
1622	 0.725130161357586 
1623	 0.725130561683999 
1624	 0.725137239738736 
1625	 0.72512511081563 
1626	 0.725121707515449 
1627	 0.725135051239765 
1628	 0.725121577148093 
1629	 0.725097820870237 
1630	 0.725063798510955 
1631	 0.725003338657351 
1632	 0.724950048140781 
1633	 0.724887136464678 
1634	 0.724834646083979 
1635	 0.724780253719647 
1636	 0.724736773321345 
1637	 0.724723005234689 
1638	 0.724681311418749 
1639	 0.724636522991347 
1640	 0.724577676220056 
1641	 0.724496544017823 
1642	 0.724410786059072 
1643	 0.724332226049111 
1644	 0.72422100651435 
1645	 0.724090887794312 
1646	 0.723935825918623 
1647	 0.723741095810765 
1648	 0.723549565395387 
1649	 0.723366656827417 
1650	 0.723133696469986 
1651	 0.722870840570173 
1652	 0.722595855943745 
1653	 0.722296553325453 
1654	 0.72195615110776 
1655	 0.721608421442847 
1656	 0.72120711434564 
1657	 0.720751013539427 
1658	 0.72024883945248 
1659	 0.719721765679475 
1660	 0.719130286077349 
1661	 0.718459329692292 
1662	 0.717777984655888 
1663	 0.71703534960563 
1664	 0.716284624652501 
1665	 0.715536955626142 
1666	 0.714723913678315 
1667	 0.713868864886858 
1668	 0.71300039776823 
1669	 0.712113093286072 
1670	 0.711142937448743 
1671	 0.710141363288593 
1672	 0.709056617702828 
1673	 0.707902307626129 
1674	 0.706644458071152 
1675	 0.705327542725952 
1676	 0.703926433990788 
1677	 0.702402581324705 
1678	 0.70083914589947 
1679	 0.699200466765726 
1680	 0.697500436152732 
1681	 0.695740003597053 
1682	 0.693893050681818 
1683	 0.691982046526737 
1684	 0.690031773547271 
1685	 0.687994737695049 
1686	 0.685922697670152 
1687	 0.683777791003363 
1688	 0.681619163027503 
1689	 0.679387718669333 
1690	 0.677192528248749 
1691	 0.674996083734639 
1692	 0.672867541413675 
1693	 0.670790478790674 
1694	 0.668673342247915 
1695	 0.666586219170046 
1696	 0.664418547513554 
1697	 0.662203796789247 
1698	 0.659929377527618 
1699	 0.65765754085793 
1700	 0.655302329528805 
1701	 0.652853884157147 
1702	 0.650409611737975 
1703	 0.647855612006431 
1704	 0.645382435520744 
1705	 0.642873957422402 
1706	 0.640408770151375 
1707	 0.638225970025779 
1708	 0.636111773482172 
1709	 0.634134464150754 
1710	 0.632333774134505 
1711	 0.630486588143149 
1712	 0.628783371929609 
1713	 0.6270947670679 
1714	 0.625388666538298 
1715	 0.623858441852742 
1716	 0.622276294836465 
1717	 0.620739961563171 
1718	 0.61929522184682 
1719	 0.617774773658455 
1720	 0.616364193983436 
1721	 0.61504345068478 
1722	 0.613749399232858 
1723	 0.612656733205932 
1724	 0.611660392835001 
1725	 0.610828032145523 
1726	 0.610276559180501 
1727	 0.609952183856246 
1728	 0.609949743221366 
1729	 0.610334268855373 
1730	 0.611072698230328 
1731	 0.612107166901443 
1732	 0.613508545197701 
1733	 0.615110707465232 
1734	 0.616965032866411 
1735	 0.619112510697082 
1736	 0.621327022446272 
1737	 0.623605892606462 
1738	 0.625845039141781 
1739	 0.627837077955129 
1740	 0.629744722081251 
1741	 0.631415814750814 
1742	 0.63295782933864 
1743	 0.634201230094211 
1744	 0.635176793775789 
1745	 0.635953160601771 
1746	 0.636430856533764 
1747	 0.636749453922435 
1748	 0.636875817527765 
1749	 0.63681614160222 
1750	 0.636492618586591 
1751	 0.636129025894578 
1752	 0.635584429422062 
1753	 0.635038591659463 
1754	 0.634398322409029 
1755	 0.633780995228607 
1756	 0.633089887141886 
1757	 0.632499799311099 
1758	 0.631920653801913 
1759	 0.631471034074101 
1760	 0.631136434239596 
1761	 0.630904916024898 
1762	 0.630901806068237 
1763	 0.631115907863809 
1764	 0.631474379991932 
1765	 0.632118528385549 
1766	 0.632993413000678 
1767	 0.633994755417191 
1768	 0.635229260447222 
1769	 0.636584560736994 
1770	 0.637903024798683 
1771	 0.639325059637697 
1772	 0.640751916143599 
1773	 0.642128594383459 
1774	 0.643557704737035 
1775	 0.644874359498656 
1776	 0.646128097320363 
1777	 0.647310413778351 
1778	 0.648284796054333 
1779	 0.649171621159765 
1780	 0.649961648234345 
1781	 0.65063591871945 
1782	 0.651328837049284 
1783	 0.651980944264053 
1784	 0.652582045400654 
1785	 0.653086726497114 
1786	 0.653574591626428 
1787	 0.654040140995988 
1788	 0.654421852530162 
1789	 0.654769543786817 
1790	 0.655061736082766 
1791	 0.655243741170854 
1792	 0.655451718686942 
1793	 0.655624388226358 
1794	 0.655786536438023 
1795	 0.65596096956421 
1796	 0.65609048073571 
1797	 0.65624321372207 
1798	 0.656432027925615 
1799	 0.656599353852287 
1800	 0.65680154265811 
1801	 0.652916131848363 
1802	 0.653272045015244 
1803	 0.653689700043372 
1804	 0.654201926883381 
1805	 0.654791622043784 
1806	 0.655343498396194 
1807	 0.655969683713401 
1808	 0.656512519684129 
1809	 0.657077654742414 
1810	 0.657530939553545 
1811	 0.657917431702715 
1812	 0.658278782002105 
1813	 0.658564378438585 
1814	 0.65884197890818 
1815	 0.659081310277856 
1816	 0.65931594561099 
1817	 0.659523785840612 
1818	 0.659676610818062 
1819	 0.659851016276392 
1820	 0.660007037736759 
1821	 0.660183076577093 
1822	 0.660343069480106 
1823	 0.660557954674008 
1824	 0.660777424739865 
1825	 0.661016133331625 
1826	 0.661240887855509 
1827	 0.661482474728655 
1828	 0.661686157703632 
1829	 0.661878951294868 
1830	 0.662052135183443 
1831	 0.662199749023634 
1832	 0.662352402173284 
1833	 0.662481107591687 
1834	 0.662603929467787 
1835	 0.66272626167641 
1836	 0.662854497855092 
1837	 0.66299696132745 
1838	 0.663136716589644 
1839	 0.663306202216991 
1840	 0.663501928831628 
1841	 0.663696880627741 
1842	 0.663903895094091 
1843	 0.664128525991623 
1844	 0.664358926880299 
1845	 0.664555809094838 
1846	 0.664761831110514 
1847	 0.664970711406148 
1848	 0.665144188706492 
1849	 0.665300001310477 
1850	 0.665442659512774 
1851	 0.665571383338621 
1852	 0.665666400242461 
1853	 0.66574467166058 
1854	 0.665806227334201 
1855	 0.665843975346068 
1856	 0.665825087501687 
1857	 0.665776035551852 
1858	 0.665702420883239 
1859	 0.665575041686243 
1860	 0.665397300540137 
1861	 0.665188436487453 
1862	 0.664953220825542 
1863	 0.664661316799106 
1864	 0.66430496506853 
1865	 0.66388471609423 
1866	 0.663400532170463 
1867	 0.662797857843415 
1868	 0.662124003225638 
1869	 0.66140496142647 
1870	 0.660599615125969 
1871	 0.659684839680534 
1872	 0.658776738808296 
1873	 0.657811167243158 
1874	 0.656818101444922 
1875	 0.655840931858239 
1876	 0.654751255474313 
1877	 0.653720534436724 
1878	 0.652595462463439 
1879	 0.651373549357082 
1880	 0.650209384695527 
1881	 0.648882899580531 
1882	 0.647443950160111 
1883	 0.645928794357089 
1884	 0.644282156247212 
1885	 0.642347695537304 
1886	 0.640327253716924 
1887	 0.638100938254666 
1888	 0.635663362616243 
1889	 0.63327671784731 
1890	 0.630677596765392 
1891	 0.62801966330278 
1892	 0.625305560160587 
1893	 0.622382492682299 
1894	 0.619239572618849 
1895	 0.616148591020955 
1896	 0.612848360044732 
1897	 0.609426554772926 
1898	 0.606249192619135 
1899	 0.602874394161149 
1900	 0.599519171931849 
1901	 0.596212634684478 
1902	 0.592609042307439 
1903	 0.589115663251002 
1904	 0.58565444462658 
1905	 0.582150273952033 
1906	 0.578693054374063 
1907	 0.575581603667945 
1908	 0.572424109051739 
1909	 0.569388961523528 
1910	 0.566509906309501 
1911	 0.563453822083055 
1912	 0.560568877934137 
1913	 0.557709876890067 
1914	 0.554817659538823 
1915	 0.552122588234855 
1916	 0.549611643336348 
1917	 0.547035779934478 
1918	 0.544609502164974 
1919	 0.542327430773547 
1920	 0.539885920785338 
1921	 0.537623749476522 
1922	 0.535382710267503 
1923	 0.533117887370932 
1924	 0.531152660860714 
1925	 0.529211666936374 
1926	 0.527350950966844 
1927	 0.525628887327969 
1928	 0.523942764395523 
1929	 0.522268413939006 
1930	 0.520753039555298 
1931	 0.519310833654843 
1932	 0.517950558270559 
1933	 0.516816400185215 
1934	 0.515714964971887 
1935	 0.514708331480187 
1936	 0.513842996734356 
1937	 0.513010533984637 
1938	 0.512207109364281 
1939	 0.511547551355557 
1940	 0.510987958255907 
1941	 0.510492883403751 
1942	 0.51015499217384 
1943	 0.509882281998871 
1944	 0.509661147528695 
1945	 0.509555756420447 
1946	 0.509513742946429 
1947	 0.509538007912625 
1948	 0.509666090568769 
1949	 0.509845494657472 
1950	 0.510059143688795 
1951	 0.510328484637772 
1952	 0.510632692369027 
1953	 0.510967153557625 
1954	 0.511357647949917 
1955	 0.51182245130703 
1956	 0.512275813680188 
1957	 0.512799413782031 
1958	 0.513384002850863 
1959	 0.513928014180764 
1960	 0.514535246368641 
1961	 0.515156249519316 
1962	 0.515783900980415 
1963	 0.516446118761021 
1964	 0.517160612804676 
1965	 0.5178525835067 
1966	 0.518570112120004 
1967	 0.519279915079072 
1968	 0.519929213035616 
1969	 0.520609214577041 
1970	 0.521265564069806 
1971	 0.521911213589304 
1972	 0.522603367206704 
1973	 0.523265412714289 
1974	 0.523942382481874 
1975	 0.524644238962632 
1976	 0.525313762322273 
1977	 0.5259672271643 
1978	 0.526638174084985 
1979	 0.527295684791198 
1980	 0.527939291503706 
1981	 0.528680055432515 
1982	 0.529398886083232 
1983	 0.530167911646149 
1984	 0.530989359744127 
1985	 0.53171483869428 
1986	 0.532481558619585 
1987	 0.533225405408446 
1988	 0.533917556013414 
1989	 0.534652531839785 
1990	 0.535423151988076 
1991	 0.536155885513849 
1992	 0.536884716812699 
1993	 0.537636444139178 
1994	 0.538300367990061 
1995	 0.538999507566037 
1996	 0.539673689638579 
1997	 0.540315148092001 
1998	 0.541003524687803 
1999	 0.541719687666334 
2000	 0.542400346632314 
2001	 0.543114587238858 
2002	 0.543778441586327 
2003	 0.544402604995674 
2004	 0.545019114455988 
2005	 0.545583664102527 
2006	 0.546180433578634 
2007	 0.546789187175488 
2008	 0.547386396746232 
2009	 0.547982320992904 
2010	 0.54857884298765 
2011	 0.549096080337678 
2012	 0.549610048282975 
2013	 0.550110702166727 
2014	 0.550589888797942 
2015	 0.551068926532038 
2016	 0.551583050156524 
2017	 0.551987262935735 
2018	 0.552368215655569 
2019	 0.552671522464995 
2020	 0.552892749923092 
2021	 0.553056411197247 
2022	 0.55317529726507 
2023	 0.553214685911353 
2024	 0.553173144674389 
2025	 0.553094110621837 
2026	 0.552946643646734 
2027	 0.552720073255264 
2028	 0.552473632817006 
2029	 0.552165276635463 
2030	 0.551833703123781 
2031	 0.551493107394629 
2032	 0.551077308259211 
2033	 0.550584100064523 
2034	 0.550086156761722 
2035	 0.549516634263923 
2036	 0.548948311818312 
2037	 0.548435568663594 
2038	 0.547912362511677 
2039	 0.547408989693348 
2040	 0.546927614167697 
2041	 0.546462091817733 
2042	 0.545956159366487 
2043	 0.545574256629889 
2044	 0.545245591987794 
2045	 0.544984212363003 
2046	 0.544836980912952 
2047	 0.544685972750855 
2048	 0.544541276883012 
2049	 0.544481980492905 
2050	 0.544483122738731 
2051	 0.544509962848578 
2052	 0.544609981787947 
2053	 0.54478530604261 
2054	 0.545016468612847 
2055	 0.545291764722345 
2056	 0.545644429400149 
2057	 0.546065967140135 
2058	 0.546570082962743 
2059	 0.547130076015181 
2060	 0.547777099521187 
2061	 0.548554660315746 
2062	 0.549339641348195 
2063	 0.5501742693141 
2064	 0.551074693273871 
2065	 0.552027059690675 
2066	 0.5530158728791 
2067	 0.554123196379316 
2068	 0.555203143921749 
2069	 0.556307159901727 
2070	 0.557480501391787 
2071	 0.558569097110462 
2072	 0.559641841620979 
2073	 0.560689293688433 
2074	 0.561670910994949 
2075	 0.56268971895752 
2076	 0.563738673064103 
2077	 0.564722788330519 
2078	 0.565750589093933 
2079	 0.566655737412506 
2080	 0.567451988687165 
2081	 0.568237201711997 
2082	 0.568970211512682 
2083	 0.569619856813763 
2084	 0.570313527815144 
2085	 0.57094786458118 
2086	 0.571521489577037 
2087	 0.572049003833717 
2088	 0.572531439276407 
2089	 0.572935961328205 
2090	 0.57334003080506 
2091	 0.573715703931479 
2092	 0.574064057031572 
2093	 0.57439465324655 
2094	 0.574672087892482 
2095	 0.574913388463124 
2096	 0.575120721680359 
2097	 0.575289649692999 
2098	 0.575405280561106 
2099	 0.575497101797601 
2100	 0.575555284516113 
2101	 0.575576263499038 
2102	 0.575552226243057 
2103	 0.575505526571707 
2104	 0.575420516183926 
2105	 0.575320318411314 
2106	 0.575191763009574 
2107	 0.575042498507664 
2108	 0.57487340400705 
2109	 0.574680608480374 
2110	 0.574463574898891 
2111	 0.574219209101015 
2112	 0.573938813314261 
2113	 0.573652202794694 
2114	 0.573332557958243 
2115	 0.573014094776167 
2116	 0.572689353732711 
2117	 0.572371191005629 
2118	 0.572011906383523 
2119	 0.57162524519664 
2120	 0.571248766732078 
2121	 0.570831079180599 
2122	 0.570461415670795 
2123	 0.570138677403684 
2124	 0.569766166804217 
2125	 0.569407267837726 
2126	 0.56900387419181 
2127	 0.568566883775856 
2128	 0.56810278179195 
2129	 0.567609194615454 
2130	 0.567094023994725 
2131	 0.566571236050694 
2132	 0.565986891920549 
2133	 0.565380039001896 
2134	 0.564727898943578 
2135	 0.563933754798086 
2136	 0.563112917750891 
2137	 0.562218188188139 
2138	 0.561218567281524 
2139	 0.56021535429604 
2140	 0.559185054542939 
2141	 0.558075037784325 
2142	 0.556884757642807 
2143	 0.555705737717494 
2144	 0.554428928401202 
2145	 0.553251374305958 
2146	 0.552031811191966 
2147	 0.550966340285555 
2148	 0.550034256121628 
2149	 0.549085304760491 
2150	 0.548271193717114 
2151	 0.547399965596174 
2152	 0.546514612104693 
2153	 0.545607838579141 
2154	 0.544697542586988 
2155	 0.543721771031035 
2156	 0.542752516360084 
2157	 0.54175109873705 
2158	 0.540733828472303 
2159	 0.539753002601277 
2160	 0.538630227534256 
2161	 0.537404153219551 
2162	 0.536210657929982 
2163	 0.534884516844647 
2164	 0.533694089332974 
2165	 0.532574025699902 
2166	 0.531451479383 
2167	 0.530382565573513 
2168	 0.529304838938304 
2169	 0.528179467863951 
2170	 0.527167609815195 
2171	 0.526158565985023 
2172	 0.525271093359054 
2173	 0.52451495715223 
2174	 0.523790587369109 
2175	 0.523182018593891 
2176	 0.522620954579909 
2177	 0.522084549975497 
2178	 0.521595485611466 
2179	 0.521175802614535 
2180	 0.520786095269997 
2181	 0.520488947062195 
2182	 0.520303358121785 
2183	 0.52010334233317 
2184	 0.519952930133327 
2185	 0.519821963459401 
2186	 0.519692831035852 
2187	 0.519642112324617 
2188	 0.519675329562544 
2189	 0.519696172842658 
2190	 0.519761077086687 
2191	 0.519835783412062 
2192	 0.519937003933974 
2193	 0.520016512529112 
2194	 0.520122130732088 
2195	 0.520209557800359 
2196	 0.520285310080222 
2197	 0.520321495035695 
2198	 0.520377656311112 
2199	 0.520440257760846 
2200	 0.520453060019314 
2201	 0.520436893381712 
2202	 0.52041631931847 
2203	 0.520368415953736 
2204	 0.520306428047925 
2205	 0.520243886025626 
2206	 0.520134261264023 
2207	 0.51998347695375 
2208	 0.519828254189116 
2209	 0.519626218866961 
2210	 0.519458883204745 
2211	 0.519290154022746 
2212	 0.519128622524934 
2213	 0.518964579729982 
2214	 0.518847474484658 
2215	 0.518752765379299 
2216	 0.518664754925931 
2217	 0.518653719876071 
2218	 0.518571990991016 
2219	 0.518437003106328 
2220	 0.518333265481738 
2221	 0.51821968728061 
2222	 0.518119088624595 
2223	 0.517996712732633 
2224	 0.517805384637261 
2225	 0.517595333274999 
2226	 0.517260226239141 
2227	 0.516875806637209 
2228	 0.516461406225911 
2229	 0.515942974780856 
2230	 0.51530293943022 
2231	 0.51463499332683 
2232	 0.513930575037951 
2233	 0.513097897550684 
2234	 0.512223155497536 
2235	 0.511168201911099 
2236	 0.509965399597816 
2237	 0.508666318884527 
2238	 0.507157604655631 
2239	 0.50568393001622 
2240	 0.504191329656027 
2241	 0.502553438272424 
2242	 0.500916445895855 
2243	 0.499074963951797 
2244	 0.497015188607426 
2245	 0.494922672958047 
2246	 0.492646014388026 
2247	 0.490392462238312 
2248	 0.488116297178841 
2249	 0.485770404849146 
2250	 0.483402171812766 
2251	 0.481007305186843 
2252	 0.478340103756596 
2253	 0.475721891245921 
2254	 0.472971327427829 
2255	 0.470065632535507 
2256	 0.467415299125067 
2257	 0.464705579605679 
2258	 0.462053828529571 
2259	 0.459519912194086 
2260	 0.456891006391117 
2261	 0.454199688438022 
2262	 0.451600565539355 
2263	 0.448965010163956 
2264	 0.44645530135093 
2265	 0.444057287377412 
2266	 0.441619981293428 
2267	 0.43928760515855 
2268	 0.436851694689101 
2269	 0.434328354567053 
2270	 0.431907962768944 
2271	 0.429433970618088 
2272	 0.427089710125561 
2273	 0.424905748572287 
2274	 0.422636181351337 
2275	 0.420450746697308 
2276	 0.418154825436164 
2277	 0.415768301074363 
2278	 0.413402896528273 
2279	 0.410884509036083 
2280	 0.408533306449839 
2281	 0.406264828870717 
2282	 0.404012165179254 
2283	 0.401801252870321 
2284	 0.399748576810644 
2285	 0.397593321272746 
2286	 0.395599242365565 
2287	 0.393696322054615 
2288	 0.391895654282459 
2289	 0.390314016001984 
2290	 0.38877632129389 
2291	 0.387356120753071 
2292	 0.385970076052729 
2293	 0.384405338055418 
2294	 0.382781914550246 
2295	 0.38098759225351 
2296	 0.37900156545945 
2297	 0.376964359340423 
2298	 0.374826297850226 
2299	 0.372533006599516 
2300	 0.370110230476187 
2301	 0.367594361871851 
2302	 0.364797907327319 
2303	 0.36230998677783 
2304	 0.35968589148347 
2305	 0.357515625109427 
2306	 0.355494653672045 
2307	 0.353974440957914 
2308	 0.352677979712617 
2309	 0.352133413537595 
2310	 0.352076735287726 
2311	 0.352732420773331 
2312	 0.354237717922593 
2313	 0.356020892976738 
2314	 0.358543231224939 
2315	 0.361198072174739 
2316	 0.364370898468172 
2317	 0.367435496946609 
2318	 0.370993509907363 
2319	 0.373952271579376 
2320	 0.376903086731453 
2321	 0.379284739732152 
2322	 0.381165521327807 
2323	 0.382802678418239 
2324	 0.383995688336297 
2325	 0.38495823393896 
2326	 0.385613680874912 
2327	 0.386042323196212 
2328	 0.386121468591226 
2329	 0.386065343894538 
2330	 0.385816245352841 
2331	 0.38529197042532 
2332	 0.384615630421991 
2333	 0.383765197079073 
2334	 0.382522276902303 
2335	 0.381082677422781 
2336	 0.379288083113067 
2337	 0.377139458415569 
2338	 0.374948640681218 
2339	 0.37238127986218 
2340	 0.369673533488773 
2341	 0.366833529623881 
2342	 0.363651667734256 
2343	 0.360597206680625 
2344	 0.357630596644212 
2345	 0.354748428475834 
2346	 0.352423996175444 
2347	 0.350450913396812 
2348	 0.348873692545086 
2349	 0.348034695179417 
2350	 0.347661822603957 
2351	 0.347904770119801 
2352	 0.34872985153846 
2353	 0.350030449723439 
2354	 0.35162277154654 
2355	 0.353439035174429 
2356	 0.355389588460994 
2357	 0.357454651134445 
2358	 0.359813923993995 
2359	 0.362134768869471 
2360	 0.36441699806736 
2361	 0.366720358576024 
2362	 0.368760439740597 
2363	 0.370707156846907 
2364	 0.372554636231385 
2365	 0.374180502697106 
2366	 0.375734069818552 
2367	 0.377057724222748 
2368	 0.378198064636535 
2369	 0.379184806584591 
2370	 0.379942130172205 
2371	 0.380563135687637 
2372	 0.381032337697712 
2373	 0.381413107143101 
2374	 0.381752026635513 
2375	 0.382029780210277 
2376	 0.382344342973556 
2377	 0.38261711442399 
2378	 0.382786113193938 
2379	 0.382895162782059 
2380	 0.382911278222713 
2381	 0.38289699238264 
2382	 0.382899568788147 
2383	 0.38285987424769 
2384	 0.38287882398203 
2385	 0.382944056462179 
2386	 0.382963331749225 
2387	 0.38297815743642 
2388	 0.383016579390104 
2389	 0.383055562915481 
2390	 0.383110969706041 
2391	 0.383209281410844 
2392	 0.383238105009066 
2393	 0.383194239753776 
2394	 0.383210478900506 
2395	 0.383245996836867 
2396	 0.383282547775198 
2397	 0.383360633174751 
2398	 0.383422036342357 
2399	 0.383474502553758 
2400	 0.383477236606172 
2401	 0.383435896829329 
2402	 0.383366064814951 
2403	 0.383334747858311 
2404	 0.38337534681671 
2405	 0.38356482812862 
2406	 0.383730906257544 
2407	 0.38394259350097 
2408	 0.384226272856959 
2409	 0.384440988225728 
2410	 0.384691562571366 
2411	 0.384918642886068 
2412	 0.38509563701696 
2413	 0.385328255623699 
2414	 0.385431344585749 
2415	 0.385472283999619 
2416	 0.38561036199419 
2417	 0.38562103619921 
2418	 0.385602471693276 
2419	 0.385670019477727 
2420	 0.385580732772786 
2421	 0.385528088995554 
2422	 0.385709623160778 
2423	 0.385836201708966 
2424	 0.385921540942598 
2425	 0.385966548030589 
2426	 0.385684204394108 
2427	 0.385449847768781 
2428	 0.385499566809088 
2429	 0.385490566255982 
2430	 0.385597997214364 
2431	 0.385758720665035 
2432	 0.385588934872679 
2433	 0.385457005307198 
2434	 0.385297714777292 
2435	 0.384931885467432 
2436	 0.384856102458846 
2437	 0.384704337089353 
2438	 0.384468325464176 
2439	 0.384531466237456 
2440	 0.384301593084627 
2441	 0.383808312154279 
2442	 0.383423493005342 
2443	 0.382902488980311 
2444	 0.382409251602843 
2445	 0.382202497339702 
2446	 0.381908101081941 
2447	 0.381607115367449 
2448	 0.38136236159893 
2449	 0.380879708496423 
2450	 0.380429318707836 
2451	 0.380116569133558 
2452	 0.379869489761481 
2453	 0.379541498242903 
2454	 0.378999223969681 
2455	 0.37845814606894 
2456	 0.377723812030735 
2457	 0.37685953453721 
2458	 0.37636590059472 
2459	 0.375769928049017 
2460	 0.374996837686887 
2461	 0.374580381832475 
2462	 0.374227227164939 
2463	 0.373771457706316 
2464	 0.373294652879055 
2465	 0.372859618545984 
2466	 0.372356144113826 
2467	 0.371846953889405 
2468	 0.371772069018093 
2469	 0.371633465475273 
2470	 0.371285206473252 
2471	 0.371313362701014 
2472	 0.371204090370807 
2473	 0.370904947351887 
2474	 0.370787821000329 
2475	 0.370484657260483 
2476	 0.37011302471896 
2477	 0.369855155308585 
2478	 0.369834352086028 
2479	 0.369840783866388 
2480	 0.369813999190069 
2481	 0.369819472006073 
2482	 0.369673809314481 
2483	 0.36944213674663 
2484	 0.369382515441196 
2485	 0.369344983870039 
2486	 0.369343177690886 
2487	 0.369702730253982 
2488	 0.369645302773989 
2489	 0.369260216359215 
2490	 0.369449227674573 
2491	 0.369542215306509 
2492	 0.369424292515426 
2493	 0.369479821514962 
2494	 0.369477706695035 
2495	 0.369376646323167 
2496	 0.369295879572987 
2497	 0.369191000031407 
2498	 0.369255472576803 
2499	 0.369170985751194 
2500	 0.369469110414499 
