Wavelength	ProbetaAcolman00008.asd
350	 0.697904434427605 
351	 0.678668084650217 
352	 0.666654375892833 
353	 0.664056917804043 
354	 0.657839579352781 
355	 0.645411260674885 
356	 0.634250216357081 
357	 0.62979420310543 
358	 0.627280453700327 
359	 0.621717116970523 
360	 0.612562497254103 
361	 0.602272249990263 
362	 0.59725077784973 
363	 0.590182457041241 
364	 0.580092689085401 
365	 0.575409532530314 
366	 0.564745810625236 
367	 0.559073473958486 
368	 0.565788431496618 
369	 0.567844683546557 
370	 0.553784892030519 
371	 0.536961435405382 
372	 0.539981978021235 
373	 0.535165111753936 
374	 0.525358020753765 
375	 0.518049105893519 
376	 0.523490243376153 
377	 0.51679298290457 
378	 0.508286496081728 
379	 0.509235535073154 
380	 0.502484388195907 
381	 0.49597784026254 
382	 0.492342471410803 
383	 0.489562316240285 
384	 0.480894327770453 
385	 0.475839890535611 
386	 0.477665481404029 
387	 0.478938904137065 
388	 0.478641023979005 
389	 0.472657403661136 
390	 0.460848146087873 
391	 0.456920042923921 
392	 0.454281667825793 
393	 0.451223936468129 
394	 0.448955323261893 
395	 0.444820725658239 
396	 0.442495074804922 
397	 0.441501942521413 
398	 0.433596828068954 
399	 0.42925475732581 
400	 0.429288615930732 
401	 0.430804240720522 
402	 0.428641664896999 
403	 0.426312451043482 
404	 0.424800149170124 
405	 0.423115218220516 
406	 0.421695772332521 
407	 0.421963642508595 
408	 0.422878466925476 
409	 0.418301998507837 
410	 0.415269249507474 
411	 0.414963056749906 
412	 0.416198561942573 
413	 0.416905752712757 
414	 0.41531505495442 
415	 0.412914147668754 
416	 0.413576473844413 
417	 0.413710029026966 
418	 0.412318154342253 
419	 0.409682950161229 
420	 0.407706688513016 
421	 0.405271756660145 
422	 0.403321277264502 
423	 0.402907207630064 
424	 0.400535700278328 
425	 0.399094490421827 
426	 0.398883148549077 
427	 0.396974179843566 
428	 0.395520007417715 
429	 0.39407317491834 
430	 0.392182696546617 
431	 0.39101594060007 
432	 0.389661923692677 
433	 0.388759698697555 
434	 0.389347977862176 
435	 0.388306907137842 
436	 0.38711719666163 
437	 0.386421652394512 
438	 0.384867423394086 
439	 0.38299103858297 
440	 0.381537061666168 
441	 0.38071465763405 
442	 0.378442373163084 
443	 0.375833821269421 
444	 0.373460433221837 
445	 0.371329058313322 
446	 0.368623270311511 
447	 0.365815876587405 
448	 0.363512857316248 
449	 0.362354556218842 
450	 0.360219784093947 
451	 0.357803183064889 
452	 0.356536744733678 
453	 0.355299649613406 
454	 0.354050400346558 
455	 0.352997923431126 
456	 0.352527148617619 
457	 0.35235414908634 
458	 0.352605145477015 
459	 0.353349215153478 
460	 0.35426798929668 
461	 0.355453425888479 
462	 0.356873171951707 
463	 0.358449945004013 
464	 0.36029905850744 
465	 0.362020465658108 
466	 0.363441612593327 
467	 0.36477990693253 
468	 0.36598818214242 
469	 0.367221247708144 
470	 0.368530872535551 
471	 0.369404556925838 
472	 0.369935950412277 
473	 0.370134620539409 
474	 0.369956953462176 
475	 0.36971424899215 
476	 0.369360872072549 
477	 0.368840775096942 
478	 0.368159788283518 
479	 0.367788014178092 
480	 0.367639159017548 
481	 0.367450007615508 
482	 0.367293142001593 
483	 0.367822558371349 
484	 0.36910330242244 
485	 0.370524184401184 
486	 0.372479873143029 
487	 0.374935185361082 
488	 0.377801476871305 
489	 0.381104766950654 
490	 0.385044127362474 
491	 0.389484157870409 
492	 0.394158781073055 
493	 0.399631125461338 
494	 0.405677329339589 
495	 0.412007119318246 
496	 0.418366514988323 
497	 0.424930656860142 
498	 0.432038908634567 
499	 0.439891964530437 
500	 0.447857884933829 
501	 0.456083415930238 
502	 0.464593024425355 
503	 0.473282612491534 
504	 0.482097025410745 
505	 0.491073908423326 
506	 0.50024004998141 
507	 0.509586779245074 
508	 0.518973717152307 
509	 0.528361288174019 
510	 0.537757345845706 
511	 0.547144507340039 
512	 0.556576910110996 
513	 0.566026759986515 
514	 0.575399677550764 
515	 0.584523474872281 
516	 0.593643906191611 
517	 0.602935376345685 
518	 0.611861182361979 
519	 0.620850736929231 
520	 0.62993039992975 
521	 0.638836029270422 
522	 0.647743580238933 
523	 0.656634776298783 
524	 0.665476987056435 
525	 0.674295474402553 
526	 0.683006811973823 
527	 0.691670592141006 
528	 0.700359290846022 
529	 0.70889027197657 
530	 0.717404251146429 
531	 0.725878170944995 
532	 0.734082847701071 
533	 0.742383672467239 
534	 0.750645421987095 
535	 0.758710685496439 
536	 0.766686688964219 
537	 0.774624009373145 
538	 0.782435833615631 
539	 0.789992455719397 
540	 0.797424903366629 
541	 0.804627615594127 
542	 0.8115054881497 
543	 0.817983543549806 
544	 0.824230507806873 
545	 0.830301939811874 
546	 0.836184713610961 
547	 0.841766181338519 
548	 0.847089417480123 
549	 0.852146034975053 
550	 0.856881325442573 
551	 0.86150901284022 
552	 0.865891234769583 
553	 0.869941608797834 
554	 0.873874680309508 
555	 0.877570904037807 
556	 0.881079392889913 
557	 0.884494335044162 
558	 0.887644683015428 
559	 0.890684525628768 
560	 0.893623824329325 
561	 0.896242584213971 
562	 0.898721613855121 
563	 0.901038264239172 
564	 0.903117459244671 
565	 0.904867723245308 
566	 0.906495215388204 
567	 0.908117667985314 
568	 0.909768524142429 
569	 0.911355911250151 
570	 0.912883326830392 
571	 0.914341988844891 
572	 0.915629220104224 
573	 0.91700895704723 
574	 0.918340568778618 
575	 0.919402195058727 
576	 0.920493670386668 
577	 0.921579908937257 
578	 0.922614909308708 
579	 0.92356953690122 
580	 0.924614885759075 
581	 0.925579906882807 
582	 0.926352378602396 
583	 0.927236327624999 
584	 0.928190132532163 
585	 0.929088696362633 
586	 0.929817010877612 
587	 0.930869379756851 
588	 0.931818171624902 
589	 0.932572961547185 
590	 0.933777754637301 
591	 0.934689335740475 
592	 0.935437929061684 
593	 0.936334249284483 
594	 0.937243185573411 
595	 0.937964225841914 
596	 0.938582894907317 
597	 0.939415029633446 
598	 0.940278021247379 
599	 0.940895679260431 
600	 0.941305555843768 
601	 0.942364121883605 
602	 0.943261044430573 
603	 0.943824799365466 
604	 0.944253644679064 
605	 0.945188849656252 
606	 0.946112478366119 
607	 0.946750435657318 
608	 0.947253817410092 
609	 0.947907025542722 
610	 0.948651813028976 
611	 0.94932888958026 
612	 0.949741177347786 
613	 0.950387305351162 
614	 0.951181370100869 
615	 0.95168498405282 
616	 0.952038573100797 
617	 0.952647818475192 
618	 0.953516909667915 
619	 0.953875415434871 
620	 0.954263316804411 
621	 0.954860731446416 
622	 0.955615490204099 
623	 0.955960401676601 
624	 0.95629091935011 
625	 0.956837273543273 
626	 0.957601779396487 
627	 0.958061817454206 
628	 0.958395215363196 
629	 0.958850005176675 
630	 0.959531475145023 
631	 0.959940965744396 
632	 0.96016690306432 
633	 0.960547658026651 
634	 0.961079044544635 
635	 0.961531710732353 
636	 0.961866166484265 
637	 0.9623006525656 
638	 0.962775155262107 
639	 0.963180702102007 
640	 0.963475055324753 
641	 0.963877355872978 
642	 0.964262864991838 
643	 0.964654851389504 
644	 0.96513314413958 
645	 0.965394848217016 
646	 0.965614667052375 
647	 0.965946582330554 
648	 0.966424744927185 
649	 0.966727744452712 
650	 0.96688288967215 
651	 0.9670661247117 
652	 0.967565714868987 
653	 0.967912817546661 
654	 0.968038367192127 
655	 0.968216909333111 
656	 0.968484385443061 
657	 0.968783611441089 
658	 0.969069929192571 
659	 0.969383747066391 
660	 0.969543118649806 
661	 0.969707477831353 
662	 0.970069603383978 
663	 0.970245708493933 
664	 0.970416016334214 
665	 0.970659996027056 
666	 0.970924886436442 
667	 0.971325527929418 
668	 0.9716263602204 
669	 0.971711903121728 
670	 0.971945055191529 
671	 0.972162496519785 
672	 0.972340376559427 
673	 0.972523167771691 
674	 0.972785207084265 
675	 0.973071401812907 
676	 0.973334980982171 
677	 0.973556056152028 
678	 0.973820666882038 
679	 0.97404803121038 
680	 0.974187848384434 
681	 0.974388920931239 
682	 0.974683311566979 
683	 0.975030010118306 
684	 0.975342426698087 
685	 0.975562561637925 
686	 0.975729965946446 
687	 0.97590678184318 
688	 0.976167865188918 
689	 0.976411184748799 
690	 0.976660599550669 
691	 0.976953572924862 
692	 0.977267861933299 
693	 0.9774650604283 
694	 0.977675930804854 
695	 0.978131646768867 
696	 0.978282704844966 
697	 0.978471977675607 
698	 0.978839149052598 
699	 0.979036606128903 
700	 0.979306235085645 
701	 0.979572847514218 
702	 0.979747002467471 
703	 0.980030602642696 
704	 0.980286328276094 
705	 0.980515594734282 
706	 0.980799557143353 
707	 0.980934856345993 
708	 0.981139453422569 
709	 0.981451546209842 
710	 0.981513070797974 
711	 0.981728984491976 
712	 0.982027484545549 
713	 0.982218929735008 
714	 0.982237837841408 
715	 0.982356822770145 
716	 0.982601630858323 
717	 0.982817883929955 
718	 0.983053114039457 
719	 0.983244057996247 
720	 0.983372732865858 
721	 0.983515445930984 
722	 0.98366563762065 
723	 0.983795096015844 
724	 0.983871145725411 
725	 0.9838546890667 
726	 0.983997359312794 
727	 0.98428405532457 
728	 0.98450880375095 
729	 0.984665075275766 
730	 0.984803742522414 
731	 0.984935139164428 
732	 0.984982117861005 
733	 0.985071095488614 
734	 0.985240995811145 
735	 0.985466205483168 
736	 0.985614711071711 
737	 0.985635123459503 
738	 0.985660192560278 
739	 0.985896476836677 
740	 0.986063039340747 
741	 0.986120431429633 
742	 0.986120404074586 
743	 0.986196289183853 
744	 0.98642225514682 
745	 0.986651886259825 
746	 0.986741457739418 
747	 0.986767186303952 
748	 0.986836408646056 
749	 0.98703008754165 
750	 0.987350115097918 
751	 0.987376364577347 
752	 0.987436757651624 
753	 0.987631689368357 
754	 0.987672471781821 
755	 0.987777193583725 
756	 0.987896233221317 
757	 0.987969201256548 
758	 0.988078928734148 
759	 0.988230013343321 
760	 0.988395859093936 
761	 0.988536373553712 
762	 0.988655252014438 
763	 0.988691577848738 
764	 0.988726170379316 
765	 0.98897533718959 
766	 0.989246754623471 
767	 0.9894248326369 
768	 0.989506142565333 
769	 0.989699723886985 
770	 0.989917860255495 
771	 0.990125207501457 
772	 0.99030244693775 
773	 0.990439533926651 
774	 0.990540636163101 
775	 0.990611742367579 
776	 0.990669872025247 
777	 0.990855445667739 
778	 0.991018718023721 
779	 0.991085532633007 
780	 0.991181444310206 
781	 0.991243840075996 
782	 0.991371711159566 
783	 0.991606844276852 
784	 0.991628980087156 
785	 0.991775767110363 
786	 0.991995120223005 
787	 0.992049151043795 
788	 0.992144422581111 
789	 0.992298938330029 
790	 0.992472090756504 
791	 0.992580876161422 
792	 0.992700717316813 
793	 0.992793839113787 
794	 0.992852958460227 
795	 0.993012159007384 
796	 0.993066041418817 
797	 0.993010159916714 
798	 0.992969209383693 
799	 0.993268249583179 
800	 0.993528855826334 
801	 0.993619245695515 
802	 0.993639513054624 
803	 0.99367050846653 
804	 0.993772956855711 
805	 0.993916748065873 
806	 0.993952293165235 
807	 0.993966004264113 
808	 0.993953880965232 
809	 0.993956820685855 
810	 0.994229731308677 
811	 0.994368334250868 
812	 0.994395089348517 
813	 0.99451044825588 
814	 0.994700885424608 
815	 0.994762901700182 
816	 0.994762245393897 
817	 0.994975373289945 
818	 0.995083054314108 
819	 0.995155851307579 
820	 0.995212910117346 
821	 0.995091704997784 
822	 0.995079182747141 
823	 0.995191716446793 
824	 0.995359100981881 
825	 0.995521721920192 
826	 0.995543755813387 
827	 0.995539260859962 
828	 0.995687919716291 
829	 0.995802430178844 
830	 0.995894781780272 
831	 0.995974638459248 
832	 0.9960464198195 
833	 0.99618815975209 
834	 0.996288780464602 
835	 0.996309306951746 
836	 0.996363034594098 
837	 0.996274209510231 
838	 0.996274599577571 
839	 0.996496935318899 
840	 0.996518421238462 
841	 0.99656277741347 
842	 0.996597775122555 
843	 0.996541314595958 
844	 0.996557480191339 
845	 0.996691575684648 
846	 0.996888596408458 
847	 0.997027174693478 
848	 0.997076908309828 
849	 0.997096129726965 
850	 0.997083448586829 
851	 0.996962322094316 
852	 0.997118191478469 
853	 0.997277228274952 
854	 0.997224104112477 
855	 0.997160279019104 
856	 0.997206939098326 
857	 0.99728563729136 
858	 0.997302200692015 
859	 0.997388355814082 
860	 0.997448370630479 
861	 0.997458851909212 
862	 0.997463705976404 
863	 0.997648045549087 
864	 0.997758397352793 
865	 0.997730788211418 
866	 0.997693167281043 
867	 0.997664910307974 
868	 0.997626168008584 
869	 0.997544162681091 
870	 0.997388758741759 
871	 0.997478602879866 
872	 0.997620671538225 
873	 0.997614037304831 
874	 0.99749100422984 
875	 0.997580927859228 
876	 0.997679121343725 
877	 0.997547180347145 
878	 0.997458376278692 
879	 0.997570246252666 
880	 0.997744790269463 
881	 0.997734220208971 
882	 0.997592266094924 
883	 0.997437965347652 
884	 0.997292316948385 
885	 0.997113337962483 
886	 0.997050905360167 
887	 0.997023312723432 
888	 0.997004886390041 
889	 0.997049623412477 
890	 0.996862960780586 
891	 0.996795452495589 
892	 0.996918829846376 
893	 0.996652708224661 
894	 0.996446972116384 
895	 0.996371007915522 
896	 0.996346816344693 
897	 0.996177535288728 
898	 0.996021243248814 
899	 0.995961655840102 
900	 0.995992124079855 
901	 0.995881494317104 
902	 0.995823837727704 
903	 0.995768421444127 
904	 0.995578568250163 
905	 0.995354344256521 
906	 0.995278975397866 
907	 0.995298541866087 
908	 0.995200162864841 
909	 0.994998470528017 
910	 0.994809445154876 
911	 0.994690416614442 
912	 0.994615080444252 
913	 0.994475222792485 
914	 0.994459637341912 
915	 0.994539388449766 
916	 0.994357136928264 
917	 0.994225178092347 
918	 0.994095806809685 
919	 0.993943119938457 
920	 0.993910019368023 
921	 0.993948165496711 
922	 0.993922457668649 
923	 0.993783314705987 
924	 0.993741715163718 
925	 0.993791091211807 
926	 0.993775330091672 
927	 0.993593982941215 
928	 0.993484877817414 
929	 0.993577061107886 
930	 0.993764994255138 
931	 0.993884381786275 
932	 0.994009034765202 
933	 0.994295918778692 
934	 0.994609095431011 
935	 0.994734266282851 
936	 0.994968405062701 
937	 0.995203312833435 
938	 0.995380520049281 
939	 0.995517907347802 
940	 0.995776933585579 
941	 0.996040966435985 
942	 0.996270404515344 
943	 0.996510402939438 
944	 0.996741884839066 
945	 0.996860454938509 
946	 0.996858555104557 
947	 0.99683680030508 
948	 0.996790739465388 
949	 0.996845041425158 
950	 0.996981310443045 
951	 0.997003138461601 
952	 0.997068749609464 
953	 0.996989498745281 
954	 0.996781671960618 
955	 0.996816629915235 
956	 0.996862918338089 
957	 0.996672396296951 
958	 0.996284181559237 
959	 0.996197608606665 
960	 0.99590662111345 
961	 0.995699705327485 
962	 0.995713593528669 
963	 0.995435380566508 
964	 0.995410057793634 
965	 0.995519072030844 
966	 0.995550796826825 
967	 0.995495304755541 
968	 0.995579607043689 
969	 0.995708502894933 
970	 0.995798326125607 
971	 0.996060095268592 
972	 0.996097097578417 
973	 0.996033143695872 
974	 0.996052484876901 
975	 0.996023250794394 
976	 0.99595107698574 
977	 0.995808436595704 
978	 0.995608814831281 
979	 0.995484136222529 
980	 0.995535424073888 
981	 0.995632711525659 
982	 0.99564371969081 
983	 0.995733446032357 
984	 0.995613988191558 
985	 0.995541376163525 
986	 0.995753404737078 
987	 0.995773554040154 
988	 0.995800602454023 
989	 0.995712293868987 
990	 0.995413781531552 
991	 0.995239739756409 
992	 0.995259916735391 
993	 0.995319426401362 
994	 0.995284615268768 
995	 0.99542792673698 
996	 0.995451862242449 
997	 0.99533302361478 
998	 0.995166939453179 
999	 0.995045879610981 
1000	 0.994998638145639 
1001	 0.998508215857631 
1002	 0.998437057216869 
1003	 0.998364488995574 
1004	 0.998334519883138 
1005	 0.998437221146795 
1006	 0.998411836684043 
1007	 0.998343459258314 
1008	 0.998264329286183 
1009	 0.998145608767233 
1010	 0.998037660137388 
1011	 0.997874752211639 
1012	 0.997781063605705 
1013	 0.997751899642161 
1014	 0.997685017531307 
1015	 0.997649819283172 
1016	 0.997558312425536 
1017	 0.997483940721119 
1018	 0.997411393440894 
1019	 0.997304922016485 
1020	 0.997263882015878 
1021	 0.997211563196876 
1022	 0.997129287520587 
1023	 0.997080753458909 
1024	 0.997065644997038 
1025	 0.997059431189106 
1026	 0.997064870933998 
1027	 0.997069211299761 
1028	 0.997098561245901 
1029	 0.997125862155069 
1030	 0.997091456491373 
1031	 0.997049802403043 
1032	 0.99706727891621 
1033	 0.99703301198366 
1034	 0.997088962180233 
1035	 0.997198484356751 
1036	 0.997218368662358 
1037	 0.997224557328401 
1038	 0.997219880770529 
1039	 0.997118214727141 
1040	 0.997108831285105 
1041	 0.997136472608079 
1042	 0.997162386745935 
1043	 0.99722333452759 
1044	 0.997271803463323 
1045	 0.997346820584536 
1046	 0.997415786176877 
1047	 0.997463321923906 
1048	 0.997580932758957 
1049	 0.997650691607688 
1050	 0.997741810566168 
1051	 0.997903689374268 
1052	 0.99794565446729 
1053	 0.9980166956931 
1054	 0.998105101865675 
1055	 0.998171947035039 
1056	 0.998180311117078 
1057	 0.998305044936333 
1058	 0.998521660313817 
1059	 0.998603867548069 
1060	 0.998686804408027 
1061	 0.99880428254491 
1062	 0.998888325651526 
1063	 0.999049252341731 
1064	 0.999285609687032 
1065	 0.999443489408239 
1066	 0.999527686138041 
1067	 0.99957162850103 
1068	 0.999602041803534 
1069	 0.999670985417293 
1070	 0.999754506574644 
1071	 0.999853255006991 
1072	 0.999957056049218 
1073	 1.00008640421412 
1074	 1.0002202466263 
1075	 1.00033965234666 
1076	 1.00043170906367 
1077	 1.00050453597908 
1078	 1.00055093112664 
1079	 1.00059316118096 
1080	 1.00064469847245 
1081	 1.00071002848805 
1082	 1.00079475089627 
1083	 1.00083875993719 
1084	 1.00088660588415 
1085	 1.0009149955012 
1086	 1.00097707775401 
1087	 1.00103599835074 
1088	 1.00116471709672 
1089	 1.0012727927655 
1090	 1.00138535797806 
1091	 1.00144498229576 
1092	 1.00141469794367 
1093	 1.00141816035133 
1094	 1.00146133391981 
1095	 1.00148817029826 
1096	 1.00153260768954 
1097	 1.00156027314735 
1098	 1.00152204852708 
1099	 1.00147999873052 
1100	 1.00144116039767 
1101	 1.00141282285307 
1102	 1.00141136109662 
1103	 1.0013826189258 
1104	 1.00135199556073 
1105	 1.00131758237378 
1106	 1.00125284521681 
1107	 1.00114715935106 
1108	 1.00109776535237 
1109	 1.00107004026135 
1110	 1.00101787993785 
1111	 1.00098205500477 
1112	 1.00091798261068 
1113	 1.00080530095728 
1114	 1.00071660607299 
1115	 1.00063712609224 
1116	 1.00051394194115 
1117	 1.00042680702985 
1118	 1.00034723245018 
1119	 1.00028807095404 
1120	 1.0001862567146 
1121	 1.00010310237329 
1122	 0.999950180108864 
1123	 0.999764916772397 
1124	 0.999588385017153 
1125	 0.999389717064111 
1126	 0.999159289873647 
1127	 0.998866775397152 
1128	 0.998544929124333 
1129	 0.998242336340082 
1130	 0.997927844871725 
1131	 0.997571028574209 
1132	 0.997161278257707 
1133	 0.996696253837229 
1134	 0.996234788638702 
1135	 0.995683821461256 
1136	 0.99507743541913 
1137	 0.99444720448121 
1138	 0.993733299692287 
1139	 0.992997125607895 
1140	 0.992220706951731 
1141	 0.991515511488232 
1142	 0.990726490399837 
1143	 0.989922486503178 
1144	 0.989122052409365 
1145	 0.98820214318063 
1146	 0.987244023648427 
1147	 0.986260192993844 
1148	 0.98521421736017 
1149	 0.984219794291487 
1150	 0.983213703225441 
1151	 0.982169022707655 
1152	 0.981074127910592 
1153	 0.979940756960428 
1154	 0.978773198530792 
1155	 0.977564905824635 
1156	 0.976310887384396 
1157	 0.975049176011931 
1158	 0.973741438072846 
1159	 0.972365484563281 
1160	 0.970959600459445 
1161	 0.969566226659463 
1162	 0.968072402589806 
1163	 0.966613215858313 
1164	 0.965163809661157 
1165	 0.963714845177545 
1166	 0.962470100992293 
1167	 0.961343204627933 
1168	 0.960323062644931 
1169	 0.959398843074179 
1170	 0.958635421103568 
1171	 0.957852348231158 
1172	 0.957159284966916 
1173	 0.956445840783124 
1174	 0.955794764815654 
1175	 0.955099761107135 
1176	 0.954476612167326 
1177	 0.953688041945882 
1178	 0.952835628716752 
1179	 0.951881849548154 
1180	 0.950879455578345 
1181	 0.949726936718939 
1182	 0.948514040881366 
1183	 0.947318751662248 
1184	 0.94598891108555 
1185	 0.94468314701063 
1186	 0.943370959707009 
1187	 0.941998116760434 
1188	 0.940730728792565 
1189	 0.939441438265012 
1190	 0.938299392920442 
1191	 0.937250002419609 
1192	 0.936313473788375 
1193	 0.935481742659663 
1194	 0.934721446853007 
1195	 0.934095120547429 
1196	 0.933459315032144 
1197	 0.932899295433497 
1198	 0.932347641722207 
1199	 0.931728203836314 
1200	 0.93116565963956 
1201	 0.930592361934583 
1202	 0.929993816809214 
1203	 0.929382952574668 
1204	 0.928758660644701 
1205	 0.92815569741504 
1206	 0.927489616919472 
1207	 0.926942400041103 
1208	 0.926389465532387 
1209	 0.926028461483973 
1210	 0.925692574574354 
1211	 0.925614159468741 
1212	 0.925672040347419 
1213	 0.925992672676822 
1214	 0.926484557198835 
1215	 0.927265454181345 
1216	 0.928292217571505 
1217	 0.929567049002731 
1218	 0.93114524297317 
1219	 0.932899832002516 
1220	 0.934844509978219 
1221	 0.937080911688316 
1222	 0.939299893757662 
1223	 0.941654459590216 
1224	 0.944006152524233 
1225	 0.946474632260505 
1226	 0.948763447046261 
1227	 0.951083112743446 
1228	 0.953242685865598 
1229	 0.95528773056269 
1230	 0.957259597837325 
1231	 0.959202594876258 
1232	 0.960964350152157 
1233	 0.962584368796548 
1234	 0.964078197113242 
1235	 0.96539712533892 
1236	 0.966665959943085 
1237	 0.967818438277464 
1238	 0.968922050501553 
1239	 0.969965624184299 
1240	 0.970923170179989 
1241	 0.971807153652391 
1242	 0.972570096681623 
1243	 0.973298763441646 
1244	 0.973917152539493 
1245	 0.974566192470364 
1246	 0.975180855107741 
1247	 0.975783491937418 
1248	 0.976362893588435 
1249	 0.976944993487795 
1250	 0.97752964522458 
1251	 0.9780566634663 
1252	 0.978588583325741 
1253	 0.97904891121246 
1254	 0.979452490442468 
1255	 0.97980961046032 
1256	 0.980117072335997 
1257	 0.980387241771396 
1258	 0.980581547617055 
1259	 0.98077446173043 
1260	 0.980927069947511 
1261	 0.981086053922756 
1262	 0.981222499956464 
1263	 0.981382710693919 
1264	 0.981515095945123 
1265	 0.981646150481779 
1266	 0.981753799009903 
1267	 0.981850398768232 
1268	 0.981912457705603 
1269	 0.981944085523357 
1270	 0.981979114530779 
1271	 0.981985130200547 
1272	 0.981998539128113 
1273	 0.982018427344613 
1274	 0.98202582949092 
1275	 0.982002424745477 
1276	 0.98201117244713 
1277	 0.982025710615112 
1278	 0.98205317735796 
1279	 0.982126245026679 
1280	 0.982159266231781 
1281	 0.982152022964665 
1282	 0.98218671814197 
1283	 0.982200401242311 
1284	 0.982256172919924 
1285	 0.982344949812533 
1286	 0.982492011194801 
1287	 0.98260447347421 
1288	 0.982734402462059 
1289	 0.982839879578914 
1290	 0.982934143612657 
1291	 0.983026022656428 
1292	 0.98312026062863 
1293	 0.983184853698283 
1294	 0.983251383404691 
1295	 0.983270033272828 
1296	 0.983236545243922 
1297	 0.983221549096172 
1298	 0.983172594745371 
1299	 0.983151396634831 
1300	 0.98314683442159 
1301	 0.983140539990344 
1302	 0.98315474333085 
1303	 0.983143272107051 
1304	 0.983140369865903 
1305	 0.983102594676023 
1306	 0.983021084583066 
1307	 0.98295068142784 
1308	 0.982864102015963 
1309	 0.982781785396729 
1310	 0.982686554328686 
1311	 0.982597757114913 
1312	 0.982486106903685 
1313	 0.982358968693255 
1314	 0.982218079476954 
1315	 0.982069367401618 
1316	 0.981903360398631 
1317	 0.981718123846944 
1318	 0.981524276400296 
1319	 0.981313561640761 
1320	 0.981105687997989 
1321	 0.98088899344248 
1322	 0.980669704522518 
1323	 0.980464151276404 
1324	 0.980225194316708 
1325	 0.979973886422619 
1326	 0.9797006956879 
1327	 0.979392457532344 
1328	 0.979090694571549 
1329	 0.978800234507863 
1330	 0.978468098086 
1331	 0.978132607290995 
1332	 0.977757313851681 
1333	 0.977354407284096 
1334	 0.976893864559558 
1335	 0.976433400694392 
1336	 0.975947668926904 
1337	 0.975453601138853 
1338	 0.97494595925272 
1339	 0.974416038446242 
1340	 0.973869191089401 
1341	 0.973307441482874 
1342	 0.972726653464247 
1343	 0.972127298260888 
1344	 0.971521853826597 
1345	 0.97088065915715 
1346	 0.970231885547842 
1347	 0.969521423197845 
1348	 0.968783354888915 
1349	 0.967987323868941 
1350	 0.967117579159497 
1351	 0.966237313819387 
1352	 0.965338731800192 
1353	 0.964379278294462 
1354	 0.963378324437373 
1355	 0.962347538900751 
1356	 0.961260706479302 
1357	 0.960145926586446 
1358	 0.958937228394702 
1359	 0.957804658544939 
1360	 0.956695324011394 
1361	 0.955562314573971 
1362	 0.954459332854463 
1363	 0.953458105369106 
1364	 0.952392556148346 
1365	 0.951321770090809 
1366	 0.950218671406318 
1367	 0.949124413204381 
1368	 0.947964193500556 
1369	 0.94680300377082 
1370	 0.945494876494742 
1371	 0.944120804238889 
1372	 0.942669446824682 
1373	 0.941086602948723 
1374	 0.939484085709017 
1375	 0.937824545621559 
1376	 0.936114236665368 
1377	 0.934310759033341 
1378	 0.932499031843082 
1379	 0.930650318477078 
1380	 0.92876197671785 
1381	 0.926885161947471 
1382	 0.924863375458186 
1383	 0.922775010444128 
1384	 0.920577620010723 
1385	 0.918287981393513 
1386	 0.915889774307872 
1387	 0.913351257275918 
1388	 0.910847814457474 
1389	 0.908176785145723 
1390	 0.905667243068785 
1391	 0.903268949365337 
1392	 0.90080685398963 
1393	 0.898651786535357 
1394	 0.896637573488188 
1395	 0.894799750855803 
1396	 0.893206160487629 
1397	 0.891614703892037 
1398	 0.890233096360311 
1399	 0.888622167577794 
1400	 0.887110436434483 
1401	 0.885247150340986 
1402	 0.883300079691108 
1403	 0.880933484267025 
1404	 0.87835509102192 
1405	 0.875414943046313 
1406	 0.872103910887551 
1407	 0.868571348828784 
1408	 0.864546048245381 
1409	 0.860711541389346 
1410	 0.856422825736868 
1411	 0.852764429245315 
1412	 0.849044824884551 
1413	 0.84618059181198 
1414	 0.843742518561748 
1415	 0.841961736386417 
1416	 0.841041562829213 
1417	 0.840273585166322 
1418	 0.840243587079335 
1419	 0.84003069905911 
1420	 0.840143326826475 
1421	 0.840014064700977 
1422	 0.839860640080955 
1423	 0.839521246004129 
1424	 0.839023011713282 
1425	 0.838391994452983 
1426	 0.837669704581458 
1427	 0.83684502070914 
1428	 0.835977635701275 
1429	 0.835147449962327 
1430	 0.834322438380659 
1431	 0.833467373832218 
1432	 0.832675140578193 
1433	 0.831902558381067 
1434	 0.83118885341817 
1435	 0.83049941029065 
1436	 0.82988340387179 
1437	 0.829331585204024 
1438	 0.828825696569788 
1439	 0.828382103764287 
1440	 0.827958690397374 
1441	 0.827571241405617 
1442	 0.827228548474357 
1443	 0.826934472674475 
1444	 0.826648406626871 
1445	 0.826414937627257 
1446	 0.826176032757012 
1447	 0.82594128047847 
1448	 0.82571657318157 
1449	 0.825517644972812 
1450	 0.825304282056039 
1451	 0.825089941242718 
1452	 0.824876062147849 
1453	 0.824660486357006 
1454	 0.824443387830499 
1455	 0.824228576002313 
1456	 0.824007334506985 
1457	 0.82377752855754 
1458	 0.823551756252912 
1459	 0.823332237067829 
1460	 0.823098904978731 
1461	 0.822851424664274 
1462	 0.822617973692668 
1463	 0.822357617877568 
1464	 0.822138729674154 
1465	 0.821957352344421 
1466	 0.821773622866518 
1467	 0.821618474508974 
1468	 0.821480089193203 
1469	 0.821351588571426 
1470	 0.821260580196437 
1471	 0.821189073961994 
1472	 0.821158219835917 
1473	 0.821105471835784 
1474	 0.821074582275815 
1475	 0.821007266651478 
1476	 0.820925343207985 
1477	 0.820833371807665 
1478	 0.820740795106302 
1479	 0.820600322478329 
1480	 0.820451261861811 
1481	 0.820238650722828 
1482	 0.819981524702875 
1483	 0.819673592006884 
1484	 0.819318758868305 
1485	 0.818917869880755 
1486	 0.818427396793731 
1487	 0.817988284852953 
1488	 0.817529227307756 
1489	 0.817077216550404 
1490	 0.81663605637821 
1491	 0.816202609115127 
1492	 0.815733227177484 
1493	 0.815334472990111 
1494	 0.814980785928272 
1495	 0.814646608800176 
1496	 0.814335655765284 
1497	 0.814070679324896 
1498	 0.81382125561285 
1499	 0.81363852132112 
1500	 0.813515534569715 
1501	 0.81343183876671 
1502	 0.813409221169731 
1503	 0.813409367162486 
1504	 0.81345417031906 
1505	 0.813518818582625 
1506	 0.813609430933479 
1507	 0.813730811196278 
1508	 0.813893533635574 
1509	 0.814062115060066 
1510	 0.814267930638502 
1511	 0.814463501811653 
1512	 0.814641626116566 
1513	 0.814857453802113 
1514	 0.815074162478322 
1515	 0.815334704451566 
1516	 0.815652767763843 
1517	 0.815969801231679 
1518	 0.816311871171467 
1519	 0.816662157158872 
1520	 0.817014277731868 
1521	 0.817375556907557 
1522	 0.81778067071248 
1523	 0.818233841239969 
1524	 0.818699631719967 
1525	 0.819208336045071 
1526	 0.819718733504705 
1527	 0.820247346532818 
1528	 0.820770395312621 
1529	 0.821309055993222 
1530	 0.821844864385837 
1531	 0.82237167011693 
1532	 0.822925254660389 
1533	 0.823493366223109 
1534	 0.824073615866479 
1535	 0.824662119475424 
1536	 0.825274663623624 
1537	 0.825901938724102 
1538	 0.826553657309586 
1539	 0.827233318049535 
1540	 0.827917958639063 
1541	 0.828613764473773 
1542	 0.829337723325011 
1543	 0.830095032356312 
1544	 0.830824503063106 
1545	 0.831560920558401 
1546	 0.832305356531727 
1547	 0.833049418884683 
1548	 0.833772005882036 
1549	 0.834514499082209 
1550	 0.835218659416011 
1551	 0.835894603037983 
1552	 0.83653552530237 
1553	 0.837165097057826 
1554	 0.837751983322264 
1555	 0.83828206620771 
1556	 0.838809256007334 
1557	 0.839337389389231 
1558	 0.839799887649759 
1559	 0.840249568199877 
1560	 0.840604226718598 
1561	 0.840861722240683 
1562	 0.841125192042423 
1563	 0.841316442995139 
1564	 0.841527286934264 
1565	 0.84174685261831 
1566	 0.841934608901017 
1567	 0.8420915454948 
1568	 0.842253553201792 
1569	 0.842382157783678 
1570	 0.842549427027518 
1571	 0.842727603959492 
1572	 0.84292042245283 
1573	 0.843127865242931 
1574	 0.843360110563085 
1575	 0.843621432531113 
1576	 0.843873370118017 
1577	 0.844121098483288 
1578	 0.844414691873072 
1579	 0.844704360647312 
1580	 0.845047516525327 
1581	 0.845479901957897 
1582	 0.845871444258257 
1583	 0.846271083078231 
1584	 0.84666842439491 
1585	 0.847052374894405 
1586	 0.84744552073176 
1587	 0.84783513333795 
1588	 0.848249269448577 
1589	 0.848663688238335 
1590	 0.849106818677836 
1591	 0.84959877725359 
1592	 0.850068759234597 
1593	 0.85054405608228 
1594	 0.851018757421938 
1595	 0.851484884931619 
1596	 0.851954178709615 
1597	 0.852432847897855 
1598	 0.852904085454886 
1599	 0.853364644172283 
1600	 0.853834182505257 
1601	 0.854319634384269 
1602	 0.854784106360575 
1603	 0.855255672621493 
1604	 0.855695279341445 
1605	 0.856096987822949 
1606	 0.856504651901355 
1607	 0.856907099004459 
1608	 0.857293468226689 
1609	 0.857681376075429 
1610	 0.858041773287932 
1611	 0.85835528226771 
1612	 0.858690887933463 
1613	 0.859041889040982 
1614	 0.859358726653749 
1615	 0.859673911873864 
1616	 0.859969641302018 
1617	 0.860216815783945 
1618	 0.860480357451163 
1619	 0.860772287118636 
1620	 0.861013744135787 
1621	 0.861231244684044 
1622	 0.861431362038016 
1623	 0.861580504846564 
1624	 0.861743467398049 
1625	 0.861914372692355 
1626	 0.862064429761045 
1627	 0.862219909763721 
1628	 0.862333239650993 
1629	 0.862419107374188 
1630	 0.862479039065613 
1631	 0.862485281210196 
1632	 0.862508524081717 
1633	 0.862522219595168 
1634	 0.862530060721813 
1635	 0.862544828580398 
1636	 0.862543340033265 
1637	 0.862518804157093 
1638	 0.862498087446381 
1639	 0.862506565736411 
1640	 0.862452759178623 
1641	 0.862398535122911 
1642	 0.862269388395505 
1643	 0.86208563026858 
1644	 0.861834583457153 
1645	 0.861515572477847 
1646	 0.861144858603503 
1647	 0.860683765862234 
1648	 0.860216872646528 
1649	 0.859734313282219 
1650	 0.859182097194663 
1651	 0.858595992609933 
1652	 0.857949411982704 
1653	 0.857262019050401 
1654	 0.856470603668327 
1655	 0.855634445776567 
1656	 0.854663596603707 
1657	 0.853586734576587 
1658	 0.852370514512786 
1659	 0.851015939379582 
1660	 0.849595094666172 
1661	 0.848000002522266 
1662	 0.846421238018376 
1663	 0.844734261748393 
1664	 0.843097352536034 
1665	 0.841470124204245 
1666	 0.839827648458656 
1667	 0.838205868401129 
1668	 0.83659436741896 
1669	 0.83504398217688 
1670	 0.833334324827676 
1671	 0.831633419137646 
1672	 0.829725440767291 
1673	 0.827708938441397 
1674	 0.825432911205757 
1675	 0.822999001840412 
1676	 0.820379252040812 
1677	 0.817522302857357 
1678	 0.814492379595286 
1679	 0.811265041920602 
1680	 0.807856102761268 
1681	 0.804262232249454 
1682	 0.800423740186075 
1683	 0.796404805611607 
1684	 0.792230802546196 
1685	 0.787808085313694 
1686	 0.783237743114296 
1687	 0.77844477860333 
1688	 0.773550259087188 
1689	 0.768420196487398 
1690	 0.763294852622051 
1691	 0.758074057322591 
1692	 0.753001366034798 
1693	 0.747935005128213 
1694	 0.742880279934195 
1695	 0.737887311969172 
1696	 0.732798611593722 
1697	 0.727706426775183 
1698	 0.722424240593732 
1699	 0.71713321078123 
1700	 0.711759347570778 
1701	 0.706189437466932 
1702	 0.700666290126082 
1703	 0.694999087520947 
1704	 0.689503237540445 
1705	 0.683917893272658 
1706	 0.678508103026485 
1707	 0.673755346296177 
1708	 0.669146480008277 
1709	 0.664828948252805 
1710	 0.660946392013063 
1711	 0.657025370338399 
1712	 0.653459792595125 
1713	 0.650074093189735 
1714	 0.646767961930638 
1715	 0.643808357313296 
1716	 0.640846130852543 
1717	 0.638043051615859 
1718	 0.635410527981808 
1719	 0.632736324808243 
1720	 0.630266347318064 
1721	 0.627929438229139 
1722	 0.62569572019117 
1723	 0.623801576847 
1724	 0.622058789261944 
1725	 0.620601640884288 
1726	 0.619597288714896 
1727	 0.619015749889959 
1728	 0.618995148164024 
1729	 0.619767641478017 
1730	 0.621353799174939 
1731	 0.623609654827147 
1732	 0.626790051225464 
1733	 0.630534164750002 
1734	 0.634905948504301 
1735	 0.639981607204309 
1736	 0.645209311481996 
1737	 0.650629584621081 
1738	 0.656016439974133 
1739	 0.660797020557224 
1740	 0.665501421757349 
1741	 0.669512946800043 
1742	 0.673058300839709 
1743	 0.676032006179831 
1744	 0.678406923155505 
1745	 0.680245475179468 
1746	 0.681430152954424 
1747	 0.682189708448 
1748	 0.68236937325437 
1749	 0.682246268268164 
1750	 0.681574734303523 
1751	 0.680790442416005 
1752	 0.679626648409373 
1753	 0.678414561580854 
1754	 0.67696196464318 
1755	 0.675600450082974 
1756	 0.674060340522738 
1757	 0.672769469589016 
1758	 0.671505182454167 
1759	 0.670433091018013 
1760	 0.669671197532803 
1761	 0.669250914904326 
1762	 0.669248541977919 
1763	 0.669772934519814 
1764	 0.670715195272858 
1765	 0.672224388046976 
1766	 0.674373678872468 
1767	 0.676906046666245 
1768	 0.679956490664545 
1769	 0.683347636899945 
1770	 0.686683909690349 
1771	 0.690273009694804 
1772	 0.693829970872479 
1773	 0.697250048508137 
1774	 0.700793841051109 
1775	 0.704012406575717 
1776	 0.707104024009679 
1777	 0.710060156056987 
1778	 0.712549842371127 
1779	 0.714950900210772 
1780	 0.717151834143181 
1781	 0.719062928599814 
1782	 0.720970385933479 
1783	 0.722671251488652 
1784	 0.724222138397025 
1785	 0.725540401453326 
1786	 0.72673343322501 
1787	 0.727754408670725 
1788	 0.728694175008202 
1789	 0.729525753994261 
1790	 0.730300030022678 
1791	 0.730950560448777 
1792	 0.731578750418595 
1793	 0.732098775977289 
1794	 0.732611162215142 
1795	 0.733109888393482 
1796	 0.733564709637975 
1797	 0.734078670333606 
1798	 0.734617716558599 
1799	 0.735160019277909 
1800	 0.735719321907397 
1801	 0.736521076754778 
1802	 0.737202762871166 
1803	 0.737840222475683 
1804	 0.738461261491208 
1805	 0.73914363339076 
1806	 0.739777416874027 
1807	 0.740400414194817 
1808	 0.741013723547034 
1809	 0.741645266073133 
1810	 0.742210606249032 
1811	 0.742738399996098 
1812	 0.743260520830045 
1813	 0.743718077327925 
1814	 0.744214400230688 
1815	 0.744715855006411 
1816	 0.745263011712778 
1817	 0.745813107688134 
1818	 0.746373181560587 
1819	 0.746958564492002 
1820	 0.747527784091501 
1821	 0.748168935796492 
1822	 0.748855478715054 
1823	 0.749602417628595 
1824	 0.75030798432302 
1825	 0.751062065273635 
1826	 0.751808858291388 
1827	 0.752548657459752 
1828	 0.753267390092834 
1829	 0.754017946078738 
1830	 0.754725668992071 
1831	 0.755377843064427 
1832	 0.756070646703812 
1833	 0.756733097621687 
1834	 0.757402355668721 
1835	 0.758070255246579 
1836	 0.758683587467191 
1837	 0.759336194658897 
1838	 0.759987999123251 
1839	 0.760665369616345 
1840	 0.76138448192821 
1841	 0.762072787330744 
1842	 0.762744790844529 
1843	 0.763457722232673 
1844	 0.764168524321309 
1845	 0.764813176827199 
1846	 0.765491063140612 
1847	 0.766104019448609 
1848	 0.766676387015336 
1849	 0.767214531021249 
1850	 0.767708867054901 
1851	 0.768163791232355 
1852	 0.768585596496379 
1853	 0.768932503925397 
1854	 0.769203689218867 
1855	 0.769435457155537 
1856	 0.76960812117282 
1857	 0.769724575245878 
1858	 0.769776551198644 
1859	 0.769751883977218 
1860	 0.769662710048914 
1861	 0.769481510268804 
1862	 0.769217589050396 
1863	 0.768906540997934 
1864	 0.768492298362584 
1865	 0.76799020104545 
1866	 0.76741554908555 
1867	 0.766708198369265 
1868	 0.765950767007552 
1869	 0.765046648568242 
1870	 0.764019746758664 
1871	 0.762929429122279 
1872	 0.761659272964834 
1873	 0.760217894271641 
1874	 0.758704447543965 
1875	 0.757027473479617 
1876	 0.755039617551577 
1877	 0.753029127707385 
1878	 0.750737367822572 
1879	 0.748193913157295 
1880	 0.745691584949529 
1881	 0.742919822664036 
1882	 0.73990984828248 
1883	 0.736783474759756 
1884	 0.733429083372944 
1885	 0.729534926176937 
1886	 0.725511596578103 
1887	 0.72107528181962 
1888	 0.716243951859461 
1889	 0.711566028339012 
1890	 0.706434739675629 
1891	 0.701162726373285 
1892	 0.695792376894735 
1893	 0.690010348750253 
1894	 0.683759897265863 
1895	 0.677621612429611 
1896	 0.671184080833285 
1897	 0.664554588474545 
1898	 0.658443522089041 
1899	 0.652035359317304 
1900	 0.64571084917451 
1901	 0.639571635038595 
1902	 0.632907696483825 
1903	 0.626516444875533 
1904	 0.620190846118915 
1905	 0.613818844918967 
1906	 0.607500051649516 
1907	 0.601874536426605 
1908	 0.596144614683252 
1909	 0.590664060469568 
1910	 0.58552969275284 
1911	 0.580081910699203 
1912	 0.574992102624007 
1913	 0.570025281573791 
1914	 0.565063631421363 
1915	 0.560524173503174 
1916	 0.556398991745646 
1917	 0.552237118014501 
1918	 0.548297478845562 
1919	 0.544642747978991 
1920	 0.540787835328028 
1921	 0.537254021826695 
1922	 0.533835016229699 
1923	 0.530410891174557 
1924	 0.527426282436806 
1925	 0.524470670223983 
1926	 0.521674366277118 
1927	 0.519120333097414 
1928	 0.516615234184703 
1929	 0.514144802355392 
1930	 0.511924293467076 
1931	 0.509839868482891 
1932	 0.50786730942467 
1933	 0.506237836297481 
1934	 0.504712595056045 
1935	 0.503328075097518 
1936	 0.502163330646242 
1937	 0.501080512544911 
1938	 0.500097703208127 
1939	 0.499295504654186 
1940	 0.498639137200187 
1941	 0.498110889066916 
1942	 0.497754442148107 
1943	 0.49752275391685 
1944	 0.497393837241266 
1945	 0.497358996391079 
1946	 0.497451509486774 
1947	 0.497653728717058 
1948	 0.497974811961544 
1949	 0.498418673556211 
1950	 0.498910490475454 
1951	 0.499504291189658 
1952	 0.500141201021101 
1953	 0.500833929242344 
1954	 0.501587108004798 
1955	 0.502450637524559 
1956	 0.503288181276452 
1957	 0.504204395438839 
1958	 0.505191706720312 
1959	 0.506106134249927 
1960	 0.507092601873408 
1961	 0.508057184023492 
1962	 0.508983130467668 
1963	 0.50996217825803 
1964	 0.510977831916584 
1965	 0.511979776327031 
1966	 0.513012272375635 
1967	 0.514054023869111 
1968	 0.515009831029241 
1969	 0.516002126495102 
1970	 0.516977537295616 
1971	 0.5179489811798 
1972	 0.519007194737219 
1973	 0.520030085875291 
1974	 0.521065460717505 
1975	 0.522123062191311 
1976	 0.523174584656966 
1977	 0.524202631449845 
1978	 0.525285528774532 
1979	 0.526384242176782 
1980	 0.527485488193658 
1981	 0.528725275256956 
1982	 0.529946032311535 
1983	 0.531224306529949 
1984	 0.532593020899871 
1985	 0.533848133458269 
1986	 0.535129361498698 
1987	 0.536407904531939 
1988	 0.537636950246189 
1989	 0.538933395317261 
1990	 0.540285577369571 
1991	 0.541601269634154 
1992	 0.542935008201954 
1993	 0.544295764788568 
1994	 0.545536561055226 
1995	 0.546824389623242 
1996	 0.548084010183392 
1997	 0.549290867742321 
1998	 0.550551875164909 
1999	 0.551852004105497 
2000	 0.553080711015246 
2001	 0.554342134149017 
2002	 0.555519480964849 
2003	 0.556627151854641 
2004	 0.55771721261483 
2005	 0.558724379530752 
2006	 0.559761254478843 
2007	 0.56081331706839 
2008	 0.561807712010902 
2009	 0.562795694399886 
2010	 0.563784673063113 
2011	 0.564626471122255 
2012	 0.565474675288977 
2013	 0.566294261681548 
2014	 0.567072759057607 
2015	 0.567827370335754 
2016	 0.568608524352038 
2017	 0.569263740427123 
2018	 0.569873752237479 
2019	 0.570391697600441 
2020	 0.57082210649399 
2021	 0.571170111217626 
2022	 0.571435548351531 
2023	 0.571602806605821 
2024	 0.571678177426963 
2025	 0.571662164980937 
2026	 0.571519975913815 
2027	 0.571253032170777 
2028	 0.57091996943931 
2029	 0.570471415810778 
2030	 0.569939130526024 
2031	 0.569364478059041 
2032	 0.568637493001215 
2033	 0.567748984338754 
2034	 0.566818969239878 
2035	 0.565765353000949 
2036	 0.56464212686246 
2037	 0.563555041830229 
2038	 0.562397409652695 
2039	 0.561225419785435 
2040	 0.56006177172116 
2041	 0.558804632536961 
2042	 0.55744991830742 
2043	 0.556144054642723 
2044	 0.554750096978319 
2045	 0.553455838088583 
2046	 0.552208609225132 
2047	 0.550981156193306 
2048	 0.549781373288866 
2049	 0.548633704279941 
2050	 0.547464187876243 
2051	 0.54641143360214 
2052	 0.545470491793968 
2053	 0.544673158568535 
2054	 0.544097741556744 
2055	 0.543700457601882 
2056	 0.543494726586583 
2057	 0.543454844381155 
2058	 0.543675535729524 
2059	 0.544089972627955 
2060	 0.544765185859729 
2061	 0.545774850592279 
2062	 0.546865762109801 
2063	 0.54818285507291 
2064	 0.549627759407456 
2065	 0.551222013042632 
2066	 0.552909904690579 
2067	 0.554896576354896 
2068	 0.556896211261253 
2069	 0.558982872373764 
2070	 0.561286305335125 
2071	 0.563427380770362 
2072	 0.565592980052833 
2073	 0.567676456348617 
2074	 0.56965060106614 
2075	 0.571691840204333 
2076	 0.573802704959722 
2077	 0.575745965583492 
2078	 0.577730305046949 
2079	 0.579523111263272 
2080	 0.581086969855337 
2081	 0.582653131318586 
2082	 0.584193499133553 
2083	 0.585539189178012 
2084	 0.586891100471752 
2085	 0.588145309168501 
2086	 0.58931520846366 
2087	 0.590409442275608 
2088	 0.591391714612848 
2089	 0.592283858997636 
2090	 0.59306611106506 
2091	 0.593687489977357 
2092	 0.594312264592599 
2093	 0.594896561948013 
2094	 0.595365138785047 
2095	 0.595788995555681 
2096	 0.596099926630655 
2097	 0.596273653423493 
2098	 0.596367637773073 
2099	 0.596440403214519 
2100	 0.596446189708075 
2101	 0.596348965375851 
2102	 0.596165542128408 
2103	 0.595929845859042 
2104	 0.595579455025923 
2105	 0.595232220735782 
2106	 0.594852885865877 
2107	 0.594426682094486 
2108	 0.593992779153093 
2109	 0.593438206021233 
2110	 0.592794742160005 
2111	 0.592114233585152 
2112	 0.591318662485458 
2113	 0.590521270191047 
2114	 0.589701411163937 
2115	 0.58884371257593 
2116	 0.587956291204383 
2117	 0.587027214513749 
2118	 0.586043221264544 
2119	 0.584989181662409 
2120	 0.583980223423543 
2121	 0.582902743159009 
2122	 0.581915661098003 
2123	 0.580992597218922 
2124	 0.580047484289367 
2125	 0.579146666573427 
2126	 0.578201723199365 
2127	 0.577280024424136 
2128	 0.576280403015699 
2129	 0.575221553782009 
2130	 0.574149759800909 
2131	 0.573084633546405 
2132	 0.571900653418688 
2133	 0.570713275833613 
2134	 0.569399163745859 
2135	 0.567825377244646 
2136	 0.566236329617746 
2137	 0.56450387152862 
2138	 0.562570089559702 
2139	 0.560685014189362 
2140	 0.558735835989192 
2141	 0.556747575397383 
2142	 0.554704821092467 
2143	 0.552675346401933 
2144	 0.550496588818727 
2145	 0.548562069752154 
2146	 0.546600260374892 
2147	 0.544929012783653 
2148	 0.543531780584201 
2149	 0.542176478214624 
2150	 0.541070395270467 
2151	 0.539934675125085 
2152	 0.538861085051823 
2153	 0.537830263766423 
2154	 0.536781360075477 
2155	 0.535657860469574 
2156	 0.534494589495813 
2157	 0.533292791397489 
2158	 0.53199417423041 
2159	 0.530661016965918 
2160	 0.529204767563014 
2161	 0.52761217843488 
2162	 0.52602671359209 
2163	 0.524274316971647 
2164	 0.522690058287836 
2165	 0.521109613927957 
2166	 0.519625241160128 
2167	 0.518258825541184 
2168	 0.516912273452537 
2169	 0.515575905030624 
2170	 0.514352976706004 
2171	 0.513147531498366 
2172	 0.512108134668995 
2173	 0.511207896908049 
2174	 0.510397673208365 
2175	 0.509762420051236 
2176	 0.509213268227076 
2177	 0.508680242931708 
2178	 0.508205747013971 
2179	 0.50785270213526 
2180	 0.507560705508941 
2181	 0.507356513082992 
2182	 0.507297630379463 
2183	 0.50724654357707 
2184	 0.507217013151582 
2185	 0.507297628567038 
2186	 0.507478506322851 
2187	 0.507709572056189 
2188	 0.508051765922758 
2189	 0.508392395788837 
2190	 0.508814913147827 
2191	 0.509207843830476 
2192	 0.509641940724382 
2193	 0.510023729703902 
2194	 0.510399581387503 
2195	 0.510730230372721 
2196	 0.51102433943767 
2197	 0.511278908101141 
2198	 0.51149394792152 
2199	 0.511680398987075 
2200	 0.511812327419549 
2201	 0.511897748674505 
2202	 0.511938036508741 
2203	 0.511933704492602 
2204	 0.511868749798338 
2205	 0.511726580895295 
2206	 0.511591749467847 
2207	 0.511412670391691 
2208	 0.511213924455147 
2209	 0.511006834091366 
2210	 0.510768485095877 
2211	 0.510459178711769 
2212	 0.510192008443375 
2213	 0.509912747267705 
2214	 0.509668188764797 
2215	 0.509434675047716 
2216	 0.509233794387885 
2217	 0.509078878858594 
2218	 0.508919659513856 
2219	 0.508847296298221 
2220	 0.508671942770874 
2221	 0.50848847102724 
2222	 0.508205729441944 
2223	 0.507875644354965 
2224	 0.507431020330687 
2225	 0.506933920265038 
2226	 0.50634520727771 
2227	 0.505564197455733 
2228	 0.504667740026478 
2229	 0.503570971073185 
2230	 0.502265084090823 
2231	 0.500849613947334 
2232	 0.499272080872763 
2233	 0.49754715929745 
2234	 0.495730879978206 
2235	 0.493646237725242 
2236	 0.49132667205435 
2237	 0.488891090226607 
2238	 0.486127010942246 
2239	 0.483455630553713 
2240	 0.480757354867676 
2241	 0.477926546331655 
2242	 0.475114714777654 
2243	 0.472092220512182 
2244	 0.468838410313818 
2245	 0.46559274843703 
2246	 0.462142483998374 
2247	 0.45878592975235 
2248	 0.455510871197698 
2249	 0.452108005883442 
2250	 0.448678604372353 
2251	 0.445251866297345 
2252	 0.441512037798163 
2253	 0.437939208437817 
2254	 0.434309149610875 
2255	 0.430630802975529 
2256	 0.427289634477159 
2257	 0.423803502698735 
2258	 0.420383040313835 
2259	 0.417123261970919 
2260	 0.413638799431776 
2261	 0.41002184196029 
2262	 0.406490949520493 
2263	 0.402791680820757 
2264	 0.399349617843759 
2265	 0.396076099668188 
2266	 0.392732687991506 
2267	 0.389534964481307 
2268	 0.386216864822016 
2269	 0.38268771421698 
2270	 0.379498949259662 
2271	 0.376276347137645 
2272	 0.373423633816332 
2273	 0.370946833848383 
2274	 0.36849160667673 
2275	 0.36631429619735 
2276	 0.364106117874908 
2277	 0.36197458355619 
2278	 0.359882471184631 
2279	 0.357862266209706 
2280	 0.355819036033736 
2281	 0.353884652974048 
2282	 0.351795055187666 
2283	 0.349694883947655 
2284	 0.34745746717301 
2285	 0.344937403676457 
2286	 0.342452455906664 
2287	 0.339745661279497 
2288	 0.336943978119546 
2289	 0.334312338445465 
2290	 0.331489053137589 
2291	 0.328640956519437 
2292	 0.32569145075829 
2293	 0.322253820340486 
2294	 0.318700907724707 
2295	 0.314819136337395 
2296	 0.310584347199776 
2297	 0.306406762588568 
2298	 0.302105656126933 
2299	 0.297622464540198 
2300	 0.293055399527501 
2301	 0.288323016124862 
2302	 0.283170554254137 
2303	 0.278521642592943 
2304	 0.273640287063436 
2305	 0.269610912381534 
2306	 0.265880556201184 
2307	 0.26298574878868 
2308	 0.260557986766301 
2309	 0.259316753243645 
2310	 0.258772343902453 
2311	 0.259640789238368 
2312	 0.262000207968559 
2313	 0.2649366664787 
2314	 0.26930012301768 
2315	 0.273821853724213 
2316	 0.279198319706853 
2317	 0.284517945201641 
2318	 0.290713576199319 
2319	 0.296018856949333 
2320	 0.301483399273399 
2321	 0.305950173072674 
2322	 0.309653046927365 
2323	 0.312901034053215 
2324	 0.315368566929909 
2325	 0.317505260062836 
2326	 0.319124779235096 
2327	 0.320385427632361 
2328	 0.321087613303188 
2329	 0.321638034656916 
2330	 0.321872160999857 
2331	 0.321771334892948 
2332	 0.321442509007088 
2333	 0.32070628816525 
2334	 0.319499083892251 
2335	 0.317995490338458 
2336	 0.315978778372471 
2337	 0.313518573504338 
2338	 0.310808144232894 
2339	 0.307592326374466 
2340	 0.30425960411393 
2341	 0.300684754371498 
2342	 0.296634964644824 
2343	 0.292609416476523 
2344	 0.288552986988185 
2345	 0.284513822648862 
2346	 0.281131895422942 
2347	 0.278309276651452 
2348	 0.276120464639614 
2349	 0.275025102158657 
2350	 0.274835545046794 
2351	 0.27560075308235 
2352	 0.277449380485414 
2353	 0.280385679149433 
2354	 0.283695686708937 
2355	 0.287634809677553 
2356	 0.291751353371448 
2357	 0.295656695781571 
2358	 0.29980138270711 
2359	 0.303421469992053 
2360	 0.306467639794657 
2361	 0.308931040348077 
2362	 0.310652118017514 
2363	 0.311893518091849 
2364	 0.312892646840255 
2365	 0.313519881874246 
2366	 0.31385632662086 
2367	 0.314094605824893 
2368	 0.314151663500489 
2369	 0.314154297453638 
2370	 0.314245708461947 
2371	 0.314319771131202 
2372	 0.314339504914427 
2373	 0.314432274961295 
2374	 0.314443968443875 
2375	 0.314381361189037 
2376	 0.314336177247209 
2377	 0.314224275738415 
2378	 0.314117650995505 
2379	 0.314008468625797 
2380	 0.313887832046392 
2381	 0.313722261319985 
2382	 0.31356476699025 
2383	 0.313384093962338 
2384	 0.31325699744659 
2385	 0.313137101615314 
2386	 0.313076392318948 
2387	 0.313049145596793 
2388	 0.313052476199072 
2389	 0.313134690525923 
2390	 0.313126147275757 
2391	 0.31314235830311 
2392	 0.313127247831911 
2393	 0.313024341731347 
2394	 0.312978506944317 
2395	 0.312925048399424 
2396	 0.312922703006993 
2397	 0.312954625422002 
2398	 0.313015344043165 
2399	 0.31313039089197 
2400	 0.313206171405468 
2401	 0.313257131842133 
2402	 0.313288952292592 
2403	 0.313485724915996 
2404	 0.313773467832596 
2405	 0.314058182877247 
2406	 0.314378711269118 
2407	 0.314703948806947 
2408	 0.314995942780612 
2409	 0.315308895910246 
2410	 0.315662179345473 
2411	 0.316017399491869 
2412	 0.316241758403425 
2413	 0.316360426580579 
2414	 0.31653687859361 
2415	 0.316650277072588 
2416	 0.316773901181921 
2417	 0.316998982917781 
2418	 0.317156411732034 
2419	 0.31726177584142 
2420	 0.317398816284408 
2421	 0.317404018526887 
2422	 0.317426953603958 
2423	 0.317604614995918 
2424	 0.317521659928119 
2425	 0.317467941918857 
2426	 0.317481632838729 
2427	 0.31729098658625 
2428	 0.317312700356301 
2429	 0.317375053604027 
2430	 0.317287510438859 
2431	 0.317156095197141 
2432	 0.317013042838289 
2433	 0.31692623515617 
2434	 0.316856671138704 
2435	 0.316733349377565 
2436	 0.316685482022885 
2437	 0.316819151322189 
2438	 0.316761931580325 
2439	 0.316581983674065 
2440	 0.316367135050238 
2441	 0.315929841198346 
2442	 0.315586034308181 
2443	 0.315406512100095 
2444	 0.31526209169391 
2445	 0.315117195304336 
2446	 0.314887183840656 
2447	 0.314667873907847 
2448	 0.314269396657607 
2449	 0.313698705621294 
2450	 0.313297964158343 
2451	 0.312745563071092 
2452	 0.312086148137967 
2453	 0.311565925573659 
2454	 0.310748405919287 
2455	 0.309964745480064 
2456	 0.309519905746774 
2457	 0.30891947450545 
2458	 0.308389908179306 
2459	 0.307980740875027 
2460	 0.307543931432959 
2461	 0.307116532216074 
2462	 0.306750008567357 
2463	 0.306665806177316 
2464	 0.306513002679362 
2465	 0.306405770885436 
2466	 0.306404602025887 
2467	 0.306242098544304 
2468	 0.306065879693297 
2469	 0.306005441985094 
2470	 0.306204540066595 
2471	 0.306369511796359 
2472	 0.306637665986541 
2473	 0.307039751340851 
2474	 0.30718286734726 
2475	 0.307458183477973 
2476	 0.307648541269098 
2477	 0.307806349907487 
2478	 0.308260600376234 
2479	 0.308675078876639 
2480	 0.309298247081075 
2481	 0.309972082300525 
2482	 0.310673702405786 
2483	 0.311452146381539 
2484	 0.312087097458318 
2485	 0.31241391765173 
2486	 0.312555429317763 
2487	 0.312699937262292 
2488	 0.313087782063092 
2489	 0.313555498900728 
2490	 0.314201682483337 
2491	 0.314764043834031 
2492	 0.315142202778886 
2493	 0.315702217795315 
2494	 0.315989741161499 
2495	 0.316227579771466 
2496	 0.316805180139851 
2497	 0.316966973734563 
2498	 0.317431604389637 
2499	 0.318125705242849 
2500	 0.318346939617546 
