Wavelength	ProbetaAcolman00012.asd
350	 0.546897993907801 
351	 0.539715532584226 
352	 0.522640899511681 
353	 0.497366629731734 
354	 0.500754584764342 
355	 0.501778862992996 
356	 0.48408146634831 
357	 0.448964734774115 
358	 0.4399637231492 
359	 0.433424802187025 
360	 0.425168793467577 
361	 0.420061488118933 
362	 0.406478290324563 
363	 0.39445589737698 
364	 0.387088483090852 
365	 0.374506486188944 
366	 0.36705429216549 
367	 0.362391758957255 
368	 0.357986663015578 
369	 0.362790709922306 
370	 0.353717845001489 
371	 0.338557397920815 
372	 0.338550385157794 
373	 0.32659784255315 
374	 0.318040673691626 
375	 0.314821697683958 
376	 0.295332472117397 
377	 0.28616542167811 
378	 0.284482934150783 
379	 0.280570931464484 
380	 0.267782883648648 
381	 0.26233550291493 
382	 0.265284037246118 
383	 0.267150342471304 
384	 0.26024366994786 
385	 0.247712174137894 
386	 0.236189168789275 
387	 0.235813971147328 
388	 0.232146603972407 
389	 0.228450081747404 
390	 0.228408465738413 
391	 0.219504976455526 
392	 0.212107839715363 
393	 0.210654239372752 
394	 0.213448774452174 
395	 0.204965960880397 
396	 0.195446438792437 
397	 0.190904502832257 
398	 0.185929986395755 
399	 0.18320812282588 
400	 0.181381856450691 
401	 0.178292501040974 
402	 0.172784038110142 
403	 0.168232812454488 
404	 0.165998447658589 
405	 0.165611328154114 
406	 0.164141343225823 
407	 0.161576399981115 
408	 0.158283696185686 
409	 0.153959513392582 
410	 0.153230073980174 
411	 0.152425080503385 
412	 0.147464586771802 
413	 0.145273293022711 
414	 0.143426841003739 
415	 0.141571559176281 
416	 0.1414000154426 
417	 0.141171187334941 
418	 0.139261379787756 
419	 0.135963670446075 
420	 0.13565411073512 
421	 0.13455757542406 
422	 0.132539174409062 
423	 0.131000647272286 
424	 0.131350307849801 
425	 0.130860669987826 
426	 0.128867030533176 
427	 0.127203563892594 
428	 0.126972926079161 
429	 0.127038194729476 
430	 0.126191040294331 
431	 0.124348927204937 
432	 0.123561815329524 
433	 0.123723058843765 
434	 0.123516810498942 
435	 0.122161601583552 
436	 0.1215612839064 
437	 0.121969450081278 
438	 0.120792419601813 
439	 0.119722740124874 
440	 0.119269413727547 
441	 0.119460307506475 
442	 0.120004668963031 
443	 0.11933471782154 
444	 0.117917400637474 
445	 0.117663698616886 
446	 0.117466290359012 
447	 0.117374743393011 
448	 0.117381789424729 
449	 0.116995295700285 
450	 0.116450251666691 
451	 0.116270911066072 
452	 0.116780940768119 
453	 0.116523674440753 
454	 0.116167449772638 
455	 0.11592570761027 
456	 0.115385145072288 
457	 0.115151049914531 
458	 0.115195771572733 
459	 0.11521499623827 
460	 0.114431431171233 
461	 0.11444068655809 
462	 0.114955434040695 
463	 0.114777935572163 
464	 0.114455708270239 
465	 0.114225755536661 
466	 0.114198491574753 
467	 0.114362007286762 
468	 0.114235160370523 
469	 0.114070165757235 
470	 0.114145378924445 
471	 0.11393586032508 
472	 0.113521409536315 
473	 0.113192453885469 
474	 0.113320756993232 
475	 0.113263709221735 
476	 0.113036867227483 
477	 0.112814941246626 
478	 0.11291317981237 
479	 0.112732734116842 
480	 0.112374596298572 
481	 0.112196259902981 
482	 0.112282029894248 
483	 0.112449213853287 
484	 0.112533837313857 
485	 0.112425736681793 
486	 0.112264827297911 
487	 0.11223188938177 
488	 0.112369446079357 
489	 0.112285513439016 
490	 0.112337408728186 
491	 0.112561259235399 
492	 0.112785951228193 
493	 0.112759098769387 
494	 0.113026957383068 
495	 0.113656964081114 
496	 0.113814283346456 
497	 0.113767758048454 
498	 0.1138655879997 
499	 0.114314642251779 
500	 0.114532619077623 
501	 0.11484304105194 
502	 0.115279127306574 
503	 0.115601503332191 
504	 0.115819951405201 
505	 0.116060056132789 
506	 0.116404743956149 
507	 0.116782679544978 
508	 0.117265100469584 
509	 0.117721591923274 
510	 0.118001306230209 
511	 0.118456434911716 
512	 0.118864895534703 
513	 0.119190064933211 
514	 0.11969140622338 
515	 0.120134303119199 
516	 0.120556296299986 
517	 0.12100510173972 
518	 0.121293108848515 
519	 0.121704592867077 
520	 0.122256821361372 
521	 0.122782266608602 
522	 0.123303515995485 
523	 0.123905758781845 
524	 0.124571016761036 
525	 0.125055857968101 
526	 0.125576537332145 
527	 0.126110001408795 
528	 0.1265933203714 
529	 0.127224596639541 
530	 0.127840479129469 
531	 0.12840027228629 
532	 0.129011697273537 
533	 0.129742539712836 
534	 0.130447713311892 
535	 0.131051939749448 
536	 0.131820560853058 
537	 0.132597102187944 
538	 0.133343822772561 
539	 0.134103539210795 
540	 0.135009545103927 
541	 0.135854930822488 
542	 0.136570237436284 
543	 0.137355278515007 
544	 0.138178485439896 
545	 0.139025153250868 
546	 0.139896295619683 
547	 0.140867363378277 
548	 0.141871042850332 
549	 0.142875017446595 
550	 0.14388627222482 
551	 0.144972419545102 
552	 0.146137099906317 
553	 0.14736113275792 
554	 0.148591769856047 
555	 0.149947433504124 
556	 0.151496005143881 
557	 0.153243190563676 
558	 0.154978794677112 
559	 0.156816922464334 
560	 0.15878504647823 
561	 0.16075379473136 
562	 0.162802483083926 
563	 0.164908342445911 
564	 0.167034398438987 
565	 0.169151794513426 
566	 0.171463550988444 
567	 0.173999467841053 
568	 0.176667616753561 
569	 0.179658542970123 
570	 0.182802283910786 
571	 0.186010376318498 
572	 0.189454983991819 
573	 0.193112857850458 
574	 0.196934429477274 
575	 0.200873949763465 
576	 0.204952576533784 
577	 0.209211912719914 
578	 0.213723158245192 
579	 0.218583819463358 
580	 0.223693467229164 
581	 0.228955942265213 
582	 0.234384861074379 
583	 0.240256807363858 
584	 0.246654659566462 
585	 0.253548317796038 
586	 0.2608497044904 
587	 0.268655309170467 
588	 0.276953620331022 
589	 0.285738478363849 
590	 0.295033016368506 
591	 0.304761005411276 
592	 0.314893489663817 
593	 0.325432197351967 
594	 0.336358402528107 
595	 0.347697143826156 
596	 0.35958280768543 
597	 0.3722205979062 
598	 0.385684974512475 
599	 0.399700160072047 
600	 0.414160616710885 
601	 0.429499366668514 
602	 0.44517897463 
603	 0.461025956547731 
604	 0.477033408670624 
605	 0.493380985453455 
606	 0.509680481836652 
607	 0.525714064026067 
608	 0.541506707655632 
609	 0.557169476966677 
610	 0.572468773155741 
611	 0.587193652062098 
612	 0.601314885817756 
613	 0.615136528492926 
614	 0.628467888782308 
615	 0.640870705197658 
616	 0.652701684574102 
617	 0.664099052846006 
618	 0.674952995862618 
619	 0.684764589700427 
620	 0.694015525784232 
621	 0.702799071784088 
622	 0.711036378042067 
623	 0.718459513408508 
624	 0.725340737252413 
625	 0.731861595638012 
626	 0.73807254242412 
627	 0.743657690306421 
628	 0.748714426544694 
629	 0.753419647287857 
630	 0.757953558008816 
631	 0.762016976062167 
632	 0.765655952516173 
633	 0.769071887101871 
634	 0.772358164865308 
635	 0.775417069673196 
636	 0.778199922197535 
637	 0.780738812327747 
638	 0.783198451112153 
639	 0.785502207625004 
640	 0.787562116003091 
641	 0.789463250827167 
642	 0.791279764874143 
643	 0.793031628824198 
644	 0.794697673156573 
645	 0.796202998705885 
646	 0.797587132890793 
647	 0.798909707624175 
648	 0.800244929765927 
649	 0.801429500249405 
650	 0.802484915776563 
651	 0.803500536870423 
652	 0.804578198084118 
653	 0.805598075458838 
654	 0.806522759033079 
655	 0.807391481110474 
656	 0.808263929144134 
657	 0.809082009214679 
658	 0.809831445410515 
659	 0.810637698814129 
660	 0.811380118334235 
661	 0.812062092653211 
662	 0.812718038023258 
663	 0.813272994829493 
664	 0.813867796522849 
665	 0.814535239533034 
666	 0.815190022592388 
667	 0.815904855087738 
668	 0.816513213344128 
669	 0.816952188983814 
670	 0.817545724887125 
671	 0.818056174315637 
672	 0.818520828529305 
673	 0.819072593730351 
674	 0.819595557350512 
675	 0.820067164402184 
676	 0.820513301777698 
677	 0.821005976890708 
678	 0.821368464965822 
679	 0.821773723038739 
680	 0.8223310949664 
681	 0.822700063444334 
682	 0.823122768999813 
683	 0.82360182899763 
684	 0.824021742924887 
685	 0.824466824628641 
686	 0.824862977124071 
687	 0.825198441083947 
688	 0.825567991494547 
689	 0.825952819772871 
690	 0.826330964260566 
691	 0.826707151800691 
692	 0.82720604032858 
693	 0.827561385203154 
694	 0.827825812909817 
695	 0.828230708958004 
696	 0.828593815488003 
697	 0.829012650021048 
698	 0.829471146734713 
699	 0.82972404558381 
700	 0.830080285962759 
701	 0.830471211208389 
702	 0.830779398077991 
703	 0.831141413360416 
704	 0.83148199210086 
705	 0.831829308668923 
706	 0.832254454402423 
707	 0.832460963913115 
708	 0.832712007116083 
709	 0.833121549342803 
710	 0.833436047979517 
711	 0.83370535411821 
712	 0.834002129697208 
713	 0.834363490749444 
714	 0.83463942075884 
715	 0.834907469751629 
716	 0.835179446668113 
717	 0.835422385350109 
718	 0.835691230314179 
719	 0.835997586544385 
720	 0.836324296699801 
721	 0.836624951996047 
722	 0.836786267187866 
723	 0.836905340414817 
724	 0.837119614337615 
725	 0.837445249618055 
726	 0.837738522918662 
727	 0.837980004744834 
728	 0.838239023032947 
729	 0.838473232204282 
730	 0.838765878478503 
731	 0.839091935763018 
732	 0.839224415247081 
733	 0.8394060471485 
734	 0.839640277264496 
735	 0.83987388381703 
736	 0.84012371229877 
737	 0.840388176784345 
738	 0.840630191415106 
739	 0.840801859487663 
740	 0.840975822858645 
741	 0.841166575812416 
742	 0.841401734110949 
743	 0.841740297872348 
744	 0.84209958099137 
745	 0.842304366431188 
746	 0.842303038650838 
747	 0.842499993448028 
748	 0.842786109892112 
749	 0.843132074867618 
750	 0.843521875661769 
751	 0.843704061853136 
752	 0.843816704598627 
753	 0.843964375214462 
754	 0.844148941540988 
755	 0.844330340904491 
756	 0.844513633147258 
757	 0.844707437966892 
758	 0.844912562996049 
759	 0.84495703247702 
760	 0.845035625124384 
761	 0.845426162514038 
762	 0.845764125811341 
763	 0.845889870744503 
764	 0.845895325807933 
765	 0.846100868497926 
766	 0.846269593322126 
767	 0.846469035977927 
768	 0.846744230200963 
769	 0.84696442149099 
770	 0.847133870509076 
771	 0.84731617899814 
772	 0.847561016745024 
773	 0.847713915918348 
774	 0.847903381703193 
775	 0.848104086124484 
776	 0.848178230293234 
777	 0.848313339957673 
778	 0.848478369457325 
779	 0.848634837703517 
780	 0.848787490007034 
781	 0.848963471434458 
782	 0.849124678301019 
783	 0.849243140208925 
784	 0.849392929836915 
785	 0.8495409859613 
786	 0.849677480044708 
787	 0.849811633386653 
788	 0.849978020334028 
789	 0.850203383443106 
790	 0.850427341656447 
791	 0.850503123419263 
792	 0.850647396273524 
793	 0.850784971748097 
794	 0.850857214066271 
795	 0.85099891856595 
796	 0.851120789646188 
797	 0.851190276584234 
798	 0.851227756585918 
799	 0.851385747302508 
800	 0.851625559201419 
801	 0.851803217137425 
802	 0.85175105789926 
803	 0.851813967929123 
804	 0.851967466151772 
805	 0.85214504066247 
806	 0.852300659667077 
807	 0.852340985625554 
808	 0.852364601920095 
809	 0.852475408656316 
810	 0.852642519975073 
811	 0.852768588972302 
812	 0.852865288066756 
813	 0.852988964541483 
814	 0.853128287648083 
815	 0.853176368885798 
816	 0.853230226330898 
817	 0.853518690775292 
818	 0.85354224937459 
819	 0.853547131412373 
820	 0.853705435750564 
821	 0.853877525684102 
822	 0.853980902699407 
823	 0.854051391244431 
824	 0.854142180148154 
825	 0.854232297993947 
826	 0.854370176989267 
827	 0.854472746162636 
828	 0.854455757210391 
829	 0.854579527381521 
830	 0.854756535325675 
831	 0.854942972013983 
832	 0.855144100001583 
833	 0.855254764452684 
834	 0.855331322919261 
835	 0.855390976051396 
836	 0.855353442573128 
837	 0.855356266991137 
838	 0.855508423524354 
839	 0.855765233168902 
840	 0.855690626284606 
841	 0.855634841489772 
842	 0.855712133823856 
843	 0.855890913805873 
844	 0.855946487327514 
845	 0.856081105575025 
846	 0.856235416652511 
847	 0.856191150075343 
848	 0.856218105900837 
849	 0.856291682469525 
850	 0.856327831497095 
851	 0.85622877566569 
852	 0.856286448163184 
853	 0.856361715365824 
854	 0.856353529563519 
855	 0.856437530266577 
856	 0.856561383932402 
857	 0.856683506377657 
858	 0.856760310481509 
859	 0.856745361127722 
860	 0.856675491973136 
861	 0.856685535403988 
862	 0.856888410748056 
863	 0.856994919140499 
864	 0.857083458708848 
865	 0.857153683361118 
866	 0.857129900237963 
867	 0.857083587548502 
868	 0.857096095523378 
869	 0.857153676667744 
870	 0.857121424119379 
871	 0.857140875279309 
872	 0.857278002180507 
873	 0.857503209496897 
874	 0.857635669008001 
875	 0.857617784587021 
876	 0.857547551739483 
877	 0.857535248762345 
878	 0.857495267669783 
879	 0.857694590774111 
880	 0.857954591073078 
881	 0.857943311722058 
882	 0.857781003884262 
883	 0.857734249495692 
884	 0.857803539553253 
885	 0.857802846942313 
886	 0.857909159668128 
887	 0.857990743180934 
888	 0.858018690886475 
889	 0.858109849474557 
890	 0.858140378307695 
891	 0.858192053090822 
892	 0.858257350851057 
893	 0.858123525355162 
894	 0.858080195394321 
895	 0.858050959280565 
896	 0.857946156978727 
897	 0.857901549143589 
898	 0.857715296911118 
899	 0.857663050824216 
900	 0.857977234264111 
901	 0.858127108965598 
902	 0.858151750782554 
903	 0.858101864593694 
904	 0.858033455122805 
905	 0.857943697040495 
906	 0.857929287666012 
907	 0.857955588128064 
908	 0.85790308566246 
909	 0.857797294935563 
910	 0.857742184405586 
911	 0.857780435003983 
912	 0.857863805076564 
913	 0.857758470169732 
914	 0.857688280753315 
915	 0.85775933423657 
916	 0.857817831552628 
917	 0.857849169016509 
918	 0.857797463974124 
919	 0.857688126178466 
920	 0.857689986827735 
921	 0.857836273103021 
922	 0.857984192537204 
923	 0.858019395362477 
924	 0.858031450714059 
925	 0.857976736359195 
926	 0.857954321498561 
927	 0.858026685333577 
928	 0.85797252354185 
929	 0.858071396914482 
930	 0.858208286595948 
931	 0.858177092950551 
932	 0.858137229526685 
933	 0.858288981193881 
934	 0.858500952546779 
935	 0.858550580559668 
936	 0.858809251222778 
937	 0.858975812946238 
938	 0.858991876010605 
939	 0.859008768072318 
940	 0.859148482911258 
941	 0.859360868851947 
942	 0.85954148090051 
943	 0.859589092544982 
944	 0.859672247197407 
945	 0.859699584104478 
946	 0.85969309987715 
947	 0.859797270312169 
948	 0.859818624764426 
949	 0.85987786715531 
950	 0.859962511642459 
951	 0.859868213241145 
952	 0.859921807564534 
953	 0.859907746461903 
954	 0.859779303685763 
955	 0.859854949959404 
956	 0.859837586740086 
957	 0.859747016132439 
958	 0.859650970244931 
959	 0.859579122146258 
960	 0.859425984936416 
961	 0.859346873920289 
962	 0.859396754330707 
963	 0.859320057160466 
964	 0.859381264969294 
965	 0.859506214306771 
966	 0.859537405884725 
967	 0.859336172216407 
968	 0.85942711894795 
969	 0.859642189473869 
970	 0.859717119334478 
971	 0.859698896080987 
972	 0.859732367597405 
973	 0.85971274307161 
974	 0.859550620939127 
975	 0.859394196118443 
976	 0.859651385754554 
977	 0.859873450358147 
978	 0.859660710225965 
979	 0.859660631298958 
980	 0.85965979161682 
981	 0.859647652425795 
982	 0.859660494731201 
983	 0.85968579885647 
984	 0.85978846085735 
985	 0.859939064041868 
986	 0.860081299866322 
987	 0.860219617871418 
988	 0.860150973596236 
989	 0.859975767235771 
990	 0.859866417216413 
991	 0.859797414402734 
992	 0.859870382783354 
993	 0.859957345469264 
994	 0.859935450307449 
995	 0.860010792735415 
996	 0.859932433358201 
997	 0.859843751620101 
998	 0.85993565897818 
999	 0.860043835928608 
1000	 0.860297952251105 
1001	 0.869675634710854 
1002	 0.86974757797689 
1003	 0.869835686170675 
1004	 0.869912405776314 
1005	 0.870090858162618 
1006	 0.870166609490161 
1007	 0.870175885885137 
1008	 0.870196561753964 
1009	 0.870204589759186 
1010	 0.870204344687542 
1011	 0.870163668594614 
1012	 0.870164182057608 
1013	 0.870203698022401 
1014	 0.870214252169856 
1015	 0.870237830123534 
1016	 0.870182308767102 
1017	 0.870201654373102 
1018	 0.870348717200691 
1019	 0.870424821598973 
1020	 0.870457741265301 
1021	 0.870519423542722 
1022	 0.870533988002879 
1023	 0.870559700392338 
1024	 0.870645064825901 
1025	 0.870691227077879 
1026	 0.870655795574647 
1027	 0.870665010516191 
1028	 0.870666954021492 
1029	 0.870757680211504 
1030	 0.870821495258801 
1031	 0.870880042665783 
1032	 0.870964730945849 
1033	 0.871022274314606 
1034	 0.871111613704725 
1035	 0.871181464131353 
1036	 0.871203633159775 
1037	 0.871186846062644 
1038	 0.871212448645443 
1039	 0.871196894042901 
1040	 0.871226565753829 
1041	 0.871337127117911 
1042	 0.871365456601786 
1043	 0.871326747217749 
1044	 0.871350625308105 
1045	 0.871431250752076 
1046	 0.871490079963394 
1047	 0.871543443124283 
1048	 0.871591079294862 
1049	 0.871615200318738 
1050	 0.871660104606515 
1051	 0.87175203629348 
1052	 0.871814617035501 
1053	 0.871860237388417 
1054	 0.871833027239152 
1055	 0.871905997418672 
1056	 0.872019473775746 
1057	 0.872149257230512 
1058	 0.872352579751395 
1059	 0.872505848211742 
1060	 0.872614079159174 
1061	 0.872725432627333 
1062	 0.872815437091722 
1063	 0.872890090129148 
1064	 0.873031569863929 
1065	 0.873132724560101 
1066	 0.873215255374345 
1067	 0.873412385578916 
1068	 0.873556787129625 
1069	 0.873628956986615 
1070	 0.873741150439099 
1071	 0.873873338013147 
1072	 0.873967421054234 
1073	 0.874099452400777 
1074	 0.874314232337154 
1075	 0.874515768912661 
1076	 0.874687947324005 
1077	 0.874872788770161 
1078	 0.87502317439442 
1079	 0.875163423559756 
1080	 0.875354094521975 
1081	 0.875520105213482 
1082	 0.875690898076223 
1083	 0.875884473265365 
1084	 0.876054926587522 
1085	 0.876190162608283 
1086	 0.876340011136476 
1087	 0.876477374223719 
1088	 0.876676520088987 
1089	 0.876877588674494 
1090	 0.877065262414397 
1091	 0.877260373712559 
1092	 0.877370943395693 
1093	 0.877438217298871 
1094	 0.877528499882584 
1095	 0.877608671836472 
1096	 0.87771111994671 
1097	 0.87782763181649 
1098	 0.877918362027266 
1099	 0.877994342374303 
1100	 0.878021780972966 
1101	 0.878049061528295 
1102	 0.878110234510555 
1103	 0.878143175979494 
1104	 0.878160110690891 
1105	 0.878210996816708 
1106	 0.878263268244733 
1107	 0.878248597913021 
1108	 0.878259941988739 
1109	 0.878305411593209 
1110	 0.878314882504985 
1111	 0.878330322491888 
1112	 0.878334451634652 
1113	 0.878300266454952 
1114	 0.878273994413865 
1115	 0.878214185672361 
1116	 0.878137843037446 
1117	 0.878079047250474 
1118	 0.878033598117236 
1119	 0.877997829226292 
1120	 0.877950265134542 
1121	 0.877928572235529 
1122	 0.877865723101949 
1123	 0.877755545548159 
1124	 0.877647225421039 
1125	 0.877536111318219 
1126	 0.87741419630206 
1127	 0.877281578259392 
1128	 0.877098551631656 
1129	 0.876905363294333 
1130	 0.876716229798874 
1131	 0.876479547915573 
1132	 0.876235573048707 
1133	 0.876011880255711 
1134	 0.875771387383141 
1135	 0.875501197619338 
1136	 0.875240123538158 
1137	 0.87495082537474 
1138	 0.874607004918632 
1139	 0.874251143705 
1140	 0.87387457521828 
1141	 0.873538345925394 
1142	 0.873132230025683 
1143	 0.872756021935701 
1144	 0.872423815599197 
1145	 0.871999852575527 
1146	 0.871604433234719 
1147	 0.871234839140784 
1148	 0.870809775964765 
1149	 0.870422546315261 
1150	 0.870031716253179 
1151	 0.86962112400871 
1152	 0.869181162355648 
1153	 0.868727022840582 
1154	 0.868250829417374 
1155	 0.86774967284962 
1156	 0.867217164549934 
1157	 0.866657594229739 
1158	 0.866109197747391 
1159	 0.865532545979049 
1160	 0.864953715723569 
1161	 0.864393517890723 
1162	 0.863826150378127 
1163	 0.86327143577144 
1164	 0.862703377553289 
1165	 0.862157638091089 
1166	 0.861678574904871 
1167	 0.861193408463082 
1168	 0.860754805894233 
1169	 0.860358263067745 
1170	 0.860001800436578 
1171	 0.859662535240737 
1172	 0.859376174638662 
1173	 0.859080166325691 
1174	 0.858802702880356 
1175	 0.858532594146826 
1176	 0.85830823553812 
1177	 0.858028742779129 
1178	 0.857740784527818 
1179	 0.857413964700225 
1180	 0.857089267284431 
1181	 0.856700682481269 
1182	 0.856308925667823 
1183	 0.855924644701355 
1184	 0.85547021897049 
1185	 0.855040759644424 
1186	 0.854618183907193 
1187	 0.854172067327137 
1188	 0.85378322642858 
1189	 0.853415031862347 
1190	 0.853082041940989 
1191	 0.852768315795135 
1192	 0.852522117065603 
1193	 0.852337675674874 
1194	 0.852156510767082 
1195	 0.852034719752688 
1196	 0.851901223904256 
1197	 0.851773229858472 
1198	 0.851643178531948 
1199	 0.851523003956429 
1200	 0.851435186510622 
1201	 0.851366697830674 
1202	 0.851266153640771 
1203	 0.851137487195827 
1204	 0.851022391198176 
1205	 0.850918798784354 
1206	 0.850791136391728 
1207	 0.850709840003406 
1208	 0.850647532252925 
1209	 0.85062734076024 
1210	 0.850601872921893 
1211	 0.850665049915482 
1212	 0.850759283021455 
1213	 0.850963819707531 
1214	 0.851228661341553 
1215	 0.851602760283022 
1216	 0.852082697489697 
1217	 0.852639486180331 
1218	 0.853295572148977 
1219	 0.854030068706919 
1220	 0.85480183684799 
1221	 0.855688463416405 
1222	 0.856564889400291 
1223	 0.857462506995468 
1224	 0.858366761144686 
1225	 0.859317304521686 
1226	 0.860175552018875 
1227	 0.861017201950103 
1228	 0.861831724987368 
1229	 0.862594354573782 
1230	 0.863351062885043 
1231	 0.864142664322506 
1232	 0.864830380639745 
1233	 0.865444579511228 
1234	 0.866027097703132 
1235	 0.866523406491888 
1236	 0.867029132442899 
1237	 0.867530201082397 
1238	 0.867993576688803 
1239	 0.868436538052917 
1240	 0.868848927892974 
1241	 0.86923866287096 
1242	 0.86954870540915 
1243	 0.86986656386725 
1244	 0.870155021002082 
1245	 0.870443677280909 
1246	 0.870708275073248 
1247	 0.870986646798833 
1248	 0.871264375590671 
1249	 0.871535592507429 
1250	 0.871810614847551 
1251	 0.872067413612083 
1252	 0.872329535435333 
1253	 0.872553655069068 
1254	 0.872766335946836 
1255	 0.87294325036073 
1256	 0.873090658199411 
1257	 0.873205016315208 
1258	 0.873262967961402 
1259	 0.873336796826535 
1260	 0.87338480052763 
1261	 0.873437630080618 
1262	 0.873491973205587 
1263	 0.873559692733228 
1264	 0.873609696315762 
1265	 0.873639763488743 
1266	 0.873697804718597 
1267	 0.873779342387954 
1268	 0.87381617154325 
1269	 0.873849707703464 
1270	 0.873870988977827 
1271	 0.873854022413366 
1272	 0.873850046984484 
1273	 0.873856638318642 
1274	 0.873851195723662 
1275	 0.87379233794144 
1276	 0.873812056444047 
1277	 0.873880473718373 
1278	 0.873932396152032 
1279	 0.874038460751509 
1280	 0.874109930713195 
1281	 0.874130207834907 
1282	 0.874188780353071 
1283	 0.874243861692459 
1284	 0.874331743444106 
1285	 0.874443874405813 
1286	 0.874588152421207 
1287	 0.874724774278949 
1288	 0.874888425083211 
1289	 0.875028770734376 
1290	 0.875157472211471 
1291	 0.87530196434954 
1292	 0.875448844158413 
1293	 0.875595367910984 
1294	 0.875762985061128 
1295	 0.875897527085756 
1296	 0.876004609967759 
1297	 0.876132404716093 
1298	 0.876244671226016 
1299	 0.876378590047096 
1300	 0.876540893230595 
1301	 0.876688497890573 
1302	 0.876850971253121 
1303	 0.876985504509187 
1304	 0.877118793981825 
1305	 0.87722087730881 
1306	 0.877290169551146 
1307	 0.877352658097668 
1308	 0.87737644745485 
1309	 0.877423344518765 
1310	 0.877453858923254 
1311	 0.877474244758652 
1312	 0.877504409069447 
1313	 0.877534756404824 
1314	 0.877562538923436 
1315	 0.877600376122694 
1316	 0.877616876005947 
1317	 0.87763438702868 
1318	 0.877619140951189 
1319	 0.877586251366098 
1320	 0.877534931246285 
1321	 0.877478040411193 
1322	 0.877369479281557 
1323	 0.87722055828895 
1324	 0.87706956709278 
1325	 0.876866723675932 
1326	 0.876684583344468 
1327	 0.876513735987203 
1328	 0.876333332728426 
1329	 0.876163446852672 
1330	 0.875962019033201 
1331	 0.87575103337126 
1332	 0.875518863212609 
1333	 0.87525667393189 
1334	 0.874988182508021 
1335	 0.874692880004379 
1336	 0.87437945326175 
1337	 0.874056842123194 
1338	 0.873717258139365 
1339	 0.873358436510836 
1340	 0.872985281057185 
1341	 0.872604271464682 
1342	 0.872197559275323 
1343	 0.871797071905923 
1344	 0.871416077482428 
1345	 0.870982906156089 
1346	 0.870526757824733 
1347	 0.870050436450123 
1348	 0.869544387961619 
1349	 0.869019668431294 
1350	 0.868471742648925 
1351	 0.867914583586753 
1352	 0.867357774372942 
1353	 0.866743928806681 
1354	 0.866084853108738 
1355	 0.865432208866264 
1356	 0.864719581160762 
1357	 0.864037375016894 
1358	 0.863347913893038 
1359	 0.862702300224969 
1360	 0.862090229025755 
1361	 0.861476330029129 
1362	 0.860871216911529 
1363	 0.860322048139598 
1364	 0.8597336634577 
1365	 0.859132247133 
1366	 0.858535004763597 
1367	 0.857946687796208 
1368	 0.857331732979013 
1369	 0.85672901278166 
1370	 0.856049972595771 
1371	 0.855326818994118 
1372	 0.854600883118856 
1373	 0.853837303390587 
1374	 0.853045790411164 
1375	 0.85226392811735 
1376	 0.851397088995931 
1377	 0.850437364221067 
1378	 0.849489616937225 
1379	 0.848503588440135 
1380	 0.847498928831586 
1381	 0.846494183977318 
1382	 0.845431429411568 
1383	 0.844313377030671 
1384	 0.84318078818865 
1385	 0.842047557869123 
1386	 0.84084702819641 
1387	 0.839611990648212 
1388	 0.838357671523427 
1389	 0.837033401436133 
1390	 0.835726687933186 
1391	 0.834441216411793 
1392	 0.833081612152843 
1393	 0.831837664089953 
1394	 0.830595443133214 
1395	 0.829388444670319 
1396	 0.828254441229934 
1397	 0.827078247299724 
1398	 0.825924303653529 
1399	 0.824686667027495 
1400	 0.823476885489055 
1401	 0.822086872098083 
1402	 0.820670756396447 
1403	 0.818981376023381 
1404	 0.817178095123478 
1405	 0.815115514463407 
1406	 0.812826829032781 
1407	 0.810354618875282 
1408	 0.807506592193566 
1409	 0.804839662400969 
1410	 0.801831492146023 
1411	 0.799346110096847 
1412	 0.796851827544552 
1413	 0.795026034398383 
1414	 0.793555135041396 
1415	 0.792597959264963 
1416	 0.792359237844438 
1417	 0.79218046717463 
1418	 0.792578397723065 
1419	 0.792783960797164 
1420	 0.793188468987497 
1421	 0.793380797844488 
1422	 0.793516823492323 
1423	 0.793493192907825 
1424	 0.793303585517676 
1425	 0.793021025225299 
1426	 0.792646730100821 
1427	 0.792196622202103 
1428	 0.791725024733829 
1429	 0.791236852688686 
1430	 0.79077117807662 
1431	 0.790285639461116 
1432	 0.789825022538997 
1433	 0.789383129178019 
1434	 0.788947883406956 
1435	 0.78849957110558 
1436	 0.788103915801756 
1437	 0.787739139708106 
1438	 0.787393242966622 
1439	 0.787083504046918 
1440	 0.786776413680726 
1441	 0.78648185269161 
1442	 0.786202922109782 
1443	 0.785942532500439 
1444	 0.78568477784193 
1445	 0.785434585397582 
1446	 0.785205286222203 
1447	 0.784982745723118 
1448	 0.78478113220699 
1449	 0.784612730010504 
1450	 0.784434325123584 
1451	 0.784272955079842 
1452	 0.78409505754898 
1453	 0.783904337184465 
1454	 0.783724125900267 
1455	 0.783530488162846 
1456	 0.783358921519851 
1457	 0.783218692022195 
1458	 0.783056714358531 
1459	 0.782912495795305 
1460	 0.78273472733913 
1461	 0.782510516118301 
1462	 0.782310489891366 
1463	 0.782088980293474 
1464	 0.781895446416445 
1465	 0.781736787785602 
1466	 0.781565427148852 
1467	 0.781405094568847 
1468	 0.78127604791938 
1469	 0.781181374192973 
1470	 0.781120766095817 
1471	 0.781076386038085 
1472	 0.781088248133877 
1473	 0.781047079583171 
1474	 0.781005298932163 
1475	 0.78094213215335 
1476	 0.78085494964977 
1477	 0.780771905786201 
1478	 0.780694144962156 
1479	 0.78057777147134 
1480	 0.780447749345168 
1481	 0.780290280326315 
1482	 0.780099796378261 
1483	 0.779894505459324 
1484	 0.779677019244862 
1485	 0.779426745085588 
1486	 0.779134331591252 
1487	 0.778856655935742 
1488	 0.77855388937648 
1489	 0.778269399249401 
1490	 0.777980536068404 
1491	 0.777718730760065 
1492	 0.777459795013776 
1493	 0.777231905209967 
1494	 0.77704183594136 
1495	 0.776851716440608 
1496	 0.776662977087598 
1497	 0.776511593341574 
1498	 0.776363035096422 
1499	 0.776267605619007 
1500	 0.776225369250483 
1501	 0.77619577752517 
1502	 0.776210050294424 
1503	 0.776225949564198 
1504	 0.776243106663314 
1505	 0.776298591652154 
1506	 0.776373428026363 
1507	 0.776478799625848 
1508	 0.776638179313367 
1509	 0.776787717562204 
1510	 0.776948278969388 
1511	 0.77711897300589 
1512	 0.777287129528822 
1513	 0.77747850625512 
1514	 0.777687372780276 
1515	 0.77791541403832 
1516	 0.778178870497076 
1517	 0.778429222713248 
1518	 0.778691287331902 
1519	 0.778949009215287 
1520	 0.779181118651844 
1521	 0.779433170098269 
1522	 0.77973331365488 
1523	 0.780047819245631 
1524	 0.780357629734185 
1525	 0.780700696411122 
1526	 0.781017782014791 
1527	 0.781311520326919 
1528	 0.781629589067224 
1529	 0.781952795616558 
1530	 0.782299904278586 
1531	 0.782660279287414 
1532	 0.783025258823109 
1533	 0.783405102443094 
1534	 0.783803431102096 
1535	 0.784204526013256 
1536	 0.784627784053583 
1537	 0.785093533376976 
1538	 0.785523479673899 
1539	 0.785949295573475 
1540	 0.786372177140989 
1541	 0.786769762221516 
1542	 0.787209620103271 
1543	 0.787676401152365 
1544	 0.788119270049103 
1545	 0.788586095774093 
1546	 0.789011284176936 
1547	 0.789411389661749 
1548	 0.789794361105408 
1549	 0.790162503511159 
1550	 0.790509060016002 
1551	 0.790825327882141 
1552	 0.791139393603109 
1553	 0.791450595078401 
1554	 0.79172555816558 
1555	 0.791972461882133 
1556	 0.792218813965747 
1557	 0.792442273313755 
1558	 0.792656873500983 
1559	 0.792892737802897 
1560	 0.793059674790038 
1561	 0.793170189208535 
1562	 0.793289567535587 
1563	 0.793355219023284 
1564	 0.793462355432174 
1565	 0.793604722883119 
1566	 0.793708363310395 
1567	 0.793789817307589 
1568	 0.793897516592686 
1569	 0.793993138773176 
1570	 0.794102908937616 
1571	 0.79424352008449 
1572	 0.794375199818628 
1573	 0.794480823162406 
1574	 0.794629731820868 
1575	 0.794806517361063 
1576	 0.794988846618597 
1577	 0.795200045752993 
1578	 0.795405094952526 
1579	 0.795610980980667 
1580	 0.795825908383387 
1581	 0.796049872408379 
1582	 0.796274175551148 
1583	 0.796507028252334 
1584	 0.796736387088769 
1585	 0.796957161572894 
1586	 0.797194860595979 
1587	 0.797445871710928 
1588	 0.797690171021738 
1589	 0.797935936095545 
1590	 0.798192104791632 
1591	 0.798461854408946 
1592	 0.798709711156574 
1593	 0.798948054454221 
1594	 0.799200311336577 
1595	 0.799449532961385 
1596	 0.799688300111595 
1597	 0.799940660863682 
1598	 0.800180626362876 
1599	 0.800377525599434 
1600	 0.800613345641673 
1601	 0.800867844358728 
1602	 0.801134269698865 
1603	 0.801442103389046 
1604	 0.801714345448507 
1605	 0.801987536257027 
1606	 0.802241438257444 
1607	 0.80247380462847 
1608	 0.802691732951931 
1609	 0.802892530784609 
1610	 0.80308516529848 
1611	 0.803239502089184 
1612	 0.803423343481825 
1613	 0.803638317693121 
1614	 0.803816592178061 
1615	 0.803991819524524 
1616	 0.804156437086014 
1617	 0.804267187392975 
1618	 0.804419943586787 
1619	 0.804618402239576 
1620	 0.804774637859407 
1621	 0.804934559969254 
1622	 0.805070757199237 
1623	 0.805161298946727 
1624	 0.805262753266247 
1625	 0.805351840800385 
1626	 0.805456920159771 
1627	 0.805579606578712 
1628	 0.805679751421064 
1629	 0.805790124704556 
1630	 0.805872536609967 
1631	 0.805923411926187 
1632	 0.805973862616762 
1633	 0.806015969024165 
1634	 0.806045119308586 
1635	 0.806073095459597 
1636	 0.806071274783136 
1637	 0.806033443677825 
1638	 0.806006479872096 
1639	 0.805960625380707 
1640	 0.805919159059832 
1641	 0.805888722166363 
1642	 0.805853436899817 
1643	 0.805833931628249 
1644	 0.805771617961907 
1645	 0.805695743014237 
1646	 0.805589847826459 
1647	 0.805444410905961 
1648	 0.80528515974174 
1649	 0.805131035065364 
1650	 0.804910372073615 
1651	 0.804629125955247 
1652	 0.80434181631958 
1653	 0.804025360903325 
1654	 0.803672079080378 
1655	 0.803313850265249 
1656	 0.802892923038974 
1657	 0.802421909645572 
1658	 0.80189049332656 
1659	 0.801303802542012 
1660	 0.800683063706385 
1661	 0.799999912587611 
1662	 0.799288296604791 
1663	 0.798531451030834 
1664	 0.797749063761015 
1665	 0.796918774798929 
1666	 0.796073745141072 
1667	 0.795210878608156 
1668	 0.794336596690095 
1669	 0.79348287454054 
1670	 0.792523058614499 
1671	 0.791522725535609 
1672	 0.79043852190832 
1673	 0.789292794040243 
1674	 0.788010010743647 
1675	 0.786648012151122 
1676	 0.785191832107512 
1677	 0.78358775277694 
1678	 0.781946700098847 
1679	 0.780238016942599 
1680	 0.778439594245805 
1681	 0.776569691909091 
1682	 0.774581067519506 
1683	 0.772500950967078 
1684	 0.770363472109844 
1685	 0.768114063985193 
1686	 0.765811917307646 
1687	 0.763410115547181 
1688	 0.760988677021482 
1689	 0.758463793824989 
1690	 0.755995714872534 
1691	 0.753544130329685 
1692	 0.751122611464948 
1693	 0.748743418752188 
1694	 0.746315127428453 
1695	 0.7438654888605 
1696	 0.741387927429076 
1697	 0.738903244509174 
1698	 0.736315437523924 
1699	 0.733740761097729 
1700	 0.731062841416967 
1701	 0.728255208911029 
1702	 0.725457757697175 
1703	 0.72254369865053 
1704	 0.719707076758378 
1705	 0.716827609664917 
1706	 0.713981876602662 
1707	 0.711445071803045 
1708	 0.708961421612126 
1709	 0.706601664046755 
1710	 0.70446315817453 
1711	 0.70229689197168 
1712	 0.700303277530121 
1713	 0.698357532686988 
1714	 0.69641822884048 
1715	 0.69466659708806 
1716	 0.692885058108144 
1717	 0.691190113483234 
1718	 0.689580160660123 
1719	 0.687892287019338 
1720	 0.686322603702556 
1721	 0.684813042113415 
1722	 0.683340009384654 
1723	 0.682069002454575 
1724	 0.680854063172772 
1725	 0.679828620544184 
1726	 0.679113041533182 
1727	 0.678665315813263 
1728	 0.678605581048877 
1729	 0.679001880382756 
1730	 0.67982463296043 
1731	 0.681019280150215 
1732	 0.682710910971052 
1733	 0.684694396973477 
1734	 0.687027217091597 
1735	 0.689706717233389 
1736	 0.692412162923921 
1737	 0.695186765685894 
1738	 0.697888044539256 
1739	 0.700284233969197 
1740	 0.702614077572133 
1741	 0.704596531024408 
1742	 0.706348491562445 
1743	 0.707795446637413 
1744	 0.708910796124003 
1745	 0.709786747653811 
1746	 0.710314498798535 
1747	 0.710667904038799 
1748	 0.710768196440287 
1749	 0.710724619742585 
1750	 0.710445528959367 
1751	 0.710083289989088 
1752	 0.709538400075625 
1753	 0.708945171791764 
1754	 0.708199672784634 
1755	 0.707519824695058 
1756	 0.706753740254607 
1757	 0.70609578597029 
1758	 0.70543369442457 
1759	 0.704866004912062 
1760	 0.704469492500921 
1761	 0.704236061752778 
1762	 0.704263976043987 
1763	 0.704574204802386 
1764	 0.705078848836498 
1765	 0.705899733662856 
1766	 0.707028499901102 
1767	 0.708334879056733 
1768	 0.709895709337314 
1769	 0.711590458705228 
1770	 0.713212446843932 
1771	 0.714908282536882 
1772	 0.716596277083707 
1773	 0.718242559977804 
1774	 0.719950796285091 
1775	 0.721515289671082 
1776	 0.722989632701649 
1777	 0.72440154646129 
1778	 0.72560683446328 
1779	 0.726729039078185 
1780	 0.72774346669448 
1781	 0.728577494011382 
1782	 0.729405888041386 
1783	 0.730191169707192 
1784	 0.730883068268255 
1785	 0.731455046829385 
1786	 0.731963478771512 
1787	 0.732362496729367 
1788	 0.732750279754044 
1789	 0.73310147779511 
1790	 0.733421597784269 
1791	 0.73367855595102 
1792	 0.733939004758564 
1793	 0.734159424501034 
1794	 0.734391535387235 
1795	 0.734601310318803 
1796	 0.734713047662071 
1797	 0.73488721816203 
1798	 0.735086945540435 
1799	 0.735269302856516 
1800	 0.735487509522678 
1801	 0.735670098406835 
1802	 0.736018329820206 
1803	 0.736385721977892 
1804	 0.736779881317446 
1805	 0.737223534174398 
1806	 0.737637828279769 
1807	 0.738086708071516 
1808	 0.738492760494675 
1809	 0.738888684032419 
1810	 0.739253421915554 
1811	 0.739586892091571 
1812	 0.739924508351903 
1813	 0.740223910507886 
1814	 0.740579521817141 
1815	 0.740890735574734 
1816	 0.741203840896451 
1817	 0.741486784731221 
1818	 0.741736019701369 
1819	 0.741981467857678 
1820	 0.742178324143852 
1821	 0.742427279066708 
1822	 0.742674512130511 
1823	 0.7429595723135 
1824	 0.743270592979607 
1825	 0.743632637790362 
1826	 0.743975083387467 
1827	 0.744340992667201 
1828	 0.744676403709753 
1829	 0.745006430504523 
1830	 0.745321057174098 
1831	 0.745624335702826 
1832	 0.74592138399064 
1833	 0.746194876241798 
1834	 0.746486906729552 
1835	 0.746719994910488 
1836	 0.746961284631118 
1837	 0.747232950121942 
1838	 0.747511417033077 
1839	 0.747776764383999 
1840	 0.748072564862765 
1841	 0.748347306347595 
1842	 0.748592907609443 
1843	 0.74884120331262 
1844	 0.749135807314359 
1845	 0.749414069613849 
1846	 0.749690919436671 
1847	 0.749948657293805 
1848	 0.750155966264027 
1849	 0.750319043822543 
1850	 0.750488130306237 
1851	 0.750646790550469 
1852	 0.750750275538356 
1853	 0.750817973253391 
1854	 0.750871474903343 
1855	 0.750863666330074 
1856	 0.750808006547393 
1857	 0.750702938476886 
1858	 0.750539182643887 
1859	 0.750346990407162 
1860	 0.750081313755371 
1861	 0.749790430947895 
1862	 0.749489656153032 
1863	 0.749154309701308 
1864	 0.748715377051225 
1865	 0.74822980007705 
1866	 0.747672979861949 
1867	 0.746998113114334 
1868	 0.746239917070739 
1869	 0.745399511901948 
1870	 0.744485210708835 
1871	 0.743489939544924 
1872	 0.742432682930387 
1873	 0.741295097802973 
1874	 0.74012642587558 
1875	 0.738870254508453 
1876	 0.737450674385396 
1877	 0.736064822230896 
1878	 0.734481981566325 
1879	 0.732722611056799 
1880	 0.731044887278324 
1881	 0.729171523026712 
1882	 0.72712873495944 
1883	 0.725006540097241 
1884	 0.722777236744293 
1885	 0.720163097428253 
1886	 0.71744857658349 
1887	 0.714450821041326 
1888	 0.71116312527252 
1889	 0.707971760432876 
1890	 0.704462238655542 
1891	 0.700872746276182 
1892	 0.697213072904832 
1893	 0.693239131239284 
1894	 0.688919068158753 
1895	 0.684678859372954 
1896	 0.680200424497042 
1897	 0.675557582638155 
1898	 0.671298831945872 
1899	 0.66680653713339 
1900	 0.66233926068495 
1901	 0.65796373435559 
1902	 0.653177293354089 
1903	 0.648535492317183 
1904	 0.643935895413466 
1905	 0.63927069128143 
1906	 0.634671382953818 
1907	 0.630549264445789 
1908	 0.626345756341652 
1909	 0.62231691278045 
1910	 0.618490057256733 
1911	 0.614412172142814 
1912	 0.610606439417306 
1913	 0.606856464317479 
1914	 0.60306618413629 
1915	 0.599591143973501 
1916	 0.596409030706463 
1917	 0.593175009055585 
1918	 0.590111395316041 
1919	 0.587259995214762 
1920	 0.584219464670305 
1921	 0.581383969623699 
1922	 0.578609424201419 
1923	 0.575852178024342 
1924	 0.573467794944131 
1925	 0.571113129238885 
1926	 0.568869526106385 
1927	 0.566820748305457 
1928	 0.564801525264033 
1929	 0.562795590201545 
1930	 0.560984097635189 
1931	 0.559283429967604 
1932	 0.557677391990195 
1933	 0.556328542239346 
1934	 0.555047484811697 
1935	 0.553882999340779 
1936	 0.552876281939524 
1937	 0.551931981673373 
1938	 0.551049325766392 
1939	 0.550336248759074 
1940	 0.54974735245295 
1941	 0.549251653861201 
1942	 0.548907461716549 
1943	 0.548668254594909 
1944	 0.548503688867288 
1945	 0.548444680085459 
1946	 0.548481380755413 
1947	 0.548580393105555 
1948	 0.548787092103682 
1949	 0.549061023875633 
1950	 0.549384740417809 
1951	 0.549789355938165 
1952	 0.550249105706052 
1953	 0.550747257607197 
1954	 0.551325118843009 
1955	 0.552019719958538 
1956	 0.552690899002974 
1957	 0.553414395196692 
1958	 0.554196565873687 
1959	 0.554918477425846 
1960	 0.555682126700411 
1961	 0.556456287696681 
1962	 0.557224050206745 
1963	 0.558020757557701 
1964	 0.558857578922866 
1965	 0.559685877503481 
1966	 0.56054437803122 
1967	 0.56138913034316 
1968	 0.562171026923955 
1969	 0.562962516101006 
1970	 0.563721254034815 
1971	 0.564491823251594 
1972	 0.565367109150697 
1973	 0.566214642869435 
1974	 0.567068934097478 
1975	 0.567955651001822 
1976	 0.568837689441539 
1977	 0.569694931961576 
1978	 0.570597244283281 
1979	 0.571531733268377 
1980	 0.572443659549135 
1981	 0.573450046106499 
1982	 0.574436241463512 
1983	 0.57545253667021 
1984	 0.576522249094821 
1985	 0.577500808726369 
1986	 0.578483726083268 
1987	 0.579444746287085 
1988	 0.580338026099075 
1989	 0.581301901379114 
1990	 0.582287931103875 
1991	 0.583264305066487 
1992	 0.584264513799514 
1993	 0.585310358954779 
1994	 0.586239890758319 
1995	 0.587211769798113 
1996	 0.588163512239302 
1997	 0.589058815941535 
1998	 0.590013907480315 
1999	 0.591006745684493 
2000	 0.591949121625799 
2001	 0.592931998337393 
2002	 0.59383307701812 
2003	 0.594667825034824 
2004	 0.595501280878165 
2005	 0.596264162237462 
2006	 0.597067075630603 
2007	 0.597898790239171 
2008	 0.598687208776008 
2009	 0.599462257799204 
2010	 0.600279521883119 
2011	 0.600995158753801 
2012	 0.601708672571248 
2013	 0.602384196160743 
2014	 0.603023205199208 
2015	 0.603639085830452 
2016	 0.604256768615622 
2017	 0.604780168568494 
2018	 0.605285889093829 
2019	 0.605693612457826 
2020	 0.605994462309313 
2021	 0.606265674352375 
2022	 0.606475241190217 
2023	 0.606598631412691 
2024	 0.606690208234435 
2025	 0.606690382750744 
2026	 0.606576556222572 
2027	 0.606356005331964 
2028	 0.606077177762295 
2029	 0.605669756146908 
2030	 0.605240718309612 
2031	 0.604781238544148 
2032	 0.60422767611913 
2033	 0.6035888155284 
2034	 0.602911677828136 
2035	 0.602142701790329 
2036	 0.601326752056221 
2037	 0.600568250565452 
2038	 0.599747372945858 
2039	 0.598952415801789 
2040	 0.598189656132924 
2041	 0.597378029815906 
2042	 0.596497103994459 
2043	 0.595708548418524 
2044	 0.594907023048642 
2045	 0.594186028953585 
2046	 0.593546876189605 
2047	 0.592917137513481 
2048	 0.592308051483991 
2049	 0.591756813757674 
2050	 0.591221998528804 
2051	 0.590758394175456 
2052	 0.590400966568634 
2053	 0.590128265707105 
2054	 0.589968316626749 
2055	 0.589902984487699 
2056	 0.589976708097159 
2057	 0.590128316380441 
2058	 0.590482453329798 
2059	 0.591002438133593 
2060	 0.591654294381533 
2061	 0.592517277004854 
2062	 0.593428480369992 
2063	 0.594454128045957 
2064	 0.595585720595962 
2065	 0.596825921711902 
2066	 0.598125929967208 
2067	 0.599645818881906 
2068	 0.601159420823652 
2069	 0.602707392593031 
2070	 0.604405242950348 
2071	 0.605945435380807 
2072	 0.607432223750183 
2073	 0.608930988896092 
2074	 0.610354339430986 
2075	 0.611831611148783 
2076	 0.613399179225883 
2077	 0.614834061343197 
2078	 0.616298628967323 
2079	 0.617604417322892 
2080	 0.618756500882638 
2081	 0.619881372213992 
2082	 0.620915589576386 
2083	 0.621870236955028 
2084	 0.622862764146071 
2085	 0.62375607322877 
2086	 0.624598869404902 
2087	 0.625415062895563 
2088	 0.626128874319968 
2089	 0.626738653347713 
2090	 0.627326258177424 
2091	 0.627830180887188 
2092	 0.628319283918098 
2093	 0.628789276178743 
2094	 0.629186589004652 
2095	 0.629554919633194 
2096	 0.629847096271448 
2097	 0.630055359988169 
2098	 0.630216756551431 
2099	 0.630340407861953 
2100	 0.630390809308677 
2101	 0.630412268915039 
2102	 0.630381686546547 
2103	 0.630330070176915 
2104	 0.630223368119068 
2105	 0.6301215080972 
2106	 0.629995850023739 
2107	 0.629867597067587 
2108	 0.629757397369847 
2109	 0.629572075451493 
2110	 0.629378119455587 
2111	 0.629103209723432 
2112	 0.62870679666537 
2113	 0.628346794357084 
2114	 0.627945026157642 
2115	 0.62755232130837 
2116	 0.627183225687695 
2117	 0.62681145478802 
2118	 0.626358513404184 
2119	 0.625857678859179 
2120	 0.625361752524366 
2121	 0.624789956890043 
2122	 0.624280789795552 
2123	 0.623832118300836 
2124	 0.62330253292388 
2125	 0.622737466908791 
2126	 0.622186349601779 
2127	 0.621630897055999 
2128	 0.62101574397637 
2129	 0.620398900075794 
2130	 0.619742422125774 
2131	 0.619038545063303 
2132	 0.618278224406331 
2133	 0.617539389393086 
2134	 0.61669397139774 
2135	 0.615639818248882 
2136	 0.614541416434836 
2137	 0.613310784156609 
2138	 0.611896298286623 
2139	 0.610488282564942 
2140	 0.609017429394424 
2141	 0.607469144714682 
2142	 0.605812992098773 
2143	 0.604193340419667 
2144	 0.602452575007419 
2145	 0.600865344404745 
2146	 0.599258621881467 
2147	 0.597837275954147 
2148	 0.596590012362808 
2149	 0.595344189629246 
2150	 0.594272725660257 
2151	 0.593135417968319 
2152	 0.591982882281581 
2153	 0.59085634645939 
2154	 0.589702119152191 
2155	 0.588497261349088 
2156	 0.587296000595101 
2157	 0.58608776347859 
2158	 0.584800652391873 
2159	 0.583520235449587 
2160	 0.582107401993692 
2161	 0.580559241776955 
2162	 0.57906249696792 
2163	 0.577431149327478 
2164	 0.575958851616262 
2165	 0.574558508583986 
2166	 0.573165807322855 
2167	 0.571843425159807 
2168	 0.570537928695104 
2169	 0.569171871614756 
2170	 0.567974228672561 
2171	 0.566837718652316 
2172	 0.565825974349268 
2173	 0.564967487018904 
2174	 0.56417174899527 
2175	 0.563483662830967 
2176	 0.562879438259962 
2177	 0.562315747740922 
2178	 0.561829415708217 
2179	 0.561400774670282 
2180	 0.561019395385559 
2181	 0.560718530534396 
2182	 0.560521248077166 
2183	 0.560319498382165 
2184	 0.560146891506764 
2185	 0.560063712276985 
2186	 0.560033158864982 
2187	 0.560054555395921 
2188	 0.560181019321789 
2189	 0.560309566630925 
2190	 0.560481330666466 
2191	 0.560659164574382 
2192	 0.560893186464485 
2193	 0.561106269048468 
2194	 0.56134885388135 
2195	 0.561543533628679 
2196	 0.561735015912044 
2197	 0.56186669766913 
2198	 0.561993810622289 
2199	 0.562069759341402 
2200	 0.562132571639003 
2201	 0.562177585487738 
2202	 0.562201763973438 
2203	 0.562181930456597 
2204	 0.562173314562139 
2205	 0.56216172569079 
2206	 0.562127326284501 
2207	 0.562073901054642 
2208	 0.562020909677236 
2209	 0.561946550255051 
2210	 0.561881834558793 
2211	 0.561819209741622 
2212	 0.561751747149507 
2213	 0.561676608565739 
2214	 0.561614473768213 
2215	 0.561536420235455 
2216	 0.561496496915214 
2217	 0.5615075914565 
2218	 0.561480860824007 
2219	 0.561461713506701 
2220	 0.561437753244288 
2221	 0.561420595055457 
2222	 0.561353535783706 
2223	 0.561262418889223 
2224	 0.561113592134173 
2225	 0.56090625839071 
2226	 0.560576078929163 
2227	 0.560131623438879 
2228	 0.559615764433183 
2229	 0.558952649123703 
2230	 0.558121267037869 
2231	 0.557243544663835 
2232	 0.556289770311609 
2233	 0.555187993346724 
2234	 0.553992663015238 
2235	 0.552634044964595 
2236	 0.551124090794374 
2237	 0.549502761171767 
2238	 0.547652785079923 
2239	 0.545854187897689 
2240	 0.543998624959565 
2241	 0.542052958874019 
2242	 0.540148518180601 
2243	 0.53805177169427 
2244	 0.53578753894557 
2245	 0.533465054292482 
2246	 0.530971136993879 
2247	 0.528478278868255 
2248	 0.52592938245678 
2249	 0.523322621690491 
2250	 0.520683136199466 
2251	 0.518024480175786 
2252	 0.515110683079794 
2253	 0.512324187936394 
2254	 0.509412218238561 
2255	 0.506383929159311 
2256	 0.503630132587035 
2257	 0.500834198006106 
2258	 0.498122092439986 
2259	 0.495588745811976 
2260	 0.492873705822504 
2261	 0.490084823910109 
2262	 0.487357796116576 
2263	 0.484528454478531 
2264	 0.481849120928173 
2265	 0.479256741726335 
2266	 0.476691240021796 
2267	 0.474252037035684 
2268	 0.471717479741531 
2269	 0.469095127901384 
2270	 0.466677580331757 
2271	 0.464189444357145 
2272	 0.461974929437137 
2273	 0.460041027485841 
2274	 0.458133609291427 
2275	 0.456393755556024 
2276	 0.454677569920387 
2277	 0.453108844765015 
2278	 0.451472262909737 
2279	 0.449831814371522 
2280	 0.448202786308494 
2281	 0.446616983671947 
2282	 0.44491153616911 
2283	 0.443184235112722 
2284	 0.441438265552383 
2285	 0.439442021668994 
2286	 0.437449018734183 
2287	 0.435338732142528 
2288	 0.433196647346942 
2289	 0.431185907406298 
2290	 0.429062364936231 
2291	 0.426938192041371 
2292	 0.424724423062803 
2293	 0.422135724982618 
2294	 0.419430852388222 
2295	 0.416450241811783 
2296	 0.413168230166624 
2297	 0.409928190266031 
2298	 0.40654611883479 
2299	 0.403077324546908 
2300	 0.399572620383498 
2301	 0.395908646948291 
2302	 0.39193182554496 
2303	 0.388316181782566 
2304	 0.384476690497524 
2305	 0.381346925937959 
2306	 0.378439251574089 
2307	 0.37622212472233 
2308	 0.374391391885551 
2309	 0.373526113338124 
2310	 0.373230713257866 
2311	 0.374089236880421 
2312	 0.376202501614116 
2313	 0.378705773957815 
2314	 0.382357722552374 
2315	 0.386070302490114 
2316	 0.390420213191199 
2317	 0.394651171076925 
2318	 0.399538728765081 
2319	 0.403638852367718 
2320	 0.40771578942975 
2321	 0.411067394752745 
2322	 0.413798572984775 
2323	 0.416167939807399 
2324	 0.417914646678026 
2325	 0.419444692200677 
2326	 0.420559746762561 
2327	 0.421393964186951 
2328	 0.421876330932621 
2329	 0.422129073553177 
2330	 0.421995819610699 
2331	 0.421754672962415 
2332	 0.421309895967849 
2333	 0.4206426713853 
2334	 0.419717435056612 
2335	 0.418463510223269 
2336	 0.416779873599351 
2337	 0.414768924447705 
2338	 0.412626808331513 
2339	 0.41009679518856 
2340	 0.407417401686183 
2341	 0.404574128530488 
2342	 0.401305810898583 
2343	 0.397966586782071 
2344	 0.394662341727137 
2345	 0.391461694149061 
2346	 0.388845369475849 
2347	 0.386738083132358 
2348	 0.385175922491346 
2349	 0.384464555036348 
2350	 0.384350375970727 
2351	 0.384997689324081 
2352	 0.386623931157686 
2353	 0.389127231939092 
2354	 0.391990153811831 
2355	 0.395357106250806 
2356	 0.398661305481668 
2357	 0.40166668177061 
2358	 0.404845510041691 
2359	 0.407639475390101 
2360	 0.410098990092235 
2361	 0.412118067142329 
2362	 0.413519896168628 
2363	 0.414546793888031 
2364	 0.415314682413498 
2365	 0.415807769251967 
2366	 0.416175626152021 
2367	 0.416387939163564 
2368	 0.416506187393428 
2369	 0.416656304804709 
2370	 0.416689577909678 
2371	 0.416813366747633 
2372	 0.416960352506492 
2373	 0.417031861762085 
2374	 0.417157297438618 
2375	 0.417219557227524 
2376	 0.417176550837985 
2377	 0.417087491354586 
2378	 0.416994995335951 
2379	 0.416892165533739 
2380	 0.416742203228851 
2381	 0.416655847189964 
2382	 0.416586305819699 
2383	 0.416510288769156 
2384	 0.416448908805021 
2385	 0.416462959287553 
2386	 0.41638104733996 
2387	 0.41625359180997 
2388	 0.416158490533717 
2389	 0.416002738530714 
2390	 0.415961268885614 
2391	 0.416015008028374 
2392	 0.415953780128623 
2393	 0.415876251985529 
2394	 0.415887624724315 
2395	 0.415900522981194 
2396	 0.415873305806504 
2397	 0.415924340961422 
2398	 0.415880728028722 
2399	 0.415659824320319 
2400	 0.41560721994904 
2401	 0.415671111577782 
2402	 0.415691295738911 
2403	 0.415702204917509 
2404	 0.415835363821356 
2405	 0.415974016979316 
2406	 0.416006060706041 
2407	 0.416119323963407 
2408	 0.416251839534453 
2409	 0.416291743878192 
2410	 0.416512456669451 
2411	 0.416854741066787 
2412	 0.416982123223386 
2413	 0.417071982245845 
2414	 0.41711640341677 
2415	 0.4169135886074 
2416	 0.41679339402759 
2417	 0.416831781348549 
2418	 0.416852854602629 
2419	 0.416963715975452 
2420	 0.417063721492673 
2421	 0.417070266935222 
2422	 0.41705626661381 
2423	 0.41699241679222 
2424	 0.416860250221621 
2425	 0.416530663973547 
2426	 0.416199708129493 
2427	 0.415936109407711 
2428	 0.415655296649368 
2429	 0.415644342415921 
2430	 0.415635309079986 
2431	 0.415449496648164 
2432	 0.415268139643706 
2433	 0.414970062626096 
2434	 0.414655363469458 
2435	 0.414384664572845 
2436	 0.414152214170843 
2437	 0.413935611223368 
2438	 0.413501660810295 
2439	 0.412950192819168 
2440	 0.412449134146802 
2441	 0.411932967204664 
2442	 0.411545948161362 
2443	 0.411323504419135 
2444	 0.410980615837319 
2445	 0.410447299783793 
2446	 0.409900656631479 
2447	 0.409484538326409 
2448	 0.408999147360601 
2449	 0.408516642049548 
2450	 0.408147278871748 
2451	 0.407470773766246 
2452	 0.406799058637899 
2453	 0.406244951410185 
2454	 0.405365087858775 
2455	 0.404365166533741 
2456	 0.403497503756649 
2457	 0.402613863888041 
2458	 0.401798761273539 
2459	 0.401286522119899 
2460	 0.400774697133985 
2461	 0.400089613822463 
2462	 0.399525871985078 
2463	 0.399191557882805 
2464	 0.398825048538157 
2465	 0.398505349060538 
2466	 0.398207302163947 
2467	 0.397713201405578 
2468	 0.397302659655517 
2469	 0.396980883667934 
2470	 0.396830219145463 
2471	 0.396771658979933 
2472	 0.396583158900284 
2473	 0.396468546900433 
2474	 0.396485675007143 
2475	 0.396546586044332 
2476	 0.396278916327472 
2477	 0.396121381313663 
2478	 0.396174416698791 
2479	 0.396078481870802 
2480	 0.396730739507869 
2481	 0.3970690752937 
2482	 0.397272600427128 
2483	 0.397565924819148 
2484	 0.397726045864253 
2485	 0.397929806117642 
2486	 0.398136671895084 
2487	 0.398300586394156 
2488	 0.398511472517618 
2489	 0.398604892476553 
2490	 0.398729485320115 
2491	 0.398826657976778 
2492	 0.398791107857103 
2493	 0.398905631285526 
2494	 0.399101456190949 
2495	 0.399124860155513 
2496	 0.39920222788589 
2497	 0.399576073649842 
2498	 0.399813951932228 
2499	 0.400045421532976 
2500	 0.400381317910009 
