Wavelength	ProbetaAcolman00005.asd
350	 0.40080885497749 
351	 0.382538775471915 
352	 0.362756673057032 
353	 0.360845751255027 
354	 0.361636033157381 
355	 0.360154716054646 
356	 0.349707364916696 
357	 0.331147342438557 
358	 0.326347813056308 
359	 0.330460303270102 
360	 0.335557111973285 
361	 0.332087272506592 
362	 0.306921154586471 
363	 0.297660947887243 
364	 0.308285952666872 
365	 0.294661607652186 
366	 0.287377275404721 
367	 0.28705067410857 
368	 0.287455804847929 
369	 0.284160934078421 
370	 0.280672152278076 
371	 0.277187866774109 
372	 0.273392036487378 
373	 0.278602231472653 
374	 0.2721412064324 
375	 0.253755895289775 
376	 0.255274036018466 
377	 0.2543846172489 
378	 0.251369416273874 
379	 0.248675111677426 
380	 0.234600114076103 
381	 0.235042770112419 
382	 0.242543799133255 
383	 0.233374256064187 
384	 0.230300353274344 
385	 0.230723092700155 
386	 0.229039787572933 
387	 0.219336121932011 
388	 0.216719684860767 
389	 0.21907039457514 
390	 0.219661669029537 
391	 0.212216977746099 
392	 0.208063248621499 
393	 0.208706391387237 
394	 0.208574241201799 
395	 0.19843517853514 
396	 0.194984117985786 
397	 0.201256432764772 
398	 0.193884161037498 
399	 0.194445378471737 
400	 0.198576042062543 
401	 0.196557982004378 
402	 0.186347953319489 
403	 0.1825252496905 
404	 0.185945911976357 
405	 0.187499476581432 
406	 0.186521876327726 
407	 0.184685264202131 
408	 0.182854818195659 
409	 0.179362861563673 
410	 0.178408806393839 
411	 0.178624940433129 
412	 0.177535442895245 
413	 0.176565372336978 
414	 0.175115231413497 
415	 0.17404940234836 
416	 0.175281430706739 
417	 0.175340398261198 
418	 0.174052892497916 
419	 0.172405778504994 
420	 0.172678718674035 
421	 0.172266559351695 
422	 0.171362757530594 
423	 0.17112447995049 
424	 0.171085783484305 
425	 0.172015807576888 
426	 0.173306854626013 
427	 0.172870884425066 
428	 0.172751436194216 
429	 0.172426074062958 
430	 0.171574375492492 
431	 0.172167261964138 
432	 0.171959781740295 
433	 0.171451318908631 
434	 0.172317289677426 
435	 0.172598225293236 
436	 0.172886591351376 
437	 0.173433760070769 
438	 0.173582045968176 
439	 0.173491440814696 
440	 0.173568498902771 
441	 0.174111400477452 
442	 0.174769830779826 
443	 0.175025133618593 
444	 0.175102706223038 
445	 0.175714818485142 
446	 0.175904967707798 
447	 0.176109459256964 
448	 0.176746771695505 
449	 0.177891417940797 
450	 0.178149191024003 
451	 0.178026224342917 
452	 0.17855238488559 
453	 0.179100171946153 
454	 0.179484061859547 
455	 0.179874192074292 
456	 0.18076040791341 
457	 0.180929771583191 
458	 0.18096848208308 
459	 0.181499623308338 
460	 0.182078624716414 
461	 0.182840640116441 
462	 0.183481271370169 
463	 0.183600634316348 
464	 0.183990906563172 
465	 0.184574540112241 
466	 0.185050610543353 
467	 0.184900778348656 
468	 0.185548890207856 
469	 0.18614013878915 
470	 0.185811878589724 
471	 0.186441339585006 
472	 0.187153606685943 
473	 0.187579729437848 
474	 0.187829214404878 
475	 0.188069970987816 
476	 0.188412109783755 
477	 0.188878118697151 
478	 0.189342212846973 
479	 0.18987194211934 
480	 0.190482320416398 
481	 0.191106661625374 
482	 0.191301985129301 
483	 0.191618677208068 
484	 0.192229732599681 
485	 0.192813966728636 
486	 0.192994581239122 
487	 0.193447209592072 
488	 0.194563982760081 
489	 0.195224438067273 
490	 0.195524171310703 
491	 0.195810257358984 
492	 0.196511857012039 
493	 0.19729872550956 
494	 0.197983886422272 
495	 0.198536115009046 
496	 0.199127525020717 
497	 0.199896425115008 
498	 0.200607159593411 
499	 0.201091692850218 
500	 0.202048859112221 
501	 0.202815663880888 
502	 0.203356295147138 
503	 0.204192295656798 
504	 0.205017445385419 
505	 0.205749801078953 
506	 0.206437496750553 
507	 0.207346761935723 
508	 0.208280465531736 
509	 0.20907710562156 
510	 0.209662303631827 
511	 0.210425066502807 
512	 0.211221760686123 
513	 0.212020135967108 
514	 0.212994462786678 
515	 0.213891583472614 
516	 0.214739335340228 
517	 0.215591433748609 
518	 0.216294272587885 
519	 0.217131870649457 
520	 0.218109719275892 
521	 0.219048887988448 
522	 0.220118254905627 
523	 0.22111825503058 
524	 0.221964958181945 
525	 0.222882963240583 
526	 0.223835235081649 
527	 0.224795206847213 
528	 0.225756609283721 
529	 0.226850341949328 
530	 0.227898073924323 
531	 0.228892763442965 
532	 0.230016777099975 
533	 0.231145779186875 
534	 0.232249993796468 
535	 0.23336183260284 
536	 0.234640199230194 
537	 0.235930954253987 
538	 0.237187765959658 
539	 0.238440216625269 
540	 0.239785076486439 
541	 0.241112210128884 
542	 0.242397309930142 
543	 0.24379498178495 
544	 0.245044015041806 
545	 0.246251906704763 
546	 0.24759693475342 
547	 0.249040601166724 
548	 0.250405093672905 
549	 0.251680083201655 
550	 0.253000666399343 
551	 0.25426853837789 
552	 0.25555795624164 
553	 0.256922668670347 
554	 0.258293297338659 
555	 0.259613506465602 
556	 0.261018321756698 
557	 0.262676072550795 
558	 0.264293652288883 
559	 0.265909389903192 
560	 0.267570992300957 
561	 0.269299966413387 
562	 0.270844960018605 
563	 0.272317221976358 
564	 0.273829890491865 
565	 0.275090191532959 
566	 0.27630315194312 
567	 0.277526815850402 
568	 0.278717592787139 
569	 0.28009224554396 
570	 0.281516868131851 
571	 0.282865825451771 
572	 0.284135123724215 
573	 0.285391202206152 
574	 0.286708102869301 
575	 0.288138445868427 
576	 0.289590760391 
577	 0.291009781692365 
578	 0.29239029111829 
579	 0.293780026201352 
580	 0.295077059172299 
581	 0.296318448196629 
582	 0.297559178344128 
583	 0.29879085266833 
584	 0.300030858460089 
585	 0.301254654956755 
586	 0.302436582166191 
587	 0.303763689287265 
588	 0.305095241229688 
589	 0.306371406652315 
590	 0.307733068263625 
591	 0.308951758157754 
592	 0.310085458567785 
593	 0.311240205807662 
594	 0.312316117004566 
595	 0.313256577882147 
596	 0.31413404403162 
597	 0.315120331606405 
598	 0.316098727918704 
599	 0.317104053587067 
600	 0.318185776344074 
601	 0.319373532876172 
602	 0.320554157916581 
603	 0.321695574794925 
604	 0.322817206624766 
605	 0.324033272574354 
606	 0.32517718405675 
607	 0.326201570848097 
608	 0.32723074112036 
609	 0.328347276787624 
610	 0.329420410603283 
611	 0.330347404114176 
612	 0.331284966803806 
613	 0.332351182878183 
614	 0.333445634310081 
615	 0.334350705486905 
616	 0.335188124341814 
617	 0.336135925910424 
618	 0.337216945968609 
619	 0.338176589482207 
620	 0.339086649212061 
621	 0.340033649737589 
622	 0.341056471791105 
623	 0.341913590447289 
624	 0.342740063581304 
625	 0.343650628297514 
626	 0.344703611680651 
627	 0.345539486129081 
628	 0.346320716863004 
629	 0.347224315450597 
630	 0.34822011891559 
631	 0.349128049605657 
632	 0.349955672879806 
633	 0.350801067443833 
634	 0.351701565751254 
635	 0.352627210769955 
636	 0.353529478515801 
637	 0.354346314285606 
638	 0.35513738035939 
639	 0.355959862522577 
640	 0.356844608003602 
641	 0.357759535054382 
642	 0.358596585201253 
643	 0.359387625063441 
644	 0.360244579506162 
645	 0.361118731783144 
646	 0.36194490312293 
647	 0.362727598766651 
648	 0.363591416268954 
649	 0.364380070451259 
650	 0.365140995230457 
651	 0.365966829187401 
652	 0.366868512788236 
653	 0.367687194634436 
654	 0.368431716458772 
655	 0.369243842739629 
656	 0.370087644420965 
657	 0.37092158333392 
658	 0.371717796644954 
659	 0.372477283634754 
660	 0.373232516530608 
661	 0.374012983813782 
662	 0.374831651640511 
663	 0.375626924605155 
664	 0.376433395820182 
665	 0.377253228386244 
666	 0.37805315890875 
667	 0.378878618656188 
668	 0.379710597147068 
669	 0.380512809967701 
670	 0.381235387252097 
671	 0.381967686809416 
672	 0.382762412123617 
673	 0.383628577855064 
674	 0.384434159661981 
675	 0.385155219890949 
676	 0.385852098463246 
677	 0.386668136524997 
678	 0.387461123451241 
679	 0.388251856252669 
680	 0.389053799670139 
681	 0.38972467270072 
682	 0.390517157246746 
683	 0.391371732717326 
684	 0.392084149275177 
685	 0.392808973624106 
686	 0.393515230117293 
687	 0.39421924034225 
688	 0.395028156526933 
689	 0.395824156920426 
690	 0.396578073271511 
691	 0.397297082744563 
692	 0.398007138817351 
693	 0.398782862537532 
694	 0.399579948784059 
695	 0.400293351931703 
696	 0.401020097998643 
697	 0.401766959524161 
698	 0.402520974814154 
699	 0.403257169371967 
700	 0.403974595168151 
701	 0.404720663799451 
702	 0.405521067833301 
703	 0.406273877322771 
704	 0.406953656598451 
705	 0.407625093591842 
706	 0.408396237891742 
707	 0.409142318923012 
708	 0.409897798349955 
709	 0.410660904090295 
710	 0.411331560749669 
711	 0.411987425410934 
712	 0.412662550470139 
713	 0.413377640005125 
714	 0.41416270839904 
715	 0.414917189179164 
716	 0.4156062029689 
717	 0.416252496457014 
718	 0.416900959994599 
719	 0.417616486316819 
720	 0.418390770851222 
721	 0.41909744657076 
722	 0.419702818719 
723	 0.420326366691088 
724	 0.421080201316214 
725	 0.421853387365715 
726	 0.422580037510419 
727	 0.423251760558834 
728	 0.423905101561245 
729	 0.4245659698193 
730	 0.425274067330035 
731	 0.426025939355948 
732	 0.426753558574491 
733	 0.427379628638219 
734	 0.428011855465642 
735	 0.428754509435241 
736	 0.429484055157215 
737	 0.430136726785139 
738	 0.430762849483 
739	 0.431474266695862 
740	 0.43220514438253 
741	 0.432937974680512 
742	 0.433663318950844 
743	 0.434376197805207 
744	 0.435139336833599 
745	 0.43589799591335 
746	 0.436590708101493 
747	 0.437240089275149 
748	 0.437926285150909 
749	 0.438653156612112 
750	 0.439378733211681 
751	 0.440109020698435 
752	 0.440815856362833 
753	 0.441503506359215 
754	 0.442219597640627 
755	 0.442875168352741 
756	 0.443503450846571 
757	 0.444158626680377 
758	 0.444855754596197 
759	 0.445629195971969 
760	 0.446425959216028 
761	 0.447158488482989 
762	 0.447819728757802 
763	 0.448471746579104 
764	 0.44915903363312 
765	 0.44989533840367 
766	 0.450543551148552 
767	 0.451252396338299 
768	 0.452095059517646 
769	 0.452843197813758 
770	 0.453591072884417 
771	 0.454323163250718 
772	 0.455004674475302 
773	 0.455680165792521 
774	 0.456400096029255 
775	 0.45714473305168 
776	 0.457840941641953 
777	 0.458485060507649 
778	 0.459199192289259 
779	 0.459998213584812 
780	 0.460688629868874 
781	 0.461352837204474 
782	 0.462002164547584 
783	 0.462647629275375 
784	 0.463356496235362 
785	 0.46406088426726 
786	 0.46476541374497 
787	 0.465508584196124 
788	 0.466255503258065 
789	 0.466965213337258 
790	 0.467645703714787 
791	 0.468361494403457 
792	 0.469116374247203 
793	 0.469815841764251 
794	 0.4704229202574 
795	 0.471086133681458 
796	 0.471731364392953 
797	 0.472376298302024 
798	 0.473059091399898 
799	 0.473765169393302 
800	 0.474415642242723 
801	 0.475090899266427 
802	 0.475943785913804 
803	 0.476543259372819 
804	 0.477098465389043 
805	 0.477765897112627 
806	 0.478487628700943 
807	 0.479197189463895 
808	 0.479803014900843 
809	 0.480310650626443 
810	 0.48100224049132 
811	 0.481738877031881 
812	 0.48244400655619 
813	 0.483083815578443 
814	 0.483712649644826 
815	 0.484280278795061 
816	 0.484875489800485 
817	 0.485672566153923 
818	 0.48630864110105 
819	 0.486871456219523 
820	 0.487473743481238 
821	 0.488146808645959 
822	 0.488754380151383 
823	 0.489339615290099 
824	 0.489975426006024 
825	 0.490671950673132 
826	 0.491313079641729 
827	 0.491895932686344 
828	 0.492483375860428 
829	 0.493153366780034 
830	 0.49381251182044 
831	 0.494443427276662 
832	 0.495096779532419 
833	 0.495693811858916 
834	 0.496209381373909 
835	 0.496724737095717 
836	 0.497460880848084 
837	 0.498087583688049 
838	 0.498596975827974 
839	 0.499099013153639 
840	 0.499787978188044 
841	 0.500434763189967 
842	 0.501007018166579 
843	 0.501558282276558 
844	 0.502112128058246 
845	 0.502696118872383 
846	 0.503286042655586 
847	 0.503834422423397 
848	 0.504440291979286 
849	 0.505022216499641 
850	 0.505550270137577 
851	 0.506084789881914 
852	 0.506647701724469 
853	 0.50721878093674 
854	 0.507762115556991 
855	 0.508226647845074 
856	 0.508772399843092 
857	 0.509362859246498 
858	 0.509941445565133 
859	 0.51065505045873 
860	 0.511226855698341 
861	 0.511672535785491 
862	 0.512167449497204 
863	 0.512797617318748 
864	 0.513393722261144 
865	 0.513899728818408 
866	 0.514389619958975 
867	 0.515004779492542 
868	 0.515615047172626 
869	 0.516133415926122 
870	 0.516594222014117 
871	 0.517217175659929 
872	 0.51788131366913 
873	 0.518461196850712 
874	 0.518998376775699 
875	 0.519617937409408 
876	 0.520241240193053 
877	 0.520761220018028 
878	 0.521208382219959 
879	 0.521746659512594 
880	 0.522376568789772 
881	 0.523005977395402 
882	 0.523562111262281 
883	 0.524106380155368 
884	 0.524693885615035 
885	 0.525338823895691 
886	 0.525831594167578 
887	 0.526306257892805 
888	 0.526845239254064 
889	 0.527420018690531 
890	 0.52803176030002 
891	 0.528615917208988 
892	 0.52914461871715 
893	 0.529669114405874 
894	 0.530166071407127 
895	 0.530685887218828 
896	 0.531277183966396 
897	 0.531964498140374 
898	 0.532402110981409 
899	 0.532789124869263 
900	 0.533391737369253 
901	 0.533940650723381 
902	 0.534504142071478 
903	 0.535074854443589 
904	 0.535625083101213 
905	 0.536248763127538 
906	 0.536686230781338 
907	 0.537041146165458 
908	 0.537641887899666 
909	 0.538320437644022 
910	 0.538876041510272 
911	 0.539338582501473 
912	 0.539945491219268 
913	 0.540477493812845 
914	 0.540947118348238 
915	 0.541434914106785 
916	 0.542053390797509 
917	 0.542702128861693 
918	 0.543300660545929 
919	 0.543822858277306 
920	 0.544329962370055 
921	 0.544889108926462 
922	 0.545514620979129 
923	 0.546188619495542 
924	 0.546867005176272 
925	 0.547568411342324 
926	 0.548158111632289 
927	 0.548571113321546 
928	 0.549117007830538 
929	 0.549693756442981 
930	 0.550264760324034 
931	 0.550827204785193 
932	 0.551407310156605 
933	 0.552052428542817 
934	 0.552690985094228 
935	 0.553231546963839 
936	 0.553836773766024 
937	 0.554483812719825 
938	 0.555147719006221 
939	 0.555806014376847 
940	 0.556441634565478 
941	 0.556946302762618 
942	 0.557391366638607 
943	 0.557989402042507 
944	 0.558736543737202 
945	 0.55949563935205 
946	 0.560164673446017 
947	 0.56072068133184 
948	 0.56131099313603 
949	 0.56177815273976 
950	 0.562172297134032 
951	 0.562822773662667 
952	 0.56352482193106 
953	 0.564204386092736 
954	 0.56482045368108 
955	 0.565353977891711 
956	 0.565767289931327 
957	 0.566221464322214 
958	 0.566776884672163 
959	 0.567257828443044 
960	 0.56773580901782 
961	 0.568259528419895 
962	 0.568832015384603 
963	 0.569378657219966 
964	 0.569878993946076 
965	 0.570390270227519 
966	 0.570948657658031 
967	 0.571489682374195 
968	 0.572134371826914 
969	 0.572854067943173 
970	 0.573557325866614 
971	 0.574117856190497 
972	 0.574733646108849 
973	 0.57532126628241 
974	 0.575827011435183 
975	 0.576528336103484 
976	 0.577193929453013 
977	 0.577790612237793 
978	 0.578369260392512 
979	 0.579037370968593 
980	 0.579517962007175 
981	 0.579929340475972 
982	 0.580454186532733 
983	 0.58100234870244 
984	 0.581595578999076 
985	 0.582270041545056 
986	 0.582998982844616 
987	 0.583548605462003 
988	 0.584065934113457 
989	 0.58469967435029 
990	 0.585480167590898 
991	 0.586073952014741 
992	 0.586610479532378 
993	 0.587273623600957 
994	 0.588080136398573 
995	 0.588430588745879 
996	 0.58892867608358 
997	 0.589608148592953 
998	 0.590306436678862 
999	 0.590994267176426 
1000	 0.591646850453674 
1001	 0.602405175113753 
1002	 0.603082977227526 
1003	 0.603760376771557 
1004	 0.604399277868237 
1005	 0.60510679929365 
1006	 0.605698490666551 
1007	 0.606158960822931 
1008	 0.606748047935144 
1009	 0.60733726015993 
1010	 0.607946452487301 
1011	 0.608651059954845 
1012	 0.609274371070143 
1013	 0.609852271732211 
1014	 0.610463943021115 
1015	 0.611083980276654 
1016	 0.61166005000979 
1017	 0.612243250901766 
1018	 0.612794070474202 
1019	 0.613418050727456 
1020	 0.614093595173947 
1021	 0.614756243579463 
1022	 0.615505296020636 
1023	 0.616180707979422 
1024	 0.616802620757924 
1025	 0.617434309744513 
1026	 0.618046196824155 
1027	 0.618677345544758 
1028	 0.619303472649611 
1029	 0.61995597035606 
1030	 0.620607299849879 
1031	 0.621272546963755 
1032	 0.621926559959069 
1033	 0.622542155106425 
1034	 0.623163346722871 
1035	 0.623785331643133 
1036	 0.624400795862625 
1037	 0.625051868610315 
1038	 0.625620044895856 
1039	 0.626129587268479 
1040	 0.626669529758878 
1041	 0.627173802537074 
1042	 0.627675977878997 
1043	 0.628185503075295 
1044	 0.628712054867672 
1045	 0.629221754004833 
1046	 0.629727316886689 
1047	 0.630268932277651 
1048	 0.630822730361751 
1049	 0.631313636369376 
1050	 0.631807408814158 
1051	 0.632374333048609 
1052	 0.632947842134698 
1053	 0.633491855951493 
1054	 0.634059406236505 
1055	 0.634606481316814 
1056	 0.635090984786967 
1057	 0.635625562960844 
1058	 0.636172965878121 
1059	 0.636768247099821 
1060	 0.637373645295814 
1061	 0.637942081354823 
1062	 0.638570564515723 
1063	 0.639194731126424 
1064	 0.639761972828806 
1065	 0.640387879419613 
1066	 0.641002084512238 
1067	 0.641609633640648 
1068	 0.642275921972897 
1069	 0.642893926050164 
1070	 0.643527334383356 
1071	 0.644148468671418 
1072	 0.644810280200953 
1073	 0.645439248788131 
1074	 0.646096146197972 
1075	 0.646751063264795 
1076	 0.647341253420979 
1077	 0.647972995292694 
1078	 0.648632354023856 
1079	 0.649344325157639 
1080	 0.650085251586487 
1081	 0.650737560130778 
1082	 0.651408193218186 
1083	 0.652037776860659 
1084	 0.652600311909168 
1085	 0.65327868229165 
1086	 0.653939412722099 
1087	 0.654598226030534 
1088	 0.655233524554477 
1089	 0.655965705839655 
1090	 0.656628756817146 
1091	 0.657251515903154 
1092	 0.657910848919908 
1093	 0.658536327794979 
1094	 0.659166541135737 
1095	 0.659805527136052 
1096	 0.660436783117867 
1097	 0.661043775355931 
1098	 0.661605102482853 
1099	 0.662161963562963 
1100	 0.662725211722757 
1101	 0.663289178416324 
1102	 0.663859962697883 
1103	 0.664407908290108 
1104	 0.664947432951884 
1105	 0.665496183014653 
1106	 0.666043065632643 
1107	 0.666535649649532 
1108	 0.66705253343289 
1109	 0.667546270647063 
1110	 0.66797733386414 
1111	 0.668443523698424 
1112	 0.668898373969638 
1113	 0.669361367186466 
1114	 0.669841535132326 
1115	 0.670273863763462 
1116	 0.670710161580043 
1117	 0.671126065497828 
1118	 0.671535846208003 
1119	 0.671943942190093 
1120	 0.672339758578316 
1121	 0.672720746410408 
1122	 0.673102915221268 
1123	 0.673482541241912 
1124	 0.673832736630362 
1125	 0.674193992520133 
1126	 0.674509904409039 
1127	 0.67485097632231 
1128	 0.675224769301716 
1129	 0.675543841773933 
1130	 0.675899433242379 
1131	 0.676249909046785 
1132	 0.676526448757161 
1133	 0.676820394076713 
1134	 0.677106709640393 
1135	 0.677380176539901 
1136	 0.677607235705456 
1137	 0.677894054628432 
1138	 0.678213437177734 
1139	 0.678520741584359 
1140	 0.678860373868826 
1141	 0.67913982354248 
1142	 0.679445440918121 
1143	 0.679754334010091 
1144	 0.680041300482313 
1145	 0.680361410923346 
1146	 0.680646870273654 
1147	 0.680906905644914 
1148	 0.681166602925656 
1149	 0.681404213547107 
1150	 0.681652963416545 
1151	 0.681900995798938 
1152	 0.68217312831844 
1153	 0.682475520933625 
1154	 0.682778721923505 
1155	 0.6831082717214 
1156	 0.683406245187522 
1157	 0.683714968553696 
1158	 0.68396389618156 
1159	 0.68415339863293 
1160	 0.684376117500878 
1161	 0.684598752544169 
1162	 0.68484846542613 
1163	 0.685122725142696 
1164	 0.685386368820406 
1165	 0.685623444054829 
1166	 0.685857455112091 
1167	 0.686130199571183 
1168	 0.686404094212189 
1169	 0.686684777220848 
1170	 0.686978051694994 
1171	 0.687280812868022 
1172	 0.687581037134316 
1173	 0.6879024451449 
1174	 0.688243202854659 
1175	 0.688580516861187 
1176	 0.68893793094777 
1177	 0.689285247782119 
1178	 0.689614341255818 
1179	 0.689973812954406 
1180	 0.690355321897087 
1181	 0.690733255408098 
1182	 0.691128370548033 
1183	 0.691510236835909 
1184	 0.691889430889687 
1185	 0.6922759349409 
1186	 0.692674711249613 
1187	 0.693090595936076 
1188	 0.693518129850719 
1189	 0.693956123867276 
1190	 0.694397011333232 
1191	 0.694861042058592 
1192	 0.695297581975542 
1193	 0.695701854392851 
1194	 0.696145586923366 
1195	 0.69661259137616 
1196	 0.697072369577375 
1197	 0.697545332963163 
1198	 0.698031840973014 
1199	 0.69850479402279 
1200	 0.698927025008643 
1201	 0.699361238857027 
1202	 0.699810132451455 
1203	 0.700244942870419 
1204	 0.700702435236892 
1205	 0.701178963007007 
1206	 0.701692875902764 
1207	 0.702180809533253 
1208	 0.702684824739338 
1209	 0.703152041191031 
1210	 0.703571555639172 
1211	 0.70403488982682 
1212	 0.704514025121387 
1213	 0.704987623297749 
1214	 0.705482725761702 
1215	 0.705970550632705 
1216	 0.706430637172731 
1217	 0.706908388980358 
1218	 0.707398895944597 
1219	 0.70790136439199 
1220	 0.708395552337671 
1221	 0.708927036116435 
1222	 0.709457381170457 
1223	 0.710010627642928 
1224	 0.710542417326258 
1225	 0.711084890626181 
1226	 0.711585151912381 
1227	 0.712048192132875 
1228	 0.712536082368719 
1229	 0.713015842781091 
1230	 0.713500430230773 
1231	 0.714002582667831 
1232	 0.714495606228068 
1233	 0.714973353812757 
1234	 0.715452561270972 
1235	 0.715942683113637 
1236	 0.716417289900213 
1237	 0.716892100616571 
1238	 0.717348832395534 
1239	 0.717791541405106 
1240	 0.718221872186045 
1241	 0.718643091777617 
1242	 0.719052652493307 
1243	 0.71948805811542 
1244	 0.719932453711973 
1245	 0.720381100217996 
1246	 0.720850101068073 
1247	 0.721303460537136 
1248	 0.7217508613171 
1249	 0.722204637094989 
1250	 0.722655718560981 
1251	 0.723109524140044 
1252	 0.723578240161414 
1253	 0.724028936803845 
1254	 0.724481258903317 
1255	 0.724916484625717 
1256	 0.725342122769004 
1257	 0.725752776590039 
1258	 0.726135656127716 
1259	 0.726527938922962 
1260	 0.726926167089683 
1261	 0.727305070786324 
1262	 0.727668066292159 
1263	 0.728055119666268 
1264	 0.728397351692191 
1265	 0.728711976374098 
1266	 0.729014858479109 
1267	 0.729303402943954 
1268	 0.72957020632305 
1269	 0.729811375009195 
1270	 0.730048362192343 
1271	 0.730253983172059 
1272	 0.730484821878883 
1273	 0.730703791576571 
1274	 0.730953538166604 
1275	 0.731228200461751 
1276	 0.731500516977822 
1277	 0.731794849524053 
1278	 0.73207548792362 
1279	 0.732349497359063 
1280	 0.732628063936051 
1281	 0.732874999774173 
1282	 0.73317242820887 
1283	 0.733504333430883 
1284	 0.733834466056535 
1285	 0.734179689563754 
1286	 0.734562707257744 
1287	 0.734917168040074 
1288	 0.735247840761266 
1289	 0.735626598253532 
1290	 0.736020452618255 
1291	 0.736426505533175 
1292	 0.736866731284376 
1293	 0.737287469603856 
1294	 0.737702242714242 
1295	 0.738128693950069 
1296	 0.738562937452884 
1297	 0.738990944274929 
1298	 0.739417534273729 
1299	 0.739852192905093 
1300	 0.740293271725988 
1301	 0.740722201089699 
1302	 0.741164300263685 
1303	 0.741583271603123 
1304	 0.741974967225633 
1305	 0.742371873298532 
1306	 0.742765982167412 
1307	 0.743150658547565 
1308	 0.74352533709747 
1309	 0.743914146977611 
1310	 0.744256567527219 
1311	 0.744566462816776 
1312	 0.744903912545411 
1313	 0.745231710710917 
1314	 0.745552863029963 
1315	 0.745893266902041 
1316	 0.746203207745678 
1317	 0.746481632749741 
1318	 0.746768999943623 
1319	 0.747058318092653 
1320	 0.747334827268083 
1321	 0.747610285630689 
1322	 0.747861151743158 
1323	 0.748082098818262 
1324	 0.748323127753374 
1325	 0.748568301397923 
1326	 0.748792267404851 
1327	 0.74903962204833 
1328	 0.749240529549525 
1329	 0.749398393210277 
1330	 0.749549080639431 
1331	 0.749677512398448 
1332	 0.74979575050669 
1333	 0.749895570308281 
1334	 0.749990469923591 
1335	 0.750082347049864 
1336	 0.750164629022526 
1337	 0.750244149431634 
1338	 0.750322519749608 
1339	 0.750392674888683 
1340	 0.750458299388891 
1341	 0.750510664594872 
1342	 0.750561039939283 
1343	 0.750590330400633 
1344	 0.750609982844902 
1345	 0.750603940798251 
1346	 0.750583082101127 
1347	 0.75053953593445 
1348	 0.75045770993296 
1349	 0.750389564544369 
1350	 0.750313802052294 
1351	 0.750231361604037 
1352	 0.750156167205111 
1353	 0.750061706033712 
1354	 0.749936531652023 
1355	 0.749829583296336 
1356	 0.749713688264259 
1357	 0.749612449454059 
1358	 0.749533386835753 
1359	 0.74944604583783 
1360	 0.749359023616478 
1361	 0.74927347703326 
1362	 0.749193909795987 
1363	 0.749111444045011 
1364	 0.74903313537163 
1365	 0.748951804926771 
1366	 0.748901951589618 
1367	 0.748870987577881 
1368	 0.74882217288016 
1369	 0.748797746983406 
1370	 0.74874087488531 
1371	 0.748658691277663 
1372	 0.748576731883588 
1373	 0.748506823763489 
1374	 0.748392098010824 
1375	 0.748247563724937 
1376	 0.748093833671646 
1377	 0.747915423359693 
1378	 0.747721414910062 
1379	 0.747514906414806 
1380	 0.747292194132394 
1381	 0.747028007110963 
1382	 0.746784679684581 
1383	 0.746558966665054 
1384	 0.746299122905602 
1385	 0.746047233814134 
1386	 0.745757255491616 
1387	 0.745451068489574 
1388	 0.745098496456969 
1389	 0.74473085931529 
1390	 0.744306064112678 
1391	 0.743827978787318 
1392	 0.743297684788298 
1393	 0.742773645688923 
1394	 0.742205491597553 
1395	 0.741621488180864 
1396	 0.741031036875452 
1397	 0.740398128035572 
1398	 0.739745704578462 
1399	 0.739017993763064 
1400	 0.738262573051397 
1401	 0.737421110332138 
1402	 0.736536737792705 
1403	 0.735519429413318 
1404	 0.734462641232636 
1405	 0.73322483839763 
1406	 0.731855275506858 
1407	 0.730354213210349 
1408	 0.72859680858593 
1409	 0.72697390570122 
1410	 0.725101849539266 
1411	 0.723641802192046 
1412	 0.722174458561985 
1413	 0.721236525167303 
1414	 0.720594886026006 
1415	 0.720346182575064 
1416	 0.720657606662335 
1417	 0.721018804399762 
1418	 0.721848756918671 
1419	 0.722496166243253 
1420	 0.723319079178323 
1421	 0.723911072210224 
1422	 0.724396433378417 
1423	 0.724759898068261 
1424	 0.724947713532287 
1425	 0.725069701187733 
1426	 0.725132633940499 
1427	 0.72512898114776 
1428	 0.725127296432879 
1429	 0.725093637901461 
1430	 0.725052246397586 
1431	 0.724982115732569 
1432	 0.724928893407082 
1433	 0.724864983814407 
1434	 0.724808602045772 
1435	 0.724754926715624 
1436	 0.724712608413109 
1437	 0.724664253710808 
1438	 0.72464276295071 
1439	 0.724644260526752 
1440	 0.724643117690804 
1441	 0.724650658308081 
1442	 0.724669607454845 
1443	 0.724694164886281 
1444	 0.72472898029759 
1445	 0.724780341083454 
1446	 0.724829630347716 
1447	 0.724888197819648 
1448	 0.724941719020152 
1449	 0.72499243846718 
1450	 0.725052028556984 
1451	 0.725120051131812 
1452	 0.725175808753012 
1453	 0.725236719040637 
1454	 0.725287728117131 
1455	 0.725311635898983 
1456	 0.725359064233645 
1457	 0.725405646788664 
1458	 0.725473318588964 
1459	 0.725570114894321 
1460	 0.725659250958715 
1461	 0.725745516924763 
1462	 0.725851171745267 
1463	 0.725965120799669 
1464	 0.726083867236865 
1465	 0.726221413786056 
1466	 0.726371567905104 
1467	 0.726491863715894 
1468	 0.726609618730798 
1469	 0.726718134938995 
1470	 0.726841977403411 
1471	 0.726977808162895 
1472	 0.727125789472874 
1473	 0.727278362436271 
1474	 0.727446501563133 
1475	 0.727602936913554 
1476	 0.727763314103221 
1477	 0.727916101571847 
1478	 0.728076901308214 
1479	 0.728194916458965 
1480	 0.728303378982121 
1481	 0.728380037628485 
1482	 0.728407296211688 
1483	 0.728455272277587 
1484	 0.728490010317105 
1485	 0.728530999542947 
1486	 0.728574908775812 
1487	 0.728615266139322 
1488	 0.728644601951749 
1489	 0.728695605382499 
1490	 0.72876081729911 
1491	 0.728815440139509 
1492	 0.728878613792373 
1493	 0.728938658937471 
1494	 0.728964673373781 
1495	 0.729044718888165 
1496	 0.729148583186706 
1497	 0.729272276818706 
1498	 0.729427989219244 
1499	 0.729599424038843 
1500	 0.729784433579131 
1501	 0.729994492314564 
1502	 0.730236769049744 
1503	 0.730485277247377 
1504	 0.73075587439839 
1505	 0.731029444109791 
1506	 0.73129954292662 
1507	 0.731602335755104 
1508	 0.731928556511371 
1509	 0.732262515313508 
1510	 0.732637107110282 
1511	 0.732990610663182 
1512	 0.733341511557149 
1513	 0.733686998672337 
1514	 0.734001450878425 
1515	 0.734353359769601 
1516	 0.734723824141588 
1517	 0.735097157769785 
1518	 0.735518058626024 
1519	 0.735903395588721 
1520	 0.736262657207668 
1521	 0.736628663639572 
1522	 0.736952817502116 
1523	 0.737309875220563 
1524	 0.737662972719482 
1525	 0.738008420621199 
1526	 0.738401688794398 
1527	 0.738818024454504 
1528	 0.739237662955809 
1529	 0.739687365661258 
1530	 0.740134441239999 
1531	 0.740582918486327 
1532	 0.741038320530639 
1533	 0.74150521129072 
1534	 0.741985300300981 
1535	 0.742472367416182 
1536	 0.742956309335196 
1537	 0.743468321048798 
1538	 0.743938761113849 
1539	 0.744392262058974 
1540	 0.744828108298013 
1541	 0.74523441261041 
1542	 0.745660402278224 
1543	 0.746080628836215 
1544	 0.74649523846893 
1545	 0.746921920472758 
1546	 0.747326317403782 
1547	 0.747729283281881 
1548	 0.748084536899515 
1549	 0.748416289606858 
1550	 0.748730201200857 
1551	 0.749001726910118 
1552	 0.749268889849415 
1553	 0.749524063362217 
1554	 0.749772779942547 
1555	 0.749995934798419 
1556	 0.75022634516809 
1557	 0.75044754412742 
1558	 0.75069052918381 
1559	 0.750947861561374 
1560	 0.751186024489381 
1561	 0.751433204523598 
1562	 0.751671704967366 
1563	 0.751873276526248 
1564	 0.752115173600091 
1565	 0.752393272829867 
1566	 0.752644285855406 
1567	 0.7528801314954 
1568	 0.75314985133484 
1569	 0.753427541885569 
1570	 0.753704125701307 
1571	 0.75401753503913 
1572	 0.754304606330954 
1573	 0.754551584130313 
1574	 0.754838332844586 
1575	 0.755139656154002 
1576	 0.755450869257995 
1577	 0.755792969027161 
1578	 0.756117862464222 
1579	 0.75644216417617 
1580	 0.756765037354604 
1581	 0.757088588621176 
1582	 0.757400534324071 
1583	 0.75771467924934 
1584	 0.758010637939479 
1585	 0.758267590130385 
1586	 0.75856225743235 
1587	 0.758856025273772 
1588	 0.759173193498016 
1589	 0.759533632271874 
1590	 0.759875144178939 
1591	 0.760230536312163 
1592	 0.760562867087783 
1593	 0.760872729913412 
1594	 0.761193906131662 
1595	 0.761509203473021 
1596	 0.761821360841908 
1597	 0.762128534058577 
1598	 0.762450607539202 
1599	 0.762780996585879 
1600	 0.763103179116618 
1601	 0.763442335488601 
1602	 0.763766209290774 
1603	 0.764076182153904 
1604	 0.764374948678644 
1605	 0.764648651715266 
1606	 0.764949465431434 
1607	 0.765270897864785 
1608	 0.765561015562693 
1609	 0.765849324304332 
1610	 0.766139633662891 
1611	 0.766373901613871 
1612	 0.766666069703246 
1613	 0.767017294629329 
1614	 0.76734227140148 
1615	 0.767691667464519 
1616	 0.768017257534609 
1617	 0.768324206206661 
1618	 0.768622782442459 
1619	 0.768917442751608 
1620	 0.769187215038189 
1621	 0.769441029035959 
1622	 0.769673447229271 
1623	 0.769856943808253 
1624	 0.770075549081378 
1625	 0.770292163823197 
1626	 0.770521146176207 
1627	 0.770785626653773 
1628	 0.771027820895446 
1629	 0.771248599887094 
1630	 0.771487877471538 
1631	 0.771736687631647 
1632	 0.771983298681917 
1633	 0.772245147927174 
1634	 0.77249505451231 
1635	 0.772728391455358 
1636	 0.772966540076285 
1637	 0.773234311352468 
1638	 0.773451009512745 
1639	 0.77364888115871 
1640	 0.773825449638909 
1641	 0.773940859557579 
1642	 0.774077501231747 
1643	 0.774201983865526 
1644	 0.774343619021209 
1645	 0.774501780727307 
1646	 0.77465590352299 
1647	 0.774817895972463 
1648	 0.774977581555293 
1649	 0.77514082484831 
1650	 0.775292452259559 
1651	 0.775461657852141 
1652	 0.775587127739046 
1653	 0.775684082021279 
1654	 0.775765049047233 
1655	 0.775816275009943 
1656	 0.775854468237585 
1657	 0.775879412649075 
1658	 0.775883700557881 
1659	 0.775861607129591 
1660	 0.775829640447353 
1661	 0.77579475388664 
1662	 0.775724676270881 
1663	 0.775622409120268 
1664	 0.775511800721302 
1665	 0.775375855912895 
1666	 0.775224941555291 
1667	 0.775088084870444 
1668	 0.774886198313835 
1669	 0.774679116784082 
1670	 0.774370660737911 
1671	 0.773969301980472 
1672	 0.773541651721073 
1673	 0.773028874981048 
1674	 0.772501787981646 
1675	 0.771933564990153 
1676	 0.771380486322421 
1677	 0.770804330801738 
1678	 0.770229924870119 
1679	 0.769670873845423 
1680	 0.769069586028389 
1681	 0.76842695187359 
1682	 0.767795679576172 
1683	 0.767139426330404 
1684	 0.766528039830763 
1685	 0.765925382256175 
1686	 0.765358016792416 
1687	 0.764811427262367 
1688	 0.764293037712869 
1689	 0.763792533197758 
1690	 0.763346273069342 
1691	 0.762948201289686 
1692	 0.762579764180968 
1693	 0.762258894915668 
1694	 0.761956943295155 
1695	 0.761690941204713 
1696	 0.761415808739734 
1697	 0.76117131417321 
1698	 0.760906098478864 
1699	 0.760645940878037 
1700	 0.760363900131392 
1701	 0.760069270490406 
1702	 0.759768526572142 
1703	 0.759454883643685 
1704	 0.759106660067173 
1705	 0.758747033104077 
1706	 0.758362262997434 
1707	 0.757966831953953 
1708	 0.75761514645999 
1709	 0.757261293064017 
1710	 0.756885679103755 
1711	 0.756489687925191 
1712	 0.756087532181961 
1713	 0.755638844504123 
1714	 0.755161689790357 
1715	 0.754689369797558 
1716	 0.754142834484276 
1717	 0.753600421655262 
1718	 0.753049095217959 
1719	 0.752434393442322 
1720	 0.751866602624174 
1721	 0.751283969432459 
1722	 0.75066345114951 
1723	 0.750127703852973 
1724	 0.749582458917586 
1725	 0.749072961940479 
1726	 0.748685519088477 
1727	 0.748364257821368 
1728	 0.748188853833141 
1729	 0.748110078568403 
1730	 0.748133858546533 
1731	 0.748311833463786 
1732	 0.748592776014741 
1733	 0.748947942123288 
1734	 0.749366069844225 
1735	 0.749823792785042 
1736	 0.750293204293121 
1737	 0.750772543326142 
1738	 0.751307161948047 
1739	 0.751779974256629 
1740	 0.752242349765638 
1741	 0.752644309305084 
1742	 0.752998199378806 
1743	 0.753314703374194 
1744	 0.753556558069118 
1745	 0.753822257981165 
1746	 0.754093914005477 
1747	 0.754313560811745 
1748	 0.754508001548771 
1749	 0.754683514240238 
1750	 0.754796358221983 
1751	 0.754938450952757 
1752	 0.755088782502687 
1753	 0.755228129972314 
1754	 0.7553827922447 
1755	 0.755487690189333 
1756	 0.755552932377891 
1757	 0.75566755747754 
1758	 0.755748120653281 
1759	 0.755825465831056 
1760	 0.755926283596714 
1761	 0.756012754171035 
1762	 0.756114109748832 
1763	 0.756306105535186 
1764	 0.756523479266595 
1765	 0.75676874694652 
1766	 0.75707665214875 
1767	 0.757416101567682 
1768	 0.757845885003668 
1769	 0.758309233319308 
1770	 0.758741483181929 
1771	 0.759206088106713 
1772	 0.75963417676142 
1773	 0.760027061398182 
1774	 0.760438486820336 
1775	 0.760801227268237 
1776	 0.761109835604253 
1777	 0.76139383455141 
1778	 0.761668183220553 
1779	 0.761924792691308 
1780	 0.762139370083531 
1781	 0.762352686873016 
1782	 0.762603295124697 
1783	 0.76282954982513 
1784	 0.763030315539166 
1785	 0.763181422329267 
1786	 0.763316252686652 
1787	 0.763412232287367 
1788	 0.76352211534155 
1789	 0.763628065812224 
1790	 0.763755880061596 
1791	 0.763893867227571 
1792	 0.764019580768102 
1793	 0.76415101594746 
1794	 0.764307672682349 
1795	 0.764407604023384 
1796	 0.764500696501246 
1797	 0.764621364671098 
1798	 0.764703368167147 
1799	 0.764776950472385 
1800	 0.764858495872005 
1801	 0.761928910971248 
1802	 0.762261512677567 
1803	 0.762526113536267 
1804	 0.762784994753387 
1805	 0.76309037072721 
1806	 0.763380056905196 
1807	 0.76366038794562 
1808	 0.763923928679935 
1809	 0.764227795929254 
1810	 0.764466396652264 
1811	 0.764643244150902 
1812	 0.764826495392837 
1813	 0.764987217073644 
1814	 0.765146358395767 
1815	 0.765328908012675 
1816	 0.765497225947944 
1817	 0.765662590638675 
1818	 0.765836699133532 
1819	 0.766009128800125 
1820	 0.76614151765203 
1821	 0.766327108846854 
1822	 0.766543795821414 
1823	 0.766769878394231 
1824	 0.767011734435875 
1825	 0.767239416596698 
1826	 0.767458253461356 
1827	 0.767672464246928 
1828	 0.767865240235579 
1829	 0.768071046741008 
1830	 0.76822691614564 
1831	 0.768330122025736 
1832	 0.768463932838966 
1833	 0.768578143003362 
1834	 0.768654764865336 
1835	 0.768771066227467 
1836	 0.768873992574954 
1837	 0.768984653227659 
1838	 0.769076393055553 
1839	 0.769214563393612 
1840	 0.769402093652007 
1841	 0.769547209723995 
1842	 0.769705582521001 
1843	 0.769840648984005 
1844	 0.769942712397418 
1845	 0.77002197916048 
1846	 0.770088042997762 
1847	 0.770168848930741 
1848	 0.770214939257586 
1849	 0.770210253071849 
1850	 0.770249529053559 
1851	 0.770305278709334 
1852	 0.770331644278482 
1853	 0.770364620341996 
1854	 0.770384240639249 
1855	 0.770325165807375 
1856	 0.770243977115374 
1857	 0.770135344154615 
1858	 0.769993606999348 
1859	 0.769811896324666 
1860	 0.769590659122398 
1861	 0.769331074131058 
1862	 0.769035934504649 
1863	 0.768699826806639 
1864	 0.768339180743451 
1865	 0.76798851994712 
1866	 0.767536733652056 
1867	 0.766995037777277 
1868	 0.76641568484062 
1869	 0.765708171502094 
1870	 0.764967898963709 
1871	 0.764177521659267 
1872	 0.763374736937226 
1873	 0.762514229731478 
1874	 0.761621587166883 
1875	 0.760758171329584 
1876	 0.759765892927736 
1877	 0.758769765088052 
1878	 0.757700311918032 
1879	 0.756541739703471 
1880	 0.755409917122527 
1881	 0.754135533098297 
1882	 0.752742894271754 
1883	 0.751336858204599 
1884	 0.749836235611203 
1885	 0.748112833874056 
1886	 0.746433327907365 
1887	 0.744571060542279 
1888	 0.742555204308132 
1889	 0.740608510310566 
1890	 0.738439295866913 
1891	 0.736235920158527 
1892	 0.733955482898181 
1893	 0.731461955633782 
1894	 0.72873215103619 
1895	 0.726073891119542 
1896	 0.723244852069247 
1897	 0.720238278432394 
1898	 0.717432853204654 
1899	 0.714426054700542 
1900	 0.711403003838776 
1901	 0.708434732640967 
1902	 0.70521679428413 
1903	 0.702107698888655 
1904	 0.698999522456264 
1905	 0.695821239679659 
1906	 0.692682494586655 
1907	 0.689877123655915 
1908	 0.687026822187614 
1909	 0.684280593951263 
1910	 0.6816723788687 
1911	 0.678874582378821 
1912	 0.676182363799754 
1913	 0.673538858322456 
1914	 0.670903355819836 
1915	 0.668480907399859 
1916	 0.666258266603189 
1917	 0.664041392666852 
1918	 0.661948395418164 
1919	 0.659952073794848 
1920	 0.657834082219412 
1921	 0.655878907933704 
1922	 0.653915751925777 
1923	 0.651968690520487 
1924	 0.650291110582175 
1925	 0.648601526488443 
1926	 0.646979587671271 
1927	 0.64548298092201 
1928	 0.644004182278537 
1929	 0.642517575540302 
1930	 0.641163065443266 
1931	 0.639900866346656 
1932	 0.6386956963312 
1933	 0.637648710618361 
1934	 0.636643979656625 
1935	 0.635736489912393 
1936	 0.634950158109836 
1937	 0.634203307608889 
1938	 0.633529427868582 
1939	 0.632939234320159 
1940	 0.632413733087507 
1941	 0.631947559954118 
1942	 0.631603773893367 
1943	 0.631322169320555 
1944	 0.631128042840237 
1945	 0.631015848691555 
1946	 0.630969306243044 
1947	 0.631011286581986 
1948	 0.631118685804321 
1949	 0.63131188126883 
1950	 0.63155091342266 
1951	 0.631858942664919 
1952	 0.632225150753851 
1953	 0.632661827677708 
1954	 0.633112538421075 
1955	 0.633647097666324 
1956	 0.634192592415394 
1957	 0.634764787815051 
1958	 0.635392914122489 
1959	 0.635995642171628 
1960	 0.636634576220393 
1961	 0.637272917647625 
1962	 0.637888315901938 
1963	 0.638552754573931 
1964	 0.639264789747388 
1965	 0.639954235816736 
1966	 0.640648127600943 
1967	 0.64138097171217 
1968	 0.64208484917502 
1969	 0.642793629278591 
1970	 0.64349984158954 
1971	 0.644224344843723 
1972	 0.644992692211713 
1973	 0.645750097142778 
1974	 0.646515333947441 
1975	 0.647341504844287 
1976	 0.648087032108142 
1977	 0.648774519219423 
1978	 0.649496581421124 
1979	 0.650183292771963 
1980	 0.650894553761272 
1981	 0.651716604005131 
1982	 0.652517841719869 
1983	 0.653339454015721 
1984	 0.654192984067088 
1985	 0.654965729220937 
1986	 0.655772614296588 
1987	 0.656578862225676 
1988	 0.657389008189785 
1989	 0.65819502070665 
1990	 0.65901918508097 
1991	 0.659809530853792 
1992	 0.660596835612253 
1993	 0.661371997648577 
1994	 0.662070326019069 
1995	 0.662756513152746 
1996	 0.663432254646664 
1997	 0.664106404113146 
1998	 0.664849628260767 
1999	 0.66564725528558 
2000	 0.666441976862809 
2001	 0.667310836850972 
2002	 0.668105873775353 
2003	 0.668870058831545 
2004	 0.669653976558758 
2005	 0.670405947133671 
2006	 0.671169979941923 
2007	 0.671985768327659 
2008	 0.672743389753957 
2009	 0.673453187969476 
2010	 0.674167180288789 
2011	 0.674820035318075 
2012	 0.675475980339761 
2013	 0.676101900472585 
2014	 0.67670541679345 
2015	 0.677295633916189 
2016	 0.67788509234929 
2017	 0.678404715330539 
2018	 0.678923852818859 
2019	 0.679357902762078 
2020	 0.679716786499709 
2021	 0.680033867849008 
2022	 0.680279867473995 
2023	 0.68044017503896 
2024	 0.68055636707656 
2025	 0.680612115149782 
2026	 0.680610695314833 
2027	 0.68055260734566 
2028	 0.680447983909941 
2029	 0.680267197251981 
2030	 0.680060557542006 
2031	 0.679803825833104 
2032	 0.679526561310999 
2033	 0.679185703846295 
2034	 0.678868255272402 
2035	 0.678526867094988 
2036	 0.678187661448324 
2037	 0.677900611920489 
2038	 0.677593069375122 
2039	 0.677342904690937 
2040	 0.677130319037441 
2041	 0.676943398616082 
2042	 0.676759320393476 
2043	 0.676674275096759 
2044	 0.676640106648944 
2045	 0.676658928201334 
2046	 0.676744052868725 
2047	 0.676891254047649 
2048	 0.677069697479268 
2049	 0.677344516863261 
2050	 0.677726704121328 
2051	 0.67814807256496 
2052	 0.678634090232993 
2053	 0.679170916279778 
2054	 0.679702016872325 
2055	 0.680259905878013 
2056	 0.680841135943756 
2057	 0.681395339706933 
2058	 0.682068362525291 
2059	 0.682793913958701 
2060	 0.683580213608734 
2061	 0.68451423542826 
2062	 0.685389945157035 
2063	 0.686268151090221 
2064	 0.687184443861137 
2065	 0.688126565672208 
2066	 0.689030485624821 
2067	 0.69003932647264 
2068	 0.691017817540085 
2069	 0.69199005077227 
2070	 0.692996417646116 
2071	 0.693914225633793 
2072	 0.694770927271425 
2073	 0.695658349413548 
2074	 0.696482606976609 
2075	 0.697366066056867 
2076	 0.698326684430566 
2077	 0.699210501470254 
2078	 0.700108799657306 
2079	 0.70093828049349 
2080	 0.701689647637258 
2081	 0.702442482711075 
2082	 0.703153473487283 
2083	 0.703850026831927 
2084	 0.704607506198264 
2085	 0.705291645695539 
2086	 0.70592774895774 
2087	 0.706552240075835 
2088	 0.707105434715184 
2089	 0.707545861820526 
2090	 0.708036941296979 
2091	 0.708537731956746 
2092	 0.708975987157988 
2093	 0.709391834163439 
2094	 0.709779716976846 
2095	 0.710100095210131 
2096	 0.710429836911557 
2097	 0.710774776251956 
2098	 0.711070053744161 
2099	 0.711295364144867 
2100	 0.711549572091357 
2101	 0.711796473946773 
2102	 0.712006003081043 
2103	 0.712249565904214 
2104	 0.712535970456508 
2105	 0.712762087837137 
2106	 0.712957903156796 
2107	 0.713171926040305 
2108	 0.713366179892055 
2109	 0.713575965066659 
2110	 0.713824739989641 
2111	 0.714018496508874 
2112	 0.714178723617871 
2113	 0.714343606820345 
2114	 0.71448902559498 
2115	 0.714625533393146 
2116	 0.714769651365146 
2117	 0.714893194922601 
2118	 0.714992523862963 
2119	 0.715055352495961 
2120	 0.715138963822491 
2121	 0.715223297035462 
2122	 0.71528878346399 
2123	 0.715349136256019 
2124	 0.715401683371513 
2125	 0.7154619910619 
2126	 0.715459766040163 
2127	 0.715450421378591 
2128	 0.715389065393012 
2129	 0.715264443209805 
2130	 0.715108446620654 
2131	 0.714942567044326 
2132	 0.714700912390172 
2133	 0.714388106314556 
2134	 0.714063748386993 
2135	 0.71361688101744 
2136	 0.713124283748048 
2137	 0.712541212018966 
2138	 0.711856107917631 
2139	 0.711137472712998 
2140	 0.710348708946915 
2141	 0.709516684934601 
2142	 0.708651075775161 
2143	 0.707693061991061 
2144	 0.706630437740279 
2145	 0.705584237457703 
2146	 0.704446115361619 
2147	 0.703350792636478 
2148	 0.702280804881859 
2149	 0.70117876972516 
2150	 0.700094779153504 
2151	 0.698952623445787 
2152	 0.697735025565059 
2153	 0.696570423555082 
2154	 0.695352285366756 
2155	 0.694083278041651 
2156	 0.692873946315063 
2157	 0.691685536159717 
2158	 0.690483059608267 
2159	 0.689342023680742 
2160	 0.688065204536731 
2161	 0.686741242493106 
2162	 0.685373590144511 
2163	 0.683831720981752 
2164	 0.682456062154811 
2165	 0.681103021585241 
2166	 0.679803147116482 
2167	 0.678611405422763 
2168	 0.677403186972924 
2169	 0.676167730196117 
2170	 0.67503345673397 
2171	 0.673879900006488 
2172	 0.672886873482885 
2173	 0.672045212294324 
2174	 0.671244209581603 
2175	 0.670518645724392 
2176	 0.669912700560521 
2177	 0.669339341551841 
2178	 0.668812170712416 
2179	 0.668362583448517 
2180	 0.668011215144567 
2181	 0.667671548695469 
2182	 0.667388760284392 
2183	 0.667118891629881 
2184	 0.666876253629793 
2185	 0.666688221919505 
2186	 0.666520464155514 
2187	 0.666427984874422 
2188	 0.666425530225431 
2189	 0.666422205812506 
2190	 0.666491104327547 
2191	 0.666540375232564 
2192	 0.666572945129454 
2193	 0.666653366181447 
2194	 0.666762305183209 
2195	 0.66688515679528 
2196	 0.66705266792913 
2197	 0.667235791338366 
2198	 0.667387552807394 
2199	 0.667523205606376 
2200	 0.66765718621122 
2201	 0.667772968769864 
2202	 0.667887822540394 
2203	 0.668011954696617 
2204	 0.668105378172164 
2205	 0.668182917651057 
2206	 0.668240264936254 
2207	 0.6682355132757 
2208	 0.668301511098258 
2209	 0.668382076573325 
2210	 0.668473190120689 
2211	 0.668621211884352 
2212	 0.66874288958981 
2213	 0.668847930689354 
2214	 0.668951061493588 
2215	 0.66904961801823 
2216	 0.669160074565543 
2217	 0.669276581927479 
2218	 0.669387547119405 
2219	 0.669519625540832 
2220	 0.669625794820329 
2221	 0.669746760199574 
2222	 0.669793475102834 
2223	 0.669805896814527 
2224	 0.669814410163139 
2225	 0.669809588557426 
2226	 0.669764305531731 
2227	 0.669680091679936 
2228	 0.669609259126264 
2229	 0.669419461140229 
2230	 0.66914166196093 
2231	 0.66882386717832 
2232	 0.668431036812001 
2233	 0.668010796462931 
2234	 0.667571837711339 
2235	 0.667015606750837 
2236	 0.666389981123555 
2237	 0.665697752264089 
2238	 0.664873858191164 
2239	 0.664061239201109 
2240	 0.663253573550621 
2241	 0.662311433235746 
2242	 0.66133689723111 
2243	 0.660225385475296 
2244	 0.658966779099075 
2245	 0.657671726309832 
2246	 0.656240115418336 
2247	 0.6548024633703 
2248	 0.653319314928878 
2249	 0.651784347612464 
2250	 0.650200418341998 
2251	 0.648629928610718 
2252	 0.646883390433281 
2253	 0.645173333458378 
2254	 0.64341147060423 
2255	 0.64161204577992 
2256	 0.639956119182263 
2257	 0.638301469844098 
2258	 0.636711080865854 
2259	 0.635207664990314 
2260	 0.633676554571663 
2261	 0.632151933190084 
2262	 0.63068651882453 
2263	 0.629164483353932 
2264	 0.627871372579869 
2265	 0.626734603856276 
2266	 0.625602481594947 
2267	 0.624643056782928 
2268	 0.623607047504874 
2269	 0.62250999415683 
2270	 0.621543484757518 
2271	 0.620659346316499 
2272	 0.61976479617259 
2273	 0.618937423141325 
2274	 0.618095579136733 
2275	 0.617273305673842 
2276	 0.61642857991643 
2277	 0.615563463175862 
2278	 0.614754519911929 
2279	 0.613917255479661 
2280	 0.613132049600228 
2281	 0.612462815331862 
2282	 0.611728996954328 
2283	 0.610991662109219 
2284	 0.610229768345196 
2285	 0.609411900165907 
2286	 0.608659073097461 
2287	 0.607912356057996 
2288	 0.607222662322465 
2289	 0.606627580221145 
2290	 0.606050733180533 
2291	 0.605494472284627 
2292	 0.60494783458621 
2293	 0.604387458552732 
2294	 0.603848734356044 
2295	 0.603252572046064 
2296	 0.602572517814427 
2297	 0.601905560393763 
2298	 0.601186375158752 
2299	 0.600450167735905 
2300	 0.599745622839342 
2301	 0.598926807136874 
2302	 0.597961802059766 
2303	 0.597124643500983 
2304	 0.596218440297573 
2305	 0.595512076120584 
2306	 0.594875538503882 
2307	 0.594411808984936 
2308	 0.594011713568169 
2309	 0.593919485836192 
2310	 0.594014111888436 
2311	 0.59442760380695 
2312	 0.595192957877502 
2313	 0.596110516140402 
2314	 0.597406646668675 
2315	 0.598633246566752 
2316	 0.600103006441136 
2317	 0.601351674297711 
2318	 0.602617510931852 
2319	 0.603669016499762 
2320	 0.604656112685342 
2321	 0.605356609202322 
2322	 0.605777267413164 
2323	 0.606127855244277 
2324	 0.606219489022962 
2325	 0.606292120398828 
2326	 0.606301772541211 
2327	 0.60622088999051 
2328	 0.605985741999671 
2329	 0.605758322163024 
2330	 0.60549082625489 
2331	 0.605166632466175 
2332	 0.604772848345142 
2333	 0.604301763304576 
2334	 0.603679078127352 
2335	 0.603031787696144 
2336	 0.602355288975266 
2337	 0.601572467681447 
2338	 0.600752736781563 
2339	 0.599741866601139 
2340	 0.598672887261054 
2341	 0.597574152776125 
2342	 0.596403553852864 
2343	 0.595358786353034 
2344	 0.594396715899809 
2345	 0.593489634986996 
2346	 0.592734146476727 
2347	 0.592165125873006 
2348	 0.591788135883962 
2349	 0.591675806086718 
2350	 0.591902259180117 
2351	 0.592355791787091 
2352	 0.59304273595094 
2353	 0.594039341261572 
2354	 0.595151656734888 
2355	 0.596479689098219 
2356	 0.597841345459745 
2357	 0.599167059415308 
2358	 0.600481379777164 
2359	 0.601616487300351 
2360	 0.602700194424877 
2361	 0.603551966466466 
2362	 0.604187203238552 
2363	 0.604767867815759 
2364	 0.605267888462992 
2365	 0.605758507015481 
2366	 0.60620398663962 
2367	 0.606546828563319 
2368	 0.606810061765157 
2369	 0.60699563398426 
2370	 0.607191093940882 
2371	 0.607371099493107 
2372	 0.607521919776168 
2373	 0.607707579570432 
2374	 0.607850757751873 
2375	 0.607975806159798 
2376	 0.608067584507325 
2377	 0.608003029031801 
2378	 0.607869425718732 
2379	 0.607809963442044 
2380	 0.607740015613649 
2381	 0.607634382572759 
2382	 0.607577701736028 
2383	 0.607576042688064 
2384	 0.607522499930337 
2385	 0.607436124464259 
2386	 0.607397135903211 
2387	 0.607399226060059 
2388	 0.607321003417802 
2389	 0.607242035847572 
2390	 0.607186461775219 
2391	 0.607069885729597 
2392	 0.606993550500835 
2393	 0.606984204886833 
2394	 0.606860476156107 
2395	 0.606657698606698 
2396	 0.606461579711836 
2397	 0.606222345255289 
2398	 0.606040392514416 
2399	 0.605860635279129 
2400	 0.605766880316369 
2401	 0.605759458080173 
2402	 0.605648183082768 
2403	 0.605545790083369 
2404	 0.605364592617428 
2405	 0.605074547043468 
2406	 0.60486804222629 
2407	 0.604838097559477 
2408	 0.60475157410504 
2409	 0.60457682007546 
2410	 0.604371860710807 
2411	 0.604060174255943 
2412	 0.603811796579854 
2413	 0.603709950930454 
2414	 0.603558088262735 
2415	 0.603321963799059 
2416	 0.603009631350485 
2417	 0.602621561692233 
2418	 0.602360214037353 
2419	 0.602021254906936 
2420	 0.601569858942053 
2421	 0.601399314980885 
2422	 0.601176751348475 
2423	 0.600829819830262 
2424	 0.600506707250352 
2425	 0.599894730512145 
2426	 0.599396511694569 
2427	 0.599075575955589 
2428	 0.598687801776302 
2429	 0.598400481477294 
2430	 0.597967583634508 
2431	 0.597490940781242 
2432	 0.597131688104556 
2433	 0.596561603994258 
2434	 0.595829961036215 
2435	 0.595191070899734 
2436	 0.594578125742669 
2437	 0.594081677696226 
2438	 0.59364480062525 
2439	 0.593070271458207 
2440	 0.592257481694418 
2441	 0.5912595681951 
2442	 0.590433468884015 
2443	 0.58970061550856 
2444	 0.588807983018105 
2445	 0.58790969250115 
2446	 0.587109813902712 
2447	 0.586109419782937 
2448	 0.585099281873461 
2449	 0.584298089048457 
2450	 0.583265500609646 
2451	 0.582042670018028 
2452	 0.58106323245916 
2453	 0.580077730587573 
2454	 0.57894272314356 
2455	 0.577986308600704 
2456	 0.577092568791166 
2457	 0.576246811398439 
2458	 0.575444369436065 
2459	 0.574540426869071 
2460	 0.573507964104591 
2461	 0.572513356896897 
2462	 0.57181103918885 
2463	 0.571234147515246 
2464	 0.570562936908124 
2465	 0.569794854004203 
2466	 0.56890956051881 
2467	 0.567727496909947 
2468	 0.566756687322763 
2469	 0.566021718361043 
2470	 0.565128565207855 
2471	 0.564692022188016 
2472	 0.564324554249021 
2473	 0.563869692914272 
2474	 0.563556348026818 
2475	 0.563198076662739 
2476	 0.562980869113589 
2477	 0.562446675373675 
2478	 0.561792655160445 
2479	 0.561105857579504 
2480	 0.559842229386202 
2481	 0.559066817769672 
2482	 0.558411002091658 
2483	 0.557542603089195 
2484	 0.557197263093107 
2485	 0.556729541869486 
2486	 0.556203780073917 
2487	 0.556040999282365 
2488	 0.555780171050864 
2489	 0.555334592090329 
2490	 0.554910648980812 
2491	 0.554481873286016 
2492	 0.553888860528918 
2493	 0.553442626371411 
2494	 0.552942993994295 
2495	 0.552214485421901 
2496	 0.551665238139406 
2497	 0.550895683365822 
2498	 0.550388479569671 
2499	 0.550528423134439 
2500	 0.550195146645024 
