Wavelength	ProbetaAcolman00003.asd
350	 0.46269476914358 
351	 0.454999967514097 
352	 0.441854137717049 
353	 0.436671678401758 
354	 0.455061234342072 
355	 0.450988300360367 
356	 0.435346252198317 
357	 0.429801834155578 
358	 0.448569607711192 
359	 0.456799588574397 
360	 0.457787687584062 
361	 0.470042726437494 
362	 0.44245813247346 
363	 0.43193208639674 
364	 0.450763237599701 
365	 0.441953782700177 
366	 0.440142616624822 
367	 0.436105008713218 
368	 0.423385726930656 
369	 0.435840495630629 
370	 0.443449737698956 
371	 0.441552508968223 
372	 0.438842234926946 
373	 0.424397946365079 
374	 0.41404920811272 
375	 0.41549483506301 
376	 0.420567051695643 
377	 0.431413673870901 
378	 0.434110716432225 
379	 0.421468142568244 
380	 0.416360094115308 
381	 0.417804631555016 
382	 0.421503450200584 
383	 0.421522194589184 
384	 0.415709813549365 
385	 0.411922288796675 
386	 0.412863608757173 
387	 0.412224654456698 
388	 0.413425622086498 
389	 0.415147817993307 
390	 0.415386549375763 
391	 0.414450004301773 
392	 0.409089773981495 
393	 0.40278926232478 
394	 0.402358795167465 
395	 0.403095114022264 
396	 0.401918479795453 
397	 0.399157128166679 
398	 0.399858090796166 
399	 0.40244639450873 
400	 0.403575205915813 
401	 0.401123668625603 
402	 0.399254576768082 
403	 0.39823648444472 
404	 0.398389149567883 
405	 0.399958307562295 
406	 0.400764388299042 
407	 0.402077322573825 
408	 0.403409496159642 
409	 0.399535791046734 
410	 0.397595880258996 
411	 0.399072075857931 
412	 0.402336361816128 
413	 0.401057812116545 
414	 0.399598713068071 
415	 0.400143274824096 
416	 0.402312862340967 
417	 0.402927609310402 
418	 0.402992437467245 
419	 0.403302171187228 
420	 0.40236676375261 
421	 0.401423164692963 
422	 0.401431447111414 
423	 0.402713487087098 
424	 0.402605773873434 
425	 0.402861585579887 
426	 0.403475241195626 
427	 0.402238600025528 
428	 0.402258636898963 
429	 0.402291588043412 
430	 0.4011042985838 
431	 0.400146991560501 
432	 0.399527803290616 
433	 0.399170791192067 
434	 0.39892849558714 
435	 0.399168733292884 
436	 0.399401556838082 
437	 0.399126284764339 
438	 0.397907413464701 
439	 0.396895273237095 
440	 0.396160922473704 
441	 0.395614887193953 
442	 0.396091120845417 
443	 0.395539672808481 
444	 0.394158085356871 
445	 0.393820862900833 
446	 0.393803735179466 
447	 0.393645885998622 
448	 0.393178410835398 
449	 0.392798463892752 
450	 0.391956073714851 
451	 0.391166192250041 
452	 0.391066138116491 
453	 0.390578895381404 
454	 0.389909770157252 
455	 0.389311952771889 
456	 0.388976722434629 
457	 0.388533203211775 
458	 0.388131744933456 
459	 0.387858587033961 
460	 0.387272142175989 
461	 0.386696420787818 
462	 0.386255118485101 
463	 0.385925895034636 
464	 0.385498755455531 
465	 0.384968385778959 
466	 0.384335365958054 
467	 0.383541747828472 
468	 0.383298200630292 
469	 0.383183969644572 
470	 0.382671726994008 
471	 0.382219385426768 
472	 0.38186070045563 
473	 0.381494499236399 
474	 0.380961433565412 
475	 0.380783532514691 
476	 0.380591266013159 
477	 0.3801841639298 
478	 0.380063092244016 
479	 0.379653784776894 
480	 0.379241988209934 
481	 0.379257036200788 
482	 0.378900914246897 
483	 0.378516465976559 
484	 0.378252199761072 
485	 0.377952123158495 
486	 0.37753535402654 
487	 0.377339584434216 
488	 0.377532893851006 
489	 0.377548008886282 
490	 0.377300170864044 
491	 0.37707462773214 
492	 0.377280233826974 
493	 0.377308753525384 
494	 0.37725273417489 
495	 0.377228134434064 
496	 0.377240122368054 
497	 0.377386311540448 
498	 0.377589879105491 
499	 0.377743953307983 
500	 0.377866334221194 
501	 0.378063840166147 
502	 0.378289428030453 
503	 0.37837341327282 
504	 0.378424623618694 
505	 0.378564107794121 
506	 0.378840111208237 
507	 0.379154054932865 
508	 0.379369229012921 
509	 0.379580066251081 
510	 0.379945575528995 
511	 0.380294439924914 
512	 0.380536769237898 
513	 0.380718165412834 
514	 0.381041829270309 
515	 0.381294726083671 
516	 0.381568468188025 
517	 0.381927785781932 
518	 0.382059166994495 
519	 0.382267919303783 
520	 0.382621311330364 
521	 0.38300261915491 
522	 0.383267063665386 
523	 0.383536001516344 
524	 0.383857584269246 
525	 0.384055840791537 
526	 0.384255408496546 
527	 0.38446992172314 
528	 0.384670719776861 
529	 0.384817007775515 
530	 0.38494504236026 
531	 0.385121670335787 
532	 0.385432806585542 
533	 0.385650068731377 
534	 0.38584668480432 
535	 0.386129648560455 
536	 0.386515811718681 
537	 0.386851693603538 
538	 0.387141598935712 
539	 0.38746329354413 
540	 0.387692049880333 
541	 0.387778720885806 
542	 0.387798597322222 
543	 0.388016173815219 
544	 0.388090515351716 
545	 0.388105991642917 
546	 0.388213748682748 
547	 0.388259974107693 
548	 0.388176264581351 
549	 0.387999910596442 
550	 0.387853066734249 
551	 0.387676651152154 
552	 0.387501342497442 
553	 0.387339417453866 
554	 0.387105381328107 
555	 0.386953337347238 
556	 0.386981337162631 
557	 0.387232913609213 
558	 0.387609153243253 
559	 0.388038556571727 
560	 0.388448861864971 
561	 0.388765473485922 
562	 0.38896858835292 
563	 0.389042184022314 
564	 0.388942302134523 
565	 0.388465582199582 
566	 0.388045563202565 
567	 0.387772171581199 
568	 0.387478865321892 
569	 0.387441284366761 
570	 0.387368308663446 
571	 0.387117906118452 
572	 0.387042379274348 
573	 0.387045756475558 
574	 0.387124045690216 
575	 0.387309843963749 
576	 0.387695775833938 
577	 0.3881757387911 
578	 0.388638387710516 
579	 0.38898819332091 
580	 0.38922306400855 
581	 0.389327809221164 
582	 0.389330839626768 
583	 0.389379208352379 
584	 0.389436432042222 
585	 0.38948108886034 
586	 0.389518065259909 
587	 0.389706862332496 
588	 0.389989930933637 
589	 0.3902973271739 
590	 0.390600661122541 
591	 0.390669826540538 
592	 0.390528307595511 
593	 0.390277880020744 
594	 0.389935343387089 
595	 0.389550004488367 
596	 0.38920511641842 
597	 0.389003887687846 
598	 0.388900215136992 
599	 0.388826362305976 
600	 0.388781453656448 
601	 0.388946788852291 
602	 0.389128490877575 
603	 0.389247282496027 
604	 0.389318261956292 
605	 0.389619396837731 
606	 0.389882191421732 
607	 0.39000834336827 
608	 0.390163572233871 
609	 0.390487275415147 
610	 0.390708279690925 
611	 0.390638874347343 
612	 0.390708866905858 
613	 0.390854365534532 
614	 0.39097111104878 
615	 0.39095002366798 
616	 0.390917922300033 
617	 0.390994933083235 
618	 0.391160561916624 
619	 0.391151324430215 
620	 0.391131747453523 
621	 0.3911958331934 
622	 0.391350553918316 
623	 0.39129562316263 
624	 0.391282253613698 
625	 0.391394111974786 
626	 0.391528320729303 
627	 0.391521494337959 
628	 0.391490424180549 
629	 0.391552195166578 
630	 0.391696981637511 
631	 0.391765713079739 
632	 0.391738777179295 
633	 0.391684268708767 
634	 0.391743624916105 
635	 0.391827555936437 
636	 0.391865806212622 
637	 0.391840244573264 
638	 0.391871792861204 
639	 0.39194922685465 
640	 0.392015629645612 
641	 0.391988110367112 
642	 0.391940983938945 
643	 0.391930110495784 
644	 0.391980228456683 
645	 0.391953619645197 
646	 0.39194226178953 
647	 0.391983298385679 
648	 0.391977650532037 
649	 0.391973139356486 
650	 0.39200159267286 
651	 0.392067215371695 
652	 0.392081586612853 
653	 0.392074161694208 
654	 0.392064190019901 
655	 0.392059173039349 
656	 0.392064430487801 
657	 0.392058226832621 
658	 0.392041406327556 
659	 0.392082149286082 
660	 0.392028160872783 
661	 0.391939858521518 
662	 0.391936230876837 
663	 0.391982557340927 
664	 0.391968487904773 
665	 0.391906534295749 
666	 0.391930769481123 
667	 0.391953024541125 
668	 0.391944520065112 
669	 0.391897048940971 
670	 0.391812620126262 
671	 0.391787168216087 
672	 0.391832388296398 
673	 0.391901090186028 
674	 0.391878136804961 
675	 0.391803443348677 
676	 0.391743245842159 
677	 0.39177299431648 
678	 0.391768292957743 
679	 0.391742266125804 
680	 0.391730763941408 
681	 0.391731614110705 
682	 0.391748887727618 
683	 0.391759299094373 
684	 0.391731132426291 
685	 0.391692741718568 
686	 0.391650867134249 
687	 0.391623732390251 
688	 0.391649357687533 
689	 0.391617419040819 
690	 0.391552313859444 
691	 0.391501215622371 
692	 0.391446434992692 
693	 0.391432128069362 
694	 0.391456344661025 
695	 0.391482642156924 
696	 0.391461550349387 
697	 0.391434974629511 
698	 0.391408337531731 
699	 0.391309012388118 
700	 0.391247061286081 
701	 0.39126338535085 
702	 0.39133924217322 
703	 0.391343318903068 
704	 0.39121805559706 
705	 0.391088880998088 
706	 0.391161270212033 
707	 0.391091588841315 
708	 0.391013354100015 
709	 0.391031104036593 
710	 0.39110157013258 
711	 0.391077612146301 
712	 0.390995882593232 
713	 0.390951128645406 
714	 0.391018939321841 
715	 0.391013052498506 
716	 0.390912365267258 
717	 0.390820844511924 
718	 0.390746237327811 
719	 0.390739642136102 
720	 0.390780913103695 
721	 0.390726746432642 
722	 0.390678816411589 
723	 0.39061220675625 
724	 0.39049981403507 
725	 0.390450575843503 
726	 0.390426368932761 
727	 0.390347001077266 
728	 0.390143912365774 
729	 0.390153147043771 
730	 0.390172307330569 
731	 0.390076393613737 
732	 0.389989351799254 
733	 0.389824003385996 
734	 0.389664333765621 
735	 0.389592437268319 
736	 0.389490274093743 
737	 0.389438371827189 
738	 0.389452665789745 
739	 0.389487678907219 
740	 0.389373749562156 
741	 0.389315290793431 
742	 0.389362020933582 
743	 0.389264176809552 
744	 0.389333382920147 
745	 0.389419590573382 
746	 0.389344904516113 
747	 0.38926507108172 
748	 0.389204582792462 
749	 0.389146326239557 
750	 0.38906855696776 
751	 0.389138871257606 
752	 0.389191176570009 
753	 0.389134582750864 
754	 0.389021863398928 
755	 0.38893951463863 
756	 0.388828381055132 
757	 0.388666685032508 
758	 0.388645906363256 
759	 0.388664193764519 
760	 0.388660107700735 
761	 0.388597443557494 
762	 0.388475600980217 
763	 0.388360359385261 
764	 0.388283939968423 
765	 0.388232249587535 
766	 0.388113881541543 
767	 0.388042369154926 
768	 0.388070229425436 
769	 0.388012930432551 
770	 0.388012344303709 
771	 0.388027349357443 
772	 0.38797421038094 
773	 0.387898493076691 
774	 0.387850443579951 
775	 0.387831838082056 
776	 0.387801955233836 
777	 0.387730850441223 
778	 0.387624316330363 
779	 0.387520101518524 
780	 0.38749563632693 
781	 0.3875147899889 
782	 0.387521360614967 
783	 0.387472361798155 
784	 0.387385752717336 
785	 0.387336561204095 
786	 0.38735100717056 
787	 0.387410581233807 
788	 0.387423966681225 
789	 0.387462310305472 
790	 0.387520049461178 
791	 0.387488121119047 
792	 0.387412498803405 
793	 0.387377746700487 
794	 0.387418842462713 
795	 0.387444026032983 
796	 0.387393282812991 
797	 0.387289401479124 
798	 0.38719493429305 
799	 0.38715684685937 
800	 0.387172609362039 
801	 0.387198703446519 
802	 0.387164669711696 
803	 0.387041826138091 
804	 0.386903595749846 
805	 0.386793486498663 
806	 0.38668670284739 
807	 0.386620578974132 
808	 0.386581225010007 
809	 0.386526875529936 
810	 0.386369546728041 
811	 0.386246828935364 
812	 0.386204004766993 
813	 0.386212150902806 
814	 0.386114075176738 
815	 0.386008442704217 
816	 0.385967786904885 
817	 0.386005879385816 
818	 0.385923757267457 
819	 0.385818457593506 
820	 0.385782444146387 
821	 0.3858215835317 
822	 0.385773882253553 
823	 0.385660954226009 
824	 0.385570763246449 
825	 0.385618169643126 
826	 0.385686227422222 
827	 0.385688111800839 
828	 0.385597069559066 
829	 0.385606222398394 
830	 0.385647125006626 
831	 0.38567587089135 
832	 0.385681254333561 
833	 0.385583926335552 
834	 0.385539665525458 
835	 0.385591459839623 
836	 0.385560714368412 
837	 0.385534154201985 
838	 0.385543946461086 
839	 0.385595515379277 
840	 0.385663595840356 
841	 0.385699855425243 
842	 0.385613307507389 
843	 0.38537709534934 
844	 0.385303198026175 
845	 0.385334317812451 
846	 0.385368053477753 
847	 0.385301619552771 
848	 0.385224746664684 
849	 0.385137664308985 
850	 0.385043217032712 
851	 0.384958370672829 
852	 0.384890358347717 
853	 0.384772456126804 
854	 0.384576076627452 
855	 0.38437337927567 
856	 0.384306401660945 
857	 0.384260668672092 
858	 0.384116346314456 
859	 0.384068706792018 
860	 0.383982007787774 
861	 0.383861614671265 
862	 0.383770801603875 
863	 0.383626503276136 
864	 0.38354304478703 
865	 0.383514842376184 
866	 0.383432250961386 
867	 0.383353531995458 
868	 0.383271514623016 
869	 0.383189051318693 
870	 0.38313222739811 
871	 0.383121872738142 
872	 0.383101738706785 
873	 0.383031939212768 
874	 0.38294041404021 
875	 0.382931262184875 
876	 0.382941506582384 
877	 0.382910805430533 
878	 0.383011906049153 
879	 0.382985850536339 
880	 0.382849891241897 
881	 0.382761920327184 
882	 0.382800848574371 
883	 0.38282366007316 
884	 0.382827707450779 
885	 0.382909689706602 
886	 0.382956522722664 
887	 0.382955396248482 
888	 0.38291308597633 
889	 0.382849578162773 
890	 0.382856378434041 
891	 0.382875433871017 
892	 0.382842925810075 
893	 0.382737759530731 
894	 0.382705359808206 
895	 0.382697100249665 
896	 0.382649896487399 
897	 0.382603504802039 
898	 0.382545111146482 
899	 0.382494036826132 
900	 0.382463837892757 
901	 0.38240900134187 
902	 0.382365601581853 
903	 0.382269679250993 
904	 0.382054387693061 
905	 0.381904308929544 
906	 0.381731876487747 
907	 0.381559460734585 
908	 0.381473891682968 
909	 0.381356503597853 
910	 0.381181485933597 
911	 0.381011990016631 
912	 0.380955993620972 
913	 0.380693784271797 
914	 0.380492462192011 
915	 0.380448846519796 
916	 0.380314505221216 
917	 0.380192204531977 
918	 0.38010400342151 
919	 0.380040197888655 
920	 0.37996125337759 
921	 0.379834590426983 
922	 0.379740187333858 
923	 0.379729762154399 
924	 0.379706325752532 
925	 0.379740851891046 
926	 0.379690538537275 
927	 0.379472542997862 
928	 0.379416805564816 
929	 0.37941730642076 
930	 0.379379281444266 
931	 0.379257603917785 
932	 0.379193031049972 
933	 0.379171654715986 
934	 0.379116646416459 
935	 0.378974889456911 
936	 0.378991745803319 
937	 0.378996954882051 
938	 0.378937229576482 
939	 0.378881954073384 
940	 0.379020950655429 
941	 0.379017131317879 
942	 0.378850035178129 
943	 0.378807538756165 
944	 0.37899867588231 
945	 0.37909853139855 
946	 0.379040897706093 
947	 0.379065321829394 
948	 0.37899607156208 
949	 0.378905441852034 
950	 0.378867467693883 
951	 0.378904100262322 
952	 0.378963806762087 
953	 0.378882543704169 
954	 0.378676295212593 
955	 0.378628222889833 
956	 0.378549973390274 
957	 0.378518109295049 
958	 0.378572885150179 
959	 0.378607178192091 
960	 0.378468649383454 
961	 0.378287373866882 
962	 0.37818590672131 
963	 0.37812357616756 
964	 0.377964073021668 
965	 0.377785558274015 
966	 0.377643360549859 
967	 0.377399874621109 
968	 0.377294812311382 
969	 0.377236047622839 
970	 0.377129064387787 
971	 0.377137314534658 
972	 0.377007044654578 
973	 0.376744204508285 
974	 0.376474945354687 
975	 0.376402545820949 
976	 0.376261426265183 
977	 0.376103511593716 
978	 0.376006042706517 
979	 0.375785287380292 
980	 0.375648392982018 
981	 0.375518238142397 
982	 0.375304101212151 
983	 0.375204177757387 
984	 0.374981119387665 
985	 0.374843317072081 
986	 0.374949985184439 
987	 0.374774517423138 
988	 0.374604911203369 
989	 0.37459708559206 
990	 0.374745249744343 
991	 0.37471550767558 
992	 0.374522604014627 
993	 0.374387741022559 
994	 0.374435135331372 
995	 0.374193804382357 
996	 0.374034429669589 
997	 0.373999327205371 
998	 0.374006011164186 
999	 0.373998648851392 
1000	 0.374017667355859 
1001	 0.397937625240066 
1002	 0.39788493551733 
1003	 0.397886635511007 
1004	 0.397884260364768 
1005	 0.397905485197943 
1006	 0.397919660888496 
1007	 0.397935444741348 
1008	 0.397956286058111 
1009	 0.397989190754133 
1010	 0.398018074827393 
1011	 0.398043689649949 
1012	 0.398069319299106 
1013	 0.398083859685812 
1014	 0.398115311950188 
1015	 0.398144355479265 
1016	 0.398217051969132 
1017	 0.398260262851869 
1018	 0.398316776454083 
1019	 0.39835012278249 
1020	 0.398332244640365 
1021	 0.398350379685272 
1022	 0.398389619183619 
1023	 0.39839043057947 
1024	 0.398418484906423 
1025	 0.398380803361085 
1026	 0.398274996947838 
1027	 0.398178680504793 
1028	 0.398054861221659 
1029	 0.397921838295285 
1030	 0.397812551649609 
1031	 0.397722807752434 
1032	 0.397643093466185 
1033	 0.397566320454738 
1034	 0.397405400815769 
1035	 0.397199566089941 
1036	 0.397027170373235 
1037	 0.396803203884359 
1038	 0.396628525702941 
1039	 0.396521274411271 
1040	 0.396386681910863 
1041	 0.396233078246695 
1042	 0.396077708434534 
1043	 0.395916471775405 
1044	 0.395766943087597 
1045	 0.395626328710007 
1046	 0.395519235782575 
1047	 0.395422101283136 
1048	 0.395338446126807 
1049	 0.395308814235674 
1050	 0.395264853056696 
1051	 0.395242661611237 
1052	 0.395247569591577 
1053	 0.395248603779157 
1054	 0.395238078061364 
1055	 0.395271573245025 
1056	 0.395326048053081 
1057	 0.395377370481796 
1058	 0.395457772810824 
1059	 0.395494382416069 
1060	 0.39551834105221 
1061	 0.395594718142605 
1062	 0.395693261172215 
1063	 0.395843622423689 
1064	 0.395991292906814 
1065	 0.396135598127989 
1066	 0.396292857356097 
1067	 0.39641325377017 
1068	 0.396561611547538 
1069	 0.396747891833377 
1070	 0.396928114654186 
1071	 0.397116221397871 
1072	 0.397284416094955 
1073	 0.397427553840771 
1074	 0.397582927758843 
1075	 0.397723645417717 
1076	 0.397874729403146 
1077	 0.398082256851584 
1078	 0.398258438375175 
1079	 0.398409569193201 
1080	 0.39857621371712 
1081	 0.398705011257997 
1082	 0.398846925229282 
1083	 0.399015780207859 
1084	 0.399160978128372 
1085	 0.399354227868474 
1086	 0.399522897790384 
1087	 0.399697165023951 
1088	 0.399820922217099 
1089	 0.399955919762153 
1090	 0.400057945715281 
1091	 0.400167969306523 
1092	 0.400313729659951 
1093	 0.40045757200011 
1094	 0.400591178235064 
1095	 0.400697679300182 
1096	 0.400779419172799 
1097	 0.400833550756088 
1098	 0.400890595194841 
1099	 0.400951737745484 
1100	 0.401034365831576 
1101	 0.401127575016551 
1102	 0.401175535877193 
1103	 0.401208775812702 
1104	 0.401219791729555 
1105	 0.401214942076155 
1106	 0.401212799664993 
1107	 0.401206162983558 
1108	 0.401186925986637 
1109	 0.401176514765885 
1110	 0.401126293358327 
1111	 0.401081986692063 
1112	 0.401073565265695 
1113	 0.401021305501266 
1114	 0.400958220041817 
1115	 0.400897950966621 
1116	 0.400814971871682 
1117	 0.400745235404457 
1118	 0.400673432119443 
1119	 0.400620793090423 
1120	 0.400539079029048 
1121	 0.400447735119151 
1122	 0.400337338549642 
1123	 0.400219722414821 
1124	 0.400099812956996 
1125	 0.399963899226542 
1126	 0.399800154591351 
1127	 0.399643651021571 
1128	 0.39947834245684 
1129	 0.399323249572632 
1130	 0.399193377011309 
1131	 0.399043193596506 
1132	 0.398894808034031 
1133	 0.398747021924121 
1134	 0.398589312826786 
1135	 0.398427740029956 
1136	 0.398258121220353 
1137	 0.398095962182681 
1138	 0.397933472079767 
1139	 0.397768243714489 
1140	 0.397611355220938 
1141	 0.397445651031805 
1142	 0.397259270303363 
1143	 0.397081182403823 
1144	 0.396886410856995 
1145	 0.396696855205693 
1146	 0.396539069444812 
1147	 0.39635970818597 
1148	 0.39620317813703 
1149	 0.39606082349008 
1150	 0.395876699247268 
1151	 0.395716566397046 
1152	 0.395566300864314 
1153	 0.395417789632609 
1154	 0.395272474964124 
1155	 0.395159219954 
1156	 0.395009671886097 
1157	 0.394831895053331 
1158	 0.394673444939767 
1159	 0.394499673794549 
1160	 0.394357863662453 
1161	 0.394226262891668 
1162	 0.39409133991755 
1163	 0.393975799065222 
1164	 0.39380141724265 
1165	 0.393607275713134 
1166	 0.393462897917412 
1167	 0.393320252404711 
1168	 0.393201756210685 
1169	 0.393089224394185 
1170	 0.393003542074888 
1171	 0.392909438358685 
1172	 0.39280985660543 
1173	 0.392720982994991 
1174	 0.392638795791198 
1175	 0.392578190793049 
1176	 0.39252908890317 
1177	 0.392490360750688 
1178	 0.392485231975017 
1179	 0.392456565544558 
1180	 0.392421736361996 
1181	 0.392385172721105 
1182	 0.392335531924206 
1183	 0.392304459906717 
1184	 0.392287564681234 
1185	 0.392281648245836 
1186	 0.392288537834046 
1187	 0.392313087122316 
1188	 0.392338727372966 
1189	 0.392378506250694 
1190	 0.392413859383204 
1191	 0.392447241780579 
1192	 0.392498944299922 
1193	 0.392551856462665 
1194	 0.39261531531322 
1195	 0.392717148056126 
1196	 0.392787135311209 
1197	 0.392844769096703 
1198	 0.392904400584339 
1199	 0.392952758975884 
1200	 0.392987657362713 
1201	 0.393033699640177 
1202	 0.393081724640318 
1203	 0.393126060977301 
1204	 0.393185573187236 
1205	 0.393253761626032 
1206	 0.393340958922562 
1207	 0.39341796959428 
1208	 0.393499727718224 
1209	 0.393570901730797 
1210	 0.393632041256789 
1211	 0.393698718241297 
1212	 0.393765775354268 
1213	 0.393836600232648 
1214	 0.393919425431766 
1215	 0.393986765577194 
1216	 0.394053458345479 
1217	 0.394107480206682 
1218	 0.39415729684894 
1219	 0.394173019496186 
1220	 0.39420712571793 
1221	 0.394253794963526 
1222	 0.394290808268871 
1223	 0.394346668816585 
1224	 0.394397080339388 
1225	 0.394446082706743 
1226	 0.394488771852018 
1227	 0.394540475080566 
1228	 0.394578176877597 
1229	 0.394594523957861 
1230	 0.394628085667475 
1231	 0.394672834617794 
1232	 0.394699562062434 
1233	 0.394720721615891 
1234	 0.3947481366626 
1235	 0.394747747909257 
1236	 0.394782790715616 
1237	 0.394855807263287 
1238	 0.394909140761582 
1239	 0.394965113680959 
1240	 0.395028999417665 
1241	 0.395073535381573 
1242	 0.395127366057012 
1243	 0.395190290931762 
1244	 0.395270016946675 
1245	 0.395332033739463 
1246	 0.395405473272151 
1247	 0.395442665757186 
1248	 0.39546804539066 
1249	 0.395467460183803 
1250	 0.395424903423779 
1251	 0.395402503851989 
1252	 0.395375758182028 
1253	 0.395339653776508 
1254	 0.39530888095494 
1255	 0.395262868265466 
1256	 0.395197863435098 
1257	 0.39513040279007 
1258	 0.395060528664783 
1259	 0.394980416026577 
1260	 0.394886183588257 
1261	 0.394791881547906 
1262	 0.394691650624235 
1263	 0.394593479106676 
1264	 0.394473262272157 
1265	 0.394337830694049 
1266	 0.394211561909001 
1267	 0.39406460783729 
1268	 0.393946594801375 
1269	 0.393834828519875 
1270	 0.393751261789728 
1271	 0.393676962443725 
1272	 0.39363546523966 
1273	 0.393634657917128 
1274	 0.393631531525152 
1275	 0.39363465573288 
1276	 0.393668411010123 
1277	 0.393722429503085 
1278	 0.393787743018253 
1279	 0.393887060550666 
1280	 0.39398520143282 
1281	 0.394081747356085 
1282	 0.394195596700124 
1283	 0.394322194088577 
1284	 0.394460951733264 
1285	 0.394611837020657 
1286	 0.394768035868348 
1287	 0.394960157790166 
1288	 0.395182421026684 
1289	 0.39538890083745 
1290	 0.395618217372836 
1291	 0.395832605109922 
1292	 0.396026504077068 
1293	 0.396242501248608 
1294	 0.396477442303 
1295	 0.396697682542182 
1296	 0.396920354204004 
1297	 0.397133963528593 
1298	 0.397327852705826 
1299	 0.397542446195446 
1300	 0.397786436096989 
1301	 0.39798654660128 
1302	 0.398189821032785 
1303	 0.398360690406869 
1304	 0.398478427984546 
1305	 0.398605419332402 
1306	 0.398710433917425 
1307	 0.398832176890739 
1308	 0.398971782564218 
1309	 0.399096377028033 
1310	 0.399195124328832 
1311	 0.399293123500912 
1312	 0.399369571963881 
1313	 0.399411454191194 
1314	 0.399459528810779 
1315	 0.399503317967691 
1316	 0.399548473136766 
1317	 0.399586617031351 
1318	 0.399615252707986 
1319	 0.399658265113942 
1320	 0.399665038461388 
1321	 0.399632756916035 
1322	 0.399620633611905 
1323	 0.39962528628589 
1324	 0.399581883646202 
1325	 0.399532225649749 
1326	 0.39945363051215 
1327	 0.399312815541566 
1328	 0.399194230765354 
1329	 0.399080493243796 
1330	 0.39895456139651 
1331	 0.398834053290959 
1332	 0.398691531766763 
1333	 0.398526909637734 
1334	 0.398360856609803 
1335	 0.398187075738525 
1336	 0.397999849296167 
1337	 0.397811918101004 
1338	 0.397620292832669 
1339	 0.397426130944299 
1340	 0.397223716875738 
1341	 0.397026103682572 
1342	 0.396840235824116 
1343	 0.396625136589731 
1344	 0.396406561133079 
1345	 0.39616151856292 
1346	 0.395879055551183 
1347	 0.395618013811342 
1348	 0.395349020099995 
1349	 0.395084376021871 
1350	 0.394821181264485 
1351	 0.394566898752922 
1352	 0.394312240176466 
1353	 0.394064702223093 
1354	 0.393841048398459 
1355	 0.393597658362139 
1356	 0.393356499370627 
1357	 0.393094266245284 
1358	 0.392793595379436 
1359	 0.392519435266142 
1360	 0.392248991481882 
1361	 0.391970962997503 
1362	 0.391720734040632 
1363	 0.391495624468182 
1364	 0.391259115037238 
1365	 0.391023910096218 
1366	 0.390798808613315 
1367	 0.390590097107999 
1368	 0.390351417701711 
1369	 0.390117023914181 
1370	 0.389851523727811 
1371	 0.389550412078439 
1372	 0.389266843157492 
1373	 0.388982940784791 
1374	 0.388682270226991 
1375	 0.388380246791525 
1376	 0.388057689456381 
1377	 0.387712924358864 
1378	 0.387359915226339 
1379	 0.38698108233797 
1380	 0.386619342715285 
1381	 0.386244669208952 
1382	 0.385884527682876 
1383	 0.385538141568096 
1384	 0.385194928514439 
1385	 0.38485859727783 
1386	 0.384526520608708 
1387	 0.384214618797793 
1388	 0.383893836683309 
1389	 0.383569146991301 
1390	 0.383251001404681 
1391	 0.382944110075949 
1392	 0.382613904577795 
1393	 0.382315804039 
1394	 0.382006631074904 
1395	 0.381679750954885 
1396	 0.381346713577951 
1397	 0.381007945566425 
1398	 0.380661581421427 
1399	 0.380288206640366 
1400	 0.379911306183424 
1401	 0.37950190635816 
1402	 0.379072940168826 
1403	 0.37859753023777 
1404	 0.378106614441886 
1405	 0.377564094126378 
1406	 0.376989787403686 
1407	 0.376344033086333 
1408	 0.375606215016046 
1409	 0.374911692334038 
1410	 0.374096989850334 
1411	 0.373455392934692 
1412	 0.372824096121463 
1413	 0.372388498561459 
1414	 0.372060940385019 
1415	 0.371888278802174 
1416	 0.371930885667885 
1417	 0.371994151518259 
1418	 0.372248338971807 
1419	 0.372418132869131 
1420	 0.372639646270925 
1421	 0.372785447069225 
1422	 0.372891376181871 
1423	 0.372947090529798 
1424	 0.372939513082277 
1425	 0.372910046794161 
1426	 0.372858707015284 
1427	 0.37277537548985 
1428	 0.372710860167233 
1429	 0.372649156713067 
1430	 0.372571847544087 
1431	 0.372486024597222 
1432	 0.3723987189203 
1433	 0.372296423463576 
1434	 0.372210422655109 
1435	 0.372129660625107 
1436	 0.372047828926937 
1437	 0.371969453317295 
1438	 0.371894066103958 
1439	 0.371823929941077 
1440	 0.371743816168179 
1441	 0.371662194498965 
1442	 0.371581920332229 
1443	 0.371496101513943 
1444	 0.371409098807033 
1445	 0.371321103761637 
1446	 0.371239970054511 
1447	 0.371165198604298 
1448	 0.371076255412676 
1449	 0.370988610890225 
1450	 0.370895519373196 
1451	 0.370778514862572 
1452	 0.370677764033354 
1453	 0.370585224094944 
1454	 0.370496563796672 
1455	 0.370413168682832 
1456	 0.370332189393092 
1457	 0.370255482042639 
1458	 0.370182088323396 
1459	 0.370117590814044 
1460	 0.370045292448556 
1461	 0.369962207465498 
1462	 0.369895354223419 
1463	 0.369835352615253 
1464	 0.369774448734237 
1465	 0.369727071062326 
1466	 0.369676462945589 
1467	 0.369633027007112 
1468	 0.369567487711537 
1469	 0.369493907173898 
1470	 0.369443811642021 
1471	 0.369380638541491 
1472	 0.369301826206942 
1473	 0.369248386503387 
1474	 0.369208643745051 
1475	 0.369163215120737 
1476	 0.369125118801559 
1477	 0.369086261501441 
1478	 0.369052485380354 
1479	 0.369000769335912 
1480	 0.368952429844677 
1481	 0.368883700114322 
1482	 0.368786967800404 
1483	 0.368707313472724 
1484	 0.368627118729792 
1485	 0.368542811389844 
1486	 0.368457140950659 
1487	 0.36837620936969 
1488	 0.368295637469832 
1489	 0.368210886674667 
1490	 0.368133103408632 
1491	 0.36804550401066 
1492	 0.367944691508769 
1493	 0.367849545460313 
1494	 0.367737711294548 
1495	 0.367660917877564 
1496	 0.367596795404305 
1497	 0.367546706516125 
1498	 0.367528706017117 
1499	 0.367505256953322 
1500	 0.367488873036285 
1501	 0.367472218150494 
1502	 0.367461107234397 
1503	 0.367451072026443 
1504	 0.367430246624489 
1505	 0.367430254906982 
1506	 0.367442670557403 
1507	 0.367461789559852 
1508	 0.367495677167012 
1509	 0.367534128366404 
1510	 0.367581862116883 
1511	 0.367628837859251 
1512	 0.367691842682673 
1513	 0.367741004209731 
1514	 0.367774373456428 
1515	 0.367818519455776 
1516	 0.367860377304803 
1517	 0.367905409544688 
1518	 0.367970434786138 
1519	 0.368018168097803 
1520	 0.36804984528894 
1521	 0.368084473825468 
1522	 0.368126630042334 
1523	 0.368178371225347 
1524	 0.36823120288167 
1525	 0.368297402428441 
1526	 0.368366882654641 
1527	 0.368434912976678 
1528	 0.368507231342342 
1529	 0.368599828705963 
1530	 0.368662631057971 
1531	 0.368711134696625 
1532	 0.368761641039198 
1533	 0.368794201623168 
1534	 0.368855254259856 
1535	 0.368920705921055 
1536	 0.369002528783017 
1537	 0.369113297846007 
1538	 0.369196365893993 
1539	 0.369283928412314 
1540	 0.369351452075861 
1541	 0.369400531222445 
1542	 0.369448935603849 
1543	 0.369486798139124 
1544	 0.369527014168743 
1545	 0.36955255515183 
1546	 0.369602792813377 
1547	 0.36966741951136 
1548	 0.369723037897931 
1549	 0.369799929518654 
1550	 0.369842689411622 
1551	 0.369877863767268 
1552	 0.369879177991664 
1553	 0.36985297546695 
1554	 0.369817193988293 
1555	 0.369734855670235 
1556	 0.369692291447513 
1557	 0.369658557274798 
1558	 0.369624328530733 
1559	 0.369597650588585 
1560	 0.369584691313395 
1561	 0.369568092602999 
1562	 0.369573044372522 
1563	 0.36961850769822 
1564	 0.369632903395834 
1565	 0.369648259478682 
1566	 0.369647676716352 
1567	 0.369614491877705 
1568	 0.369610703799283 
1569	 0.369617840199555 
1570	 0.369616868029682 
1571	 0.369617888939995 
1572	 0.369632060110573 
1573	 0.36964208564009 
1574	 0.369662786372467 
1575	 0.369708279949662 
1576	 0.369744011215447 
1577	 0.369772322284688 
1578	 0.369808956329896 
1579	 0.369857464465576 
1580	 0.369895671166993 
1581	 0.36994018445543 
1582	 0.369965750245381 
1583	 0.36997181876115 
1584	 0.369985250981527 
1585	 0.369991941291226 
1586	 0.3699981537675 
1587	 0.369999125696609 
1588	 0.370013546462311 
1589	 0.370030080353231 
1590	 0.370050273599788 
1591	 0.370088814454679 
1592	 0.370117086342948 
1593	 0.37013333252757 
1594	 0.370161241538031 
1595	 0.370192252619195 
1596	 0.370228022521056 
1597	 0.37027520513402 
1598	 0.370316363997586 
1599	 0.370368081810355 
1600	 0.370399624586721 
1601	 0.370424422185969 
1602	 0.370436724960238 
1603	 0.370418574758432 
1604	 0.37041835068646 
1605	 0.370412173415738 
1606	 0.37041972337334 
1607	 0.370440994320033 
1608	 0.370464655160809 
1609	 0.370496020137998 
1610	 0.370531501931227 
1611	 0.370581664799343 
1612	 0.370618726274347 
1613	 0.370653026528488 
1614	 0.37068415332614 
1615	 0.370718905577209 
1616	 0.370730609332605 
1617	 0.370727544921917 
1618	 0.370723940111497 
1619	 0.370693855552077 
1620	 0.370674803067361 
1621	 0.370670495842546 
1622	 0.370654821977642 
1623	 0.370625574337718 
1624	 0.370607289387221 
1625	 0.370592617070414 
1626	 0.37057462853914 
1627	 0.370553842351702 
1628	 0.370545882057443 
1629	 0.370536600374044 
1630	 0.370539187216038 
1631	 0.370557767812955 
1632	 0.370581556241154 
1633	 0.370618800717756 
1634	 0.370645927950803 
1635	 0.370678214813622 
1636	 0.370707402330691 
1637	 0.37074814820553 
1638	 0.370752844804899 
1639	 0.37074321479201 
1640	 0.370716547104197 
1641	 0.370638546668563 
1642	 0.370588610179056 
1643	 0.37054718843811 
1644	 0.370499031548684 
1645	 0.370448674383239 
1646	 0.370411896059008 
1647	 0.370374956022313 
1648	 0.370346741796897 
1649	 0.370353482013367 
1650	 0.370324290584895 
1651	 0.370278963699037 
1652	 0.370230440753416 
1653	 0.370163250910517 
1654	 0.370092723404139 
1655	 0.370029126902159 
1656	 0.36994114103619 
1657	 0.369821038651891 
1658	 0.36971659379806 
1659	 0.36959565850953 
1660	 0.369496492863591 
1661	 0.369421816373148 
1662	 0.369337820540662 
1663	 0.369255362803162 
1664	 0.36917506542805 
1665	 0.369113499660394 
1666	 0.36901298763648 
1667	 0.368912496526386 
1668	 0.368776525209783 
1669	 0.368594747422456 
1670	 0.36841026566536 
1671	 0.368200132241422 
1672	 0.367992654549946 
1673	 0.367779995250351 
1674	 0.367548033281583 
1675	 0.367305650355171 
1676	 0.367062370525076 
1677	 0.366800662859529 
1678	 0.36654739256409 
1679	 0.366300354034456 
1680	 0.366039057818986 
1681	 0.365761512001219 
1682	 0.365501066756614 
1683	 0.365242823537393 
1684	 0.364992794966589 
1685	 0.364740568455426 
1686	 0.364515648435187 
1687	 0.364291420562862 
1688	 0.364107862277345 
1689	 0.36397496623164 
1690	 0.363829547152263 
1691	 0.363702677050931 
1692	 0.363575906595927 
1693	 0.363436247225841 
1694	 0.363336560824504 
1695	 0.363262784342496 
1696	 0.3631850431442 
1697	 0.363128661927202 
1698	 0.363066395420667 
1699	 0.362998401234306 
1700	 0.362957949813685 
1701	 0.362942691214083 
1702	 0.362904093621128 
1703	 0.362888107483853 
1704	 0.362810056265521 
1705	 0.362694200131942 
1706	 0.36256578757828 
1707	 0.362424026617095 
1708	 0.362305645742839 
1709	 0.36217354449665 
1710	 0.362041915520196 
1711	 0.36189160808521 
1712	 0.361718549601444 
1713	 0.361547297162615 
1714	 0.36136392807922 
1715	 0.361161855275645 
1716	 0.360940706952514 
1717	 0.360733665911236 
1718	 0.360503595313604 
1719	 0.360257264973426 
1720	 0.360016145629526 
1721	 0.359737226859111 
1722	 0.359473831453783 
1723	 0.359227927902787 
1724	 0.358968371899921 
1725	 0.358747397696594 
1726	 0.358523998563368 
1727	 0.35830683126671 
1728	 0.358147308618892 
1729	 0.357977081028295 
1730	 0.357857079576548 
1731	 0.35779244341819 
1732	 0.35771826696336 
1733	 0.35768549957195 
1734	 0.357659223499442 
1735	 0.357599546287981 
1736	 0.357556928497016 
1737	 0.357520663071243 
1738	 0.35746805781555 
1739	 0.357440509556037 
1740	 0.357448509912233 
1741	 0.357408755609752 
1742	 0.357356476088393 
1743	 0.357296659892908 
1744	 0.357179181656155 
1745	 0.357115814900412 
1746	 0.357083423317324 
1747	 0.357053093842779 
1748	 0.35704857695615 
1749	 0.357041274405919 
1750	 0.35703772566901 
1751	 0.357045076204194 
1752	 0.357070938955711 
1753	 0.357063334153969 
1754	 0.357048389044876 
1755	 0.357014762093121 
1756	 0.356959319529586 
1757	 0.356909516210549 
1758	 0.356838413900093 
1759	 0.356779720292506 
1760	 0.356713847429637 
1761	 0.356656121608938 
1762	 0.356623559995024 
1763	 0.356622717988764 
1764	 0.35664229873434 
1765	 0.356659942732559 
1766	 0.356705294330065 
1767	 0.356729350245804 
1768	 0.356717922157087 
1769	 0.356717646305598 
1770	 0.356706299536073 
1771	 0.356669154221859 
1772	 0.356633928244635 
1773	 0.356610678885182 
1774	 0.356566571878278 
1775	 0.356530756447217 
1776	 0.356490171178645 
1777	 0.35642375449575 
1778	 0.356372841436474 
1779	 0.356325134178235 
1780	 0.356295656716457 
1781	 0.356279054906199 
1782	 0.356258109503196 
1783	 0.356231821697711 
1784	 0.356194585832332 
1785	 0.356144974680937 
1786	 0.356080747644224 
1787	 0.356003044973116 
1788	 0.355931928041479 
1789	 0.355840955880752 
1790	 0.355784583093548 
1791	 0.355743747124029 
1792	 0.355711926703341 
1793	 0.355722317684033 
1794	 0.355676259021826 
1795	 0.355618198738732 
1796	 0.355545396470735 
1797	 0.355471936601581 
1798	 0.35542383100028 
1799	 0.355358289052433 
1800	 0.35529783686751 
1801	 0.344668085749918 
1802	 0.344744502388488 
1803	 0.344794803768972 
1804	 0.344838693854978 
1805	 0.344901831453077 
1806	 0.344972589185802 
1807	 0.345051785894291 
1808	 0.345116442196501 
1809	 0.34521797789965 
1810	 0.345261078854751 
1811	 0.345243392303139 
1812	 0.345257721165648 
1813	 0.345258726022289 
1814	 0.345268350632217 
1815	 0.345301697776276 
1816	 0.345338789872312 
1817	 0.345354891538526 
1818	 0.345353018027265 
1819	 0.345365379335539 
1820	 0.345352930173098 
1821	 0.345376821488792 
1822	 0.345427404732206 
1823	 0.345483111825444 
1824	 0.345531102733364 
1825	 0.345583186876693 
1826	 0.345601546962197 
1827	 0.345576709057751 
1828	 0.345581945965038 
1829	 0.345589653884534 
1830	 0.345588605939588 
1831	 0.345585490296958 
1832	 0.34560366090496 
1833	 0.345585415566217 
1834	 0.345542370534005 
1835	 0.345520134121808 
1836	 0.345505667878621 
1837	 0.345493145549214 
1838	 0.345490385847664 
1839	 0.345493069894347 
1840	 0.345508210313401 
1841	 0.34549948019688 
1842	 0.34549082459965 
1843	 0.345469083737706 
1844	 0.345431060031221 
1845	 0.345419169066429 
1846	 0.345401213518232 
1847	 0.345379806038411 
1848	 0.345359497159375 
1849	 0.345330156578618 
1850	 0.345305212093386 
1851	 0.345277967763794 
1852	 0.345268830461713 
1853	 0.345269714042168 
1854	 0.345240038945027 
1855	 0.345193265674577 
1856	 0.345147542353588 
1857	 0.345070471569726 
1858	 0.344990972838654 
1859	 0.344895041665399 
1860	 0.344781843017687 
1861	 0.344670740368688 
1862	 0.344550283419738 
1863	 0.344413028816333 
1864	 0.344299412004048 
1865	 0.344189601306211 
1866	 0.344046752567428 
1867	 0.343888941488283 
1868	 0.343730011682348 
1869	 0.343511596137262 
1870	 0.343257603064322 
1871	 0.342984821603439 
1872	 0.342673261396438 
1873	 0.342300463007735 
1874	 0.341921235518706 
1875	 0.341539465985714 
1876	 0.341106924479893 
1877	 0.340709175243753 
1878	 0.340294887955592 
1879	 0.339864033868286 
1880	 0.339453697725017 
1881	 0.339019820755409 
1882	 0.338566584542545 
1883	 0.338112518212119 
1884	 0.337628318932566 
1885	 0.337079467504595 
1886	 0.336517510544084 
1887	 0.33588020021006 
1888	 0.335184680777186 
1889	 0.334502571142986 
1890	 0.333744742913862 
1891	 0.332989796561959 
1892	 0.332217066264979 
1893	 0.331373487623402 
1894	 0.330457509320742 
1895	 0.329579612399227 
1896	 0.328643919890159 
1897	 0.32766209050365 
1898	 0.326767939940815 
1899	 0.32580171357113 
1900	 0.324823248275923 
1901	 0.323860044682638 
1902	 0.32279685571088 
1903	 0.321778695783739 
1904	 0.320779490046801 
1905	 0.319769159650637 
1906	 0.318768508607758 
1907	 0.317882102179711 
1908	 0.31697981931411 
1909	 0.316097867581029 
1910	 0.315256361757829 
1911	 0.314373888585449 
1912	 0.313538037408554 
1913	 0.312701636516447 
1914	 0.311835333990811 
1915	 0.311027030094738 
1916	 0.310260489511835 
1917	 0.309494823045519 
1918	 0.308774273915804 
1919	 0.308103567131404 
1920	 0.30740553332554 
1921	 0.306760218434836 
1922	 0.306110575540939 
1923	 0.305455031326752 
1924	 0.304893643512902 
1925	 0.304322509386259 
1926	 0.303773185166844 
1927	 0.303258102600679 
1928	 0.302756966965413 
1929	 0.302259470972302 
1930	 0.301802633311548 
1931	 0.301363463506842 
1932	 0.300932104640595 
1933	 0.300560840292038 
1934	 0.300208893135497 
1935	 0.299889804485443 
1936	 0.299619375265001 
1937	 0.299361855968192 
1938	 0.29912809593082 
1939	 0.298924048923002 
1940	 0.298744667751426 
1941	 0.298587194592116 
1942	 0.298474094271678 
1943	 0.298354903719983 
1944	 0.298281260149319 
1945	 0.29822855473485 
1946	 0.298179076048658 
1947	 0.298179877514119 
1948	 0.298176497997879 
1949	 0.298192084107316 
1950	 0.298229475695819 
1951	 0.298282429661822 
1952	 0.298365501776905 
1953	 0.298480121466652 
1954	 0.298596882782673 
1955	 0.298745269737821 
1956	 0.29889097633601 
1957	 0.299046388956032 
1958	 0.299241233420884 
1959	 0.299440600011599 
1960	 0.299656451301591 
1961	 0.299862972354456 
1962	 0.30004793979408 
1963	 0.300275746292059 
1964	 0.300530852700419 
1965	 0.300778192503301 
1966	 0.301045954495094 
1967	 0.301325649715875 
1968	 0.301574504346345 
1969	 0.301796907691395 
1970	 0.302027531286425 
1971	 0.302274468503725 
1972	 0.30253738954769 
1973	 0.302786084644133 
1974	 0.303041643543744 
1975	 0.303315984265441 
1976	 0.303567431572773 
1977	 0.303799834246355 
1978	 0.304054241476366 
1979	 0.304316457112269 
1980	 0.304554976995213 
1981	 0.304838128118053 
1982	 0.305091656795983 
1983	 0.30534394856138 
1984	 0.305603637785706 
1985	 0.305823192984476 
1986	 0.306082963953774 
1987	 0.306337726637765 
1988	 0.306584140720285 
1989	 0.306854100912475 
1990	 0.307152927794603 
1991	 0.307428157994915 
1992	 0.307715102578741 
1993	 0.307989071265853 
1994	 0.308227828169073 
1995	 0.308456273201817 
1996	 0.308650247420218 
1997	 0.308838636472014 
1998	 0.309082918751833 
1999	 0.309348781959723 
2000	 0.309622491140476 
2001	 0.309961200136507 
2002	 0.310252685277647 
2003	 0.310515747426379 
2004	 0.310790288176547 
2005	 0.311053919181708 
2006	 0.311328475117163 
2007	 0.311626444697745 
2008	 0.311900758724003 
2009	 0.312151870661853 
2010	 0.312417105690885 
2011	 0.312642736052007 
2012	 0.31286513298653 
2013	 0.313093071496496 
2014	 0.313322613863587 
2015	 0.313549036770327 
2016	 0.313805077627452 
2017	 0.313998309152339 
2018	 0.314157933641629 
2019	 0.314313377165384 
2020	 0.314439398042111 
2021	 0.314545623885903 
2022	 0.314628247898773 
2023	 0.3147109632643 
2024	 0.314765824995634 
2025	 0.314772258906542 
2026	 0.314782262925438 
2027	 0.314794030546761 
2028	 0.314780691035849 
2029	 0.314732821962295 
2030	 0.314690156314832 
2031	 0.314650111457232 
2032	 0.314586229194763 
2033	 0.314495424804697 
2034	 0.314415162652597 
2035	 0.314331381536594 
2036	 0.314225904475701 
2037	 0.314133554554827 
2038	 0.314046023445732 
2039	 0.313973182592722 
2040	 0.313895334360499 
2041	 0.313855036927023 
2042	 0.313832218149126 
2043	 0.313838802725046 
2044	 0.313877762966808 
2045	 0.313924051308828 
2046	 0.313993305152907 
2047	 0.31407890288145 
2048	 0.31415824569454 
2049	 0.314287113872734 
2050	 0.314460939609808 
2051	 0.314643543533644 
2052	 0.314846521902819 
2053	 0.315099528480725 
2054	 0.315327227777114 
2055	 0.315552806956152 
2056	 0.315792297203915 
2057	 0.316031919279941 
2058	 0.31628909256901 
2059	 0.316559432955302 
2060	 0.316834784882827 
2061	 0.317162816859054 
2062	 0.317422017583489 
2063	 0.317624726041177 
2064	 0.317875512461388 
2065	 0.318108256995352 
2066	 0.31833771618716 
2067	 0.318651476095759 
2068	 0.318990525043729 
2069	 0.319306899224726 
2070	 0.319643571437845 
2071	 0.319939683500566 
2072	 0.320213946851481 
2073	 0.320485752315593 
2074	 0.320730475471418 
2075	 0.320990663199108 
2076	 0.321258393904075 
2077	 0.321518222334743 
2078	 0.321784012063947 
2079	 0.322030546193715 
2080	 0.322248691026582 
2081	 0.322486041601462 
2082	 0.32271760354109 
2083	 0.322958181116791 
2084	 0.323229129364878 
2085	 0.323491914862187 
2086	 0.323722757529818 
2087	 0.323949382305949 
2088	 0.32414108219903 
2089	 0.324289003731194 
2090	 0.324448432369143 
2091	 0.324599667136734 
2092	 0.324731280296051 
2093	 0.324834246975487 
2094	 0.324955134265395 
2095	 0.325076972790622 
2096	 0.325185880661676 
2097	 0.325279248996937 
2098	 0.325410475340854 
2099	 0.325511226187186 
2100	 0.325621978205779 
2101	 0.325764114234732 
2102	 0.32594596769285 
2103	 0.326099359646992 
2104	 0.326273463965673 
2105	 0.3263999310778 
2106	 0.3264982966733 
2107	 0.326601377627645 
2108	 0.326672910563801 
2109	 0.326770224352418 
2110	 0.326874565010065 
2111	 0.326980437348726 
2112	 0.327100844015847 
2113	 0.327207959838877 
2114	 0.32730969439358 
2115	 0.327415285904137 
2116	 0.327519971329685 
2117	 0.327618941967898 
2118	 0.327714829271429 
2119	 0.327821537797337 
2120	 0.327899694278021 
2121	 0.327961722966236 
2122	 0.328017395972291 
2123	 0.328053663019211 
2124	 0.328092573702826 
2125	 0.328121887069246 
2126	 0.328155581573103 
2127	 0.32820404497361 
2128	 0.328222227951112 
2129	 0.328242231100005 
2130	 0.328227621006545 
2131	 0.328180354952432 
2132	 0.328116022709035 
2133	 0.32803113805856 
2134	 0.327931164348622 
2135	 0.327786306170254 
2136	 0.327612310718676 
2137	 0.327398583669766 
2138	 0.327133116392527 
2139	 0.326859380857112 
2140	 0.326555525491221 
2141	 0.326235682093712 
2142	 0.32590162414547 
2143	 0.325531355567091 
2144	 0.325134822353396 
2145	 0.324714835443571 
2146	 0.324238918262562 
2147	 0.323787719928066 
2148	 0.323313975016343 
2149	 0.322857711914762 
2150	 0.322438721533827 
2151	 0.321981991972604 
2152	 0.321494361756109 
2153	 0.321044673495269 
2154	 0.320549708327155 
2155	 0.320006908259257 
2156	 0.319499391735391 
2157	 0.318995694950305 
2158	 0.318477305523374 
2159	 0.317974591868496 
2160	 0.31743385788653 
2161	 0.316871820986059 
2162	 0.316289590370362 
2163	 0.315657064584927 
2164	 0.315069619994285 
2165	 0.314458778616051 
2166	 0.313900115333802 
2167	 0.313403268957239 
2168	 0.312883444588228 
2169	 0.312371352316738 
2170	 0.311876373362656 
2171	 0.311352159634499 
2172	 0.310882610636281 
2173	 0.310473798082031 
2174	 0.310046957585763 
2175	 0.309615029100258 
2176	 0.309286094538151 
2177	 0.308971214874011 
2178	 0.308698191575495 
2179	 0.308405640161097 
2180	 0.308145003955955 
2181	 0.307893959226408 
2182	 0.307612590845142 
2183	 0.307395777613176 
2184	 0.307274335272633 
2185	 0.307070399292286 
2186	 0.306837473495958 
2187	 0.30663311090517 
2188	 0.306392611695922 
2189	 0.306196272896003 
2190	 0.30604645750419 
2191	 0.30589394082812 
2192	 0.305749203129331 
2193	 0.305615343265139 
2194	 0.305523434222506 
2195	 0.305395179589924 
2196	 0.305251618801193 
2197	 0.305107224574072 
2198	 0.304949358586473 
2199	 0.304771200596094 
2200	 0.304629304989635 
2201	 0.304499384758695 
2202	 0.304395684256445 
2203	 0.304312770568909 
2204	 0.304242224121639 
2205	 0.30419870135764 
2206	 0.304155811564624 
2207	 0.304127656585226 
2208	 0.30409938739398 
2209	 0.304075006510609 
2210	 0.30406127425774 
2211	 0.304050043483552 
2212	 0.304060483859677 
2213	 0.304093036861195 
2214	 0.304124426358347 
2215	 0.304158329715637 
2216	 0.304208141120626 
2217	 0.304266676894924 
2218	 0.304339280883039 
2219	 0.304460035429523 
2220	 0.304540567524335 
2221	 0.304612194801133 
2222	 0.304668351284317 
2223	 0.304701244202872 
2224	 0.3047285956269 
2225	 0.3047773225168 
2226	 0.304811075936945 
2227	 0.30482492821234 
2228	 0.30482258494087 
2229	 0.304824707424469 
2230	 0.304815540321265 
2231	 0.304796344499106 
2232	 0.304804926060692 
2233	 0.304736243053462 
2234	 0.304613171460994 
2235	 0.304491187409713 
2236	 0.304324000989127 
2237	 0.304163363672249 
2238	 0.30398952451781 
2239	 0.303829177125681 
2240	 0.303683404241025 
2241	 0.303495405248967 
2242	 0.303315416540012 
2243	 0.303092406305945 
2244	 0.302821740448356 
2245	 0.302532951426525 
2246	 0.30222455688119 
2247	 0.301888603971557 
2248	 0.301490258068192 
2249	 0.301116907676925 
2250	 0.300738515032539 
2251	 0.300361562358137 
2252	 0.299974418267054 
2253	 0.299634383762479 
2254	 0.299261413813185 
2255	 0.298864512805287 
2256	 0.298489819629462 
2257	 0.298067470879904 
2258	 0.297671911332339 
2259	 0.29726263699426 
2260	 0.296899833444797 
2261	 0.296550550770751 
2262	 0.296243878262441 
2263	 0.295953597022487 
2264	 0.295739667555155 
2265	 0.295603838513693 
2266	 0.295430218296643 
2267	 0.295296897315531 
2268	 0.295161699440818 
2269	 0.294994534831924 
2270	 0.294878159299794 
2271	 0.294823142213336 
2272	 0.29474991828916 
2273	 0.29467950813427 
2274	 0.29461186080299 
2275	 0.294611207157248 
2276	 0.294485959091409 
2277	 0.294244948319902 
2278	 0.294093608407813 
2279	 0.293867448979334 
2280	 0.293732665082737 
2281	 0.29374822359369 
2282	 0.293708580037717 
2283	 0.293672993249131 
2284	 0.293623190038342 
2285	 0.293544331023083 
2286	 0.293468119868893 
2287	 0.293427572903078 
2288	 0.29342004920124 
2289	 0.293419640816429 
2290	 0.293486412751351 
2291	 0.293600845289372 
2292	 0.293680334666291 
2293	 0.293816294195562 
2294	 0.294011190217742 
2295	 0.2941706726376 
2296	 0.294363631185366 
2297	 0.294513351763234 
2298	 0.29463707824858 
2299	 0.294795020545587 
2300	 0.294941976970207 
2301	 0.295089883697247 
2302	 0.295284513375423 
2303	 0.295440912855403 
2304	 0.295543104155474 
2305	 0.295711903214552 
2306	 0.295921301273701 
2307	 0.29609842537154 
2308	 0.296309900827867 
2309	 0.296455768504001 
2310	 0.296546581523638 
2311	 0.296646901287602 
2312	 0.296700795653483 
2313	 0.296795198331712 
2314	 0.296909093650593 
2315	 0.297034067665031 
2316	 0.297219309184999 
2317	 0.297312448260956 
2318	 0.297392309777533 
2319	 0.297399916493085 
2320	 0.297290544373456 
2321	 0.297238064648045 
2322	 0.297176385272728 
2323	 0.297098200272162 
2324	 0.297039050323149 
2325	 0.296945214284745 
2326	 0.296803922320929 
2327	 0.296678378632472 
2328	 0.296540290362588 
2329	 0.296418103152609 
2330	 0.296300690173674 
2331	 0.296175077703979 
2332	 0.296098730380054 
2333	 0.296034901590468 
2334	 0.295992771897259 
2335	 0.295935809930163 
2336	 0.295847327449795 
2337	 0.29578539757261 
2338	 0.2957116349218 
2339	 0.295625309285333 
2340	 0.295504343708086 
2341	 0.295354496524892 
2342	 0.295291149043056 
2343	 0.295252272990695 
2344	 0.295264897670154 
2345	 0.29534232218182 
2346	 0.295343817549462 
2347	 0.295339819774724 
2348	 0.295334723783411 
2349	 0.295320394527659 
2350	 0.295402374842746 
2351	 0.295534076333116 
2352	 0.29568630844644 
2353	 0.295894339546341 
2354	 0.296066704591383 
2355	 0.296200160167731 
2356	 0.296329246660737 
2357	 0.296460370365302 
2358	 0.296633393564301 
2359	 0.296740923990736 
2360	 0.296782739340126 
2361	 0.296852737064474 
2362	 0.296845513195498 
2363	 0.296849859539387 
2364	 0.296973550968497 
2365	 0.297081978025853 
2366	 0.297219306568904 
2367	 0.297326473844023 
2368	 0.297346613789327 
2369	 0.297374996379981 
2370	 0.297374626191946 
2371	 0.297374226331112 
2372	 0.297351090909048 
2373	 0.29736136300675 
2374	 0.297401976331679 
2375	 0.297382983638866 
2376	 0.297433464578159 
2377	 0.297439976500929 
2378	 0.297354678264441 
2379	 0.297292421087099 
2380	 0.297219138807706 
2381	 0.297163042831907 
2382	 0.297134816592529 
2383	 0.297179900439042 
2384	 0.297121627312399 
2385	 0.29700829390944 
2386	 0.296967737569157 
2387	 0.296923832188879 
2388	 0.296827299813412 
2389	 0.296770736399113 
2390	 0.296694225321737 
2391	 0.296511110498862 
2392	 0.296389354654263 
2393	 0.29631556624836 
2394	 0.29625627242114 
2395	 0.296265692698788 
2396	 0.296146367685197 
2397	 0.295975769177122 
2398	 0.295851843729946 
2399	 0.2955873958718 
2400	 0.29548865364515 
2401	 0.29564500332513 
2402	 0.295424623639518 
2403	 0.295162452936217 
2404	 0.294940553911148 
2405	 0.294695464914676 
2406	 0.294586734979544 
2407	 0.29449635151297 
2408	 0.294359887718697 
2409	 0.294192045572294 
2410	 0.293969773501375 
2411	 0.293859714312303 
2412	 0.293710132493927 
2413	 0.293546690481086 
2414	 0.293443944754757 
2415	 0.293315104320661 
2416	 0.293124431515805 
2417	 0.292865482902903 
2418	 0.292708408732555 
2419	 0.292502691307951 
2420	 0.292237647842513 
2421	 0.292134005175914 
2422	 0.292011122667355 
2423	 0.291919328019106 
2424	 0.291882983296849 
2425	 0.291649294073767 
2426	 0.291352032217299 
2427	 0.29102625758496 
2428	 0.290670610977042 
2429	 0.290410405699588 
2430	 0.290237913893044 
2431	 0.29011149707478 
2432	 0.289982878236908 
2433	 0.289886054246684 
2434	 0.28968824733365 
2435	 0.289424510056035 
2436	 0.289234250047994 
2437	 0.289002728867315 
2438	 0.288692664645241 
2439	 0.288396317526522 
2440	 0.288050659748434 
2441	 0.287608282648599 
2442	 0.287349573588286 
2443	 0.287080283932308 
2444	 0.286570580637893 
2445	 0.2862181304445 
2446	 0.285855640972125 
2447	 0.285351702109616 
2448	 0.284966442052323 
2449	 0.284497027790378 
2450	 0.284078569267925 
2451	 0.283744443537895 
2452	 0.283251100605226 
2453	 0.282799812617204 
2454	 0.282291061356048 
2455	 0.281759512055212 
2456	 0.281462838263444 
2457	 0.28130758099162 
2458	 0.281271965960472 
2459	 0.281086553708066 
2460	 0.280696651751815 
2461	 0.280381920273197 
2462	 0.279912302800179 
2463	 0.279426760382916 
2464	 0.279082184117547 
2465	 0.278802005230104 
2466	 0.278552902470252 
2467	 0.278122188853547 
2468	 0.277824884220386 
2469	 0.277517336911595 
2470	 0.276996449578428 
2471	 0.276909591836571 
2472	 0.276891256222603 
2473	 0.27638969853222 
2474	 0.27612287075233 
2475	 0.275786956077089 
2476	 0.275320326228189 
2477	 0.275361527758157 
2478	 0.275075155035514 
2479	 0.274604614894787 
2480	 0.274405015829604 
2481	 0.27410024689192 
2482	 0.274028487135964 
2483	 0.273703592819124 
2484	 0.2730855189099 
2485	 0.272572160005421 
2486	 0.272323674665671 
2487	 0.271989425930562 
2488	 0.27199587803085 
2489	 0.271927048227234 
2490	 0.271647506600258 
2491	 0.271955371452659 
2492	 0.27195875659353 
2493	 0.271755985933808 
2494	 0.271663153566413 
2495	 0.271203048689572 
2496	 0.270616039561165 
2497	 0.270399078166307 
2498	 0.270576698157733 
2499	 0.270238441098597 
2500	 0.269740393052009 
