Wavelength	ProbetaAcolman00036.asd
350	 0.406502524491162 
351	 0.392476293247369 
352	 0.380196269573656 
353	 0.376779954612698 
354	 0.373926134441251 
355	 0.370464663989908 
356	 0.366927332838761 
357	 0.363979812173123 
358	 0.360352914720454 
359	 0.362252414563317 
360	 0.363975704302552 
361	 0.357822375208993 
362	 0.358222076693642 
363	 0.361180448393922 
364	 0.363938579657014 
365	 0.367104229546266 
366	 0.367057369464851 
367	 0.368140819620322 
368	 0.372955867297481 
369	 0.374634022916352 
370	 0.3778732887006 
371	 0.382222944170881 
372	 0.385031746214433 
373	 0.387531013682976 
374	 0.390131431258986 
375	 0.393012612330417 
376	 0.396142312446027 
377	 0.399700882974259 
378	 0.403421766648651 
379	 0.406873204575132 
380	 0.409371368587091 
381	 0.412424025247625 
382	 0.416025358068919 
383	 0.419300912337 
384	 0.42169609430259 
385	 0.424129604272539 
386	 0.427077047262546 
387	 0.430175733775365 
388	 0.433523422028797 
389	 0.436754075818054 
390	 0.439485864442978 
391	 0.441525103351914 
392	 0.445031120492962 
393	 0.448805474272646 
394	 0.450051298421245 
395	 0.452879905997496 
396	 0.456198249454348 
397	 0.459075628462777 
398	 0.461935984263957 
399	 0.464788396236103 
400	 0.467564149645684 
401	 0.470220709834942 
402	 0.47286231606662 
403	 0.475923788483269 
404	 0.479357996760936 
405	 0.482775685149669 
406	 0.486334440884768 
407	 0.489293309815395 
408	 0.491752409536103 
409	 0.495634629337386 
410	 0.499302240055722 
411	 0.502568752981798 
412	 0.505737098130401 
413	 0.509026414795276 
414	 0.512333269563993 
415	 0.515494252032419 
416	 0.51834862575939 
417	 0.521516024684524 
418	 0.524722626287978 
419	 0.527636344783534 
420	 0.530173681539918 
421	 0.532640521545784 
422	 0.535210353596998 
423	 0.537891130409135 
424	 0.540053846524865 
425	 0.542100318379569 
426	 0.54424550457258 
427	 0.546390849207007 
428	 0.548334197778453 
429	 0.550296606861273 
430	 0.552370097126446 
431	 0.553937485581157 
432	 0.555626885599428 
433	 0.557352074612336 
434	 0.558693279431701 
435	 0.560191954827069 
436	 0.561775437518425 
437	 0.563276952853532 
438	 0.564485767969369 
439	 0.565878284866342 
440	 0.567214160537397 
441	 0.568197728337544 
442	 0.569212098838961 
443	 0.570334989226992 
444	 0.571422970641431 
445	 0.572206463895569 
446	 0.573160689899145 
447	 0.574066977162669 
448	 0.5747802093791 
449	 0.575573054865793 
450	 0.576372246222796 
451	 0.577031086641174 
452	 0.577458895838378 
453	 0.578111904139243 
454	 0.578794850080347 
455	 0.57940063119551 
456	 0.579979057477337 
457	 0.580539665805342 
458	 0.580975404484508 
459	 0.581282663768248 
460	 0.581848966364329 
461	 0.582344950045404 
462	 0.582757732331633 
463	 0.583243889085861 
464	 0.583745581666648 
465	 0.584184454770933 
466	 0.584537915313774 
467	 0.584867868579967 
468	 0.585297446787894 
469	 0.585736949405257 
470	 0.586095435067125 
471	 0.586585057173763 
472	 0.587039178726655 
473	 0.587438480937359 
474	 0.587889610693102 
475	 0.588390954605612 
476	 0.588932226961284 
477	 0.589464774713584 
478	 0.589837473540401 
479	 0.590353330237089 
480	 0.590960569205959 
481	 0.591498972949157 
482	 0.59211860884118 
483	 0.592706828760486 
484	 0.593240026051863 
485	 0.593815047133286 
486	 0.594552814864105 
487	 0.595335327879302 
488	 0.596050014429 
489	 0.596805639575275 
490	 0.59750788378073 
491	 0.598218156547621 
492	 0.599068992095895 
493	 0.599928177617497 
494	 0.60077850239597 
495	 0.601636979439564 
496	 0.602550311796336 
497	 0.60349128338706 
498	 0.604457544665369 
499	 0.605453344657091 
500	 0.606484663667955 
501	 0.607512307202285 
502	 0.608545625731206 
503	 0.609632261342583 
504	 0.61068469099558 
505	 0.611735839106083 
506	 0.612818851987614 
507	 0.613904108332553 
508	 0.615055158810476 
509	 0.616220209177433 
510	 0.617321122021859 
511	 0.618500580895216 
512	 0.619639581514514 
513	 0.620709594554216 
514	 0.621831001511481 
515	 0.622946381776409 
516	 0.624008077533314 
517	 0.625021290470044 
518	 0.626168321336474 
519	 0.627279514211837 
520	 0.628293977911557 
521	 0.62924314091033 
522	 0.630267416771164 
523	 0.631282003863671 
524	 0.632200246834835 
525	 0.632984677698281 
526	 0.633819339932108 
527	 0.634741315555146 
528	 0.635707345801406 
529	 0.636605733398182 
530	 0.637374111411268 
531	 0.638050682969864 
532	 0.638769304754469 
533	 0.639446830743882 
534	 0.6401653891797 
535	 0.640969072750071 
536	 0.641692301817044 
537	 0.64245232659096 
538	 0.643244455174919 
539	 0.644005197489829 
540	 0.644807262235097 
541	 0.64557041571792 
542	 0.646265077747252 
543	 0.646968824749501 
544	 0.647632848027903 
545	 0.648256778742034 
546	 0.648836391459455 
547	 0.649285189533407 
548	 0.649673813076822 
549	 0.650022678853946 
550	 0.650298989856547 
551	 0.650476090958345 
552	 0.650570669821326 
553	 0.650601093759913 
554	 0.650558828956929 
555	 0.650493004091829 
556	 0.650438131765012 
557	 0.65043212936885 
558	 0.650580876449648 
559	 0.650862089020658 
560	 0.651229428558224 
561	 0.65162659319574 
562	 0.652013411416799 
563	 0.65248314121787 
564	 0.653103751520121 
565	 0.653705549361318 
566	 0.654288045971895 
567	 0.654825518691151 
568	 0.655279364848127 
569	 0.655698395269224 
570	 0.656142862017806 
571	 0.656647210854553 
572	 0.657200768729554 
573	 0.657694841885764 
574	 0.658046958201846 
575	 0.658252287192923 
576	 0.65861221280622 
577	 0.659101606399893 
578	 0.659593157532969 
579	 0.659882790172923 
580	 0.660283958973489 
581	 0.660634046449364 
582	 0.660776275353875 
583	 0.660913674867423 
584	 0.661102079491977 
585	 0.661412478271939 
586	 0.661910843632094 
587	 0.662591848890263 
588	 0.663421610557192 
589	 0.664320739819896 
590	 0.665155774738039 
591	 0.665794328551857 
592	 0.666208838887099 
593	 0.66641928812821 
594	 0.666434131900002 
595	 0.666329910434554 
596	 0.66619231537167 
597	 0.666108400607332 
598	 0.666091642746123 
599	 0.666149199032421 
600	 0.666281354616745 
601	 0.666481024017893 
602	 0.666776987326207 
603	 0.667157474370049 
604	 0.667572378484398 
605	 0.667876858165088 
606	 0.668134302487545 
607	 0.668426110227219 
608	 0.668828641460873 
609	 0.669154036515404 
610	 0.669405582105103 
611	 0.66964630008323 
612	 0.669949998903626 
613	 0.670297924172927 
614	 0.670608408801702 
615	 0.670787059441739 
616	 0.671045120090545 
617	 0.671361683387134 
618	 0.671684703571872 
619	 0.671970758205922 
620	 0.67218688931861 
621	 0.672395863152717 
622	 0.672673747360866 
623	 0.672982837456506 
624	 0.67327123866069 
625	 0.673522760842031 
626	 0.673758207215115 
627	 0.674026686677467 
628	 0.674274818790781 
629	 0.674472660040142 
630	 0.674695322725728 
631	 0.674931513694296 
632	 0.675195536603105 
633	 0.67550202752054 
634	 0.675822009120166 
635	 0.676040106840364 
636	 0.676157769044345 
637	 0.676327153654797 
638	 0.67662869197905 
639	 0.6769778262065 
640	 0.677265039771577 
641	 0.677458840642153 
642	 0.677682558030982 
643	 0.677924922551154 
644	 0.678102548466405 
645	 0.678309601168554 
646	 0.678602650022777 
647	 0.678939009906835 
648	 0.679124742977395 
649	 0.679276466207335 
650	 0.679434736926685 
651	 0.679627367836211 
652	 0.679925791450514 
653	 0.680208865603693 
654	 0.680413396059467 
655	 0.680545447377789 
656	 0.680797501248148 
657	 0.681072717055021 
658	 0.68129057080885 
659	 0.681509059577156 
660	 0.681749534210284 
661	 0.681986159977157 
662	 0.682172142560573 
663	 0.682256477206424 
664	 0.682409032830284 
665	 0.682654389645772 
666	 0.682860259312162 
667	 0.683075175453994 
668	 0.683319310368088 
669	 0.683590702006118 
670	 0.683856291688863 
671	 0.684015148618906 
672	 0.684127589066467 
673	 0.684309056174813 
674	 0.684460439630808 
675	 0.68462650254028 
676	 0.684828952505174 
677	 0.685047512257192 
678	 0.68524457908627 
679	 0.685472207370446 
680	 0.68574290590806 
681	 0.685880321665265 
682	 0.686007377171105 
683	 0.686170901586865 
684	 0.68636936564486 
685	 0.686583371406449 
686	 0.68680064739488 
687	 0.687003217105678 
688	 0.687163565964294 
689	 0.68736940868789 
690	 0.687611457590751 
691	 0.687840637996526 
692	 0.687969931511039 
693	 0.688111673798367 
694	 0.688266301574547 
695	 0.688379346889896 
696	 0.688616230786284 
697	 0.688872772338586 
698	 0.689066456163034 
699	 0.689202166797719 
700	 0.689312970100705 
701	 0.689434516509059 
702	 0.689577984163526 
703	 0.689663492792944 
704	 0.689762780967005 
705	 0.689900369482795 
706	 0.690064841834968 
707	 0.69027425409122 
708	 0.690448098191254 
709	 0.690555115913324 
710	 0.690659182865139 
711	 0.690876942998436 
712	 0.691125200730818 
713	 0.691285005465474 
714	 0.691357046165209 
715	 0.691546537871392 
716	 0.691780491809061 
717	 0.691818938540834 
718	 0.691958040334629 
719	 0.692186032877003 
720	 0.692411927922222 
721	 0.692486599757678 
722	 0.692540686036778 
723	 0.692617970492962 
724	 0.692740961444005 
725	 0.692965581358357 
726	 0.693151160435399 
727	 0.693266307118578 
728	 0.693370872157608 
729	 0.69355035548897 
730	 0.693709153661257 
731	 0.693817050632229 
732	 0.693995110975348 
733	 0.694117618285717 
734	 0.694143790295228 
735	 0.694116273046322 
736	 0.694278401433616 
737	 0.694442072844853 
738	 0.694526458355545 
739	 0.694551110674046 
740	 0.694685049009259 
741	 0.694842233524316 
742	 0.694976521089747 
743	 0.695153302448983 
744	 0.695289492655601 
745	 0.69539125811714 
746	 0.695474192336548 
747	 0.695476272647571 
748	 0.695604333469864 
749	 0.695834160423751 
750	 0.696009335056406 
751	 0.696135579606442 
752	 0.696238576141873 
753	 0.696322154698825 
754	 0.696357344609158 
755	 0.69640723379277 
756	 0.696530737539623 
757	 0.696729797671458 
758	 0.696860595392182 
759	 0.696973778825111 
760	 0.697112887149644 
761	 0.697295593296547 
762	 0.697393780414041 
763	 0.697481715616571 
764	 0.697557757620252 
765	 0.697533724265367 
766	 0.697593722331904 
767	 0.697747969414632 
768	 0.697933345420933 
769	 0.69800837158684 
770	 0.698038347081157 
771	 0.698131684909182 
772	 0.698362666584859 
773	 0.698556566984602 
774	 0.69872946568691 
775	 0.698852469389433 
776	 0.698868830286436 
777	 0.69889198306164 
778	 0.698909766036917 
779	 0.698935477350464 
780	 0.699059135481875 
781	 0.699163805862654 
782	 0.69923729882849 
783	 0.699319894114452 
784	 0.699526431698474 
785	 0.699664080797509 
786	 0.699744116346627 
787	 0.699875301448604 
788	 0.699908994083322 
789	 0.699951500622205 
790	 0.700068180765621 
791	 0.700242236539573 
792	 0.700372424973129 
793	 0.700457428369006 
794	 0.700526389087201 
795	 0.700620995733631 
796	 0.700710209622652 
797	 0.700775428471189 
798	 0.70081854866969 
799	 0.700919355481437 
800	 0.700972920394481 
801	 0.700993394836996 
802	 0.701076423727856 
803	 0.701079245776327 
804	 0.701115953790055 
805	 0.701232576435062 
806	 0.701324313222563 
807	 0.701358608235088 
808	 0.70137328807177 
809	 0.701430450052652 
810	 0.701609470355875 
811	 0.701703070182316 
812	 0.701734116670312 
813	 0.701821344343342 
814	 0.701958309277642 
815	 0.702019864617738 
816	 0.702017418998332 
817	 0.702084517234887 
818	 0.70220891759934 
819	 0.702264020450529 
820	 0.702233114906352 
821	 0.702305926649408 
822	 0.702332668010316 
823	 0.702426340908268 
824	 0.70265502582176 
825	 0.702745237109955 
826	 0.702768415446348 
827	 0.702765256278906 
828	 0.702779091576113 
829	 0.702927581156862 
830	 0.703008296231464 
831	 0.70300164303117 
832	 0.70305181049379 
833	 0.703023205062737 
834	 0.703014884232669 
835	 0.703078352229421 
836	 0.703141053217321 
837	 0.703181334048093 
838	 0.703250596759566 
839	 0.70336211572247 
840	 0.703361380152959 
841	 0.70340068811444 
842	 0.703426918773006 
843	 0.70335167183611 
844	 0.703326407774374 
845	 0.703479802658617 
846	 0.703668457765313 
847	 0.703603288883379 
848	 0.703559892605001 
849	 0.70357489171817 
850	 0.70364845805917 
851	 0.703766278409075 
852	 0.703870066498715 
853	 0.703920958073267 
854	 0.703915346426177 
855	 0.703908274459099 
856	 0.703859671461317 
857	 0.70382883253848 
858	 0.703863588075302 
859	 0.703856628426772 
860	 0.703875117347966 
861	 0.70392045438615 
862	 0.703962449842673 
863	 0.704012941971481 
864	 0.704057128466361 
865	 0.70408910890738 
866	 0.704107523642539 
867	 0.704045969598048 
868	 0.704026140376686 
869	 0.704083316327365 
870	 0.704103413471918 
871	 0.704228219405699 
872	 0.704301799577464 
873	 0.704252340900285 
874	 0.704337544228988 
875	 0.704368800223847 
876	 0.704319690564584 
877	 0.704239514288295 
878	 0.704243767390526 
879	 0.70427223729163 
880	 0.704277768310884 
881	 0.704249271180632 
882	 0.704326273879865 
883	 0.70434573248733 
884	 0.704325387192943 
885	 0.704405902799058 
886	 0.704404779225299 
887	 0.70443230787161 
888	 0.704502619580333 
889	 0.704490657007725 
890	 0.704473611308539 
891	 0.704443770285445 
892	 0.704381438374685 
893	 0.704271552807283 
894	 0.704183173472487 
895	 0.704216779999941 
896	 0.704349518748122 
897	 0.704231085367876 
898	 0.704179430468347 
899	 0.704177392569274 
900	 0.704126363861208 
901	 0.70408291593775 
902	 0.70405982277405 
903	 0.70401919885829 
904	 0.703924351842893 
905	 0.703882679775704 
906	 0.703861593290766 
907	 0.703853184761948 
908	 0.703857997048898 
909	 0.70375961610528 
910	 0.70367868547173 
911	 0.703646602733546 
912	 0.70358793121277 
913	 0.703591252911427 
914	 0.703577750832722 
915	 0.70354359866293 
916	 0.70361320611227 
917	 0.703723307799741 
918	 0.70376377909314 
919	 0.703699252524631 
920	 0.703644928432435 
921	 0.70362693058047 
922	 0.703627904056807 
923	 0.703615951550179 
924	 0.703558978785618 
925	 0.703585287013177 
926	 0.703593990894401 
927	 0.703521550302416 
928	 0.703711226686895 
929	 0.703752166520908 
930	 0.703690038736912 
931	 0.70371482693343 
932	 0.703696792210797 
933	 0.703723537531394 
934	 0.703831061866 
935	 0.703988520914955 
936	 0.704000579165279 
937	 0.704137202319161 
938	 0.704350771125996 
939	 0.704396808542817 
940	 0.704426946932596 
941	 0.704484092278615 
942	 0.704553617683491 
943	 0.704582043497927 
944	 0.704565191078919 
945	 0.704658356140819 
946	 0.704822970370386 
947	 0.704826405017537 
948	 0.704819062422136 
949	 0.704791222068864 
950	 0.704778280865614 
951	 0.704875985093762 
952	 0.704839071486689 
953	 0.704760041584935 
954	 0.704768684421791 
955	 0.704931444206177 
956	 0.704856220643161 
957	 0.704662801214575 
958	 0.704539376587429 
959	 0.704573394861895 
960	 0.704366345624938 
961	 0.70413310899215 
962	 0.70405440956703 
963	 0.703936771041343 
964	 0.704019418766766 
965	 0.704060699137998 
966	 0.703936968796016 
967	 0.704065580795149 
968	 0.704184334341752 
969	 0.704241470144135 
970	 0.704269864624362 
971	 0.704354558937699 
972	 0.704507343053241 
973	 0.704636612473499 
974	 0.704638955877497 
975	 0.704452855788044 
976	 0.704564329367604 
977	 0.704657310367191 
978	 0.704409608749197 
979	 0.704312813995474 
980	 0.704421426132558 
981	 0.704532917625612 
982	 0.704478868900953 
983	 0.704545924486992 
984	 0.704523718904586 
985	 0.704522403342804 
986	 0.704648822086174 
987	 0.70463184157449 
988	 0.704478338790703 
989	 0.704418079733772 
990	 0.704571495166422 
991	 0.704405015456774 
992	 0.704383666181594 
993	 0.704506317481375 
994	 0.704620488632649 
995	 0.704718670290846 
996	 0.704663551763006 
997	 0.704807100401031 
998	 0.70530178423141 
999	 0.705067908461008 
1000	 0.70497859700354 
1001	 0.763146678513504 
1002	 0.763015167395222 
1003	 0.762843970976938 
1004	 0.762782474366184 
1005	 0.762776532796723 
1006	 0.762782346715424 
1007	 0.762858227272747 
1008	 0.762838479409537 
1009	 0.762795383849617 
1010	 0.762786895218379 
1011	 0.762711907791158 
1012	 0.762714542455665 
1013	 0.762855725325577 
1014	 0.762864949903961 
1015	 0.762835229482598 
1016	 0.762806765912344 
1017	 0.762620063362223 
1018	 0.762428218748624 
1019	 0.762394777710151 
1020	 0.76231872418717 
1021	 0.762278633192658 
1022	 0.762308774259368 
1023	 0.762361059746383 
1024	 0.762429778619424 
1025	 0.762468934436136 
1026	 0.762542198167023 
1027	 0.762603964885193 
1028	 0.762640986499042 
1029	 0.762654345382246 
1030	 0.76266092873796 
1031	 0.762778676507083 
1032	 0.762780149679419 
1033	 0.762734875875637 
1034	 0.762839353647913 
1035	 0.762899303784943 
1036	 0.762995926983182 
1037	 0.763180508725998 
1038	 0.763296034659029 
1039	 0.763377104887292 
1040	 0.763484026065882 
1041	 0.763574025219596 
1042	 0.763678981467314 
1043	 0.763821116352229 
1044	 0.763931148093503 
1045	 0.763981074691675 
1046	 0.76402736307432 
1047	 0.764097067635517 
1048	 0.764074529486525 
1049	 0.764039689418248 
1050	 0.76407704331645 
1051	 0.764104811380574 
1052	 0.764166953343259 
1053	 0.764195195637761 
1054	 0.764234546129552 
1055	 0.76425500821227 
1056	 0.764215314337586 
1057	 0.764243049548379 
1058	 0.764324996199378 
1059	 0.764401945558276 
1060	 0.764406791286301 
1061	 0.764324721852554 
1062	 0.764269358978775 
1063	 0.764226557984614 
1064	 0.764237933526239 
1065	 0.764312456103103 
1066	 0.76430216945721 
1067	 0.764242297668402 
1068	 0.764200435710237 
1069	 0.764149012135241 
1070	 0.764092114077618 
1071	 0.76403445961758 
1072	 0.763993019180334 
1073	 0.763943766834665 
1074	 0.763819472873028 
1075	 0.763684893009385 
1076	 0.763648558262969 
1077	 0.763606199522369 
1078	 0.763586698908328 
1079	 0.763650434659067 
1080	 0.763739799672896 
1081	 0.763792098482255 
1082	 0.763813587503744 
1083	 0.763800459129658 
1084	 0.763636372497635 
1085	 0.763447705502088 
1086	 0.763346273178889 
1087	 0.763273505310412 
1088	 0.763232282385651 
1089	 0.763257226602178 
1090	 0.763272745800023 
1091	 0.76323962186963 
1092	 0.763237012797825 
1093	 0.763279413041454 
1094	 0.763276855360912 
1095	 0.763267876236208 
1096	 0.763269368704018 
1097	 0.763171097258828 
1098	 0.763149341231619 
1099	 0.763173120460374 
1100	 0.763099125149204 
1101	 0.763037016138216 
1102	 0.762973664107298 
1103	 0.762943941996689 
1104	 0.762918533908489 
1105	 0.762928504623284 
1106	 0.762937001893131 
1107	 0.762960968204521 
1108	 0.762936550351037 
1109	 0.762902342674559 
1110	 0.762933265902003 
1111	 0.762957246361412 
1112	 0.762952065899122 
1113	 0.763003976595253 
1114	 0.762987916682808 
1115	 0.762933522303992 
1116	 0.762950049217484 
1117	 0.762921149995734 
1118	 0.76291327115582 
1119	 0.762958938469113 
1120	 0.76294756732497 
1121	 0.762893984976479 
1122	 0.762884816668649 
1123	 0.762850981861317 
1124	 0.762826208853738 
1125	 0.762767119463614 
1126	 0.762670766009823 
1127	 0.762608437372484 
1128	 0.762512862744797 
1129	 0.762443753696401 
1130	 0.762385811656713 
1131	 0.76221634561342 
1132	 0.762036907612001 
1133	 0.761881504257239 
1134	 0.761692671504439 
1135	 0.761515487838976 
1136	 0.761373933971195 
1137	 0.761193390537778 
1138	 0.760999870486251 
1139	 0.760776259366561 
1140	 0.760533215434477 
1141	 0.760269806528005 
1142	 0.759967492148019 
1143	 0.759660778739911 
1144	 0.759407411897803 
1145	 0.759119341192385 
1146	 0.758796149619003 
1147	 0.758487242636609 
1148	 0.758129540376299 
1149	 0.757766173971064 
1150	 0.757425882257724 
1151	 0.757095412165741 
1152	 0.756744054326989 
1153	 0.756375339877831 
1154	 0.755996953855297 
1155	 0.755617186297247 
1156	 0.755211973847818 
1157	 0.75480735345887 
1158	 0.754369867879279 
1159	 0.753892116225329 
1160	 0.753417059504134 
1161	 0.752943453612892 
1162	 0.752457615018522 
1163	 0.752010851306201 
1164	 0.751533980587408 
1165	 0.751012178614804 
1166	 0.750519827223627 
1167	 0.750047692057008 
1168	 0.749599492232375 
1169	 0.749134720189248 
1170	 0.748681576409987 
1171	 0.748217505476268 
1172	 0.747708480074575 
1173	 0.747267763523491 
1174	 0.746887934323601 
1175	 0.746490336997548 
1176	 0.746115984571521 
1177	 0.745726341875453 
1178	 0.745340442021335 
1179	 0.74491737154498 
1180	 0.744509586437812 
1181	 0.744071499033708 
1182	 0.743578188745983 
1183	 0.743089095217746 
1184	 0.742607831725649 
1185	 0.7421818469632 
1186	 0.741711530896362 
1187	 0.741223467790267 
1188	 0.740783474298131 
1189	 0.740310771388319 
1190	 0.73990326564028 
1191	 0.739587870910555 
1192	 0.739247024720326 
1193	 0.738905855537913 
1194	 0.73858500933446 
1195	 0.738243735617241 
1196	 0.737968909493436 
1197	 0.737725302749977 
1198	 0.737529538218567 
1199	 0.737388725741913 
1200	 0.737282777016387 
1201	 0.737104582359308 
1202	 0.736915402856298 
1203	 0.73669951505518 
1204	 0.73646492680302 
1205	 0.736284118240063 
1206	 0.736116727351052 
1207	 0.735996117146186 
1208	 0.73589914830743 
1209	 0.735858397914397 
1210	 0.735836147846427 
1211	 0.735908768870396 
1212	 0.736048077961235 
1213	 0.736250942061188 
1214	 0.736521389653965 
1215	 0.736872655507642 
1216	 0.737278753829459 
1217	 0.737754834102819 
1218	 0.738295554046311 
1219	 0.738959273431607 
1220	 0.739650510456027 
1221	 0.740404335704343 
1222	 0.741176911434054 
1223	 0.741915721080299 
1224	 0.742646471031524 
1225	 0.743374317502244 
1226	 0.744057879976316 
1227	 0.744721252229307 
1228	 0.745369762940997 
1229	 0.745992756943344 
1230	 0.746601303259762 
1231	 0.747214820057432 
1232	 0.747763798218793 
1233	 0.748239815106991 
1234	 0.748741901978451 
1235	 0.749236637770677 
1236	 0.74969882717426 
1237	 0.750187709719838 
1238	 0.750608614049593 
1239	 0.75095578643696 
1240	 0.75129834607448 
1241	 0.751614507454141 
1242	 0.751873545796424 
1243	 0.752132422841743 
1244	 0.752361280587302 
1245	 0.752593639590201 
1246	 0.752812454184929 
1247	 0.753024206009075 
1248	 0.753231254118791 
1249	 0.753419816065412 
1250	 0.753610366400389 
1251	 0.753756491521858 
1252	 0.753850655665374 
1253	 0.753980067871164 
1254	 0.754114017657161 
1255	 0.754215283007045 
1256	 0.75430253929521 
1257	 0.754407727049322 
1258	 0.754472078646738 
1259	 0.754567610006003 
1260	 0.754762626011377 
1261	 0.754868569330489 
1262	 0.754929354374982 
1263	 0.754966067538287 
1264	 0.755011635377641 
1265	 0.754987616086073 
1266	 0.755055881945467 
1267	 0.755200794530521 
1268	 0.75526832837384 
1269	 0.75535182141562 
1270	 0.755372913293767 
1271	 0.755301752192212 
1272	 0.755306351319048 
1273	 0.755334552570989 
1274	 0.755331364456252 
1275	 0.755350464452825 
1276	 0.7553413443541 
1277	 0.75528201119429 
1278	 0.755242275529975 
1279	 0.755194205497517 
1280	 0.755173230348756 
1281	 0.755191835973094 
1282	 0.755164215839038 
1283	 0.755129093923787 
1284	 0.755097000166605 
1285	 0.755051206293564 
1286	 0.754966407537563 
1287	 0.754892012043321 
1288	 0.75482769172342 
1289	 0.754757305698545 
1290	 0.754666972381375 
1291	 0.754585244468291 
1292	 0.754525094721237 
1293	 0.754438268003312 
1294	 0.754354774187607 
1295	 0.754216962387006 
1296	 0.754034404329533 
1297	 0.753876146780789 
1298	 0.753662129239742 
1299	 0.753507799003743 
1300	 0.753418497830519 
1301	 0.75329039738241 
1302	 0.753170747708969 
1303	 0.753032899009312 
1304	 0.752875984325632 
1305	 0.752712983355193 
1306	 0.752509772788064 
1307	 0.752352364623633 
1308	 0.752193975624033 
1309	 0.752074459533071 
1310	 0.751961050324897 
1311	 0.751899339791734 
1312	 0.751783195917521 
1313	 0.751639766819016 
1314	 0.75153455913696 
1315	 0.751437242304277 
1316	 0.751326537135145 
1317	 0.751228656906033 
1318	 0.75113237022802 
1319	 0.751038682113634 
1320	 0.750908633477371 
1321	 0.75077671719164 
1322	 0.750637630087539 
1323	 0.750432423276619 
1324	 0.750289584408464 
1325	 0.750182175281462 
1326	 0.750079230121131 
1327	 0.750023214011131 
1328	 0.749924977169172 
1329	 0.749822301944861 
1330	 0.749706166143995 
1331	 0.749560132864655 
1332	 0.749411546458525 
1333	 0.74925914608202 
1334	 0.749084083669842 
1335	 0.748965422677814 
1336	 0.748859035836763 
1337	 0.748751131650548 
1338	 0.748710404416017 
1339	 0.748556477342924 
1340	 0.74835424223819 
1341	 0.748135377328342 
1342	 0.747845855574594 
1343	 0.747605134683017 
1344	 0.747365012636272 
1345	 0.747129514223583 
1346	 0.746914568215515 
1347	 0.74668015271532 
1348	 0.746461944527621 
1349	 0.746184388782553 
1350	 0.745869173800001 
1351	 0.745551893359157 
1352	 0.745176192223724 
1353	 0.744837409561427 
1354	 0.744564607565352 
1355	 0.744203441867487 
1356	 0.743791888294453 
1357	 0.743386436641769 
1358	 0.74292394922487 
1359	 0.742464195897772 
1360	 0.741996615021103 
1361	 0.741560320398529 
1362	 0.741067134796798 
1363	 0.740647208087318 
1364	 0.740235287453308 
1365	 0.739863937847804 
1366	 0.739476318981076 
1367	 0.739122664355234 
1368	 0.738708476428446 
1369	 0.738312479821377 
1370	 0.737806486764345 
1371	 0.737233914135602 
1372	 0.736639469618531 
1373	 0.735962093803696 
1374	 0.735304369682332 
1375	 0.734646457028851 
1376	 0.733938038790183 
1377	 0.733178304013733 
1378	 0.732429097319496 
1379	 0.731635109163967 
1380	 0.730856855727554 
1381	 0.730112162432802 
1382	 0.72929827582346 
1383	 0.728448533265259 
1384	 0.727580026407162 
1385	 0.726713107328605 
1386	 0.725767747997414 
1387	 0.724773278095714 
1388	 0.72377857705254 
1389	 0.722727372745322 
1390	 0.721671422169652 
1391	 0.720632734035937 
1392	 0.719557568462733 
1393	 0.718469841802593 
1394	 0.717367422657658 
1395	 0.716322940273974 
1396	 0.715314721874005 
1397	 0.714296630079492 
1398	 0.713338491945956 
1399	 0.712271450380943 
1400	 0.711209954461174 
1401	 0.70999472297662 
1402	 0.708754366246955 
1403	 0.707277112665913 
1404	 0.705726623093488 
1405	 0.703885866356898 
1406	 0.701832836059207 
1407	 0.699584045835173 
1408	 0.696942656715016 
1409	 0.694477863436091 
1410	 0.691727114426414 
1411	 0.68938778645084 
1412	 0.686986606091018 
1413	 0.685220657725411 
1414	 0.683689487970129 
1415	 0.682751016113801 
1416	 0.68251930429021 
1417	 0.682390775121129 
1418	 0.682887924033031 
1419	 0.683191287443881 
1420	 0.683749262295421 
1421	 0.684043006116349 
1422	 0.684264120748743 
1423	 0.684317472135274 
1424	 0.684161349328592 
1425	 0.683913397373162 
1426	 0.683641786974981 
1427	 0.68327521693738 
1428	 0.682901768329049 
1429	 0.682533335191193 
1430	 0.682152202307352 
1431	 0.681721749581451 
1432	 0.681342130854572 
1433	 0.680982298715832 
1434	 0.68062605606392 
1435	 0.680267725058563 
1436	 0.679950674224485 
1437	 0.679654598026864 
1438	 0.679378491895435 
1439	 0.679147306427951 
1440	 0.678884411548667 
1441	 0.678629184828092 
1442	 0.67836183010079 
1443	 0.678053404009601 
1444	 0.677812281571028 
1445	 0.677586042181462 
1446	 0.677389790207582 
1447	 0.677245346339088 
1448	 0.67709844811108 
1449	 0.676954217576854 
1450	 0.67684332628112 
1451	 0.676771977540063 
1452	 0.676686835695627 
1453	 0.676622149813495 
1454	 0.676551466855196 
1455	 0.67645596013202 
1456	 0.676395794281381 
1457	 0.676366446599132 
1458	 0.676323189229429 
1459	 0.676292480467869 
1460	 0.676260450876895 
1461	 0.676210260440868 
1462	 0.676180434803044 
1463	 0.67616394191064 
1464	 0.676155052252785 
1465	 0.676166552982123 
1466	 0.676175745886647 
1467	 0.676143986967141 
1468	 0.676138975170423 
1469	 0.676125367391204 
1470	 0.676103657733145 
1471	 0.676104220531064 
1472	 0.676131663845825 
1473	 0.676139669401878 
1474	 0.676143903242135 
1475	 0.676154568123243 
1476	 0.676165356237285 
1477	 0.67618930804157 
1478	 0.676237547126034 
1479	 0.676230937007024 
1480	 0.676225320987942 
1481	 0.676172448961515 
1482	 0.676061188876404 
1483	 0.675966088795125 
1484	 0.675856011497933 
1485	 0.67574052952555 
1486	 0.675610729267543 
1487	 0.675487502674205 
1488	 0.675375269450948 
1489	 0.675226868890376 
1490	 0.675038236327872 
1491	 0.674898942631225 
1492	 0.674739155217308 
1493	 0.674629471050286 
1494	 0.674579094877907 
1495	 0.674524155925319 
1496	 0.674467876258218 
1497	 0.674451570756533 
1498	 0.674482468390924 
1499	 0.674497368230358 
1500	 0.674520811829993 
1501	 0.674562846807128 
1502	 0.674588731586483 
1503	 0.67465852945515 
1504	 0.674761878007503 
1505	 0.674893275405204 
1506	 0.675055794727762 
1507	 0.675235476864194 
1508	 0.675458581514292 
1509	 0.675679618274685 
1510	 0.675933920037679 
1511	 0.676157935500074 
1512	 0.676374333040698 
1513	 0.676581064747591 
1514	 0.676762042618925 
1515	 0.676946535025139 
1516	 0.67712173364786 
1517	 0.677308643396248 
1518	 0.677501163046354 
1519	 0.677690754364031 
1520	 0.677886841371999 
1521	 0.678078990680297 
1522	 0.678280505721359 
1523	 0.678499915959363 
1524	 0.678746176361753 
1525	 0.679022895478276 
1526	 0.679302459310911 
1527	 0.679610173863763 
1528	 0.679880528752854 
1529	 0.680142093099835 
1530	 0.680421648433468 
1531	 0.680675833628181 
1532	 0.680988174528078 
1533	 0.681354995371219 
1534	 0.681672753763496 
1535	 0.681992899026484 
1536	 0.682311965705803 
1537	 0.682597177836057 
1538	 0.682932205552128 
1539	 0.683315062058847 
1540	 0.683644172101518 
1541	 0.683971148700636 
1542	 0.684283285858111 
1543	 0.684578711261301 
1544	 0.684839867901317 
1545	 0.685092824983346 
1546	 0.685315052543551 
1547	 0.685479437845719 
1548	 0.685667807511862 
1549	 0.685860618728328 
1550	 0.686032804996057 
1551	 0.686194242818899 
1552	 0.686346615756902 
1553	 0.686502908864949 
1554	 0.686609292181163 
1555	 0.686686778014413 
1556	 0.686754193404788 
1557	 0.686781962850343 
1558	 0.686808239494004 
1559	 0.68683143743102 
1560	 0.686839352729688 
1561	 0.686786916620948 
1562	 0.686814720826195 
1563	 0.686871812845915 
1564	 0.686941182593285 
1565	 0.68706004688676 
1566	 0.687172644593932 
1567	 0.687303872204743 
1568	 0.687407289447035 
1569	 0.687518399217615 
1570	 0.687611241440088 
1571	 0.687638317469973 
1572	 0.687740956347509 
1573	 0.687874122280357 
1574	 0.688021749757952 
1575	 0.688209436361912 
1576	 0.688404723989834 
1577	 0.688630482145103 
1578	 0.688829542658967 
1579	 0.689052289873749 
1580	 0.689235880321159 
1581	 0.689376139448861 
1582	 0.689523977068342 
1583	 0.689642952550352 
1584	 0.689794643615131 
1585	 0.68997682272267 
1586	 0.69012585081944 
1587	 0.690281292706113 
1588	 0.690418489109469 
1589	 0.690517806509202 
1590	 0.690628960174911 
1591	 0.69073822972849 
1592	 0.690853917885909 
1593	 0.690941952166269 
1594	 0.691081350254814 
1595	 0.691266098406053 
1596	 0.691438737712239 
1597	 0.69162742784684 
1598	 0.691829972566116 
1599	 0.692046195742066 
1600	 0.69224477036846 
1601	 0.69248057104466 
1602	 0.692665412774636 
1603	 0.692815916981266 
1604	 0.6929410819811 
1605	 0.693018611911549 
1606	 0.693109415473508 
1607	 0.693158344346358 
1608	 0.693247166355457 
1609	 0.693383143143307 
1610	 0.693482870031377 
1611	 0.693579396411099 
1612	 0.693676476110279 
1613	 0.693746564888999 
1614	 0.693826086197653 
1615	 0.693917765239311 
1616	 0.694010494219439 
1617	 0.694110763834794 
1618	 0.694195436574684 
1619	 0.69428522087778 
1620	 0.694358610206544 
1621	 0.69442341459199 
1622	 0.694457366338758 
1623	 0.694444599066767 
1624	 0.694468850548623 
1625	 0.694477818229371 
1626	 0.694508155507454 
1627	 0.694610970956191 
1628	 0.694647694804036 
1629	 0.694657514067355 
1630	 0.694643070673675 
1631	 0.694589025902936 
1632	 0.694527234673399 
1633	 0.694418470032442 
1634	 0.694357223764227 
1635	 0.694305434820088 
1636	 0.694251525838848 
1637	 0.694215563898292 
1638	 0.694200053638747 
1639	 0.694200312218336 
1640	 0.694183695988661 
1641	 0.69423116342908 
1642	 0.694181996617638 
1643	 0.69405932214288 
1644	 0.693941564116442 
1645	 0.693785427494577 
1646	 0.693601803739817 
1647	 0.693398735417442 
1648	 0.693173631198313 
1649	 0.692920322465642 
1650	 0.692639108137218 
1651	 0.692294624384446 
1652	 0.692015012117606 
1653	 0.691758591770465 
1654	 0.69146711692916 
1655	 0.691220638402482 
1656	 0.69092522950453 
1657	 0.690598048317435 
1658	 0.690203703981757 
1659	 0.689796353185794 
1660	 0.689317262622466 
1661	 0.688747302309811 
1662	 0.688146566377262 
1663	 0.687451862500767 
1664	 0.686803565818314 
1665	 0.686207572088171 
1666	 0.685456905432505 
1667	 0.684688227949522 
1668	 0.683830285099552 
1669	 0.682850506776595 
1670	 0.681775964002927 
1671	 0.680600295936508 
1672	 0.679405694509163 
1673	 0.678109703729777 
1674	 0.676774442075202 
1675	 0.675473716265463 
1676	 0.674044580633739 
1677	 0.672496145755729 
1678	 0.670885528404326 
1679	 0.669156030548799 
1680	 0.667432860547518 
1681	 0.665699734528695 
1682	 0.663828572771464 
1683	 0.661892594823847 
1684	 0.659946112581609 
1685	 0.657843570770038 
1686	 0.655812812725597 
1687	 0.65381935649562 
1688	 0.651769122438603 
1689	 0.649681005051877 
1690	 0.647588623422568 
1691	 0.645464833972456 
1692	 0.643434562425553 
1693	 0.641439015022263 
1694	 0.6394404833699 
1695	 0.637518244280892 
1696	 0.635469524016316 
1697	 0.633408763115513 
1698	 0.631199149618641 
1699	 0.628911113992232 
1700	 0.626568844140646 
1701	 0.624071647452616 
1702	 0.621648205516948 
1703	 0.619172935766473 
1704	 0.616738550710285 
1705	 0.614290506881797 
1706	 0.611783138125607 
1707	 0.60956304857802 
1708	 0.607422503230863 
1709	 0.60542064805865 
1710	 0.603602801144692 
1711	 0.601688843748034 
1712	 0.599903399794985 
1713	 0.598163221374073 
1714	 0.596437269783772 
1715	 0.594880565541614 
1716	 0.593261351165181 
1717	 0.591647516865159 
1718	 0.590034551054128 
1719	 0.588378463025192 
1720	 0.586802616368878 
1721	 0.585294149814878 
1722	 0.583880560600135 
1723	 0.582658436228335 
1724	 0.581539171547839 
1725	 0.580588407175645 
1726	 0.579933533648732 
1727	 0.579532823383652 
1728	 0.579437181427025 
1729	 0.579680361564609 
1730	 0.580237733245798 
1731	 0.581105704891381 
1732	 0.582343636515932 
1733	 0.583789140979031 
1734	 0.585548766619697 
1735	 0.587567910715174 
1736	 0.589619076660772 
1737	 0.591832670612586 
1738	 0.593997446742299 
1739	 0.59590966131812 
1740	 0.597794421430043 
1741	 0.599413723843871 
1742	 0.600825345900129 
1743	 0.602057038103484 
1744	 0.603096356359394 
1745	 0.603912057621945 
1746	 0.604491020739515 
1747	 0.604896982330546 
1748	 0.605051526590143 
1749	 0.605124166862438 
1750	 0.605016698820205 
1751	 0.604828293345789 
1752	 0.604480537314064 
1753	 0.604128772717491 
1754	 0.603660479388346 
1755	 0.603236796502239 
1756	 0.602781704833791 
1757	 0.602377399812144 
1758	 0.601989084134372 
1759	 0.601748736304052 
1760	 0.60163999715631 
1761	 0.601618306880216 
1762	 0.601775219420367 
1763	 0.602202653907855 
1764	 0.602756292873408 
1765	 0.603584421756239 
1766	 0.604697316436461 
1767	 0.605832195909621 
1768	 0.607129178638979 
1769	 0.608532888148914 
1770	 0.609885233011157 
1771	 0.611363655364737 
1772	 0.612795950189256 
1773	 0.614182444985511 
1774	 0.615666072322647 
1775	 0.616978326041102 
1776	 0.618252699305753 
1777	 0.619541164929481 
1778	 0.620657081531065 
1779	 0.621731518960755 
1780	 0.622781127800744 
1781	 0.623661498011343 
1782	 0.624373362764705 
1783	 0.625012867850738 
1784	 0.625584786297236 
1785	 0.626049442900969 
1786	 0.626545475008771 
1787	 0.62702357509238 
1788	 0.627415743070236 
1789	 0.627781150299709 
1790	 0.628087404846638 
1791	 0.628305285154016 
1792	 0.628526139011286 
1793	 0.628680328741818 
1794	 0.628866204542648 
1795	 0.629065652772044 
1796	 0.629232374812293 
1797	 0.629469097948413 
1798	 0.629754000430453 
1799	 0.63002577480058 
1800	 0.630260394347646 
1801	 0.582372848004066 
1802	 0.582855496372293 
1803	 0.583289057364024 
1804	 0.583738203054558 
1805	 0.584169204447914 
1806	 0.584527811384791 
1807	 0.58486469010443 
1808	 0.585158837490094 
1809	 0.585396536641889 
1810	 0.585606733377607 
1811	 0.585749133389432 
1812	 0.585926165825868 
1813	 0.586051336021451 
1814	 0.586202020748028 
1815	 0.586509881482594 
1816	 0.586825291223287 
1817	 0.587052136061105 
1818	 0.587284315234432 
1819	 0.587501841130877 
1820	 0.587585230916292 
1821	 0.587770077640713 
1822	 0.588002338566825 
1823	 0.588303258021656 
1824	 0.588515738875809 
1825	 0.588771373081788 
1826	 0.589019567826364 
1827	 0.589256052994749 
1828	 0.589473986801851 
1829	 0.58968962644152 
1830	 0.589930403901632 
1831	 0.590144752145339 
1832	 0.590426147970669 
1833	 0.590733753165932 
1834	 0.590966435743883 
1835	 0.591240094892348 
1836	 0.591451906543954 
1837	 0.591649111465914 
1838	 0.591832706195538 
1839	 0.592013019122282 
1840	 0.592161150156669 
1841	 0.592310622537428 
1842	 0.592429214904868 
1843	 0.592592526383152 
1844	 0.592791467155048 
1845	 0.592938834638628 
1846	 0.593112109201066 
1847	 0.593278407600585 
1848	 0.593471922167373 
1849	 0.59368298837645 
1850	 0.593862206138969 
1851	 0.594075615130613 
1852	 0.594246825117985 
1853	 0.594300795164063 
1854	 0.594386715379465 
1855	 0.594442925044376 
1856	 0.594426370003007 
1857	 0.594513524211132 
1858	 0.59456290565029 
1859	 0.594508938492985 
1860	 0.594430925505964 
1861	 0.594297509985984 
1862	 0.594074563371195 
1863	 0.593770072511342 
1864	 0.593512793425664 
1865	 0.593270655484573 
1866	 0.592964731118543 
1867	 0.592605618709039 
1868	 0.592242306354491 
1869	 0.591777957680959 
1870	 0.591240202577925 
1871	 0.590664992347522 
1872	 0.590000777651986 
1873	 0.58920768027928 
1874	 0.588420383692838 
1875	 0.587638415424308 
1876	 0.586709622279669 
1877	 0.585820186284029 
1878	 0.584885437664356 
1879	 0.583920970746347 
1880	 0.582986105258585 
1881	 0.581936254018105 
1882	 0.580846597332854 
1883	 0.579668056042472 
1884	 0.578345537074243 
1885	 0.57689436790367 
1886	 0.575404592939715 
1887	 0.573755537523406 
1888	 0.571984123266488 
1889	 0.570223780654747 
1890	 0.568266295972591 
1891	 0.566290266586448 
1892	 0.564296893850287 
1893	 0.562101997949947 
1894	 0.559710856267392 
1895	 0.557347941184692 
1896	 0.554845160552407 
1897	 0.552160406190841 
1898	 0.549736732514977 
1899	 0.547197461055549 
1900	 0.544599281480708 
1901	 0.542135491781477 
1902	 0.539390928976689 
1903	 0.53672758294734 
1904	 0.534109083230432 
1905	 0.531505556453215 
1906	 0.52888585441832 
1907	 0.526503723372769 
1908	 0.524026731640531 
1909	 0.521629836420609 
1910	 0.519315170243522 
1911	 0.51683738820155 
1912	 0.514548846308449 
1913	 0.512250085481825 
1914	 0.509897051709165 
1915	 0.507698885557551 
1916	 0.505661887118668 
1917	 0.503492965991496 
1918	 0.501413813232035 
1919	 0.499481713123527 
1920	 0.497385266903765 
1921	 0.495432546977604 
1922	 0.493549426395403 
1923	 0.491649108477062 
1924	 0.489944622745113 
1925	 0.488264805295617 
1926	 0.486666365122931 
1927	 0.485196406856253 
1928	 0.483697923662958 
1929	 0.482193302005506 
1930	 0.480830272892426 
1931	 0.479498113894784 
1932	 0.478209849785759 
1933	 0.47712409027866 
1934	 0.476071181980962 
1935	 0.475080925195643 
1936	 0.474172209133102 
1937	 0.473309076100506 
1938	 0.472462832734916 
1939	 0.471774888032035 
1940	 0.471156186527877 
1941	 0.470686796041886 
1942	 0.470365384700244 
1943	 0.470079541154514 
1944	 0.469835295843237 
1945	 0.469613372828979 
1946	 0.469462698538717 
1947	 0.469391179755716 
1948	 0.469380009561387 
1949	 0.469475677359115 
1950	 0.469606797940361 
1951	 0.469764255414053 
1952	 0.470007173420027 
1953	 0.470347858322267 
1954	 0.47069733904966 
1955	 0.471095251633803 
1956	 0.471586954860406 
1957	 0.472092490020121 
1958	 0.472605851753191 
1959	 0.473123716240696 
1960	 0.473644496536495 
1961	 0.474180936627181 
1962	 0.474725719058177 
1963	 0.475277317908619 
1964	 0.475835079684542 
1965	 0.476397410921743 
1966	 0.476952414413409 
1967	 0.477562586291194 
1968	 0.478144493089429 
1969	 0.47875871734066 
1970	 0.479317742105466 
1971	 0.479877186938379 
1972	 0.480513983599569 
1973	 0.481139995090373 
1974	 0.481753922957415 
1975	 0.482393763875163 
1976	 0.483023368686462 
1977	 0.483645193819304 
1978	 0.484231514743644 
1979	 0.48478368628609 
1980	 0.485406257298562 
1981	 0.486026701165514 
1982	 0.486597242460796 
1983	 0.487253266517009 
1984	 0.487898613923311 
1985	 0.488455573813559 
1986	 0.489018809537896 
1987	 0.48960549091855 
1988	 0.490190626317457 
1989	 0.490807052773343 
1990	 0.491472342561917 
1991	 0.492103637690845 
1992	 0.492761567365398 
1993	 0.493371452553759 
1994	 0.493938113359202 
1995	 0.494500508722007 
1996	 0.495045130143995 
1997	 0.495620656060853 
1998	 0.49619959574 
1999	 0.496795576762069 
2000	 0.497369664634888 
2001	 0.497969206397716 
2002	 0.498507660821696 
2003	 0.499010685018004 
2004	 0.499497674585059 
2005	 0.499920020767886 
2006	 0.500382400586694 
2007	 0.50084747941329 
2008	 0.501322943072514 
2009	 0.501817535020632 
2010	 0.502297527873676 
2011	 0.502696553402913 
2012	 0.503107817722321 
2013	 0.503450282338663 
2014	 0.503697348815133 
2015	 0.503991192794198 
2016	 0.504280710115077 
2017	 0.504529339518454 
2018	 0.504837120360712 
2019	 0.5050340236723 
2020	 0.505162842111151 
2021	 0.505224453595565 
2022	 0.505231307441769 
2023	 0.505159550889352 
2024	 0.505089033678494 
2025	 0.50500501531077 
2026	 0.504841724734191 
2027	 0.504644974518892 
2028	 0.50437462769271 
2029	 0.504006100196435 
2030	 0.50363226280199 
2031	 0.503197292101609 
2032	 0.50276681460203 
2033	 0.502300633255746 
2034	 0.501847260829683 
2035	 0.501375161524898 
2036	 0.500917823974912 
2037	 0.500508793850981 
2038	 0.50004394541369 
2039	 0.49967144307249 
2040	 0.499321499480822 
2041	 0.499080190404141 
2042	 0.498916831329195 
2043	 0.498803379760143 
2044	 0.498775385637205 
2045	 0.498774956131187 
2046	 0.498800750355461 
2047	 0.498887778010791 
2048	 0.499069843010201 
2049	 0.499254813184 
2050	 0.499435216221478 
2051	 0.499729499910068 
2052	 0.500080776517589 
2053	 0.500415573702777 
2054	 0.500808421545335 
2055	 0.501275766233471 
2056	 0.501752146994108 
2057	 0.502264338663396 
2058	 0.502763400907979 
2059	 0.503281743848585 
2060	 0.503824357479827 
2061	 0.504368474155188 
2062	 0.504925712247235 
2063	 0.505525342972796 
2064	 0.506129844284272 
2065	 0.506756689351747 
2066	 0.507341061615282 
2067	 0.507936568762162 
2068	 0.508506917413767 
2069	 0.509119116517093 
2070	 0.509707947692933 
2071	 0.510342798992913 
2072	 0.511070832808304 
2073	 0.511705157712311 
2074	 0.512330852955054 
2075	 0.512900556317646 
2076	 0.513400097871226 
2077	 0.513914550684431 
2078	 0.51440532373104 
2079	 0.514882023480642 
2080	 0.515352806232073 
2081	 0.515810153338671 
2082	 0.516269416298155 
2083	 0.516671749674607 
2084	 0.517043855454124 
2085	 0.517376637650784 
2086	 0.517697267753159 
2087	 0.51797570754113 
2088	 0.5182261186668 
2089	 0.518466612799575 
2090	 0.518671118185297 
2091	 0.518819519078187 
2092	 0.518958486621146 
2093	 0.519061239916268 
2094	 0.519186367834994 
2095	 0.519300972956519 
2096	 0.519402183780561 
2097	 0.519517356979724 
2098	 0.519617527364488 
2099	 0.51968794134329 
2100	 0.519778456081675 
2101	 0.519752988128772 
2102	 0.519663236389794 
2103	 0.519589999950526 
2104	 0.51940852409651 
2105	 0.519318433328716 
2106	 0.51935316678228 
2107	 0.519226021646322 
2108	 0.519021902450619 
2109	 0.518829266512471 
2110	 0.518561098063148 
2111	 0.518294287746891 
2112	 0.518059064470844 
2113	 0.517790223848028 
2114	 0.517455202427245 
2115	 0.51712565686089 
2116	 0.516836978766231 
2117	 0.516438371791968 
2118	 0.516083642785731 
2119	 0.515702268753033 
2120	 0.515378798958529 
2121	 0.515080780521649 
2122	 0.514782868209178 
2123	 0.514526381303229 
2124	 0.514231075062531 
2125	 0.513941268114738 
2126	 0.513605599953419 
2127	 0.513213987984425 
2128	 0.512866079123568 
2129	 0.512523202863478 
2130	 0.512158624795976 
2131	 0.511828860111596 
2132	 0.51144821000926 
2133	 0.511083174690582 
2134	 0.510582797082357 
2135	 0.510041801193578 
2136	 0.509531549665826 
2137	 0.508907100676709 
2138	 0.508147370840823 
2139	 0.507503145530396 
2140	 0.506849962237167 
2141	 0.506192348294744 
2142	 0.505636173401077 
2143	 0.504933797509271 
2144	 0.504102491834743 
2145	 0.503349326013232 
2146	 0.502542215801999 
2147	 0.501784778371858 
2148	 0.501077779394499 
2149	 0.500377754155642 
2150	 0.499735306896584 
2151	 0.499030234594973 
2152	 0.498321384665669 
2153	 0.497586957435862 
2154	 0.496790328029021 
2155	 0.495997027824604 
2156	 0.495282348374576 
2157	 0.494626599659945 
2158	 0.493924095240867 
2159	 0.493290120701411 
2160	 0.492540976469628 
2161	 0.491723274888001 
2162	 0.490893343603711 
2163	 0.48999631407352 
2164	 0.489120486786322 
2165	 0.488209619118954 
2166	 0.487333552817439 
2167	 0.486406195493601 
2168	 0.48560151723931 
2169	 0.484875076235336 
2170	 0.48416610518778 
2171	 0.483526102507005 
2172	 0.482934187682209 
2173	 0.482396918468533 
2174	 0.481822340277691 
2175	 0.481400896678012 
2176	 0.48100306432347 
2177	 0.480575899045328 
2178	 0.480159384420849 
2179	 0.479769718848453 
2180	 0.479328257801213 
2181	 0.479050468031815 
2182	 0.478854005155186 
2183	 0.478702726823326 
2184	 0.47864960211681 
2185	 0.478627650796259 
2186	 0.478687884527032 
2187	 0.478726795341688 
2188	 0.478836408231801 
2189	 0.478904208250635 
2190	 0.478917941770356 
2191	 0.478981088700491 
2192	 0.479081990346318 
2193	 0.479171391472089 
2194	 0.479252102794655 
2195	 0.479369835169401 
2196	 0.479535934424725 
2197	 0.479650475869724 
2198	 0.479763782801731 
2199	 0.479945811503648 
2200	 0.480080612180806 
2201	 0.480179663884692 
2202	 0.480310403314489 
2203	 0.480492990637312 
2204	 0.480569710165113 
2205	 0.480584469379942 
2206	 0.480621086450569 
2207	 0.480567415660168 
2208	 0.480625983822683 
2209	 0.480795233420802 
2210	 0.48086099596495 
2211	 0.480968664629957 
2212	 0.480966274308075 
2213	 0.480848808698018 
2214	 0.48074466611681 
2215	 0.480595393335955 
2216	 0.480418123062906 
2217	 0.480170633020268 
2218	 0.480002329097516 
2219	 0.479801075502827 
2220	 0.479682546112533 
2221	 0.479714275154222 
2222	 0.479694195667261 
2223	 0.479452959547949 
2224	 0.479262870833186 
2225	 0.479134606472303 
2226	 0.478780184309587 
2227	 0.47847508458343 
2228	 0.478296812090073 
2229	 0.477887129988265 
2230	 0.477290139214406 
2231	 0.476710512882608 
2232	 0.476127943491403 
2233	 0.475368919350988 
2234	 0.474494051028149 
2235	 0.473538945681052 
2236	 0.472442638533752 
2237	 0.471310012020974 
2238	 0.470128068336051 
2239	 0.468830288265067 
2240	 0.467482994226862 
2241	 0.465947102586716 
2242	 0.464294355723434 
2243	 0.462498546141351 
2244	 0.460453704370582 
2245	 0.458435152637708 
2246	 0.456374244199613 
2247	 0.454172851745662 
2248	 0.451918140278398 
2249	 0.44955838503465 
2250	 0.447091722823045 
2251	 0.444482758860588 
2252	 0.441635850347831 
2253	 0.438879870365949 
2254	 0.436054028434534 
2255	 0.433208277187144 
2256	 0.43065499340591 
2257	 0.427919313737747 
2258	 0.42522198504635 
2259	 0.422568172884183 
2260	 0.419795779705157 
2261	 0.41692362748723 
2262	 0.414152617885893 
2263	 0.411232290440054 
2264	 0.408589499552341 
2265	 0.406151901799626 
2266	 0.403658764696067 
2267	 0.40130246362765 
2268	 0.398884657440321 
2269	 0.396365089479705 
2270	 0.394012265954159 
2271	 0.391695414222085 
2272	 0.389512969164217 
2273	 0.387474241871488 
2274	 0.385477465965693 
2275	 0.383632866070907 
2276	 0.381730331051489 
2277	 0.379823094507155 
2278	 0.377970922178759 
2279	 0.376117566086701 
2280	 0.374323428304521 
2281	 0.372667110477498 
2282	 0.370900190531091 
2283	 0.369150616965614 
2284	 0.367326917288705 
2285	 0.365222879350512 
2286	 0.363312704519921 
2287	 0.361366948903635 
2288	 0.359334299290923 
2289	 0.357481746962027 
2290	 0.355490912374422 
2291	 0.353329392204175 
2292	 0.35105418735516 
2293	 0.348594619073423 
2294	 0.346153352933406 
2295	 0.34363627982381 
2296	 0.340965419076293 
2297	 0.338251994044941 
2298	 0.335367771060698 
2299	 0.332623879886685 
2300	 0.329843343042202 
2301	 0.327164736103885 
2302	 0.324484885180193 
2303	 0.32213437243844 
2304	 0.319774885516421 
2305	 0.317943047369333 
2306	 0.316489634323631 
2307	 0.315303507533639 
2308	 0.314316459005166 
2309	 0.313993806974285 
2310	 0.314034503880478 
2311	 0.314756468460871 
2312	 0.316304438218766 
2313	 0.318028489250172 
2314	 0.320327252716353 
2315	 0.322842092659972 
2316	 0.325897848187268 
2317	 0.328820105941871 
2318	 0.332225822452141 
2319	 0.33507046009909 
2320	 0.3378431321975 
2321	 0.340123424577489 
2322	 0.341993552662182 
2323	 0.343605723760321 
2324	 0.344789048268295 
2325	 0.345759773760919 
2326	 0.346339268563891 
2327	 0.346894119397437 
2328	 0.347278951834434 
2329	 0.347447006562569 
2330	 0.347533218175088 
2331	 0.347297156468327 
2332	 0.346750022038815 
2333	 0.346106402978982 
2334	 0.345234408797074 
2335	 0.344165162751167 
2336	 0.342783533725501 
2337	 0.341186037702889 
2338	 0.339475645491045 
2339	 0.337453771698452 
2340	 0.335408448251306 
2341	 0.333189172467558 
2342	 0.330762376068846 
2343	 0.328462829368384 
2344	 0.326199868746117 
2345	 0.323987838938214 
2346	 0.322249682286327 
2347	 0.320776344554791 
2348	 0.319547279053919 
2349	 0.319115544792244 
2350	 0.319035766385602 
2351	 0.319287348685437 
2352	 0.320352770073913 
2353	 0.321915489478237 
2354	 0.323660013033382 
2355	 0.325778146373764 
2356	 0.327902473078288 
2357	 0.330066351327249 
2358	 0.33232529059334 
2359	 0.334490569037004 
2360	 0.336330159341497 
2361	 0.337620497574571 
2362	 0.338613395453933 
2363	 0.339345011019048 
2364	 0.340304774438289 
2365	 0.3411819168951 
2366	 0.341434002979547 
2367	 0.341752272548026 
2368	 0.341860180979919 
2369	 0.341508129260837 
2370	 0.341835597287573 
2371	 0.34225747480174 
2372	 0.342242350015589 
2373	 0.342616861949489 
2374	 0.342795392749868 
2375	 0.342668511871933 
2376	 0.342872517348605 
2377	 0.342996796158896 
2378	 0.342954164972468 
2379	 0.342970827817085 
2380	 0.342711577918977 
2381	 0.342372250097825 
2382	 0.342236664183322 
2383	 0.342132081428772 
2384	 0.342077682129732 
2385	 0.342309740054774 
2386	 0.342275279635742 
2387	 0.342001560728659 
2388	 0.342069152676391 
2389	 0.342170995697828 
2390	 0.34222715050442 
2391	 0.342514579487436 
2392	 0.34272608961094 
2393	 0.342989023463733 
2394	 0.343047849194452 
2395	 0.343037727085745 
2396	 0.342991153401075 
2397	 0.342477386011831 
2398	 0.342237069514656 
2399	 0.342353619339972 
2400	 0.342330994804919 
2401	 0.342234599941811 
2402	 0.342506798547813 
2403	 0.342523365013871 
2404	 0.34293906629671 
2405	 0.343353862756534 
2406	 0.343530026817388 
2407	 0.343721234427615 
2408	 0.343618262081227 
2409	 0.343549448971079 
2410	 0.343637775178442 
2411	 0.343719299465389 
2412	 0.344060585919495 
2413	 0.34448570595061 
2414	 0.344720488349467 
2415	 0.344942141047964 
2416	 0.344860595626251 
2417	 0.344456721064634 
2418	 0.344475692840858 
2419	 0.344596757712664 
2420	 0.344423617537995 
2421	 0.344431783591002 
2422	 0.344733805347619 
2423	 0.344912340187412 
2424	 0.345236733354572 
2425	 0.345924515806488 
2426	 0.346125824538861 
2427	 0.34634676954236 
2428	 0.346842256849607 
2429	 0.34679415658269 
2430	 0.34659532755827 
2431	 0.346587312515439 
2432	 0.34696155163694 
2433	 0.347136767206556 
2434	 0.346890101106831 
2435	 0.346759858312856 
2436	 0.345655251767877 
2437	 0.34468118420205 
2438	 0.344978797617421 
2439	 0.345036437154213 
2440	 0.345105246045851 
2441	 0.345195004163396 
2442	 0.344638396576686 
2443	 0.344047235246173 
2444	 0.343697364894132 
2445	 0.343679994803391 
2446	 0.343945481764898 
2447	 0.343981458798438 
2448	 0.34340478007815 
2449	 0.342718365949957 
2450	 0.341953762785033 
2451	 0.341044527465835 
2452	 0.341539647747384 
2453	 0.341843605127873 
2454	 0.340942031954675 
2455	 0.340276174473826 
2456	 0.339107385233796 
2457	 0.337961431575521 
2458	 0.33773971126577 
2459	 0.33800334378961 
2460	 0.337901514653496 
2461	 0.337745780094002 
2462	 0.337349976725942 
2463	 0.336360961199178 
2464	 0.335826398953348 
2465	 0.334805643787472 
2466	 0.334337140751891 
2467	 0.334609375706655 
2468	 0.333771306842277 
2469	 0.333668982284195 
2470	 0.33386700639953 
2471	 0.333959291161055 
2472	 0.335036416754493 
2473	 0.335384663602914 
2474	 0.335241313156481 
2475	 0.335116497431515 
2476	 0.334878605007617 
2477	 0.334726791333605 
2478	 0.334580322337845 
2479	 0.334936764862743 
2480	 0.334666995409509 
2481	 0.334732816822391 
2482	 0.334946079875324 
2483	 0.334462158764369 
2484	 0.335197428181576 
2485	 0.3351694687442 
2486	 0.334670573022091 
2487	 0.335042958966396 
2488	 0.3345994883672 
2489	 0.334197591533865 
2490	 0.334395716761674 
2491	 0.334016684081154 
2492	 0.33365884740273 
2493	 0.332778442519486 
2494	 0.332613078360158 
2495	 0.333177092469874 
2496	 0.33283485967812 
2497	 0.332909706703979 
2498	 0.333732331762201 
2499	 0.333934248019251 
2500	 0.333767670216451 
