Wavelength	ProbetaAcolman00027.asd
350	 0.416957817175086 
351	 0.40437285599253 
352	 0.383349623465914 
353	 0.368133157477286 
354	 0.384642036581414 
355	 0.367690099943822 
356	 0.344921145291997 
357	 0.346949568471403 
358	 0.34971152208292 
359	 0.3546383528754 
360	 0.354836954386592 
361	 0.342213202064289 
362	 0.3249820929117 
363	 0.323276480304613 
364	 0.332275391184493 
365	 0.313427824613314 
366	 0.307042446778968 
367	 0.3091746771874 
368	 0.309151232049984 
369	 0.31220092492306 
370	 0.301925296101584 
371	 0.290003052530316 
372	 0.298604118298049 
373	 0.295874718640085 
374	 0.287720697569261 
375	 0.28110281541725 
376	 0.27931245933131 
377	 0.283751387407588 
378	 0.285742174864191 
379	 0.279174830916603 
380	 0.273181075343141 
381	 0.269646788167702 
382	 0.269078419390772 
383	 0.270308365612786 
384	 0.270057840760515 
385	 0.270372546017103 
386	 0.270987701864185 
387	 0.267358331326232 
388	 0.264465277157048 
389	 0.263347663814809 
390	 0.263612577361356 
391	 0.264992523732042 
392	 0.258304509215425 
393	 0.250127374461939 
394	 0.25404288977287 
395	 0.251823988997011 
396	 0.251762794062803 
397	 0.255589648857976 
398	 0.249223104119612 
399	 0.246230328682883 
400	 0.247983873654105 
401	 0.250632188902303 
402	 0.243984489738692 
403	 0.242071849858001 
404	 0.245711767973369 
405	 0.246068173126615 
406	 0.244667793452853 
407	 0.242945417356612 
408	 0.241741797285606 
409	 0.240523748280571 
410	 0.241764709254177 
411	 0.243489621761343 
412	 0.243006059207077 
413	 0.24100442560968 
414	 0.240228498399482 
415	 0.240765868155272 
416	 0.240481269657583 
417	 0.240643841864861 
418	 0.241008895753981 
419	 0.241045417664576 
420	 0.239991163466122 
421	 0.239435660734814 
422	 0.239704869677388 
423	 0.240392895301552 
424	 0.240108268730556 
425	 0.240474152162718 
426	 0.241152497279477 
427	 0.239526194791076 
428	 0.239434754295339 
429	 0.240260238599715 
430	 0.240707235595568 
431	 0.240457644161685 
432	 0.240151603305058 
433	 0.240128490828701 
434	 0.240479597042656 
435	 0.240809818210158 
436	 0.241236310672397 
437	 0.24156477763154 
438	 0.241032375672668 
439	 0.240410255820537 
440	 0.240358155558197 
441	 0.241079055000838 
442	 0.241309664234843 
443	 0.241081686840005 
444	 0.240719667268993 
445	 0.24069962992428 
446	 0.240715103111325 
447	 0.240912018376564 
448	 0.241299850029932 
449	 0.241502595264478 
450	 0.241349918089382 
451	 0.241253201325315 
452	 0.241600414585186 
453	 0.241151527847246 
454	 0.24113296195151 
455	 0.241601848559641 
456	 0.241239308781698 
457	 0.240689244752152 
458	 0.240465144434853 
459	 0.240706391804154 
460	 0.240544618916439 
461	 0.24077097396323 
462	 0.241087199874704 
463	 0.24073823813987 
464	 0.240391553421373 
465	 0.240176886535671 
466	 0.240071676126331 
467	 0.239921898331469 
468	 0.239858683994285 
469	 0.239866658261613 
470	 0.239873235635579 
471	 0.239757896872745 
472	 0.239625846586832 
473	 0.239484538519498 
474	 0.239277740803531 
475	 0.239265454849032 
476	 0.239262919689779 
477	 0.239145104964425 
478	 0.239052030737496 
479	 0.239073960490423 
480	 0.239139118704876 
481	 0.23912066140396 
482	 0.239029407176991 
483	 0.238841583925108 
484	 0.238677044678261 
485	 0.238802026069271 
486	 0.238726056040451 
487	 0.238653261797409 
488	 0.238805831711699 
489	 0.239015517865281 
490	 0.238919670543853 
491	 0.238767861375546 
492	 0.239075189297851 
493	 0.239218419605651 
494	 0.239522795425754 
495	 0.24002300144615 
496	 0.240108598586529 
497	 0.240157488011784 
498	 0.240266492839027 
499	 0.240451624305937 
500	 0.240740088611246 
501	 0.241110483392004 
502	 0.241450971859994 
503	 0.241602821428942 
504	 0.24198468505969 
505	 0.242358731689684 
506	 0.242585726850923 
507	 0.243053729854661 
508	 0.243459723073127 
509	 0.24380102660197 
510	 0.2441871177154 
511	 0.244538679470865 
512	 0.244866868461602 
513	 0.245232661212315 
514	 0.245753979085431 
515	 0.246086202575975 
516	 0.246478404833213 
517	 0.247091555228988 
518	 0.247204738224043 
519	 0.247524492104952 
520	 0.248092430680098 
521	 0.248501264511138 
522	 0.248930060460453 
523	 0.249484187215268 
524	 0.250119989551641 
525	 0.250512958708491 
526	 0.250952133132675 
527	 0.251490191653909 
528	 0.252073149051703 
529	 0.25254785580143 
530	 0.253048022746662 
531	 0.253601637804531 
532	 0.254108550139412 
533	 0.254660716420641 
534	 0.255200932133005 
535	 0.255688861095777 
536	 0.256206163477163 
537	 0.256874707866744 
538	 0.257559212369419 
539	 0.258034462701827 
540	 0.258647014505964 
541	 0.259293659789636 
542	 0.25987458833263 
543	 0.260364626702154 
544	 0.260994348276386 
545	 0.261666582802376 
546	 0.262245101207381 
547	 0.262921539901805 
548	 0.263601641132618 
549	 0.264262270542932 
550	 0.264953849201749 
551	 0.265729541260476 
552	 0.266568053503232 
553	 0.267441539912758 
554	 0.268341319736556 
555	 0.269320234380764 
556	 0.270389436057573 
557	 0.271534096699187 
558	 0.272727574881277 
559	 0.273984148992809 
560	 0.275314943032905 
561	 0.276723681560203 
562	 0.278097242873585 
563	 0.279468846003786 
564	 0.280897647903122 
565	 0.28235449225395 
566	 0.283899501099006 
567	 0.285596046044957 
568	 0.287497662922194 
569	 0.289521595558273 
570	 0.29161452167686 
571	 0.293764402745661 
572	 0.29601592633766 
573	 0.298336671353755 
574	 0.300703555543354 
575	 0.303111845674174 
576	 0.305598443866188 
577	 0.308198195258359 
578	 0.310892660397087 
579	 0.313608100534637 
580	 0.316465960136221 
581	 0.31936091673357 
582	 0.322239599826091 
583	 0.325354662196838 
584	 0.328573636285588 
585	 0.331873259208155 
586	 0.335301303353039 
587	 0.33891899358669 
588	 0.342597572038363 
589	 0.346274101950162 
590	 0.350029012310618 
591	 0.353741113664692 
592	 0.357408686822555 
593	 0.361074924917998 
594	 0.36478574498481 
595	 0.36839987166823 
596	 0.371951827308079 
597	 0.375618750057373 
598	 0.379287178080198 
599	 0.382853403289305 
600	 0.386312644155162 
601	 0.389893185455279 
602	 0.393304395769884 
603	 0.396492718826354 
604	 0.399525523091631 
605	 0.402550270136881 
606	 0.405437458982649 
607	 0.408090358354215 
608	 0.410479629967393 
609	 0.41276785511818 
610	 0.414835916420153 
611	 0.416610580812621 
612	 0.418380118785146 
613	 0.420071158223304 
614	 0.421593249074489 
615	 0.422864743396312 
616	 0.423973354635041 
617	 0.42507556457811 
618	 0.426155077259648 
619	 0.426865630130097 
620	 0.42763074555253 
621	 0.428437510808503 
622	 0.429127994992756 
623	 0.4296083157037 
624	 0.430030293987904 
625	 0.430494398071634 
626	 0.431026072780182 
627	 0.431399439105102 
628	 0.431647788555695 
629	 0.431883415093575 
630	 0.432304714689352 
631	 0.432537876559441 
632	 0.432636348232783 
633	 0.432835827666196 
634	 0.433156534620743 
635	 0.433403625658522 
636	 0.433538343406941 
637	 0.43373682570636 
638	 0.433978935384474 
639	 0.434194819101763 
640	 0.434340023031697 
641	 0.434497590735534 
642	 0.434681987773351 
643	 0.434906090737435 
644	 0.435172023490641 
645	 0.435420602254727 
646	 0.435611762036033 
647	 0.435785938557788 
648	 0.436112413431438 
649	 0.436365871320786 
650	 0.436568489535187 
651	 0.436819747397675 
652	 0.437205575158036 
653	 0.437520481755444 
654	 0.437749734189806 
655	 0.438038764959845 
656	 0.438403383730591 
657	 0.438748433826618 
658	 0.439044751400575 
659	 0.439447196407278 
660	 0.439832141448781 
661	 0.440199857201213 
662	 0.440584395433576 
663	 0.440932898865225 
664	 0.441360516958901 
665	 0.441869040132015 
666	 0.442340247201797 
667	 0.442787438685312 
668	 0.443208068759663 
669	 0.443617830685726 
670	 0.444078445775859 
671	 0.444577153765286 
672	 0.445086740637192 
673	 0.445572997476814 
674	 0.446006774510899 
675	 0.446501391569411 
676	 0.447059203210645 
677	 0.447539474851604 
678	 0.44797704034505 
679	 0.448450574547419 
680	 0.449004084254069 
681	 0.449544186553222 
682	 0.450093621234317 
683	 0.450673005273119 
684	 0.45128548460446 
685	 0.451797523126897 
686	 0.452303408481526 
687	 0.452843531674951 
688	 0.453348235920076 
689	 0.453920683852271 
690	 0.454503779386623 
691	 0.455040549918606 
692	 0.455628480586877 
693	 0.456190965265108 
694	 0.456753584177588 
695	 0.457387764365497 
696	 0.457939168868615 
697	 0.458498788839889 
698	 0.459104929630281 
699	 0.459666449928907 
700	 0.460256128714796 
701	 0.460814032262529 
702	 0.461306021371334 
703	 0.461941800075064 
704	 0.462539904034825 
705	 0.463075702181289 
706	 0.463630719285257 
707	 0.464114028269137 
708	 0.464649202101166 
709	 0.465264488536657 
710	 0.465784323775557 
711	 0.466331504261643 
712	 0.466899985381382 
713	 0.467446952489393 
714	 0.467935385603722 
715	 0.468449500383535 
716	 0.468974927085326 
717	 0.469436855054176 
718	 0.469945739121385 
719	 0.470457543949814 
720	 0.47094260346295 
721	 0.471433177937716 
722	 0.471888615380537 
723	 0.472322557375811 
724	 0.472759216622635 
725	 0.473192315596896 
726	 0.473646048507244 
727	 0.474123478431607 
728	 0.474604219064264 
729	 0.475004520611078 
730	 0.475403506884133 
731	 0.475848595798643 
732	 0.476301657184668 
733	 0.476689295281414 
734	 0.477066497783886 
735	 0.477489612192495 
736	 0.477856882272841 
737	 0.478262302188748 
738	 0.478689875347476 
739	 0.479056776397434 
740	 0.4794109550319 
741	 0.479759415797006 
742	 0.480112744842092 
743	 0.480492711970899 
744	 0.480947603996677 
745	 0.481320542174728 
746	 0.481530181476776 
747	 0.481936787359939 
748	 0.482272198100315 
749	 0.482575093688779 
750	 0.48302483587839 
751	 0.483411367097266 
752	 0.483691282356289 
753	 0.483905353509506 
754	 0.484173888563075 
755	 0.48448543197491 
756	 0.484781732346753 
757	 0.485029597553017 
758	 0.485305672701234 
759	 0.485551228322872 
760	 0.485794434654626 
761	 0.486092949991601 
762	 0.48641868063585 
763	 0.486714911412066 
764	 0.486962650041119 
765	 0.48719007207494 
766	 0.487467275926522 
767	 0.487765875147928 
768	 0.488041180266694 
769	 0.488248557396496 
770	 0.488552688562144 
771	 0.488894274811168 
772	 0.489153610017213 
773	 0.489369338587362 
774	 0.489604243270353 
775	 0.489868125042626 
776	 0.490125287575389 
777	 0.490364426609644 
778	 0.490624123538895 
779	 0.49090271091659 
780	 0.491117251316657 
781	 0.4913620697941 
782	 0.491637177473994 
783	 0.491909397749832 
784	 0.492123521261897 
785	 0.492420572745546 
786	 0.49273224142814 
787	 0.492909823264427 
788	 0.493175461741471 
789	 0.493501966242095 
790	 0.493837134654441 
791	 0.49413121021691 
792	 0.494369655721154 
793	 0.494593060782246 
794	 0.494842031384737 
795	 0.495131745029538 
796	 0.495378278921309 
797	 0.49561532745122 
798	 0.495902401996475 
799	 0.496192583083881 
800	 0.49643793712184 
801	 0.496678675138131 
802	 0.497006356525335 
803	 0.49730588852269 
804	 0.497554766118691 
805	 0.497785364840635 
806	 0.498089075981711 
807	 0.498296812421384 
808	 0.498525080711949 
809	 0.498885892889789 
810	 0.499273054615711 
811	 0.499567975609014 
812	 0.499842117186055 
813	 0.500216907254477 
814	 0.500534260977105 
815	 0.50083505042683 
816	 0.501162410529407 
817	 0.5015380980197 
818	 0.501834692514423 
819	 0.502113996281583 
820	 0.502438016258564 
821	 0.502817399732741 
822	 0.503183264579543 
823	 0.503523626633638 
824	 0.503864952896404 
825	 0.504303068468699 
826	 0.504682234980974 
827	 0.504992301124122 
828	 0.505307720696145 
829	 0.505728782431973 
830	 0.506189762232871 
831	 0.506650161489407 
832	 0.507101194678818 
833	 0.507505413684871 
834	 0.50789174532159 
835	 0.508282220196808 
836	 0.508672147247981 
837	 0.509027433749995 
838	 0.509422433284886 
839	 0.509898932544286 
840	 0.51033660186008 
841	 0.510757339521698 
842	 0.511198594910914 
843	 0.51168582533518 
844	 0.512137341374304 
845	 0.512628161886029 
846	 0.513151122523014 
847	 0.513636552745507 
848	 0.514069103081626 
849	 0.514531306625162 
850	 0.515031618096802 
851	 0.51547674603649 
852	 0.515971471104708 
853	 0.516455861880065 
854	 0.516909278326551 
855	 0.517467440527593 
856	 0.518018369941256 
857	 0.518563188511644 
858	 0.519127186824956 
859	 0.519691834085904 
860	 0.520279638611737 
861	 0.520864588544183 
862	 0.521420384848796 
863	 0.522081974083974 
864	 0.522721114554288 
865	 0.52329006183392 
866	 0.523834660769192 
867	 0.524399979203342 
868	 0.525061794411008 
869	 0.525783896145585 
870	 0.52638665892146 
871	 0.527018340247977 
872	 0.52770278943852 
873	 0.528423278675146 
874	 0.5291395790234 
875	 0.529865035017641 
876	 0.530556430249541 
877	 0.531195433447372 
878	 0.531885300208271 
879	 0.532715575625416 
880	 0.533550715586081 
881	 0.534209101760136 
882	 0.534900199569404 
883	 0.535642130023485 
884	 0.536400701501748 
885	 0.537125580336284 
886	 0.537931212241063 
887	 0.538711705461598 
888	 0.539435448114002 
889	 0.540182326994315 
890	 0.54094558062096 
891	 0.541786095381816 
892	 0.54267159138279 
893	 0.543404460461786 
894	 0.544127312298023 
895	 0.544865524749636 
896	 0.545614216738729 
897	 0.546369785499086 
898	 0.547081723100997 
899	 0.547862128336049 
900	 0.548797606613261 
901	 0.549678440834624 
902	 0.550454286441705 
903	 0.55119628328882 
904	 0.552005601478971 
905	 0.552772345704832 
906	 0.553574417093865 
907	 0.554388603514099 
908	 0.5551339758004 
909	 0.555907993776 
910	 0.556781156564183 
911	 0.557706901516172 
912	 0.558545093337188 
913	 0.559433809646861 
914	 0.560277788672621 
915	 0.561041599485365 
916	 0.561820436302352 
917	 0.562792770577735 
918	 0.563677691416888 
919	 0.564369772045326 
920	 0.565254682547019 
921	 0.566188181226987 
922	 0.567101427861316 
923	 0.567946972278519 
924	 0.568689550152486 
925	 0.569485857126742 
926	 0.570348919475205 
927	 0.571222579665539 
928	 0.572006384795152 
929	 0.57283557773851 
930	 0.573695198397872 
931	 0.574523710134262 
932	 0.575361719695589 
933	 0.576289388773661 
934	 0.577196693733274 
935	 0.577942455448079 
936	 0.578801300904667 
937	 0.579700397657638 
938	 0.58055949980732 
939	 0.58133157694598 
940	 0.582124567464617 
941	 0.582921245847918 
942	 0.583688901188781 
943	 0.584421134490841 
944	 0.585373070318161 
945	 0.586180977676289 
946	 0.586754061166523 
947	 0.587371524288316 
948	 0.588210721931753 
949	 0.589160303898967 
950	 0.590033613160369 
951	 0.590652640280103 
952	 0.591269556590954 
953	 0.591910567284484 
954	 0.592607881741521 
955	 0.593446259003323 
956	 0.594128484466944 
957	 0.594653651882305 
958	 0.595126368611928 
959	 0.595697420317452 
960	 0.596162767657475 
961	 0.596751484212358 
962	 0.597513973881364 
963	 0.597968769368862 
964	 0.598606119508063 
965	 0.599292461238201 
966	 0.599867538771985 
967	 0.600485760049022 
968	 0.601190266548353 
969	 0.601823657646363 
970	 0.602341039869313 
971	 0.603133072095437 
972	 0.603748259601615 
973	 0.604201430883976 
974	 0.604682106412571 
975	 0.605431320990859 
976	 0.605986661145025 
977	 0.606465320319067 
978	 0.607042295504667 
979	 0.607437026415566 
980	 0.607937888614477 
981	 0.608524996641624 
982	 0.609082135387825 
983	 0.609551588941468 
984	 0.610103785653432 
985	 0.610660729085797 
986	 0.611142105064018 
987	 0.611775804658336 
988	 0.612386617781006 
989	 0.612843823479893 
990	 0.613158039628337 
991	 0.613706725023904 
992	 0.614341807106484 
993	 0.614817725071222 
994	 0.615027659560741 
995	 0.61541469906172 
996	 0.615852934501678 
997	 0.616328418454729 
998	 0.616853745038001 
999	 0.617436861331777 
1000	 0.61785287399775 
1001	 0.619351682421987 
1002	 0.619711484632825 
1003	 0.620154866043561 
1004	 0.620541491770372 
1005	 0.620948394794473 
1006	 0.62133448826913 
1007	 0.621657311149433 
1008	 0.622035249766876 
1009	 0.622446186586262 
1010	 0.622853535373594 
1011	 0.623295354491642 
1012	 0.62369687968442 
1013	 0.624105275571888 
1014	 0.624483783087855 
1015	 0.624856585571721 
1016	 0.625129329500569 
1017	 0.625448974039339 
1018	 0.625814669335362 
1019	 0.626103588096304 
1020	 0.626418828717535 
1021	 0.626738586320352 
1022	 0.627050217194953 
1023	 0.627339127721246 
1024	 0.627640584355053 
1025	 0.627933271001245 
1026	 0.628191287453304 
1027	 0.628460446820997 
1028	 0.628739652374734 
1029	 0.629027197081509 
1030	 0.629311360216561 
1031	 0.629511283699605 
1032	 0.629703262452509 
1033	 0.629938147400535 
1034	 0.630210012447172 
1035	 0.630465617067192 
1036	 0.630691810838509 
1037	 0.630952154023825 
1038	 0.631157246432675 
1039	 0.631269389905185 
1040	 0.631461859011381 
1041	 0.631656676592732 
1042	 0.631861947442068 
1043	 0.632099847475553 
1044	 0.632346504702119 
1045	 0.632553755953611 
1046	 0.632792716620002 
1047	 0.633005602442914 
1048	 0.633187896428851 
1049	 0.633375753151489 
1050	 0.633621245740028 
1051	 0.633874900723513 
1052	 0.63407540253747 
1053	 0.634306317065075 
1054	 0.634566379954345 
1055	 0.634801572904402 
1056	 0.635019824306543 
1057	 0.63528160093827 
1058	 0.635595068219622 
1059	 0.63579315132472 
1060	 0.636015293889227 
1061	 0.636256021108153 
1062	 0.636447849141423 
1063	 0.636708316303654 
1064	 0.636990460672652 
1065	 0.637260066686459 
1066	 0.637557070717173 
1067	 0.637827162781799 
1068	 0.638035342423889 
1069	 0.638231186732745 
1070	 0.638446446090132 
1071	 0.638645737973408 
1072	 0.638826893587161 
1073	 0.639074009749735 
1074	 0.639351814002065 
1075	 0.639548455788622 
1076	 0.639765997157521 
1077	 0.64000984649041 
1078	 0.640167446817585 
1079	 0.640331968073048 
1080	 0.640540048620178 
1081	 0.640708720990609 
1082	 0.640894216433307 
1083	 0.641090184900395 
1084	 0.641248340496261 
1085	 0.641436522056717 
1086	 0.641635560417875 
1087	 0.641846105957482 
1088	 0.642060074285189 
1089	 0.642270083753157 
1090	 0.642419225363717 
1091	 0.642533015158333 
1092	 0.642653847970527 
1093	 0.642808731967124 
1094	 0.642965772695436 
1095	 0.643059566653833 
1096	 0.643181566016662 
1097	 0.643306453524679 
1098	 0.643392171020569 
1099	 0.64354207004089 
1100	 0.643654345718529 
1101	 0.643757235524644 
1102	 0.643913795218719 
1103	 0.644015561259457 
1104	 0.644094143377289 
1105	 0.644192135485033 
1106	 0.644259861950119 
1107	 0.644290660470356 
1108	 0.644397547321288 
1109	 0.644501811847247 
1110	 0.644573635235264 
1111	 0.644643450460916 
1112	 0.64467131406373 
1113	 0.644683046914879 
1114	 0.644717809923648 
1115	 0.64471368706299 
1116	 0.644701423530066 
1117	 0.644726801432331 
1118	 0.644752333621636 
1119	 0.644813992545903 
1120	 0.644820232142591 
1121	 0.644816570862497 
1122	 0.644783062141245 
1123	 0.644736773176425 
1124	 0.644683956676475 
1125	 0.644662189720989 
1126	 0.644628578210249 
1127	 0.644565651728438 
1128	 0.644495082686397 
1129	 0.644441612438368 
1130	 0.64437710042526 
1131	 0.644270379719474 
1132	 0.644154303834053 
1133	 0.6440384134044 
1134	 0.643937097971313 
1135	 0.643802325425106 
1136	 0.643663857854367 
1137	 0.643520377780744 
1138	 0.643332851400216 
1139	 0.643153719873995 
1140	 0.642973172072065 
1141	 0.642842902267514 
1142	 0.642668246759271 
1143	 0.642502994842218 
1144	 0.642359564552245 
1145	 0.64215071938604 
1146	 0.641927764948761 
1147	 0.641711152917197 
1148	 0.641460665550304 
1149	 0.641215549558345 
1150	 0.640982806646149 
1151	 0.640770508623746 
1152	 0.640550960386706 
1153	 0.640347316673273 
1154	 0.640129912591928 
1155	 0.639906901475076 
1156	 0.639665572163871 
1157	 0.639422811073719 
1158	 0.639168412838111 
1159	 0.638881030860994 
1160	 0.638625867593675 
1161	 0.638374029757368 
1162	 0.638095410650674 
1163	 0.637856758755774 
1164	 0.637591959004139 
1165	 0.637297801319218 
1166	 0.637045625082064 
1167	 0.636771833515541 
1168	 0.63649660013694 
1169	 0.636239805075822 
1170	 0.635979626676127 
1171	 0.635755921727529 
1172	 0.635560722250833 
1173	 0.635366144968242 
1174	 0.635183243798906 
1175	 0.635033487799636 
1176	 0.634913492490919 
1177	 0.634781315010694 
1178	 0.634660981560894 
1179	 0.634564792103042 
1180	 0.634468990590413 
1181	 0.634338181548457 
1182	 0.634211204667246 
1183	 0.634076183152618 
1184	 0.633896992964561 
1185	 0.633705568679162 
1186	 0.633551340267368 
1187	 0.633407345916475 
1188	 0.63328964429889 
1189	 0.63319335812922 
1190	 0.633112782704161 
1191	 0.633047477618626 
1192	 0.633000041162532 
1193	 0.632966233167 
1194	 0.63296187836727 
1195	 0.633002406547613 
1196	 0.633022806938419 
1197	 0.63305594523359 
1198	 0.633086403583993 
1199	 0.633106871084028 
1200	 0.633124590510206 
1201	 0.633148089462326 
1202	 0.633173594244698 
1203	 0.633167429395664 
1204	 0.633164275096961 
1205	 0.633193526158899 
1206	 0.63322555493906 
1207	 0.633284395439149 
1208	 0.633386528238614 
1209	 0.633473281775917 
1210	 0.633550295700026 
1211	 0.633658517223211 
1212	 0.633769120744371 
1213	 0.633916987727141 
1214	 0.634100519105117 
1215	 0.634298461090487 
1216	 0.634511638044166 
1217	 0.634752643219785 
1218	 0.635009043997042 
1219	 0.635301729655704 
1220	 0.635617061922491 
1221	 0.635978160522842 
1222	 0.636359162545826 
1223	 0.636738594386133 
1224	 0.637109519187172 
1225	 0.637491940198432 
1226	 0.637849084033018 
1227	 0.638188592764932 
1228	 0.63853001530909 
1229	 0.638861504300464 
1230	 0.639192817996588 
1231	 0.639546818670996 
1232	 0.639849719852847 
1233	 0.640121708207469 
1234	 0.640392698795832 
1235	 0.640635750385691 
1236	 0.640868676476194 
1237	 0.641094029029972 
1238	 0.641313990265308 
1239	 0.641508826010687 
1240	 0.641712271587391 
1241	 0.641921562664904 
1242	 0.642109390483125 
1243	 0.642288560762265 
1244	 0.64245390116868 
1245	 0.642613608805409 
1246	 0.642766034032746 
1247	 0.64291051833653 
1248	 0.643040219303923 
1249	 0.643176766555354 
1250	 0.643312825590455 
1251	 0.64343488805642 
1252	 0.643573644350454 
1253	 0.643669852832674 
1254	 0.643736295569447 
1255	 0.643794614388402 
1256	 0.643834819774391 
1257	 0.643851898816381 
1258	 0.643842085511821 
1259	 0.643833178011662 
1260	 0.643782730117853 
1261	 0.643763372670848 
1262	 0.643765038261259 
1263	 0.643767371161101 
1264	 0.643759274018881 
1265	 0.643750905206718 
1266	 0.643757075162429 
1267	 0.643761675847168 
1268	 0.643765985770241 
1269	 0.643788102418006 
1270	 0.643801609178154 
1271	 0.643793620132834 
1272	 0.643810727673994 
1273	 0.643855063663167 
1274	 0.643878986529776 
1275	 0.643875207400525 
1276	 0.643919702438755 
1277	 0.643988399674726 
1278	 0.644048730227806 
1279	 0.644138941418771 
1280	 0.644223891053116 
1281	 0.644282591459155 
1282	 0.644367298986376 
1283	 0.644467007876587 
1284	 0.644584557507649 
1285	 0.644716767031384 
1286	 0.644863915510088 
1287	 0.645012269050536 
1288	 0.645185211500214 
1289	 0.645334318058671 
1290	 0.645476363189313 
1291	 0.645616910351158 
1292	 0.645751558028536 
1293	 0.64588498729585 
1294	 0.646014238624369 
1295	 0.646144835361677 
1296	 0.646274886562894 
1297	 0.646400751936699 
1298	 0.646531723461345 
1299	 0.646648116114487 
1300	 0.646752898969864 
1301	 0.646857483020346 
1302	 0.646958505862303 
1303	 0.647049981168931 
1304	 0.647151170683129 
1305	 0.647222431647643 
1306	 0.64727565282924 
1307	 0.647313137040014 
1308	 0.647318529438365 
1309	 0.647330115977925 
1310	 0.647321304058402 
1311	 0.64728469589427 
1312	 0.647288520952391 
1313	 0.647291686859738 
1314	 0.647311618369115 
1315	 0.647381160323054 
1316	 0.647385698834509 
1317	 0.647369152904699 
1318	 0.647345202263112 
1319	 0.647289634868193 
1320	 0.647240526301626 
1321	 0.647196217962239 
1322	 0.647133428472289 
1323	 0.647057292106992 
1324	 0.646973919201935 
1325	 0.646873030868489 
1326	 0.646779492801245 
1327	 0.646676171159814 
1328	 0.646581925779204 
1329	 0.646509860335915 
1330	 0.646411986058159 
1331	 0.646316350468724 
1332	 0.64619756693867 
1333	 0.646068487697304 
1334	 0.645897821992158 
1335	 0.645736800811251 
1336	 0.645569515344012 
1337	 0.645376903398153 
1338	 0.64517357129018 
1339	 0.644953886323512 
1340	 0.644700377676616 
1341	 0.644469140505901 
1342	 0.644235980756289 
1343	 0.644003534985186 
1344	 0.643788308669467 
1345	 0.643541106700988 
1346	 0.64328083142672 
1347	 0.643013450890871 
1348	 0.642744141561539 
1349	 0.642437462060465 
1350	 0.642115852769438 
1351	 0.641768765365537 
1352	 0.641380668485223 
1353	 0.640987325723628 
1354	 0.64057844503337 
1355	 0.640163781869807 
1356	 0.639728956791265 
1357	 0.639294036473501 
1358	 0.63883083243268 
1359	 0.638398765652811 
1360	 0.637971759032387 
1361	 0.637561544584356 
1362	 0.637152464351392 
1363	 0.636799822231662 
1364	 0.636465507490436 
1365	 0.636157267350899 
1366	 0.635850390022473 
1367	 0.635579483422273 
1368	 0.635295231532407 
1369	 0.635014688689948 
1370	 0.634716413331047 
1371	 0.634436302856795 
1372	 0.63411175479061 
1373	 0.633765597482839 
1374	 0.633384744821432 
1375	 0.633002339978739 
1376	 0.632533237696008 
1377	 0.631998395590635 
1378	 0.631437107053985 
1379	 0.630789508121836 
1380	 0.630161905578797 
1381	 0.629509076045732 
1382	 0.628858657883283 
1383	 0.628168238080664 
1384	 0.627532522892385 
1385	 0.626937502540184 
1386	 0.626330771908759 
1387	 0.625781676743931 
1388	 0.625195166715153 
1389	 0.624598794843432 
1390	 0.623973978642636 
1391	 0.623355465578784 
1392	 0.622668715187691 
1393	 0.62197247713475 
1394	 0.621230692172923 
1395	 0.620481191288584 
1396	 0.619690845631395 
1397	 0.618941692020813 
1398	 0.618208251716346 
1399	 0.617430986114541 
1400	 0.616677918206978 
1401	 0.615836531247517 
1402	 0.614964709093529 
1403	 0.613989478547045 
1404	 0.612994983296165 
1405	 0.61184357553404 
1406	 0.610583515215563 
1407	 0.609221686911884 
1408	 0.607664650875549 
1409	 0.606181333839236 
1410	 0.604492047540414 
1411	 0.603115349512636 
1412	 0.601714728594217 
1413	 0.600712064074671 
1414	 0.599923744100737 
1415	 0.599448727235262 
1416	 0.599384595747737 
1417	 0.599375670464393 
1418	 0.599735408196097 
1419	 0.599975253418761 
1420	 0.600340750707298 
1421	 0.600573528003675 
1422	 0.600774294954803 
1423	 0.600876600396434 
1424	 0.600873546029005 
1425	 0.600815245284251 
1426	 0.60070999809449 
1427	 0.600542934219165 
1428	 0.600360617641157 
1429	 0.600174979747627 
1430	 0.599983510830986 
1431	 0.59976675744529 
1432	 0.599573808174684 
1433	 0.599384702080632 
1434	 0.59920189992956 
1435	 0.599023759908963 
1436	 0.598854663345148 
1437	 0.598694858972646 
1438	 0.5985347637102 
1439	 0.598378570054592 
1440	 0.598229591268679 
1441	 0.5980861549725 
1442	 0.597940647015173 
1443	 0.59780720282296 
1444	 0.597660203998216 
1445	 0.597493091159277 
1446	 0.597353690685233 
1447	 0.597212088550661 
1448	 0.597094591426105 
1449	 0.597011265402385 
1450	 0.596913413824311 
1451	 0.596823365029634 
1452	 0.596729682485982 
1453	 0.596621144234922 
1454	 0.596534249407795 
1455	 0.596460660542474 
1456	 0.596387921665357 
1457	 0.596337808753909 
1458	 0.596268544536396 
1459	 0.596192327949854 
1460	 0.596111288990218 
1461	 0.59603000024619 
1462	 0.595930452486729 
1463	 0.595812121181886 
1464	 0.595697487669684 
1465	 0.595572286285263 
1466	 0.595437433604609 
1467	 0.595313940262609 
1468	 0.595195840408403 
1469	 0.59510689777202 
1470	 0.595029632772495 
1471	 0.594956418824043 
1472	 0.594919156861228 
1473	 0.59483489919137 
1474	 0.594737737147593 
1475	 0.59461969694099 
1476	 0.594470571152726 
1477	 0.594344171177908 
1478	 0.594219147708643 
1479	 0.594074565556979 
1480	 0.593944870940042 
1481	 0.59376661383227 
1482	 0.593547802421422 
1483	 0.593329101699361 
1484	 0.593093079723011 
1485	 0.592843895285455 
1486	 0.592569319578816 
1487	 0.592314806676197 
1488	 0.592045569275852 
1489	 0.591797225394258 
1490	 0.591564388084248 
1491	 0.591338477668743 
1492	 0.591109777880377 
1493	 0.590912056352156 
1494	 0.59073618162398 
1495	 0.590573059047699 
1496	 0.590424325417372 
1497	 0.590301136384332 
1498	 0.590183830148597 
1499	 0.590108711216512 
1500	 0.590057363319907 
1501	 0.590052899433236 
1502	 0.590088861736164 
1503	 0.590159606299653 
1504	 0.590258597695331 
1505	 0.590416595386003 
1506	 0.590628074700762 
1507	 0.590869056731378 
1508	 0.591177896750976 
1509	 0.591492679494284 
1510	 0.591855602261237 
1511	 0.592189416641159 
1512	 0.592546025994432 
1513	 0.59286817273988 
1514	 0.593156245410855 
1515	 0.593439247363236 
1516	 0.593703323163018 
1517	 0.593960546456258 
1518	 0.594209187373332 
1519	 0.594446356405075 
1520	 0.59466215819695 
1521	 0.594880508612708 
1522	 0.595111724412754 
1523	 0.595358554266675 
1524	 0.595610206481702 
1525	 0.595885581653233 
1526	 0.59614919334325 
1527	 0.596409262794866 
1528	 0.596670183131656 
1529	 0.596937052489438 
1530	 0.597196304132845 
1531	 0.597445257122605 
1532	 0.597713502011455 
1533	 0.597985795589136 
1534	 0.598266832380373 
1535	 0.598561162601449 
1536	 0.598850094488705 
1537	 0.599147456395415 
1538	 0.599428981693689 
1539	 0.599707012091153 
1540	 0.599980398584913 
1541	 0.600241699194078 
1542	 0.600508192698466 
1543	 0.600785089398966 
1544	 0.601032793549256 
1545	 0.601265301961992 
1546	 0.601497455600049 
1547	 0.601725523640267 
1548	 0.60192176535472 
1549	 0.602110621015297 
1550	 0.602276169120938 
1551	 0.602399968477478 
1552	 0.602532505110098 
1553	 0.602664935952862 
1554	 0.602778913378153 
1555	 0.602868163356986 
1556	 0.602973188042264 
1557	 0.603074697281476 
1558	 0.603176594347526 
1559	 0.603301204849245 
1560	 0.603385399814763 
1561	 0.603440478905692 
1562	 0.60350650438236 
1563	 0.60354016972307 
1564	 0.603612306522192 
1565	 0.603714354521451 
1566	 0.603802302381952 
1567	 0.603891534512426 
1568	 0.603995041359523 
1569	 0.604105804497691 
1570	 0.604210204733911 
1571	 0.604332332221558 
1572	 0.604438698488667 
1573	 0.604508603289833 
1574	 0.604621810328287 
1575	 0.604768339892553 
1576	 0.604889998175095 
1577	 0.605016189958557 
1578	 0.605148294115376 
1579	 0.605253443743602 
1580	 0.605391873066209 
1581	 0.605582794987661 
1582	 0.605729838309958 
1583	 0.605868908290733 
1584	 0.605998801418888 
1585	 0.606089470559444 
1586	 0.606209350091953 
1587	 0.606348866424069 
1588	 0.606473735112319 
1589	 0.606595048643359 
1590	 0.60672605729261 
1591	 0.606853971087945 
1592	 0.606984168474423 
1593	 0.607125550512609 
1594	 0.607266859830358 
1595	 0.60740677058641 
1596	 0.607544519529502 
1597	 0.607686046277574 
1598	 0.607826718085682 
1599	 0.607952656798858 
1600	 0.608097400924541 
1601	 0.608266438408915 
1602	 0.608417602139593 
1603	 0.608576885037096 
1604	 0.608717212343932 
1605	 0.608820175632243 
1606	 0.608954017318764 
1607	 0.60910860083549 
1608	 0.609241239391317 
1609	 0.609384210467546 
1610	 0.60951191011788 
1611	 0.609613776939225 
1612	 0.609716043171703 
1613	 0.609820970732345 
1614	 0.609912036711124 
1615	 0.609981680847722 
1616	 0.610060258027946 
1617	 0.610139278367784 
1618	 0.61021414995961 
1619	 0.610289191729095 
1620	 0.610363197236739 
1621	 0.610436030838195 
1622	 0.61050269463031 
1623	 0.610567374356625 
1624	 0.610628074623373 
1625	 0.610677092109726 
1626	 0.61073187143611 
1627	 0.610794935997486 
1628	 0.61084568373938 
1629	 0.610892852188589 
1630	 0.610933788681708 
1631	 0.610964066198038 
1632	 0.610995187593431 
1633	 0.611016872568267 
1634	 0.611047874286876 
1635	 0.611081583323437 
1636	 0.611113856411724 
1637	 0.611163938672043 
1638	 0.611192446053911 
1639	 0.61120112754664 
1640	 0.611220119290738 
1641	 0.611226955642535 
1642	 0.611244764025844 
1643	 0.611302804080852 
1644	 0.611307472943232 
1645	 0.611293787179494 
1646	 0.611254923148425 
1647	 0.611154640561883 
1648	 0.611082252055506 
1649	 0.61102095987451 
1650	 0.610942767366589 
1651	 0.610867968893745 
1652	 0.610774665344861 
1653	 0.610666504179067 
1654	 0.610539428397301 
1655	 0.610397316543813 
1656	 0.61024667014892 
1657	 0.610092098974771 
1658	 0.609889873055157 
1659	 0.609663971268272 
1660	 0.609418855251783 
1661	 0.609140263580296 
1662	 0.608835308262479 
1663	 0.608505169105702 
1664	 0.608154343928053 
1665	 0.607766824905385 
1666	 0.607360671773651 
1667	 0.606956018062347 
1668	 0.606506874498799 
1669	 0.606044837826692 
1670	 0.605500703482721 
1671	 0.604897449363857 
1672	 0.604250153283762 
1673	 0.603528541487828 
1674	 0.602773491516941 
1675	 0.601977468110569 
1676	 0.601165741648344 
1677	 0.600309025143408 
1678	 0.599437728061799 
1679	 0.598547018518503 
1680	 0.597623398327103 
1681	 0.596672702846511 
1682	 0.595682042975984 
1683	 0.594657524368687 
1684	 0.593629198799979 
1685	 0.592541431576409 
1686	 0.591500214217185 
1687	 0.590467738686857 
1688	 0.589430722548628 
1689	 0.588396815832332 
1690	 0.587385319369257 
1691	 0.586364852548033 
1692	 0.585423163278191 
1693	 0.584553176589627 
1694	 0.583645021784712 
1695	 0.582770891144286 
1696	 0.581853905440023 
1697	 0.580892564324 
1698	 0.579953207221794 
1699	 0.57904041719466 
1700	 0.578105485478143 
1701	 0.577177578411398 
1702	 0.57619388962202 
1703	 0.575160892091146 
1704	 0.574116176815224 
1705	 0.573014168312061 
1706	 0.571927777787241 
1707	 0.570939743438457 
1708	 0.569945915678233 
1709	 0.569006413160043 
1710	 0.568132306884034 
1711	 0.567213874844158 
1712	 0.566356579271111 
1713	 0.56549112244824 
1714	 0.564622296545721 
1715	 0.563820169596054 
1716	 0.562972502138475 
1717	 0.562148910473136 
1718	 0.561323109325589 
1719	 0.560423264146972 
1720	 0.559552373530957 
1721	 0.558702818253178 
1722	 0.557876666513628 
1723	 0.557166323556789 
1724	 0.556522084497403 
1725	 0.555974542722472 
1726	 0.555562750991003 
1727	 0.555262116173232 
1728	 0.555139258576223 
1729	 0.555228779034521 
1730	 0.555515402612284 
1731	 0.555953954177625 
1732	 0.556574219391784 
1733	 0.557274243069504 
1734	 0.558084881658028 
1735	 0.559021528614135 
1736	 0.559965280803009 
1737	 0.56093495076167 
1738	 0.561855839906128 
1739	 0.562681902430794 
1740	 0.563469412765061 
1741	 0.564162154676388 
1742	 0.564798213866273 
1743	 0.565324514730244 
1744	 0.565747824337379 
1745	 0.56609169277811 
1746	 0.566311510369536 
1747	 0.566476525378366 
1748	 0.566558108566597 
1749	 0.566605065773821 
1750	 0.566595006108678 
1751	 0.566536558674314 
1752	 0.566420213076787 
1753	 0.566274483705531 
1754	 0.566043526852867 
1755	 0.5658545634661 
1756	 0.565635571971009 
1757	 0.565467238152095 
1758	 0.565342476165061 
1759	 0.565235543597392 
1760	 0.565204561536837 
1761	 0.565232465584572 
1762	 0.565321389033014 
1763	 0.565525125437701 
1764	 0.565771801648566 
1765	 0.566127040583464 
1766	 0.566607106521586 
1767	 0.567137393134905 
1768	 0.567752744708512 
1769	 0.568383581856938 
1770	 0.568975131670264 
1771	 0.569595865762331 
1772	 0.570228323868962 
1773	 0.570865467955217 
1774	 0.571491943580266 
1775	 0.57203473674749 
1776	 0.572551174064709 
1777	 0.573041960276998 
1778	 0.573453430921907 
1779	 0.573867385829784 
1780	 0.57424046193034 
1781	 0.57451068460267 
1782	 0.574772924557632 
1783	 0.575002011242723 
1784	 0.575202642656262 
1785	 0.575390750746363 
1786	 0.575570516168514 
1787	 0.575755219523342 
1788	 0.575904005356941 
1789	 0.576030967224815 
1790	 0.576170471386535 
1791	 0.576290340232236 
1792	 0.576393982767565 
1793	 0.576492863875518 
1794	 0.576573389362179 
1795	 0.576618917167767 
1796	 0.576624901114225 
1797	 0.576657897735978 
1798	 0.576684653281221 
1799	 0.576712854389239 
1800	 0.576777260366642 
1801	 0.570753061354285 
1802	 0.571056127709081 
1803	 0.571414999433515 
1804	 0.571873764069354 
1805	 0.572395774862326 
1806	 0.572878723044734 
1807	 0.573427173835761 
1808	 0.57390744975212 
1809	 0.574393195649123 
1810	 0.574799583833547 
1811	 0.575193732419331 
1812	 0.575514958662064 
1813	 0.575745990387377 
1814	 0.575972971933302 
1815	 0.576160199858881 
1816	 0.57631127206528 
1817	 0.57645864556706 
1818	 0.576583855900859 
1819	 0.576702008725881 
1820	 0.576786211370466 
1821	 0.576897778672793 
1822	 0.577023403842736 
1823	 0.577121666121854 
1824	 0.57723001149474 
1825	 0.577365150643668 
1826	 0.57750682724737 
1827	 0.577659148233358 
1828	 0.577804431090035 
1829	 0.57798864917729 
1830	 0.578115662372556 
1831	 0.578206908046066 
1832	 0.578302053166639 
1833	 0.578383626005257 
1834	 0.578449705642826 
1835	 0.578519969520671 
1836	 0.578609583801129 
1837	 0.578704394333467 
1838	 0.578790981625123 
1839	 0.578905961357861 
1840	 0.579052949077126 
1841	 0.579178259046317 
1842	 0.57929154856093 
1843	 0.57944568179712 
1844	 0.579596924706957 
1845	 0.579748335916256 
1846	 0.579919368576408 
1847	 0.58005510975718 
1848	 0.580177927252466 
1849	 0.580268653665962 
1850	 0.580372470415882 
1851	 0.580463414985864 
1852	 0.580577661415435 
1853	 0.580687350489294 
1854	 0.580772728817935 
1855	 0.580823783119526 
1856	 0.580819224490947 
1857	 0.580762706603769 
1858	 0.580697486722519 
1859	 0.580606785754893 
1860	 0.580492932522839 
1861	 0.5803497919771 
1862	 0.580200411968032 
1863	 0.579986979104728 
1864	 0.579734696419081 
1865	 0.579442558703251 
1866	 0.579048367308835 
1867	 0.578585921004571 
1868	 0.578056169795603 
1869	 0.577469833081358 
1870	 0.576856539400439 
1871	 0.576185499337961 
1872	 0.575522096739723 
1873	 0.574823941586358 
1874	 0.574123989652923 
1875	 0.57346347343315 
1876	 0.572772472072847 
1877	 0.572138294579605 
1878	 0.571423216241348 
1879	 0.57063127337537 
1880	 0.569857012581589 
1881	 0.568971430592945 
1882	 0.567998298971588 
1883	 0.56697950087968 
1884	 0.565837212822592 
1885	 0.564502582980101 
1886	 0.563109454665459 
1887	 0.561567607571523 
1888	 0.559892580089863 
1889	 0.558255944171725 
1890	 0.55646384552146 
1891	 0.554624216521987 
1892	 0.552745973030703 
1893	 0.550703287041755 
1894	 0.548494661801257 
1895	 0.546301461303368 
1896	 0.543940956055313 
1897	 0.541475738310554 
1898	 0.539201239823398 
1899	 0.536764610526133 
1900	 0.534341519561883 
1901	 0.531973222776796 
1902	 0.529358935866277 
1903	 0.526833460740768 
1904	 0.524350635031843 
1905	 0.521846882863063 
1906	 0.519384239467404 
1907	 0.517199171385598 
1908	 0.514974245615177 
1909	 0.512825051267002 
1910	 0.510797700763612 
1911	 0.508608581850643 
1912	 0.506530458198897 
1913	 0.504487880902166 
1914	 0.502393239428071 
1915	 0.500452357333964 
1916	 0.498655116845048 
1917	 0.496812992698745 
1918	 0.495035548023032 
1919	 0.493371973334315 
1920	 0.491597020121125 
1921	 0.489957497638224 
1922	 0.488358403319407 
1923	 0.486747239995415 
1924	 0.485345645440179 
1925	 0.483965785982799 
1926	 0.482653077576616 
1927	 0.481458423491184 
1928	 0.48027527436358 
1929	 0.479106276604377 
1930	 0.478035655005944 
1931	 0.477016362084062 
1932	 0.476039266368945 
1933	 0.475198112276612 
1934	 0.474396783969871 
1935	 0.473673561640201 
1936	 0.473033500525609 
1937	 0.4724303465243 
1938	 0.471879676794008 
1939	 0.471405072711257 
1940	 0.470984582849436 
1941	 0.470617998887462 
1942	 0.470349760148412 
1943	 0.470152100051787 
1944	 0.470009591783112 
1945	 0.469951669596414 
1946	 0.469993582732283 
1947	 0.470057576066771 
1948	 0.470170573234888 
1949	 0.470334672181983 
1950	 0.470532639948947 
1951	 0.470762626902875 
1952	 0.471042569047717 
1953	 0.471364224709284 
1954	 0.471738601336763 
1955	 0.472166642783361 
1956	 0.472568763212704 
1957	 0.473017872508932 
1958	 0.473500475414385 
1959	 0.473965022973414 
1960	 0.474484139368412 
1961	 0.475011352070096 
1962	 0.475549104637273 
1963	 0.476118725029834 
1964	 0.47672957673314 
1965	 0.477327111669875 
1966	 0.477955162398271 
1967	 0.478573562293909 
1968	 0.47913655727718 
1969	 0.479700004554465 
1970	 0.480247267678711 
1971	 0.480784037668789 
1972	 0.481360718092536 
1973	 0.481893182779536 
1974	 0.482444932417424 
1975	 0.483003056598884 
1976	 0.483561855837841 
1977	 0.484117826579 
1978	 0.484698982989948 
1979	 0.485293990580451 
1980	 0.485869311502637 
1981	 0.486505637788873 
1982	 0.4871070982525 
1983	 0.487724833619331 
1984	 0.488373149653811 
1985	 0.48897978318925 
1986	 0.489622909551372 
1987	 0.490253173650338 
1988	 0.490875093226281 
1989	 0.491506299085043 
1990	 0.49214050690939 
1991	 0.492768712359312 
1992	 0.493405200991006 
1993	 0.494046125921096 
1994	 0.494643460015566 
1995	 0.495262272185356 
1996	 0.495833538603934 
1997	 0.496371729483697 
1998	 0.496948967512423 
1999	 0.497529009241919 
2000	 0.49810658890783 
2001	 0.498720612956871 
2002	 0.499296275439202 
2003	 0.499849233413961 
2004	 0.50039480468544 
2005	 0.500915945755255 
2006	 0.50144539454832 
2007	 0.501985713312418 
2008	 0.502492192686848 
2009	 0.502989272655305 
2010	 0.503501932133323 
2011	 0.503938713713854 
2012	 0.504363021613271 
2013	 0.50477906169366 
2014	 0.50518079006822 
2015	 0.505552222244986 
2016	 0.505938022063181 
2017	 0.50623891238306 
2018	 0.506495851210785 
2019	 0.506702907731595 
2020	 0.506834553420991 
2021	 0.506946484908391 
2022	 0.507059819862226 
2023	 0.507104142735986 
2024	 0.507114667261075 
2025	 0.507094874099467 
2026	 0.506995140127481 
2027	 0.506805451291557 
2028	 0.506609062197196 
2029	 0.506363533705388 
2030	 0.506084305746082 
2031	 0.505763416243022 
2032	 0.505425991437609 
2033	 0.505031299782284 
2034	 0.504649205002479 
2035	 0.50424618517275 
2036	 0.503844614119901 
2037	 0.503479659524674 
2038	 0.503108853404118 
2039	 0.502770530482011 
2040	 0.502454974120675 
2041	 0.502174728586368 
2042	 0.50188109386 
2043	 0.501696496510215 
2044	 0.501570062285618 
2045	 0.501508502218095 
2046	 0.501544077154297 
2047	 0.501600665436788 
2048	 0.501696192569153 
2049	 0.501847397528647 
2050	 0.502080638671368 
2051	 0.50229220013131 
2052	 0.502550721840818 
2053	 0.502874733557634 
2054	 0.503209109437408 
2055	 0.503557815049969 
2056	 0.503959908657055 
2057	 0.504388925578704 
2058	 0.504885892259879 
2059	 0.505430264345027 
2060	 0.506018481225527 
2061	 0.506716823181429 
2062	 0.507369252637843 
2063	 0.508013344814542 
2064	 0.508706392278324 
2065	 0.509413987963762 
2066	 0.510122522266741 
2067	 0.51092952213236 
2068	 0.511713647172721 
2069	 0.512507791090173 
2070	 0.51333971829842 
2071	 0.514114508965245 
2072	 0.514880223629139 
2073	 0.515615492175189 
2074	 0.516285625026133 
2075	 0.517000763891716 
2076	 0.517739731454109 
2077	 0.518436834893473 
2078	 0.519176950091293 
2079	 0.519827928160614 
2080	 0.520402737706994 
2081	 0.520962227295934 
2082	 0.521476412694655 
2083	 0.521940315340912 
2084	 0.52243871792783 
2085	 0.522917638181907 
2086	 0.523388727800587 
2087	 0.523885633209657 
2088	 0.524307056627052 
2089	 0.524690075750711 
2090	 0.525049634153364 
2091	 0.525346543651123 
2092	 0.525660127542107 
2093	 0.525970809062466 
2094	 0.526248117777378 
2095	 0.526521919172481 
2096	 0.526760711569954 
2097	 0.526958349913225 
2098	 0.527144016629945 
2099	 0.527311793625466 
2100	 0.527437021750462 
2101	 0.527559984641799 
2102	 0.527661404258764 
2103	 0.527749357028645 
2104	 0.527824652391708 
2105	 0.527886467476153 
2106	 0.52792724272044 
2107	 0.527962192638422 
2108	 0.527985790221686 
2109	 0.5279949012962 
2110	 0.527985046302303 
2111	 0.527976794213936 
2112	 0.527965180528248 
2113	 0.527940069820505 
2114	 0.527908636487932 
2115	 0.527866543352689 
2116	 0.527810613818236 
2117	 0.527745222860142 
2118	 0.527666314259625 
2119	 0.527586616456374 
2120	 0.527473900356329 
2121	 0.527324366644385 
2122	 0.527190538461687 
2123	 0.527058358757279 
2124	 0.526890093235128 
2125	 0.526713964673235 
2126	 0.5265242446276 
2127	 0.526305553149778 
2128	 0.526067325675444 
2129	 0.525829634420635 
2130	 0.525557703403342 
2131	 0.525266831007896 
2132	 0.524927980895919 
2133	 0.524584600210588 
2134	 0.524167755607626 
2135	 0.523646056949408 
2136	 0.523105876652034 
2137	 0.522484741661853 
2138	 0.521764043739219 
2139	 0.521045021943569 
2140	 0.520275277606333 
2141	 0.519487996253995 
2142	 0.518668822222341 
2143	 0.517841693671331 
2144	 0.516989562263227 
2145	 0.516124578224588 
2146	 0.515210083987882 
2147	 0.514341405477482 
2148	 0.513483291855783 
2149	 0.5126170723907 
2150	 0.511801383417868 
2151	 0.510939244281604 
2152	 0.510032911019542 
2153	 0.509141260179938 
2154	 0.508220644623867 
2155	 0.507259758544622 
2156	 0.506321469041345 
2157	 0.505382271570545 
2158	 0.504408109160801 
2159	 0.503458676749283 
2160	 0.502412021344332 
2161	 0.501280704222435 
2162	 0.500185698676802 
2163	 0.498992762153691 
2164	 0.497925742199693 
2165	 0.496918406733147 
2166	 0.495925566643876 
2167	 0.495013847613529 
2168	 0.494077874692608 
2169	 0.493101726459029 
2170	 0.49221847331458 
2171	 0.491319043937328 
2172	 0.49054511812872 
2173	 0.48990422886866 
2174	 0.489274884283612 
2175	 0.488737940636282 
2176	 0.488290164880301 
2177	 0.48780726247755 
2178	 0.487341089871199 
2179	 0.486939179450995 
2180	 0.486531861650158 
2181	 0.486230772483205 
2182	 0.486047046299355 
2183	 0.485818969176885 
2184	 0.485621579379099 
2185	 0.485455989986215 
2186	 0.485276069319821 
2187	 0.485175069840449 
2188	 0.485143123472546 
2189	 0.485140453040975 
2190	 0.485223447794077 
2191	 0.485266492473549 
2192	 0.485319348475543 
2193	 0.485384865363816 
2194	 0.485460689116139 
2195	 0.485517989788983 
2196	 0.485584606197116 
2197	 0.485659512921026 
2198	 0.485699433043668 
2199	 0.485681717621188 
2200	 0.485697869796382 
2201	 0.485717801420658 
2202	 0.485731439573994 
2203	 0.485744135335719 
2204	 0.48575446409029 
2205	 0.485769576012843 
2206	 0.485754332646266 
2207	 0.485711562670318 
2208	 0.485697673525348 
2209	 0.485690261547376 
2210	 0.485656380928608 
2211	 0.485631493504498 
2212	 0.485589003761383 
2213	 0.485479566450106 
2214	 0.485436862821373 
2215	 0.485411532244924 
2216	 0.485425769075706 
2217	 0.485493528759172 
2218	 0.485553678567342 
2219	 0.485661028721053 
2220	 0.485737079332382 
2221	 0.485799976886977 
2222	 0.48586525722012 
2223	 0.4859251236844 
2224	 0.485929611443601 
2225	 0.485911189342856 
2226	 0.485834860842245 
2227	 0.485705872440398 
2228	 0.485523956469783 
2229	 0.485286282393563 
2230	 0.484988407538584 
2231	 0.484654575567963 
2232	 0.484280861115979 
2233	 0.483817838698228 
2234	 0.483317351704948 
2235	 0.482709735046966 
2236	 0.481985229892292 
2237	 0.481234270413331 
2238	 0.480388649819678 
2239	 0.479529408309174 
2240	 0.478683776121068 
2241	 0.477685555321192 
2242	 0.47661410312965 
2243	 0.475459212609084 
2244	 0.474171231469809 
2245	 0.472837067448752 
2246	 0.471411712978404 
2247	 0.469964479100952 
2248	 0.468456265095135 
2249	 0.466889639054543 
2250	 0.465295699656471 
2251	 0.463674579532764 
2252	 0.46182467878923 
2253	 0.460025914104188 
2254	 0.458110628317291 
2255	 0.456076911637447 
2256	 0.454288635482497 
2257	 0.452468593550102 
2258	 0.450724396817836 
2259	 0.449137671825259 
2260	 0.447430539460153 
2261	 0.445669744070777 
2262	 0.443974153810568 
2263	 0.442217022244873 
2264	 0.440610600281912 
2265	 0.439116630112916 
2266	 0.437600117257858 
2267	 0.436191823746332 
2268	 0.434716564690484 
2269	 0.433229590981534 
2270	 0.431722422170202 
2271	 0.430180296629467 
2272	 0.428642714601209 
2273	 0.427130605761187 
2274	 0.425528649337196 
2275	 0.423952072939955 
2276	 0.422233449275921 
2277	 0.420331439466731 
2278	 0.418498802313831 
2279	 0.416535078961974 
2280	 0.414702154387703 
2281	 0.412914077689447 
2282	 0.411203825907099 
2283	 0.409538261659645 
2284	 0.408011357470638 
2285	 0.406490343398924 
2286	 0.405156593969728 
2287	 0.403972136208325 
2288	 0.40293463759693 
2289	 0.402114022838632 
2290	 0.401434405643782 
2291	 0.400842156110644 
2292	 0.400300791935679 
2293	 0.399752482017416 
2294	 0.399228748825725 
2295	 0.39864646646886 
2296	 0.398014915628249 
2297	 0.397332364141601 
2298	 0.396625355951865 
2299	 0.39578229828416 
2300	 0.39484952642006 
2301	 0.393847681613844 
2302	 0.392681220917201 
2303	 0.391627991688134 
2304	 0.390442822041615 
2305	 0.389556270181232 
2306	 0.388717371215664 
2307	 0.388191789005623 
2308	 0.387846333580963 
2309	 0.387887364526628 
2310	 0.388174215867014 
2311	 0.38888242537571 
2312	 0.390075937646002 
2313	 0.391419743375657 
2314	 0.393223486260554 
2315	 0.394996572158666 
2316	 0.397037843443553 
2317	 0.398952708594843 
2318	 0.401064027363223 
2319	 0.402790993038972 
2320	 0.404429069389991 
2321	 0.405747168365044 
2322	 0.406729409956288 
2323	 0.407570955867229 
2324	 0.408165284228753 
2325	 0.408610884576058 
2326	 0.408873082878261 
2327	 0.40895387379676 
2328	 0.408771639667214 
2329	 0.408548270697599 
2330	 0.408211205821668 
2331	 0.407683225106335 
2332	 0.407079643845877 
2333	 0.406335135041625 
2334	 0.405297105489321 
2335	 0.404062272494214 
2336	 0.40252912864855 
2337	 0.400791793420333 
2338	 0.398972234832929 
2339	 0.396822769648943 
2340	 0.394649909441957 
2341	 0.39240051389829 
2342	 0.389904251217538 
2343	 0.38757676466454 
2344	 0.385357938734507 
2345	 0.38324717173271 
2346	 0.381539229757964 
2347	 0.380156313687388 
2348	 0.379078386621497 
2349	 0.378477201950131 
2350	 0.378196525950946 
2351	 0.378271444282829 
2352	 0.378663761580176 
2353	 0.379319280474738 
2354	 0.380210628428784 
2355	 0.381201568777174 
2356	 0.382233560574299 
2357	 0.383388759677544 
2358	 0.384845472724438 
2359	 0.386398854437252 
2360	 0.388171931106097 
2361	 0.390212978406271 
2362	 0.392091317687953 
2363	 0.394058998341906 
2364	 0.395956924168255 
2365	 0.397689326815033 
2366	 0.399460821950297 
2367	 0.400965565490333 
2368	 0.402373678540842 
2369	 0.40359661075711 
2370	 0.404490032322046 
2371	 0.405288096924135 
2372	 0.405896750374675 
2373	 0.406388066078974 
2374	 0.406833092178971 
2375	 0.407150570083547 
2376	 0.4074037727787 
2377	 0.40755488676611 
2378	 0.407655291406084 
2379	 0.407747857591245 
2380	 0.407805006583047 
2381	 0.407859217491878 
2382	 0.407917094514416 
2383	 0.407948236913484 
2384	 0.407994362394029 
2385	 0.408057275614399 
2386	 0.408124734699904 
2387	 0.408194260220461 
2388	 0.408258122802765 
2389	 0.408314074836549 
2390	 0.408429011474524 
2391	 0.4085670634066 
2392	 0.408684362183021 
2393	 0.408855220364321 
2394	 0.408975958846164 
2395	 0.409048668900308 
2396	 0.409134480188535 
2397	 0.409222672454212 
2398	 0.409280520743913 
2399	 0.40931862091463 
2400	 0.409333427328675 
2401	 0.409323458804096 
2402	 0.409261438757915 
2403	 0.40926698569412 
2404	 0.409390966327973 
2405	 0.409474518158175 
2406	 0.409578992305815 
2407	 0.409682644160928 
2408	 0.409726230882952 
2409	 0.409829553154155 
2410	 0.409852284740275 
2411	 0.409910091541345 
2412	 0.410002317613072 
2413	 0.410005052149616 
2414	 0.41007225318153 
2415	 0.410162422381824 
2416	 0.410101612025916 
2417	 0.409937524806772 
2418	 0.409937888770458 
2419	 0.40990942234619 
2420	 0.409844870928139 
2421	 0.409832026873175 
2422	 0.409734090125211 
2423	 0.409627469509711 
2424	 0.409481451670352 
2425	 0.409397311274728 
2426	 0.409310197644485 
2427	 0.409130952258795 
2428	 0.409038768835546 
2429	 0.409007306540806 
2430	 0.408943770423302 
2431	 0.408827574392995 
2432	 0.408655349513491 
2433	 0.408375047066861 
2434	 0.408039373686183 
2435	 0.407769319879838 
2436	 0.407508657876708 
2437	 0.407307740501369 
2438	 0.407157928217281 
2439	 0.406905586414715 
2440	 0.406636412149748 
2441	 0.40631672730744 
2442	 0.405771367838001 
2443	 0.405102406000218 
2444	 0.404390185573272 
2445	 0.403698540081782 
2446	 0.403042981202968 
2447	 0.402425448301978 
2448	 0.402025096226646 
2449	 0.401642841627795 
2450	 0.40116153374646 
2451	 0.400615635903445 
2452	 0.399900682919791 
2453	 0.399062520886392 
2454	 0.398247942682122 
2455	 0.39772118137457 
2456	 0.397409237894472 
2457	 0.397001829215552 
2458	 0.396721552569503 
2459	 0.396667470610747 
2460	 0.396376115845289 
2461	 0.395773407055742 
2462	 0.395208473572958 
2463	 0.394759410874614 
2464	 0.394253122997196 
2465	 0.394063082133069 
2466	 0.394030879847765 
2467	 0.393505275083 
2468	 0.392918250703118 
2469	 0.392520754095744 
2470	 0.392054230190679 
2471	 0.391670950606409 
2472	 0.391437231813606 
2473	 0.391258993988 
2474	 0.391228593415991 
2475	 0.391021360840312 
2476	 0.390570870080845 
2477	 0.390256420938341 
2478	 0.389849275571533 
2479	 0.389463019710719 
2480	 0.389684009053753 
2481	 0.389347993056312 
2482	 0.388665799860033 
2483	 0.388441559779794 
2484	 0.388133607245504 
2485	 0.387921772977908 
2486	 0.387572407818472 
2487	 0.387475785642412 
2488	 0.387554062618062 
2489	 0.387711817384934 
2490	 0.387980165411073 
2491	 0.388019772198733 
2492	 0.38772542162598 
2493	 0.387475701910539 
2494	 0.3872637238273 
2495	 0.386681240762165 
2496	 0.386639778548287 
2497	 0.38690001411319 
2498	 0.386798021950621 
2499	 0.38719964441919 
2500	 0.387479332246225 
