Wavelength	spectrum00003.asd
350	 5.17909658282862E-02 
351	 0.050437905675202 
352	 5.00633867413584E-02 
353	 5.04456616337339E-02 
354	 4.97594465454895E-02 
355	 4.93107121223072E-02 
356	 4.86095384427584E-02 
357	 4.71590529585092E-02 
358	 4.54158710080072E-02 
359	 4.44131095715188E-02 
360	 4.44255755379284E-02 
361	 4.51728775911168E-02 
362	 4.61283616014424E-02 
363	 4.54043769662914E-02 
364	 0.043241811991268 
365	 4.26520909984224E-02 
366	 0.04378584373051 
367	 4.41735138494581E-02 
368	 4.24402400082744E-02 
369	 4.27390557558462E-02 
370	 4.42230217458335E-02 
371	 4.50741971849005E-02 
372	 4.35569702562592E-02 
373	 0.043473192984212 
374	 4.40495840561504E-02 
375	 4.43911622983416E-02 
376	 4.42020134115477E-02 
377	 4.43066781482049E-02 
378	 4.43665423559289E-02 
379	 4.39807793167577E-02 
380	 4.35894506365697E-02 
381	 4.35730002352257E-02 
382	 4.35002455597268E-02 
383	 4.27165043593987E-02 
384	 4.34364341140384E-02 
385	 4.43140893771082E-02 
386	 4.42148444474269E-02 
387	 4.29035121460382E-02 
388	 4.22985956438548E-02 
389	 4.28648351072796E-02 
390	 4.40759344354176E-02 
391	 4.37563104103633E-02 
392	 4.32144262829851E-02 
393	 4.30439014995176E-02 
394	 4.31883317519472E-02 
395	 4.26219920621886E-02 
396	 4.24427436180213E-02 
397	 0.043093134996406 
398	 4.35470976076613E-02 
399	 4.37204871738286E-02 
400	 4.35331049132322E-02 
401	 4.30920866839934E-02 
402	 4.30177344213892E-02 
403	 4.31856245002985E-02 
404	 4.32925621888995E-02 
405	 4.30121959588442E-02 
406	 4.32889446127268E-02 
407	 4.33725840850907E-02 
408	 4.30247617039171E-02 
409	 4.35576971573024E-02 
410	 4.32915920647103E-02 
411	 4.29005007555282E-02 
412	 4.34051230333098E-02 
413	 4.35025030180778E-02 
414	 4.32501139038391E-02 
415	 4.30518588136294E-02 
416	 4.34840641522162E-02 
417	 4.35294086357667E-02 
418	 4.36104722467809E-02 
419	 4.39902544366406E-02 
420	 4.39432516451863E-02 
421	 4.38762191024514E-02 
422	 4.39493308320865E-02 
423	 4.41988543680856E-02 
424	 4.45891741487971E-02 
425	 4.48652518495091E-02 
426	 4.49141653961183E-02 
427	 4.47994021519118E-02 
428	 4.49335099882268E-02 
429	 4.52148412681918E-02 
430	 4.54680212847905E-02 
431	 4.56906671418236E-02 
432	 4.60295629325611E-02 
433	 4.63942275574794E-02 
434	 0.046604306676129 
435	 4.69823910197235E-02 
436	 4.73661419016134E-02 
437	 4.76467533476071E-02 
438	 4.78771118692625E-02 
439	 4.81596152543438E-02 
440	 4.84881532128794E-02 
441	 4.88227150529296E-02 
442	 4.91562009313208E-02 
443	 4.94380731962941E-02 
444	 4.96998784989719E-02 
445	 5.00223357477391E-02 
446	 5.01492415073429E-02 
447	 5.02736895101994E-02 
448	 5.05213161897641E-02 
449	 5.07032659267426E-02 
450	 5.09651732498192E-02 
451	 0.051139885128425 
452	 5.10526418983016E-02 
453	 5.12333446821257E-02 
454	 5.13781426566449E-02 
455	 5.13720829327351E-02 
456	 0.051378049813575 
457	 5.16219012490716E-02 
458	 5.17961067486339E-02 
459	 5.16701413056587E-02 
460	 5.15871182165236E-02 
461	 5.16634948117143E-02 
462	 5.18531991582628E-02 
463	 5.20055587767785E-02 
464	 5.20330793818834E-02 
465	 5.20449770234446E-02 
466	 5.20832374803221E-02 
467	 5.20429625722257E-02 
468	 5.20942896069369E-02 
469	 5.21850736758753E-02 
470	 5.22417195971378E-02 
471	 5.24122699985166E-02 
472	 5.25020959112061E-02 
473	 5.24886829371892E-02 
474	 0.052496022834113 
475	 5.25351867403481E-02 
476	 5.26545175457407E-02 
477	 5.28294858215725E-02 
478	 5.28540488019229E-02 
479	 5.30045396527761E-02 
480	 5.32198073514289E-02 
481	 5.33361126957414E-02 
482	 5.34523982571977E-02 
483	 5.36136806453304E-02 
484	 5.38231130310213E-02 
485	 5.40400158248814E-02 
486	 5.42642537571824E-02 
487	 5.44543454089488E-02 
488	 5.45989425009789E-02 
489	 0.054788277463867 
490	 5.50812130791607E-02 
491	 5.54298818107009E-02 
492	 5.57278495485419E-02 
493	 5.59790042477466E-02 
494	 5.62886098767208E-02 
495	 5.66852187987254E-02 
496	 5.70533592666229E-02 
497	 5.74086261353807E-02 
498	 5.77615425624132E-02 
499	 0.058134621579282 
500	 5.86092625224396E-02 
501	 5.90035437737822E-02 
502	 5.93417097425905E-02 
503	 5.98259974627511E-02 
504	 6.03011542184825E-02 
505	 6.07431469292362E-02 
506	 6.11853949833828E-02 
507	 6.17453098427556E-02 
508	 6.23096830935726E-02 
509	 6.28479558838641E-02 
510	 6.33717863704562E-02 
511	 6.38998011446222E-02 
512	 0.064479080685492 
513	 6.51160630176113E-02 
514	 6.57671676246055E-02 
515	 6.63646584772024E-02 
516	 6.69575823417507E-02 
517	 6.76114032278797E-02 
518	 6.83349413198779E-02 
519	 6.90198278169042E-02 
520	 6.96838050842241E-02 
521	 7.04282430260694E-02 
522	 7.12244733502258E-02 
523	 7.20119983909333E-02 
524	 7.27747712404083E-02 
525	 7.35995414487447E-02 
526	 7.43864138409562E-02 
527	 7.51872434450229E-02 
528	 0.076079729056973 
529	 7.69611007550682E-02 
530	 7.78599278945352E-02 
531	 7.87818272724008E-02 
532	 7.96997394940998E-02 
533	 8.06683924434081E-02 
534	 8.16640316246837E-02 
535	 8.26474951541593E-02 
536	 8.35835698970034E-02 
537	 8.45823600651427E-02 
538	 8.56143337936243E-02 
539	 8.65892965019471E-02 
540	 8.76445125540565E-02 
541	 8.87191779433315E-02 
542	 8.97579894224127E-02 
543	 9.07466868067062E-02 
544	 9.17879236947055E-02 
545	 0.092845219410933 
546	 0.093858838359849 
547	 9.48858047510844E-02 
548	 9.58968941169662E-02 
549	 9.68855018724721E-02 
550	 9.78683814655758E-02 
551	 9.88821986489001E-02 
552	 9.99067722727157E-02 
553	 0.100909429679419 
554	 0.101845706322921 
555	 0.102803742621709 
556	 0.103784310811931 
557	 0.104749222313783 
558	 0.105732578404018 
559	 0.106658726997914 
560	 0.107514328213205 
561	 0.108385075963281 
562	 0.109240939011369 
563	 0.11009048573813 
564	 0.110931742557775 
565	 0.111692348946534 
566	 0.112419270000938 
567	 0.113157124374307 
568	 0.113939250232768 
569	 0.114710131866519 
570	 0.115420810027116 
571	 0.116066292950995 
572	 0.116723309470528 
573	 0.117395296012686 
574	 0.118052785731879 
575	 0.118661220805682 
576	 0.119261143891837 
577	 0.119825118922276 
578	 0.120363311646398 
579	 0.120930312343461 
580	 0.121469531035615 
581	 0.121982393505431 
582	 0.122483962668439 
583	 0.122982502500707 
584	 0.123499391748003 
585	 0.124010587105763 
586	 0.124475477919035 
587	 0.124965928816109 
588	 0.125455649613115 
589	 0.125912564076658 
590	 0.126312382626438 
591	 0.126732122726578 
592	 0.127170263104911 
593	 0.127595289218281 
594	 0.127971290737938 
595	 0.12832783457943 
596	 0.128676621107176 
597	 0.129011936025034 
598	 0.129372355243471 
599	 0.129739857277295 
600	 0.130096462705656 
601	 0.130446158947394 
602	 0.13081114326128 
603	 0.131163796360233 
604	 0.131467713369509 
605	 0.1317869377825 
606	 0.132151800080004 
607	 0.132528830341623 
608	 0.132811667389104 
609	 0.133061388491686 
610	 0.133345135957266 
611	 0.133692810199065 
612	 0.13401007797793 
613	 0.134299059805175 
614	 0.134571192975567 
615	 0.134846633319967 
616	 0.135148474046577 
617	 0.135454124845556 
618	 0.13574699256268 
619	 0.136032740811792 
620	 0.13632996474034 
621	 0.136623016392531 
622	 0.136893049168183 
623	 0.137161701267446 
624	 0.137462544902335 
625	 0.137778705947881 
626	 0.138050954850951 
627	 0.138336819890932 
628	 0.138646406280358 
629	 0.138970206570442 
630	 0.139276950018694 
631	 0.139545620944209 
632	 0.139818623642294 
633	 0.140152092350883 
634	 0.140475149682828 
635	 0.14078878441641 
636	 0.141102576481623 
637	 0.141427037861881 
638	 0.141716380234315 
639	 0.142020591417313 
640	 0.142375874356848 
641	 0.142697503971285 
642	 0.142988261556612 
643	 0.143287606835324 
644	 0.143647712484758 
645	 0.144003889794715 
646	 0.144328544380841 
647	 0.144636962875757 
648	 0.145007139756143 
649	 0.145360469054356 
650	 0.14568973277744 
651	 0.146012972345597 
652	 0.14635182941257 
653	 0.146712789497578 
654	 0.147083811394994 
655	 0.147439525153132 
656	 0.147787386644696 
657	 0.148161941744779 
658	 0.148564944623219 
659	 0.148919871053549 
660	 0.149277626476878 
661	 0.149653153396558 
662	 0.150044944801247 
663	 0.15044038128737 
664	 0.150805157764492 
665	 0.15116128172748 
666	 0.151582394190839 
667	 0.151989170058337 
668	 0.152389901935271 
669	 0.152795366571019 
670	 0.153173414253136 
671	 0.15357631460803 
672	 0.153986907037801 
673	 0.154372430262424 
674	 0.154831626234294 
675	 0.155252458820201 
676	 0.155624781351352 
677	 0.15607915890179 
678	 0.156459732900376 
679	 0.156860118662688 
680	 0.157356546546216 
681	 0.157796721251149 
682	 0.158219255517653 
683	 0.158650947345516 
684	 0.159107394292612 
685	 0.159560185197592 
686	 0.159978470681409 
687	 0.160380892178376 
688	 0.160854609022707 
689	 0.161310494574997 
690	 0.161759811772925 
691	 0.162231094354679 
692	 0.162715056157926 
693	 0.163199385042084 
694	 0.163677913691033 
695	 0.164148615123648 
696	 0.164611597562994 
697	 0.165090011151035 
698	 0.165586697552869 
699	 0.166069160155586 
700	 0.166540718559424 
701	 0.167019889580691 
702	 0.167528445293957 
703	 0.168083549738802 
704	 0.168616653417709 
705	 0.169115365421168 
706	 0.169613845039536 
707	 0.170173360114727 
708	 0.170730354902348 
709	 0.171243553106185 
710	 0.171736448529801 
711	 0.172229762888161 
712	 0.172760292190099 
713	 0.173342685684424 
714	 0.173899089222456 
715	 0.174448426282882 
716	 0.174998322573876 
717	 0.175546283526541 
718	 0.176096967801613 
719	 0.176651220017803 
720	 0.177208102482388 
721	 0.177765032242617 
722	 0.17827526371226 
723	 0.178801668058325 
724	 0.17940067062505 
725	 0.179968510917129 
726	 0.180519669291948 
727	 0.181073310925043 
728	 0.181644891052483 
729	 0.18217590520202 
730	 0.182725570887394 
731	 0.18330727618344 
732	 0.183833105743173 
733	 0.184393859543935 
734	 0.184939198684361 
735	 0.185423448239507 
736	 0.18596782463416 
737	 0.186542159415162 
738	 0.187092945322972 
739	 0.187569242223199 
740	 0.188083790098844 
741	 0.188615457356276 
742	 0.189141769414441 
743	 0.189666333267161 
744	 0.190159693225577 
745	 0.190645756774085 
746	 0.191150359364128 
747	 0.191658564240368 
748	 0.192126537592022 
749	 0.19256153819878 
750	 0.192999533982342 
751	 0.193433283925601 
752	 0.193873139183294 
753	 0.194320826103238 
754	 0.194765401388755 
755	 0.195206851609591 
756	 0.195618010722758 
757	 0.195984800922499 
758	 0.19634274207545 
759	 0.196678628095174 
760	 0.19702025417929 
761	 0.197398965507345 
762	 0.197744092411211 
763	 0.198098708466213 
764	 0.19845940193615 
765	 0.198770794840484 
766	 0.199125538575068 
767	 0.199473843171018 
768	 0.199770646378854 
769	 0.200048490907132 
770	 0.200273994302096 
771	 0.200482776712004 
772	 0.200721710030904 
773	 0.200958971984656 
774	 0.201194194274729 
775	 0.20141854317896 
776	 0.201619243180002 
777	 0.201823095768635 
778	 0.202023272716687 
779	 0.20220976191709 
780	 0.202376607637729 
781	 0.202508876068254 
782	 0.202625083894909 
783	 0.202749500737547 
784	 0.202886064281915 
785	 0.203044443063013 
786	 0.203182071151521 
787	 0.203242044456312 
788	 0.203291309855254 
789	 0.20335195536927 
790	 0.203433214036362 
791	 0.203532240176 
792	 0.203607874188347 
793	 0.203625677038803 
794	 0.203603486777211 
795	 0.203678000357277 
796	 0.203742640691548 
797	 0.2037700347169 
798	 0.203758942630741 
799	 0.203679879690425 
800	 0.203642204156037 
801	 0.203650102903543 
802	 0.203626071665102 
803	 0.203604453816967 
804	 0.203560173161375 
805	 0.203490268437311 
806	 0.203433603198096 
807	 0.203385045487644 
808	 0.203330658324383 
809	 0.203259705828464 
810	 0.203177359903241 
811	 0.203115347609743 
812	 0.203037032258761 
813	 0.202895081359776 
814	 0.202768586343104 
815	 0.202649452169511 
816	 0.202533592796887 
817	 0.202425794244699 
818	 0.202344303032569 
819	 0.20225709918157 
820	 0.202127546806255 
821	 0.201924224657455 
822	 0.201776776391127 
823	 0.201663833641763 
824	 0.201540815963417 
825	 0.201440093541328 
826	 0.20128656353026 
827	 0.20110969692654 
828	 0.200974326215507 
829	 0.200837074909684 
830	 0.200693758931799 
831	 0.200532201107264 
832	 0.200340677537647 
833	 0.200205365978888 
834	 0.200063673877671 
835	 0.199883094032976 
836	 0.199711382749959 
837	 0.199555584409944 
838	 0.199391701450454 
839	 0.199211686153727 
840	 0.199078570324042 
841	 0.198930535787771 
842	 0.198772378854164 
843	 0.198621601219493 
844	 0.198413075308648 
845	 0.198231748050427 
846	 0.198079886776353 
847	 0.197901366892181 
848	 0.197745530201629 
849	 0.197581149088428 
850	 0.197410598949047 
851	 0.197284687452195 
852	 0.197109868369759 
853	 0.196935537970999 
854	 0.196796734476533 
855	 0.196633789561627 
856	 0.196477015415165 
857	 0.19633346635214 
858	 0.196200781439872 
859	 0.196070223504225 
860	 0.195927395866508 
861	 0.195779753504826 
862	 0.195640407430042 
863	 0.195474062295508 
864	 0.195349346886567 
865	 0.195255547596229 
866	 0.195115484382777 
867	 0.194970879602804 
868	 0.194829875497484 
869	 0.194705229707528 
870	 0.194618733981484 
871	 0.194532999645306 
872	 0.194446028802148 
873	 0.194344249720999 
874	 0.194162974817435 
875	 0.194087717160779 
876	 0.194025380204546 
877	 0.193871666074957 
878	 0.193820028937707 
879	 0.193766994379703 
880	 0.193681942908337 
881	 0.19358369459387 
882	 0.193539060620608 
883	 0.193480261180601 
884	 0.193403792290654 
885	 0.193352924963427 
886	 0.193269167109921 
887	 0.19320927151504 
888	 0.193180847319058 
889	 0.19312698400643 
890	 0.193136032036353 
891	 0.193109443891467 
892	 0.193009019122889 
893	 0.192951490875635 
894	 0.192966223858538 
895	 0.192977693055089 
896	 0.192933000838136 
897	 0.192912951003324 
898	 0.192919067727468 
899	 0.192914354000025 
900	 0.19287440001572 
901	 0.192883005861703 
902	 0.192868084082527 
903	 0.192852907753697 
904	 0.19288552602912 
905	 0.192862862227262 
906	 0.192897563349326 
907	 0.192981229226025 
908	 0.193019550953247 
909	 0.193040371356112 
910	 0.19309239330587 
911	 0.193153468132117 
912	 0.193141690465308 
913	 0.193157088948279 
914	 0.193205830048516 
915	 0.193274498896297 
916	 0.193344376662822 
917	 0.193416004345731 
918	 0.193509725555558 
919	 0.193615152574188 
920	 0.193660346926137 
921	 0.193747350095628 
922	 0.193822223737488 
923	 0.193856116898298 
924	 0.19398514726818 
925	 0.194156674770123 
926	 0.194304863785787 
927	 0.194393651148137 
928	 0.194499574702854 
929	 0.194638226655575 
930	 0.194741438768129 
931	 0.194757715989475 
932	 0.194855163204317 
933	 0.195019666658874 
934	 0.195190243345505 
935	 0.195305688554899 
936	 0.19543450736133 
937	 0.1955971584232 
938	 0.195763159726728 
939	 0.195891711795693 
940	 0.196112037831526 
941	 0.196322220166664 
942	 0.19650493899397 
943	 0.196720997179769 
944	 0.196883079808873 
945	 0.19703783569065 
946	 0.19722171709224 
947	 0.197434790970341 
948	 0.197603812328632 
949	 0.197752081251128 
950	 0.197916036411911 
951	 0.198123518546431 
952	 0.198349542495712 
953	 0.1985591917665 
954	 0.198746440766534 
955	 0.198947045505284 
956	 0.19908158683385 
957	 0.19932182572268 
958	 0.199689003513723 
959	 0.199876667017862 
960	 0.200103520602255 
961	 0.200313280369825 
962	 0.200485144530212 
963	 0.200785602596702 
964	 0.201049857436948 
965	 0.201225493775052 
966	 0.201363038928829 
967	 0.201659297209137 
968	 0.201977182253569 
969	 0.202255486355016 
970	 0.202481560433816 
971	 0.2027007048101 
972	 0.203021020959599 
973	 0.203308897047533 
974	 0.203480659603874 
975	 0.203810135372225 
976	 0.204086513378801 
977	 0.204397199510082 
978	 0.204797723613122 
979	 0.204944481340465 
980	 0.205263359036401 
981	 0.2056142067193 
982	 0.205810960517192 
983	 0.206175212946314 
984	 0.206498411036346 
985	 0.206799228110337 
986	 0.207158934460449 
987	 0.207592488303515 
988	 0.207999016268723 
989	 0.208301671030901 
990	 0.208498018547834 
991	 0.208759647035887 
992	 0.209086810670581 
993	 0.209435978045535 
994	 0.209773130154133 
995	 0.210177392313107 
996	 0.210484390265992 
997	 0.210836339293618 
998	 0.211377038103359 
999	 0.211892985819824 
1000	 0.212234852576054 
1001	 0.215022187307368 
1002	 0.215377703498098 
1003	 0.215710309796253 
1004	 0.216087230908164 
1005	 0.216476302969622 
1006	 0.216900696571777 
1007	 0.217378296698805 
1008	 0.217803679162222 
1009	 0.218211321519128 
1010	 0.218649165582773 
1011	 0.219084312719966 
1012	 0.219507195355738 
1013	 0.219951850126895 
1014	 0.220402663210527 
1015	 0.220819917064649 
1016	 0.221253088233567 
1017	 0.221773750532802 
1018	 0.222256877652058 
1019	 0.222756049583561 
1020	 0.223270249660015 
1021	 0.22372219211951 
1022	 0.224113194655382 
1023	 0.224564379839884 
1024	 0.224975377064022 
1025	 0.225458405465085 
1026	 0.226026670862005 
1027	 0.226559081627935 
1028	 0.227111673911775 
1029	 0.22764841539989 
1030	 0.228150723372616 
1031	 0.228645182770102 
1032	 0.229151170981842 
1033	 0.229675313016138 
1034	 0.230228406434301 
1035	 0.230767308535482 
1036	 0.231308027691703 
1037	 0.231848415869375 
1038	 0.232401363547888 
1039	 0.23296969320852 
1040	 0.233517411476943 
1041	 0.2340530770984 
1042	 0.234606904539365 
1043	 0.235146569589446 
1044	 0.23570610740217 
1045	 0.23631588485379 
1046	 0.236910776961942 
1047	 0.237497726169337 
1048	 0.238101312003537 
1049	 0.238668990534188 
1050	 0.239240970298501 
1051	 0.239854062602117 
1052	 0.240476354788589 
1053	 0.241116152032238 
1054	 0.241823266364186 
1055	 0.242471839803268 
1056	 0.24308000431572 
1057	 0.243714855005545 
1058	 0.24433353143842 
1059	 0.244975484309933 
1060	 0.245645934129367 
1061	 0.246328417149962 
1062	 0.247080248052608 
1063	 0.247816653343796 
1064	 0.248509990502847 
1065	 0.24923479784554 
1066	 0.24989628496624 
1067	 0.250535218524591 
1068	 0.251240552668067 
1069	 0.251928677908574 
1070	 0.25265588624254 
1071	 0.253420751547066 
1072	 0.254190051660661 
1073	 0.254890530626728 
1074	 0.255636861537001 
1075	 0.256340798495555 
1076	 0.257006554631262 
1077	 0.257746124497316 
1078	 0.258465113548056 
1079	 0.259211779146499 
1080	 0.260007280513747 
1081	 0.260758562960185 
1082	 0.261520197864051 
1083	 0.262245252796311 
1084	 0.262952679396177 
1085	 0.263732256391185 
1086	 0.264481901444685 
1087	 0.26521869409821 
1088	 0.265992483037778 
1089	 0.266794136410464 
1090	 0.267522293665616 
1091	 0.268292897436706 
1092	 0.269043285026594 
1093	 0.269751904642755 
1094	 0.270517497540157 
1095	 0.271282794522814 
1096	 0.272081150736518 
1097	 0.272901639604492 
1098	 0.273670524098687 
1099	 0.27443714290427 
1100	 0.27517868959189 
1101	 0.275903627112765 
1102	 0.276687290259395 
1103	 0.277450130197145 
1104	 0.278210616811608 
1105	 0.27898686445573 
1106	 0.279776458404972 
1107	 0.280504685495004 
1108	 0.281288690419917 
1109	 0.282070440674167 
1110	 0.282821223665019 
1111	 0.283618689938754 
1112	 0.284358281527848 
1113	 0.285106088897049 
1114	 0.285904182245938 
1115	 0.286646271095864 
1116	 0.287404308308262 
1117	 0.288167604117574 
1118	 0.288923701514 
1119	 0.28967210516637 
1120	 0.29042962576675 
1121	 0.291185472164649 
1122	 0.291952581755019 
1123	 0.292738718909463 
1124	 0.293464211627334 
1125	 0.294198222906395 
1126	 0.294938507224255 
1127	 0.295646765202395 
1128	 0.296392105169491 
1129	 0.297133109853181 
1130	 0.297864719817565 
1131	 0.298609340183651 
1132	 0.299293982308057 
1133	 0.300014362481112 
1134	 0.300737575142168 
1135	 0.301436732115585 
1136	 0.302136534759175 
1137	 0.302828836301302 
1138	 0.303490017270711 
1139	 0.304166066389958 
1140	 0.304853873007449 
1141	 0.305505186547871 
1142	 0.306177691294094 
1143	 0.306835761862312 
1144	 0.30749234437595 
1145	 0.308165830766111 
1146	 0.308800475112041 
1147	 0.309453441617833 
1148	 0.310121470257775 
1149	 0.310732336867683 
1150	 0.311344763783689 
1151	 0.311966812598663 
1152	 0.312591401359546 
1153	 0.313216484053783 
1154	 0.313835378753635 
1155	 0.314477417065359 
1156	 0.315079487942892 
1157	 0.315631682971863 
1158	 0.316198060902901 
1159	 0.316756843293814 
1160	 0.31732500268545 
1161	 0.317892615912514 
1162	 0.318490033222614 
1163	 0.319056221053584 
1164	 0.319620197967144 
1165	 0.320180458007418 
1166	 0.320699976377023 
1167	 0.321239661148161 
1168	 0.321753128867981 
1169	 0.322267233054219 
1170	 0.322774548734108 
1171	 0.323287973867267 
1172	 0.323795366090176 
1173	 0.324311316148441 
1174	 0.324837998261039 
1175	 0.325332591378307 
1176	 0.325822675742385 
1177	 0.326301516565804 
1178	 0.326748709223577 
1179	 0.327222428931852 
1180	 0.327669136325934 
1181	 0.328109115628139 
1182	 0.328553647159604 
1183	 0.32895921593052 
1184	 0.329391423087844 
1185	 0.32983694541775 
1186	 0.330275457832559 
1187	 0.330712990671414 
1188	 0.331162517249354 
1189	 0.331611346914318 
1190	 0.332074806954551 
1191	 0.332557303054029 
1192	 0.333022849166673 
1193	 0.333485161037619 
1194	 0.333954029353823 
1195	 0.334424288342526 
1196	 0.334894821024592 
1197	 0.335365049151832 
1198	 0.335850289860453 
1199	 0.336341882241148 
1200	 0.336803211043287 
1201	 0.337290478442049 
1202	 0.33778183910599 
1203	 0.338275351492736 
1204	 0.338802049418183 
1205	 0.339312175225092 
1206	 0.339822546729704 
1207	 0.340358687474181 
1208	 0.340881796807999 
1209	 0.341444608053863 
1210	 0.34203968253235 
1211	 0.342652155779662 
1212	 0.343282560668626 
1213	 0.343946896271454 
1214	 0.344645797789129 
1215	 0.345363342549647 
1216	 0.346120205676924 
1217	 0.346864684370934 
1218	 0.347617359754603 
1219	 0.348374538492623 
1220	 0.349156182415921 
1221	 0.34998401234785 
1222	 0.350800731638153 
1223	 0.351653464908575 
1224	 0.352463215407439 
1225	 0.353248365967041 
1226	 0.354020850524703 
1227	 0.354784981923265 
1228	 0.355526379575535 
1229	 0.356259487981687 
1230	 0.356960629789608 
1231	 0.357633142437015 
1232	 0.358297707981452 
1233	 0.358934400026176 
1234	 0.35955501089464 
1235	 0.360152710484974 
1236	 0.360756896931986 
1237	 0.361353042193082 
1238	 0.361937089886719 
1239	 0.362516602029171 
1240	 0.363102700161412 
1241	 0.363662703471643 
1242	 0.364162104029456 
1243	 0.364683001357231 
1244	 0.365191729894625 
1245	 0.365698144249426 
1246	 0.366203339562466 
1247	 0.36669870315087 
1248	 0.367177504900381 
1249	 0.367671129570536 
1250	 0.368181529166098 
1251	 0.368653967938821 
1252	 0.36911052928197 
1253	 0.36957244924493 
1254	 0.370013832969576 
1255	 0.37045785564394 
1256	 0.370913764790478 
1257	 0.371361798353187 
1258	 0.371804211150326 
1259	 0.37222968480899 
1260	 0.372646954920895 
1261	 0.373063866338983 
1262	 0.373461808489944 
1263	 0.373863157841639 
1264	 0.374258889970105 
1265	 0.374659263653782 
1266	 0.375054769371426 
1267	 0.375429079046519 
1268	 0.375833039499416 
1269	 0.376258336103711 
1270	 0.376667027965781 
1271	 0.37709009584467 
1272	 0.377488626195228 
1273	 0.377861330263416 
1274	 0.378247526210028 
1275	 0.3786340605618 
1276	 0.379009470681186 
1277	 0.379375913389086 
1278	 0.379751352270964 
1279	 0.38011088166567 
1280	 0.380489588701579 
1281	 0.380887455588784 
1282	 0.381283461989133 
1283	 0.381689208429478 
1284	 0.382086874469765 
1285	 0.382482050166429 
1286	 0.382877890864162 
1287	 0.383265055162439 
1288	 0.383646543052827 
1289	 0.384022111455258 
1290	 0.384381592429852 
1291	 0.384765086284842 
1292	 0.385155335243609 
1293	 0.385538199928186 
1294	 0.385931198398374 
1295	 0.386319018580047 
1296	 0.386697677470053 
1297	 0.387076033810951 
1298	 0.387460900118128 
1299	 0.38783811499243 
1300	 0.388208533164269 
1301	 0.388572290071846 
1302	 0.388931574640534 
1303	 0.389289124924402 
1304	 0.389645960329356 
1305	 0.389987820636685 
1306	 0.390313229166858 
1307	 0.390648990789606 
1308	 0.39097190345085 
1309	 0.391308499597622 
1310	 0.391633237126176 
1311	 0.391967909972988 
1312	 0.392288056765291 
1313	 0.392594007390046 
1314	 0.392900570524396 
1315	 0.393206673874837 
1316	 0.393508556525516 
1317	 0.393806678165038 
1318	 0.394094998908166 
1319	 0.394377704862085 
1320	 0.394659666185758 
1321	 0.394942241634604 
1322	 0.395202090825775 
1323	 0.395445631277497 
1324	 0.395698252984878 
1325	 0.395940070758312 
1326	 0.396177750094126 
1327	 0.396430716652622 
1328	 0.396663929037775 
1329	 0.39688018595436 
1330	 0.397086347269727 
1331	 0.3972971579786 
1332	 0.397478151353099 
1333	 0.39761333771319 
1334	 0.397773579570203 
1335	 0.397924168125933 
1336	 0.398055440438659 
1337	 0.39820629134818 
1338	 0.398378775806808 
1339	 0.398519182298346 
1340	 0.398651226578043 
1341	 0.398775725669266 
1342	 0.398882134103789 
1343	 0.398995461442928 
1344	 0.399116981479874 
1345	 0.399213707418754 
1346	 0.399308841747622 
1347	 0.399375869618468 
1348	 0.399414028788039 
1349	 0.399452651593233 
1350	 0.39947607511488 
1351	 0.399496296055141 
1352	 0.399503360501448 
1353	 0.399518886652583 
1354	 0.399523711271387 
1355	 0.399542381206319 
1356	 0.399575628716737 
1357	 0.399605571016668 
1358	 0.399648667690405 
1359	 0.399678069887603 
1360	 0.399702289620359 
1361	 0.399722912026744 
1362	 0.39972215655483 
1363	 0.399726778908442 
1364	 0.399714865402171 
1365	 0.399696525050316 
1366	 0.399657654445431 
1367	 0.399602956772155 
1368	 0.399544089729855 
1369	 0.399470892009967 
1370	 0.399393179081693 
1371	 0.399317190693291 
1372	 0.399218590447735 
1373	 0.399096950447029 
1374	 0.398982926088315 
1375	 0.398858766167012 
1376	 0.398733454286793 
1377	 0.398621082255598 
1378	 0.398478126197287 
1379	 0.398315248794509 
1380	 0.398149795425595 
1381	 0.397975442910875 
1382	 0.397782063816698 
1383	 0.397579303343448 
1384	 0.397363438475777 
1385	 0.39710518477241 
1386	 0.396876944093379 
1387	 0.396640990435535 
1388	 0.396438063967219 
1389	 0.396254144090118 
1390	 0.396093966408871 
1391	 0.39596738636929 
1392	 0.39584377325517 
1393	 0.39575094688959 
1394	 0.39566767389251 
1395	 0.395561133033339 
1396	 0.395470586867048 
1397	 0.395324022197569 
1398	 0.395163910466228 
1399	 0.394937644699602 
1400	 0.394666659483156 
1401	 0.394360822809497 
1402	 0.394014964944836 
1403	 0.393613693075024 
1404	 0.393167571943532 
1405	 0.392693626442395 
1406	 0.392142480656084 
1407	 0.391619764571764 
1408	 0.391073732554064 
1409	 0.390548462908359 
1410	 0.390003491676043 
1411	 0.389512601186582 
1412	 0.38903386049667 
1413	 0.388608949668515 
1414	 0.388218284279757 
1415	 0.387880203659833 
1416	 0.387588200914194 
1417	 0.38733700778616 
1418	 0.387146302491637 
1419	 0.386973812428752 
1420	 0.386841399706473 
1421	 0.386726429164659 
1422	 0.386648491402649 
1423	 0.386572041645778 
1424	 0.386506589431776 
1425	 0.386458921224004 
1426	 0.386427495553483 
1427	 0.38640395136835 
1428	 0.386388082716217 
1429	 0.386394698989638 
1430	 0.386424746595562 
1431	 0.386463060875982 
1432	 0.386532386037696 
1433	 0.386640426657407 
1434	 0.386745598088506 
1435	 0.38686755187893 
1436	 0.386990216013157 
1437	 0.387122763868711 
1438	 0.387260037660628 
1439	 0.387389907469896 
1440	 0.387554025940562 
1441	 0.3877308585973 
1442	 0.38793810472052 
1443	 0.388183112502656 
1444	 0.388423313889307 
1445	 0.388684299592185 
1446	 0.388941447483273 
1447	 0.389186729782857 
1448	 0.389467881917623 
1449	 0.389790745722384 
1450	 0.390079734834817 
1451	 0.390380013874558 
1452	 0.39066575978892 
1453	 0.390916114058288 
1454	 0.391181562408681 
1455	 0.391459045619405 
1456	 0.391728417817309 
1457	 0.391997066216319 
1458	 0.39225826494426 
1459	 0.392515127188008 
1460	 0.392768849021444 
1461	 0.393015719909558 
1462	 0.393258321486173 
1463	 0.393493442283046 
1464	 0.39373171377846 
1465	 0.393959614877527 
1466	 0.394203070026342 
1467	 0.394447558507526 
1468	 0.394687716231413 
1469	 0.394934185666426 
1470	 0.395168376872441 
1471	 0.395404082971804 
1472	 0.395638470333246 
1473	 0.395869204140443 
1474	 0.396099100524159 
1475	 0.396320053659533 
1476	 0.396534802830817 
1477	 0.396751227953938 
1478	 0.396967447589126 
1479	 0.397163665612953 
1480	 0.397356934246279 
1481	 0.397534954736522 
1482	 0.397695326477074 
1483	 0.397846759620189 
1484	 0.397987143842481 
1485	 0.398124623248298 
1486	 0.398249725189821 
1487	 0.398367130889788 
1488	 0.398480414134625 
1489	 0.398587530986246 
1490	 0.398673195531233 
1491	 0.398776689582253 
1492	 0.398873898524673 
1493	 0.398999261533018 
1494	 0.399152650772975 
1495	 0.399288557038625 
1496	 0.399432277726687 
1497	 0.399578876544828 
1498	 0.399707150143649 
1499	 0.399858898724144 
1500	 0.400032350913456 
1501	 0.400206563767483 
1502	 0.400393209955015 
1503	 0.400573837058737 
1504	 0.400747896040867 
1505	 0.400939946355153 
1506	 0.401145930759748 
1507	 0.401343107592548 
1508	 0.401537068687423 
1509	 0.40175230850481 
1510	 0.401972997904888 
1511	 0.40219374914082 
1512	 0.402441085538121 
1513	 0.402677713197333 
1514	 0.402893611969057 
1515	 0.403125422666138 
1516	 0.403363279822339 
1517	 0.403611133573906 
1518	 0.403867522025951 
1519	 0.404131194675045 
1520	 0.404407846429942 
1521	 0.404686454866488 
1522	 0.404961478830308 
1523	 0.405259805682779 
1524	 0.405544077790594 
1525	 0.405830017703381 
1526	 0.406108884190456 
1527	 0.406377948602596 
1528	 0.406667135866133 
1529	 0.40696107714818 
1530	 0.407255047829021 
1531	 0.4075625661056 
1532	 0.407861369900763 
1533	 0.408151328618858 
1534	 0.408452473979833 
1535	 0.408763569150069 
1536	 0.409062587924118 
1537	 0.409355844511584 
1538	 0.409659457418504 
1539	 0.409961734196146 
1540	 0.410268301471139 
1541	 0.410579526204464 
1542	 0.410901991606109 
1543	 0.41122860764224 
1544	 0.411557307834585 
1545	 0.411904713357597 
1546	 0.412234651948499 
1547	 0.412554504744871 
1548	 0.41287793032412 
1549	 0.413202389671888 
1550	 0.413518833371177 
1551	 0.413838059101763 
1552	 0.414138478558228 
1553	 0.414431272879317 
1554	 0.414706608421149 
1555	 0.414968083973545 
1556	 0.415214494939403 
1557	 0.415439369539817 
1558	 0.415665468566897 
1559	 0.415882233372792 
1560	 0.416090099433257 
1561	 0.416298175666421 
1562	 0.416485882371834 
1563	 0.416640679629067 
1564	 0.416822126062748 
1565	 0.417004821987757 
1566	 0.417188009292667 
1567	 0.41739232948218 
1568	 0.417576077173864 
1569	 0.417735084257685 
1570	 0.417916160318987 
1571	 0.418103593788362 
1572	 0.418289822814908 
1573	 0.418488273415219 
1574	 0.418679882752825 
1575	 0.418856658234124 
1576	 0.419053126934873 
1577	 0.41925830053024 
1578	 0.419468757868894 
1579	 0.419704927291026 
1580	 0.419914937388155 
1581	 0.420108195453367 
1582	 0.420314689973461 
1583	 0.42051757511965 
1584	 0.420718116998072 
1585	 0.42091910553914 
1586	 0.421133271034539 
1587	 0.421346841047242 
1588	 0.421563123320453 
1589	 0.421801435045483 
1590	 0.422026957442873 
1591	 0.422241821689837 
1592	 0.422458370073849 
1593	 0.422667895030902 
1594	 0.422891023332743 
1595	 0.423126991748062 
1596	 0.423347262259415 
1597	 0.423573219307069 
1598	 0.423789274150592 
1599	 0.423980894078482 
1600	 0.424187335880153 
1601	 0.42440055628176 
1602	 0.424612995621954 
1603	 0.424823102187626 
1604	 0.425041776561699 
1605	 0.425273336556819 
1606	 0.425492908421155 
1607	 0.425725977937902 
1608	 0.425934045828644 
1609	 0.426122815471774 
1610	 0.42630304544873 
1611	 0.426460489619758 
1612	 0.426621998790549 
1613	 0.426783985859049 
1614	 0.426932744671511 
1615	 0.427071902624147 
1616	 0.427212143193755 
1617	 0.427339943472904 
1618	 0.427469294123391 
1619	 0.427604589693292 
1620	 0.427731371952016 
1621	 0.427849917242626 
1622	 0.427969910322194 
1623	 0.428092053725602 
1624	 0.428203201298288 
1625	 0.428308629586332 
1626	 0.428411308489372 
1627	 0.428515094416948 
1628	 0.428597732218206 
1629	 0.428663991141693 
1630	 0.428730734131255 
1631	 0.428774988264883 
1632	 0.428830955392335 
1633	 0.428895214780189 
1634	 0.428958242575489 
1635	 0.429024374690305 
1636	 0.429083566732001 
1637	 0.429153624177258 
1638	 0.429201719473092 
1639	 0.429246465371971 
1640	 0.429262458038758 
1641	 0.429237507700814 
1642	 0.429224451178778 
1643	 0.429200529909638 
1644	 0.429172628813476 
1645	 0.429157213040579 
1646	 0.429122850269847 
1647	 0.429076770905093 
1648	 0.42900872147276 
1649	 0.428919988505545 
1650	 0.428828091691695 
1651	 0.428721300428566 
1652	 0.428603689715584 
1653	 0.428492406279629 
1654	 0.428345927597474 
1655	 0.428181693513058 
1656	 0.427980237214429 
1657	 0.427764176542684 
1658	 0.427487970074398 
1659	 0.427147958372431 
1660	 0.426806749195528 
1661	 0.426414675952184 
1662	 0.426025472553629 
1663	 0.425658058838055 
1664	 0.425220702736396 
1665	 0.424746675872974 
1666	 0.424239124817138 
1667	 0.423684162743026 
1668	 0.423099378392458 
1669	 0.422502537957915 
1670	 0.421835850217222 
1671	 0.421115626998737 
1672	 0.42034013937695 
1673	 0.41950792171814 
1674	 0.418620058259485 
1675	 0.417681512299166 
1676	 0.416699611627245 
1677	 0.415664392877952 
1678	 0.414578172884793 
1679	 0.41343429738128 
1680	 0.412236499465062 
1681	 0.41097775512286 
1682	 0.409679699405074 
1683	 0.408333766978227 
1684	 0.406964524025302 
1685	 0.405553236354891 
1686	 0.404104255103866 
1687	 0.402585124788567 
1688	 0.401090147881864 
1689	 0.399578792589285 
1690	 0.398042449121425 
1691	 0.396513715435399 
1692	 0.394993299857924 
1693	 0.393448175975973 
1694	 0.391906929052456 
1695	 0.39038333635691 
1696	 0.388806722618987 
1697	 0.387202064816156 
1698	 0.385559419865123 
1699	 0.383884393291287 
1700	 0.382241634363324 
1701	 0.380551295290364 
1702	 0.378942463057965 
1703	 0.377339177170148 
1704	 0.37583799395486 
1705	 0.374390795448705 
1706	 0.372989631945341 
1707	 0.371762316759918 
1708	 0.370549213332954 
1709	 0.369394100151237 
1710	 0.368350967124321 
1711	 0.367286568660136 
1712	 0.366271564029884 
1713	 0.365276598699843 
1714	 0.364258752953659 
1715	 0.363311340513401 
1716	 0.362371402535306 
1717	 0.361456570927144 
1718	 0.360576297331226 
1719	 0.359698353324597 
1720	 0.358894568687905 
1721	 0.358133208582798 
1722	 0.357449037440777 
1723	 0.356932076502195 
1724	 0.356520411004394 
1725	 0.356281467326621 
1726	 0.356263101385275 
1727	 0.356422040293623 
1728	 0.356811647549162 
1729	 0.357464840159697 
1730	 0.358342869867571 
1731	 0.359341564064442 
1732	 0.360507375435574 
1733	 0.361733970855217 
1734	 0.363021732299092 
1735	 0.364404101498222 
1736	 0.365716581141197 
1737	 0.366964309179864 
1738	 0.368076925174071 
1739	 0.369034780771063 
1740	 0.369893350049324 
1741	 0.370581569234534 
1742	 0.371103271935265 
1743	 0.371516912731532 
1744	 0.371740057949664 
1745	 0.371927214824901 
1746	 0.371979151610959 
1747	 0.372033569264039 
1748	 0.372019465504093 
1749	 0.372019226460807 
1750	 0.371990857500522 
1751	 0.371986777588718 
1752	 0.371952405386667 
1753	 0.371999341095193 
1754	 0.372069590309247 
1755	 0.372208549559535 
1756	 0.372387854699559 
1757	 0.37268339928564 
1758	 0.373090184802445 
1759	 0.373608720251294 
1760	 0.374256703014075 
1761	 0.375027075534348 
1762	 0.375854591864502 
1763	 0.376831297569048 
1764	 0.377906719276925 
1765	 0.37906695838764 
1766	 0.380399445154392 
1767	 0.381752575962456 
1768	 0.383157707244795 
1769	 0.384604968534202 
1770	 0.385905576815339 
1771	 0.387175868687475 
1772	 0.38842103584597 
1773	 0.389565285642146 
1774	 0.390692962844436 
1775	 0.391760515348318 
1776	 0.392766502074467 
1777	 0.393687051902707 
1778	 0.394494228657259 
1779	 0.395215710666277 
1780	 0.395823762567263 
1781	 0.396356494036158 
1782	 0.396878889328183 
1783	 0.397391272253403 
1784	 0.397856610785105 
1785	 0.398216389158986 
1786	 0.398550891398956 
1787	 0.398795390170239 
1788	 0.399059929402987 
1789	 0.399328814236856 
1790	 0.399570218431218 
1791	 0.399790998158004 
1792	 0.399999112141373 
1793	 0.400174825231323 
1794	 0.400350795976779 
1795	 0.400528714964285 
1796	 0.400706698730126 
1797	 0.400887587309739 
1798	 0.401081146117017 
1799	 0.40129058861315 
1800	 0.401497298078653 
1801	 0.401830206326023 
1802	 0.402067045676393 
1803	 0.40229975263345 
1804	 0.402534875866611 
1805	 0.402791287990459 
1806	 0.403029024776484 
1807	 0.403259475494724 
1808	 0.403497186592627 
1809	 0.403732230227597 
1810	 0.403969619118527 
1811	 0.404206938655864 
1812	 0.404456824310922 
1813	 0.404707393281507 
1814	 0.404973442052693 
1815	 0.405239880386238 
1816	 0.40552763021689 
1817	 0.405818547274238 
1818	 0.406107780349054 
1819	 0.406417831729295 
1820	 0.406753113815984 
1821	 0.407077622269803 
1822	 0.407400874137855 
1823	 0.407747245425039 
1824	 0.408080945514272 
1825	 0.408423604644042 
1826	 0.40877862623172 
1827	 0.409159482375939 
1828	 0.409508821383147 
1829	 0.40986161933029 
1830	 0.410194261309331 
1831	 0.410498643487334 
1832	 0.410821705742273 
1833	 0.411120320937843 
1834	 0.411439148147635 
1835	 0.411782681683952 
1836	 0.412075958124939 
1837	 0.412405068683289 
1838	 0.412758361698171 
1839	 0.413093462100054 
1840	 0.413448864418484 
1841	 0.413780101817928 
1842	 0.414093723324575 
1843	 0.414396846181742 
1844	 0.414712007215537 
1845	 0.414996045257129 
1846	 0.415290089981787 
1847	 0.415581323600354 
1848	 0.415879723512684 
1849	 0.416200118335672 
1850	 0.416472901163007 
1851	 0.416731981665905 
1852	 0.416992287173629 
1853	 0.417210041870441 
1854	 0.417382019947138 
1855	 0.417551236384402 
1856	 0.417682679017264 
1857	 0.417788700513439 
1858	 0.417891893040868 
1859	 0.417962597222222 
1860	 0.418019561531612 
1861	 0.418049041818689 
1862	 0.418053488261648 
1863	 0.418019654373146 
1864	 0.417984499726202 
1865	 0.417924458180785 
1866	 0.417822580425831 
1867	 0.417674103379456 
1868	 0.417484985873318 
1869	 0.417240628663254 
1870	 0.416940214098452 
1871	 0.416591438717472 
1872	 0.416206865360033 
1873	 0.415775829001129 
1874	 0.415294248124041 
1875	 0.414776844073924 
1876	 0.41414770336512 
1877	 0.413482393008494 
1878	 0.41272285906128 
1879	 0.411848614679332 
1880	 0.410962866836915 
1881	 0.409944031048239 
1882	 0.408810560156742 
1883	 0.407585714090865 
1884	 0.406267825072679 
1885	 0.404731638956243 
1886	 0.403104915673339 
1887	 0.401306776867775 
1888	 0.399319210034436 
1889	 0.397357088787512 
1890	 0.395226121892341 
1891	 0.393052275507706 
1892	 0.390856216631132 
1893	 0.388540891924115 
1894	 0.386075493876655 
1895	 0.383664325665891 
1896	 0.381176026831546 
1897	 0.378645764285975 
1898	 0.376286703617611 
1899	 0.373866777100214 
1900	 0.371500278446821 
1901	 0.369218157732362 
1902	 0.366797857059654 
1903	 0.364487230423168 
1904	 0.362253854094618 
1905	 0.360044478094729 
1906	 0.357893399221162 
1907	 0.355999426262364 
1908	 0.354149805566312 
1909	 0.352386152527148 
1910	 0.350735423056553 
1911	 0.349065721187501 
1912	 0.347524366716009 
1913	 0.346029461882362 
1914	 0.344595683773062 
1915	 0.343291264945403 
1916	 0.342128551342078 
1917	 0.340962931619924 
1918	 0.339900753069912 
1919	 0.338935058139569 
1920	 0.337950971092023 
1921	 0.337064220586094 
1922	 0.336222703833847 
1923	 0.335422357898615 
1924	 0.334760565966079 
1925	 0.334149298754802 
1926	 0.33357484991971 
1927	 0.333071737071591 
1928	 0.332609647629504 
1929	 0.33217911787696 
1930	 0.331801183939889 
1931	 0.331486349008367 
1932	 0.331213219405911 
1933	 0.331008906434916 
1934	 0.330873302785113 
1935	 0.330790776421163 
1936	 0.330771379775489 
1937	 0.33079838734696 
1938	 0.330861489359495 
1939	 0.330987807141167 
1940	 0.331172026642338 
1941	 0.331428675535207 
1942	 0.331695609747063 
1943	 0.332010772002329 
1944	 0.332350629581881 
1945	 0.332712208082677 
1946	 0.333164847468547 
1947	 0.333641615157047 
1948	 0.334142167644986 
1949	 0.334683618011428 
1950	 0.335202025421126 
1951	 0.335701579523517 
1952	 0.336236566720274 
1953	 0.336787826156746 
1954	 0.337336068962598 
1955	 0.337920038416743 
1956	 0.338489794401824 
1957	 0.339057122855642 
1958	 0.339609942070013 
1959	 0.340109156070527 
1960	 0.340599657440724 
1961	 0.341067679946739 
1962	 0.341486925971543 
1963	 0.341924593788766 
1964	 0.342369684037409 
1965	 0.342785083876563 
1966	 0.343195334747756 
1967	 0.343584808609303 
1968	 0.343919965373798 
1969	 0.344260358810727 
1970	 0.344604702132333 
1971	 0.344939172715322 
1972	 0.345309562916879 
1973	 0.345672147551121 
1974	 0.346053063038755 
1975	 0.346453603047341 
1976	 0.346853781050946 
1977	 0.347262917862943 
1978	 0.347681230890421 
1979	 0.348105691147107 
1980	 0.348515493742605 
1981	 0.348981388074274 
1982	 0.34944345582392 
1983	 0.349909753026885 
1984	 0.350400013936252 
1985	 0.350850045241542 
1986	 0.351308849255183 
1987	 0.351777453337118 
1988	 0.352238924141848 
1989	 0.352726172458665 
1990	 0.353248105419385 
1991	 0.353742041213876 
1992	 0.35424182745274 
1993	 0.354748848778612 
1994	 0.355194287750156 
1995	 0.355626849319845 
1996	 0.356056363071975 
1997	 0.356461306714569 
1998	 0.356887773829838 
1999	 0.357329926044715 
2000	 0.357750030389597 
2001	 0.358186632933217 
2002	 0.358576127385894 
2003	 0.358937428612052 
2004	 0.359286352117741 
2005	 0.359597656329569 
2006	 0.359910918033952 
2007	 0.360231112402944 
2008	 0.360510655927784 
2009	 0.360763372390086 
2010	 0.361020175569015 
2011	 0.361238322089491 
2012	 0.361433589858427 
2013	 0.361608278788792 
2014	 0.361776793409073 
2015	 0.361895121144647 
2016	 0.361987611667413 
2017	 0.362036508631329 
2018	 0.362052903518262 
2019	 0.362020183409196 
2020	 0.361956669763642 
2021	 0.361815446414252 
2022	 0.361646094884532 
2023	 0.361435623378539 
2024	 0.361153109282672 
2025	 0.360846438905545 
2026	 0.360489392144177 
2027	 0.360064291887999 
2028	 0.359630094073812 
2029	 0.359167832543336 
2030	 0.358667166268707 
2031	 0.358146997697233 
2032	 0.357573402191481 
2033	 0.356929031266495 
2034	 0.356291104442573 
2035	 0.355628131209965 
2036	 0.354922417132286 
2037	 0.354244287979041 
2038	 0.35354224466072 
2039	 0.352846257352934 
2040	 0.352148781558198 
2041	 0.351437099172097 
2042	 0.350711628053091 
2043	 0.350010001850754 
2044	 0.349264521617061 
2045	 0.348599193681952 
2046	 0.347979826097584 
2047	 0.347375890074141 
2048	 0.346787708314086 
2049	 0.346269788045511 
2050	 0.345764878748082 
2051	 0.34533731825926 
2052	 0.34501039302007 
2053	 0.3447919133431 
2054	 0.3446644120863 
2055	 0.344644524074938 
2056	 0.344699288122406 
2057	 0.34483088765251 
2058	 0.345080624035355 
2059	 0.345437181631274 
2060	 0.345873298694096 
2061	 0.346464097182875 
2062	 0.347053816978531 
2063	 0.347705632335537 
2064	 0.348398189292974 
2065	 0.349132407436532 
2066	 0.349901794251129 
2067	 0.350766026231902 
2068	 0.35163619084926 
2069	 0.352493613162346 
2070	 0.353404512754407 
2071	 0.354241022163369 
2072	 0.355047838322058 
2073	 0.35583158957795 
2074	 0.356575599382677 
2075	 0.35731671791938 
2076	 0.358062698901628 
2077	 0.358740443447383 
2078	 0.359403861035019 
2079	 0.360008668167386 
2080	 0.360546845274513 
2081	 0.361050784365099 
2082	 0.361519876632285 
2083	 0.361928112807137 
2084	 0.362315712164235 
2085	 0.362650598574594 
2086	 0.362964918217751 
2087	 0.363255987918848 
2088	 0.36350402575647 
2089	 0.363714021536237 
2090	 0.363890908543156 
2091	 0.364020258098276 
2092	 0.36413751247106 
2093	 0.364222399787915 
2094	 0.364287172459989 
2095	 0.364333768498116 
2096	 0.364355290478009 
2097	 0.364351172096629 
2098	 0.364316308822308 
2099	 0.36427224738368 
2100	 0.36421238717792 
2101	 0.36411919497007 
2102	 0.364011019386577 
2103	 0.363856798395957 
2104	 0.363654118898016 
2105	 0.363446781646268 
2106	 0.363213171428257 
2107	 0.362958179540786 
2108	 0.362704429217933 
2109	 0.362394346419866 
2110	 0.362039340579393 
2111	 0.361659028721192 
2112	 0.361220036668393 
2113	 0.360781746983754 
2114	 0.360336008190673 
2115	 0.359858214339483 
2116	 0.359344699334058 
2117	 0.358841357178974 
2118	 0.358310513242504 
2119	 0.357745783003608 
2120	 0.35719073439582 
2121	 0.356619555934245 
2122	 0.356065580248234 
2123	 0.355514616754503 
2124	 0.354954465765623 
2125	 0.3544120096574 
2126	 0.353844031567193 
2127	 0.353256721557411 
2128	 0.35266673805429 
2129	 0.352045107043875 
2130	 0.35145422549655 
2131	 0.350892944731556 
2132	 0.350297087915558 
2133	 0.349688782109377 
2134	 0.349114242899479 
2135	 0.348469812631418 
2136	 0.347808889019024 
2137	 0.347128533186279 
2138	 0.346419233132261 
2139	 0.345716204367294 
2140	 0.344980267737497 
2141	 0.344283308706568 
2142	 0.343597921200032 
2143	 0.342930175345853 
2144	 0.342276819657177 
2145	 0.341644027445306 
2146	 0.341023703948498 
2147	 0.340425167131291 
2148	 0.339873090458294 
2149	 0.339290673183116 
2150	 0.33871881069095 
2151	 0.338135781613889 
2152	 0.33751992909184 
2153	 0.336932458922508 
2154	 0.336352121589816 
2155	 0.335737124162997 
2156	 0.335140696870212 
2157	 0.334544069494949 
2158	 0.333947868537395 
2159	 0.333347277102256 
2160	 0.332769036343773 
2161	 0.332196449114438 
2162	 0.331640003355298 
2163	 0.331094784157246 
2164	 0.330568802583587 
2165	 0.330034963459917 
2166	 0.329558070334958 
2167	 0.329117178786861 
2168	 0.328705855142879 
2169	 0.328323150385527 
2170	 0.327993497579522 
2171	 0.327688100088181 
2172	 0.327441625654695 
2173	 0.327276943671147 
2174	 0.327125699276574 
2175	 0.326982198423931 
2176	 0.326894302579501 
2177	 0.326796189665367 
2178	 0.326701594541385 
2179	 0.326632053135452 
2180	 0.326587997336148 
2181	 0.326544524579927 
2182	 0.326516133489624 
2183	 0.326490986696217 
2184	 0.326473496561912 
2185	 0.326462386442805 
2186	 0.326452000231921 
2187	 0.326463070929817 
2188	 0.326506258355288 
2189	 0.326523071529345 
2190	 0.326546689460228 
2191	 0.3265604681434 
2192	 0.326561757953524 
2193	 0.326547944805979 
2194	 0.32654621218527 
2195	 0.326506731062108 
2196	 0.326436592387669 
2197	 0.326344657184494 
2198	 0.326238008068022 
2199	 0.326112435349579 
2200	 0.325982033232682 
2201	 0.325842607554475 
2202	 0.325687454089491 
2203	 0.32551705770638 
2204	 0.325340933438423 
2205	 0.325145538967234 
2206	 0.324958629756735 
2207	 0.324770341481975 
2208	 0.324576202012507 
2209	 0.324380204436552 
2210	 0.324179858496742 
2211	 0.323958336794511 
2212	 0.323766537431321 
2213	 0.323588351759569 
2214	 0.323413503147768 
2215	 0.323272864927663 
2216	 0.32309910955416 
2217	 0.322922874678325 
2218	 0.322721174236107 
2219	 0.32251883625185 
2220	 0.322268104822446 
2221	 0.322005218310703 
2222	 0.321674532016876 
2223	 0.32131878366329 
2224	 0.320868602485114 
2225	 0.320325900959121 
2226	 0.319721456662568 
2227	 0.318997166586717 
2228	 0.31816165884448 
2229	 0.317244358459954 
2230	 0.316215876278781 
2231	 0.315132388184837 
2232	 0.313963346231102 
2233	 0.312710296998377 
2234	 0.311416494344538 
2235	 0.309957499429328 
2236	 0.308354936138005 
2237	 0.306702813815676 
2238	 0.304857512324919 
2239	 0.303088187827394 
2240	 0.301343075737105 
2241	 0.29948345504907 
2242	 0.29763943803117 
2243	 0.295646946424919 
2244	 0.293465739928887 
2245	 0.291320018973005 
2246	 0.289044040555144 
2247	 0.286843136588062 
2248	 0.284682566438003 
2249	 0.282497455394756 
2250	 0.280330837426766 
2251	 0.278202219065983 
2252	 0.275863509199606 
2253	 0.273593202474642 
2254	 0.271289275065522 
2255	 0.268946947459531 
2256	 0.266835350757861 
2257	 0.264719541624034 
2258	 0.262628614735572 
2259	 0.260619811352394 
2260	 0.258557971553344 
2261	 0.256471168234494 
2262	 0.254434269786137 
2263	 0.252351325081462 
2264	 0.250411178991661 
2265	 0.248561530439327 
2266	 0.246717238203338 
2267	 0.245002913590771 
2268	 0.24320174977326 
2269	 0.241335991099961 
2270	 0.239578570056359 
2271	 0.237783741158566 
2272	 0.236135439435079 
2273	 0.234648475051116 
2274	 0.233122516583689 
2275	 0.231723743162853 
2276	 0.230217737908875 
2277	 0.228676695813693 
2278	 0.227112534225661 
2279	 0.225454171987834 
2280	 0.223842518326283 
2281	 0.222272633443049 
2282	 0.220629045481771 
2283	 0.218963557796961 
2284	 0.217320916883344 
2285	 0.215478427726184 
2286	 0.213656134675064 
2287	 0.211752281191889 
2288	 0.209734575462917 
2289	 0.207855895984698 
2290	 0.205874498410112 
2291	 0.203874980995142 
2292	 0.20190807588141 
2293	 0.199780275262377 
2294	 0.1977293057913 
2295	 0.195692233077785 
2296	 0.193645069558847 
2297	 0.191841725197193 
2298	 0.190157462396266 
2299	 0.188621535247961 
2300	 0.187258064902585 
2301	 0.186082946817369 
2302	 0.185000126540449 
2303	 0.184242812481967 
2304	 0.183696867778738 
2305	 0.183503474702208 
2306	 0.183602087283665 
2307	 0.18402015581131 
2308	 0.184744368114078 
2309	 0.185865478823973 
2310	 0.187417854267302 
2311	 0.189154365377822 
2312	 0.191442878457601 
2313	 0.193598645169549 
2314	 0.19597622972006 
2315	 0.198225581627829 
2316	 0.200524012283358 
2317	 0.202650913098801 
2318	 0.20481342784991 
2319	 0.206611655889921 
2320	 0.20827545443181 
2321	 0.209605497810646 
2322	 0.210558388769475 
2323	 0.211346112611905 
2324	 0.211835464644417 
2325	 0.212155744004461 
2326	 0.212233401523143 
2327	 0.212167787718047 
2328	 0.211874685715316 
2329	 0.211462287985929 
2330	 0.210900280793359 
2331	 0.210162302579369 
2332	 0.209259668177731 
2333	 0.208172166800409 
2334	 0.206874275578731 
2335	 0.20549027841044 
2336	 0.203952464928633 
2337	 0.202288372763759 
2338	 0.200639882711133 
2339	 0.198880033950711 
2340	 0.197158375696644 
2341	 0.195520393705965 
2342	 0.193889513101265 
2343	 0.192443948669422 
2344	 0.191203429074971 
2345	 0.190302986277325 
2346	 0.189859192883574 
2347	 0.189805506611348 
2348	 0.190111440237822 
2349	 0.190878667421496 
2350	 0.191994638237884 
2351	 0.193418531494063 
2352	 0.19513236264263 
2353	 0.196997934264737 
2354	 0.198817704359453 
2355	 0.200611889103155 
2356	 0.202250788565067 
2357	 0.203703359825593 
2358	 0.205091054676095 
2359	 0.206128681429518 
2360	 0.206967907732618 
2361	 0.207676976383467 
2362	 0.208137905389463 
2363	 0.208469542958909 
2364	 0.208675323362385 
2365	 0.208777184774904 
2366	 0.208861766465919 
2367	 0.208917903093026 
2368	 0.208966060357307 
2369	 0.20901985492672 
2370	 0.209058060646765 
2371	 0.209083017359458 
2372	 0.209136305251039 
2373	 0.209166679447229 
2374	 0.20909992757789 
2375	 0.20909471695746 
2376	 0.209174530914703 
2377	 0.209263584422054 
2378	 0.209402526381103 
2379	 0.209480568483718 
2380	 0.209496873399849 
2381	 0.209550568865668 
2382	 0.209615859777092 
2383	 0.209717371141601 
2384	 0.209782672586725 
2385	 0.20986515014476 
2386	 0.209891452140544 
2387	 0.209835749367491 
2388	 0.209868869761641 
2389	 0.209915159931232 
2390	 0.209955540658406 
2391	 0.210042481324441 
2392	 0.210097313720776 
2393	 0.210157659479219 
2394	 0.210164931154064 
2395	 0.210136591848388 
2396	 0.210121345237227 
2397	 0.20999670966451 
2398	 0.210061372049371 
2399	 0.210260045597196 
2400	 0.210385667709581 
2401	 0.210627229802137 
2402	 0.210632954012682 
2403	 0.210645191769064 
2404	 0.210730940634689 
2405	 0.210841614626208 
2406	 0.210997088577857 
2407	 0.211084587825432 
2408	 0.211125361763342 
2409	 0.211170234731367 
2410	 0.211220155583138 
2411	 0.211348176332957 
2412	 0.211408857556337 
2413	 0.211390154606665 
2414	 0.211407566252474 
2415	 0.211339148819609 
2416	 0.211291506494196 
2417	 0.211311303741607 
2418	 0.21128216458292 
2419	 0.211249292878471 
2420	 0.211267232577998 
2421	 0.211284546201015 
2422	 0.211226065630496 
2423	 0.211224767406212 
2424	 0.211243189327772 
2425	 0.211214597649918 
2426	 0.211247781128483 
2427	 0.211200560620136 
2428	 0.211021632697466 
2429	 0.21081602208019 
2430	 0.210678670992415 
2431	 0.210666609218927 
2432	 0.210643769499409 
2433	 0.210555163494147 
2434	 0.210314946359342 
2435	 0.209949601899272 
2436	 0.20973269827571 
2437	 0.209545816145827 
2438	 0.209366693267219 
2439	 0.20916035198521 
2440	 0.208782573476672 
2441	 0.208478698382352 
2442	 0.208282919240648 
2443	 0.208120271230193 
2444	 0.207829612279801 
2445	 0.207428383295088 
2446	 0.207054407689387 
2447	 0.206617010316429 
2448	 0.206270103607142 
2449	 0.205959481106237 
2450	 0.205477605858428 
2451	 0.204927701854322 
2452	 0.204394875501548 
2453	 0.203828333743524 
2454	 0.20328476963227 
2455	 0.202791471371475 
2456	 0.202261202864494 
2457	 0.201867936857026 
2458	 0.201554538029499 
2459	 0.201125153662763 
2460	 0.200915456610053 
2461	 0.200691208847272 
2462	 0.200292542494277 
2463	 0.200087746621997 
2464	 0.199785413780865 
2465	 0.199372282671384 
2466	 0.199025279655226 
2467	 0.198692221672328 
2468	 0.198425677362794 
2469	 0.198293618845253 
2470	 0.1982164652247 
2471	 0.198066246396167 
2472	 0.198035935595817 
2473	 0.197998181865865 
2474	 0.197905575516186 
2475	 0.19802270388693 
2476	 0.198067925987691 
2477	 0.198092053601732 
2478	 0.198281359626607 
2479	 0.198411744931731 
2480	 0.198395848879841 
2481	 0.198425267548612 
2482	 0.198474673531701 
2483	 0.198646469397716 
2484	 0.198728694881056 
2485	 0.198873831724392 
2486	 0.199186477227822 
2487	 0.199462516898947 
2488	 0.199778658330045 
2489	 0.200119984518142 
2490	 0.200404290515753 
2491	 0.200644443080208 
2492	 0.200844991324229 
2493	 0.201148004225686 
2494	 0.2013036725478 
2495	 0.201229503585594 
2496	 0.201265565773031 
2497	 0.201309372249656 
2498	 0.20129368988679 
2499	 0.201755842272933 
2500	 0.202343490598012 
