Wavelength	spectrum00021.asd
350	 3.90331070839589E-02 
351	 0.038562020331981 
352	 3.80438227641451E-02 
353	 3.75112620271239E-02 
354	 3.91068671094058E-02 
355	 3.85044717178123E-02 
356	 3.77173234815898E-02 
357	 3.85064450066478E-02 
358	 3.74508857679143E-02 
359	 3.65463590659452E-02 
360	 3.67545748184798E-02 
361	 3.80279607471156E-02 
362	 3.74676053701528E-02 
363	 3.65635656577817E-02 
364	 0.036223631115729 
365	 3.59979133279825E-02 
366	 3.59077602901297E-02 
367	 3.60127775021705E-02 
368	 3.64624108594532E-02 
369	 0.037837327904327 
370	 3.80874430964088E-02 
371	 3.73755054913259E-02 
372	 0.03708764766527 
373	 3.68044334818916E-02 
374	 3.71463376729276E-02 
375	 3.78388656643143E-02 
376	 3.72328931907274E-02 
377	 0.037255925524655 
378	 3.78994962412143E-02 
379	 3.83237928639144E-02 
380	 3.64143827593472E-02 
381	 0.037065860366745 
382	 3.89554172823901E-02 
383	 3.75592296358486E-02 
384	 3.70842503224889E-02 
385	 3.77756292285582E-02 
386	 3.85448027845885E-02 
387	 0.037005231793039 
388	 3.69524241936653E-02 
389	 3.74513649526395E-02 
390	 3.69577682873007E-02 
391	 3.67568715474382E-02 
392	 3.69243625315385E-02 
393	 0.037270620119771 
394	 3.74915789352025E-02 
395	 3.80681561087509E-02 
396	 3.82160947196006E-02 
397	 3.77035404163457E-02 
398	 3.73828758115427E-02 
399	 3.77170012943347E-02 
400	 3.80289353527928E-02 
401	 3.76367291295437E-02 
402	 3.73156492625592E-02 
403	 3.74845948600463E-02 
404	 3.79611912493031E-02 
405	 3.81415989697194E-02 
406	 3.78725341906439E-02 
407	 3.76947353718107E-02 
408	 3.78070146887687E-02 
409	 3.75160631101274E-02 
410	 3.75702219629492E-02 
411	 3.79450873419774E-02 
412	 3.82986229655478E-02 
413	 3.81387304906422E-02 
414	 3.78215365854763E-02 
415	 3.76358905897963E-02 
416	 3.77348253768324E-02 
417	 3.77128773846548E-02 
418	 3.76344823901574E-02 
419	 3.76658316673354E-02 
420	 3.80766350365354E-02 
421	 3.79869536624258E-02 
422	 0.037682813545206 
423	 0.037823150314148 
424	 3.80354422005774E-02 
425	 3.80333514975628E-02 
426	 0.03788324407795 
427	 0.038030888897153 
428	 3.79219202116939E-02 
429	 3.78849762829798E-02 
430	 3.81503367790903E-02 
431	 3.80351871418887E-02 
432	 3.80535319575606E-02 
433	 3.81373069825962E-02 
434	 0.037951478108465 
435	 3.79767552965542E-02 
436	 0.03798944262437 
437	 3.79089981305743E-02 
438	 3.79994697269214E-02 
439	 3.81751214968849E-02 
440	 3.83211458231378E-02 
441	 3.83241144855378E-02 
442	 3.80766529348993E-02 
443	 3.81722939054351E-02 
444	 3.84606950955375E-02 
445	 3.82451244170873E-02 
446	 0.038271296218671 
447	 3.82513640932725E-02 
448	 3.80402867887578E-02 
449	 3.81972988131794E-02 
450	 3.82375896066008E-02 
451	 3.82202112874345E-02 
452	 3.83482722079725E-02 
453	 3.83588216313561E-02 
454	 3.83328748634099E-02 
455	 3.83385215800016E-02 
456	 3.83999594125092E-02 
457	 0.038461233462926 
458	 3.84713391581476E-02 
459	 3.84209532037857E-02 
460	 3.84050849611135E-02 
461	 3.84350081788655E-02 
462	 3.84613244586429E-02 
463	 3.84210740806285E-02 
464	 3.84619681647751E-02 
465	 3.85659793726153E-02 
466	 3.86286336815821E-02 
467	 3.84296657663165E-02 
468	 3.85047934865369E-02 
469	 3.86544837834196E-02 
470	 3.85889812950081E-02 
471	 3.86349862893609E-02 
472	 3.86355623719363E-02 
473	 3.85864637034554E-02 
474	 3.86075754650244E-02 
475	 3.86114637152457E-02 
476	 3.86262087986673E-02 
477	 0.03865736136568 
478	 3.86181490553584E-02 
479	 3.85602827712694E-02 
480	 3.85729374983706E-02 
481	 3.87032529407726E-02 
482	 3.86496754819886E-02 
483	 3.86022370332548E-02 
484	 3.86342248619668E-02 
485	 3.86448025438085E-02 
486	 0.038779605126566 
487	 3.88209654077458E-02 
488	 3.86525622070454E-02 
489	 3.87260580930867E-02 
490	 3.87676942120328E-02 
491	 3.87685642273959E-02 
492	 3.88567194191432E-02 
493	 3.88617873283671E-02 
494	 3.88500192502062E-02 
495	 0.038873766797535 
496	 3.89182616353351E-02 
497	 3.89193142799111E-02 
498	 3.88883225721311E-02 
499	 3.88662380614677E-02 
500	 3.89032735375472E-02 
501	 3.89044380506964E-02 
502	 3.88616065529267E-02 
503	 3.88498705725372E-02 
504	 0.038951106342195 
505	 0.038953883626669 
506	 3.87891347972991E-02 
507	 3.88575795827653E-02 
508	 3.89451066401825E-02 
509	 3.89827508832094E-02 
510	 3.89711274264602E-02 
511	 3.89373548663946E-02 
512	 3.89386270246461E-02 
513	 3.89837285556268E-02 
514	 3.90198713829213E-02 
515	 0.03896842544062 
516	 3.89444610488741E-02 
517	 3.90275654044922E-02 
518	 3.89743723591012E-02 
519	 3.90076733866537E-02 
520	 3.90993717061385E-02 
521	 3.90612150376017E-02 
522	 3.90704383202921E-02 
523	 0.039078851681561 
524	 3.90506878146446E-02 
525	 3.90363950411261E-02 
526	 3.90224626562731E-02 
527	 3.90556364135859E-02 
528	 3.91618494969208E-02 
529	 3.91428221855097E-02 
530	 3.91295265370294E-02 
531	 3.91655354015501E-02 
532	 3.91799531917733E-02 
533	 3.91709202495512E-02 
534	 3.91718652818258E-02 
535	 3.91987550469506E-02 
536	 3.91891752525118E-02 
537	 3.91940097315201E-02 
538	 3.92186038184432E-02 
539	 3.92415732000689E-02 
540	 3.92479186312251E-02 
541	 3.92857065898989E-02 
542	 3.93519267994682E-02 
543	 3.93492692719533E-02 
544	 3.93542865045879E-02 
545	 3.93559810036764E-02 
546	 3.93370816052367E-02 
547	 3.93766200835242E-02 
548	 3.94081454849856E-02 
549	 3.94013676223879E-02 
550	 3.93655311935504E-02 
551	 3.93207608648359E-02 
552	 3.93013746504051E-02 
553	 3.93070115704973E-02 
554	 0.039242733494942 
555	 0.03920242175418 
556	 3.91818666326086E-02 
557	 3.91358216772565E-02 
558	 3.90833314348563E-02 
559	 3.90721451510114E-02 
560	 0.03909334322696 
561	 3.90566498449781E-02 
562	 3.90598655886788E-02 
563	 3.91050371365704E-02 
564	 3.91648641383199E-02 
565	 3.92141341196137E-02 
566	 3.92397991028879E-02 
567	 3.92588394907408E-02 
568	 3.93038361729221E-02 
569	 3.92976950680682E-02 
570	 3.92641001179746E-02 
571	 0.039240419999185 
572	 3.92617227694851E-02 
573	 0.039267033310889 
574	 3.92636564807813E-02 
575	 3.92849816325168E-02 
576	 3.93461783482224E-02 
577	 3.94024292787234E-02 
578	 3.94477724847716E-02 
579	 3.95237070752565E-02 
580	 3.95711163938463E-02 
581	 3.95876809290706E-02 
582	 0.03959128588945 
583	 0.039616791226285 
584	 3.96333604997133E-02 
585	 0.039638991537703 
586	 0.039649462649339 
587	 3.96724348731726E-02 
588	 3.96899035216164E-02 
589	 3.96951520106034E-02 
590	 3.97059006641784E-02 
591	 3.96928986024483E-02 
592	 3.96757443562016E-02 
593	 3.96767363586033E-02 
594	 3.96542415004434E-02 
595	 3.96704051942541E-02 
596	 0.03971055694558 
597	 3.96956503930182E-02 
598	 3.96930971944964E-02 
599	 3.97192667367553E-02 
600	 0.039759165625692 
601	 3.97394140942212E-02 
602	 0.039759255466718 
603	 3.98009290229235E-02 
604	 3.98042134016949E-02 
605	 3.98016983218389E-02 
606	 3.98038989405301E-02 
607	 3.98172301634759E-02 
608	 3.98447872887623E-02 
609	 3.98647707429301E-02 
610	 3.98792104198019E-02 
611	 3.98930646751545E-02 
612	 3.98976279534348E-02 
613	 3.98995865048723E-02 
614	 3.99100937108987E-02 
615	 3.99375555758286E-02 
616	 3.99283990120977E-02 
617	 3.99488611548466E-02 
618	 4.00185800200977E-02 
619	 4.00485680060691E-02 
620	 4.00592038703347E-02 
621	 4.00735706686892E-02 
622	 4.01074109039639E-02 
623	 4.01253209891901E-02 
624	 4.01329171831576E-02 
625	 4.01527947651573E-02 
626	 4.02157277197947E-02 
627	 4.02269582471114E-02 
628	 4.02352478382657E-02 
629	 4.02806130478926E-02 
630	 0.040314523989144 
631	 4.03156216219062E-02 
632	 4.03274519199175E-02 
633	 4.04024635926515E-02 
634	 4.04264123913513E-02 
635	 4.04426097240523E-02 
636	 4.04799558579833E-02 
637	 4.05318486259141E-02 
638	 4.05470405954773E-02 
639	 4.05543609616051E-02 
640	 4.05887138597452E-02 
641	 4.06351663867653E-02 
642	 4.06752415814134E-02 
643	 4.07030488755476E-02 
644	 4.07257009618581E-02 
645	 4.07837601232385E-02 
646	 4.08456121259421E-02 
647	 4.08850102873423E-02 
648	 4.08971151799043E-02 
649	 4.09532661414385E-02 
650	 4.10217910543674E-02 
651	 4.10520622476182E-02 
652	 4.10609708104603E-02 
653	 4.10896782938713E-02 
654	 4.11527988298827E-02 
655	 4.12371204852892E-02 
656	 4.12770000958883E-02 
657	 0.04131919954947 
658	 4.13909278340559E-02 
659	 4.14372183794982E-02 
660	 4.14847631467232E-02 
661	 4.15362332086555E-02 
662	 4.15881114520872E-02 
663	 4.16509911307233E-02 
664	 4.16966872693585E-02 
665	 4.17400147280068E-02 
666	 4.18364218089052E-02 
667	 4.19074295340005E-02 
668	 4.19602787841486E-02 
669	 4.20153099497404E-02 
670	 4.20788846100465E-02 
671	 4.21481307062448E-02 
672	 4.22177248543978E-02 
673	 4.22805170981783E-02 
674	 4.23253728949048E-02 
675	 0.042376643444859 
676	 4.24461268069636E-02 
677	 0.042526660870705 
678	 4.25933601052886E-02 
679	 4.26667181793741E-02 
680	 4.27598276183786E-02 
681	 4.28260528607193E-02 
682	 4.29151558330601E-02 
683	 4.30137202951377E-02 
684	 0.043079776205843 
685	 4.31452821046062E-02 
686	 0.043219428015546 
687	 4.33108650177614E-02 
688	 4.34318027845559E-02 
689	 0.043513260925648 
690	 4.35821525097356E-02 
691	 4.36775372158225E-02 
692	 4.37822075855985E-02 
693	 4.38926264513803E-02 
694	 4.40019552206308E-02 
695	 4.41008082880459E-02 
696	 0.044174162477917 
697	 4.42551832313644E-02 
698	 4.43633040646707E-02 
699	 4.44889654493206E-02 
700	 4.45854614296031E-02 
701	 4.46778322784251E-02 
702	 4.47961788379269E-02 
703	 4.48971047386496E-02 
704	 4.50369358446684E-02 
705	 4.51864485141252E-02 
706	 0.045268774373602 
707	 4.53736866286604E-02 
708	 4.54944031735031E-02 
709	 4.56149493215331E-02 
710	 4.57257823367414E-02 
711	 4.58487427979164E-02 
712	 4.59787449201539E-02 
713	 4.61068413550263E-02 
714	 4.62446674682288E-02 
715	 4.63826840314718E-02 
716	 4.65171322292562E-02 
717	 4.66502530403067E-02 
718	 4.68006042917905E-02 
719	 4.69460698299339E-02 
720	 4.70752967035004E-02 
721	 4.72030574913866E-02 
722	 4.73444881145234E-02 
723	 4.74955588032259E-02 
724	 4.76460655638373E-02 
725	 4.77894008714639E-02 
726	 4.79463176103078E-02 
727	 4.81173499522237E-02 
728	 4.82864879969106E-02 
729	 4.84284809381375E-02 
730	 4.85804715267395E-02 
731	 0.048755873848042 
732	 4.89154025222781E-02 
733	 4.90822604587124E-02 
734	 4.92557287719196E-02 
735	 4.94282857944342E-02 
736	 4.95906401884652E-02 
737	 4.97614216326844E-02 
738	 0.049935321867172 
739	 5.00961248731961E-02 
740	 5.02921422177112E-02 
741	 5.04781716233615E-02 
742	 5.06370487339471E-02 
743	 5.08099582903844E-02 
744	 0.050997368875486 
745	 5.12020419985024E-02 
746	 5.14154626219546E-02 
747	 5.15929162570766E-02 
748	 5.17922384346903E-02 
749	 5.20015551232936E-02 
750	 5.21772363397882E-02 
751	 5.23691714862443E-02 
752	 5.25939854083444E-02 
753	 5.28302393439134E-02 
754	 5.30150356468488E-02 
755	 5.32231287623641E-02 
756	 5.34389603604867E-02 
757	 5.36387176581081E-02 
758	 5.38357317240092E-02 
759	 5.40427242652793E-02 
760	 5.42576879964256E-02 
761	 5.44736270930584E-02 
762	 5.47054445370161E-02 
763	 5.49400622945026E-02 
764	 5.51736894953498E-02 
765	 5.54142721144969E-02 
766	 5.56388850330123E-02 
767	 5.58668100675614E-02 
768	 5.61114521548018E-02 
769	 5.63548599962919E-02 
770	 5.65865157962772E-02 
771	 5.68219166341212E-02 
772	 5.70771211871545E-02 
773	 5.73164927543901E-02 
774	 5.75648084944028E-02 
775	 5.78163616774897E-02 
776	 5.80447234935406E-02 
777	 5.83035104983191E-02 
778	 5.85800218184157E-02 
779	 0.058852538599134 
780	 5.91020084768731E-02 
781	 5.93390575943623E-02 
782	 5.95833553977784E-02 
783	 5.98511207213741E-02 
784	 6.01383222058224E-02 
785	 6.04191054602867E-02 
786	 6.06895430414467E-02 
787	 6.09593957963412E-02 
788	 6.12314494093491E-02 
789	 6.15124694638137E-02 
790	 6.18003186051927E-02 
791	 6.20830602831394E-02 
792	 6.23669925943115E-02 
793	 6.26566942602055E-02 
794	 6.29490703606178E-02 
795	 6.32212828048779E-02 
796	 6.35071013718207E-02 
797	 0.063817441714759 
798	 6.41388207254029E-02 
799	 6.43908477642512E-02 
800	 6.46622487910409E-02 
801	 6.49713586768983E-02 
802	 6.52765432543784E-02 
803	 6.55876414765004E-02 
804	 6.58917326914372E-02 
805	 6.61918057754545E-02 
806	 6.65175634101908E-02 
807	 6.68437349342985E-02 
808	 6.71656537119158E-02 
809	 6.74840236064556E-02 
810	 6.77965228387736E-02 
811	 6.81297980038108E-02 
812	 6.84576193511941E-02 
813	 6.87487229239545E-02 
814	 0.069087192350615 
815	 6.94284665033122E-02 
816	 6.97530318960873E-02 
817	 7.00730573495768E-02 
818	 7.04181829663029E-02 
819	 7.07600584832443E-02 
820	 7.10852009843739E-02 
821	 7.14195515826472E-02 
822	 7.17559220204184E-02 
823	 7.21092242857695E-02 
824	 7.24813427332695E-02 
825	 7.28204380971454E-02 
826	 7.31516482793355E-02 
827	 7.34824320258784E-02 
828	 7.38182054461344E-02 
829	 7.41991798673462E-02 
830	 7.45695072451812E-02 
831	 7.49116535047076E-02 
832	 7.52495970717577E-02 
833	 7.56118594219977E-02 
834	 0.075989422302844 
835	 7.63713178277585E-02 
836	 7.67551960591318E-02 
837	 7.71215531294886E-02 
838	 7.74715505251342E-02 
839	 7.78211151101165E-02 
840	 7.82132116118259E-02 
841	 7.85901933313905E-02 
842	 0.078949277028451 
843	 7.93096092811671E-02 
844	 7.96662864312496E-02 
845	 8.00546035898025E-02 
846	 8.04582971847589E-02 
847	 8.08302440534187E-02 
848	 8.12191202213203E-02 
849	 8.15938056812029E-02 
850	 8.19543220078052E-02 
851	 8.23465614632622E-02 
852	 8.27363302983327E-02 
853	 8.31355346026737E-02 
854	 8.35502122076408E-02 
855	 8.39554935967218E-02 
856	 8.43480757767943E-02 
857	 8.47260187247859E-02 
858	 8.50992222719548E-02 
859	 8.55148831885736E-02 
860	 8.59248484483452E-02 
861	 8.63373807322413E-02 
862	 8.67766852147908E-02 
863	 8.71752839231538E-02 
864	 8.75851328839283E-02 
865	 8.80057121777365E-02 
866	 8.83906692517192E-02 
867	 8.87650720518506E-02 
868	 8.91856930893172E-02 
869	 8.96480660628813E-02 
870	 9.00632601233601E-02 
871	 9.04794810903946E-02 
872	 9.09061111166914E-02 
873	 9.13384922989948E-02 
874	 9.17581258010134E-02 
875	 0.092199451739644 
876	 9.26177059610294E-02 
877	 9.29861962540734E-02 
878	 9.34245288977319E-02 
879	 9.38763902567676E-02 
880	 9.43121101614051E-02 
881	 9.47282043901823E-02 
882	 9.51846111424831E-02 
883	 9.55997682001842E-02 
884	 0.095991835739705 
885	 9.64495988146239E-02 
886	 9.69179385843074E-02 
887	 9.73721715988395E-02 
888	 9.77996480590129E-02 
889	 9.82021343268701E-02 
890	 9.86568534905818E-02 
891	 9.91045425569175E-02 
892	 9.95173374044366E-02 
893	 9.99629028804734E-02 
894	 0.100441543253971 
895	 0.100903244519113 
896	 0.101323972708315 
897	 0.101782445081358 
898	 0.102230127893983 
899	 0.102661239309353 
900	 0.103090748150324 
901	 0.103555268145442 
902	 0.103980780505318 
903	 0.104412027879436 
904	 0.104916288748348 
905	 0.105338686610859 
906	 0.105779775930977 
907	 0.106248929083458 
908	 0.106690357375657 
909	 0.107167587115696 
910	 0.107638881415836 
911	 0.108094293379822 
912	 0.108564353777522 
913	 0.109031687296597 
914	 0.109518401280902 
915	 0.110011818403797 
916	 0.110451621664497 
917	 0.110919081591922 
918	 0.111415408346776 
919	 0.111921512082339 
920	 0.112415841029168 
921	 0.112870651137429 
922	 0.113306317359877 
923	 0.113764598233287 
924	 0.114306777855776 
925	 0.114821107411894 
926	 0.115307680156348 
927	 0.115799185322243 
928	 0.116297985319175 
929	 0.116787447990207 
930	 0.117268076685729 
931	 0.11774738609928 
932	 0.118225912137618 
933	 0.118716171333182 
934	 0.119228196416593 
935	 0.119756051344224 
936	 0.120217194257138 
937	 0.120752080866071 
938	 0.121296851959614 
939	 0.121699231346413 
940	 0.122272429428885 
941	 0.122853210423556 
942	 0.123369948853329 
943	 0.123873799987421 
944	 0.124420872859523 
945	 0.124894728674234 
946	 0.125329791827364 
947	 0.125906623590435 
948	 0.126396180671499 
949	 0.126833820060706 
950	 0.127297757198268 
951	 0.127853843002912 
952	 0.128363839573891 
953	 0.128851190915864 
954	 0.129341253096024 
955	 0.129818364981628 
956	 0.130301601215656 
957	 0.130817057701606 
958	 0.131370570641468 
959	 0.131932350458504 
960	 0.132397312128594 
961	 0.132879304605125 
962	 0.133445961233204 
963	 0.133969152176588 
964	 0.134428704560488 
965	 0.134868151203798 
966	 0.135340389638142 
967	 0.135871400501342 
968	 0.136351859333547 
969	 0.136844260214318 
970	 0.137404401298664 
971	 0.137940149152717 
972	 0.138517250900707 
973	 0.13901804872003 
974	 0.139400014662822 
975	 0.139972162747489 
976	 0.140529582226908 
977	 0.1410967439047 
978	 0.141697813888496 
979	 0.142126881201576 
980	 0.142642854156675 
981	 0.143193005981586 
982	 0.143670348822878 
983	 0.144150650837364 
984	 0.144743385459419 
985	 0.145360229872967 
986	 0.145878856288018 
987	 0.146319794454837 
988	 0.146829265033457 
989	 0.147422373222804 
990	 0.148030470346921 
991	 0.148504079193712 
992	 0.149069375292811 
993	 0.149669623632319 
994	 0.150182687387167 
995	 0.150643394699108 
996	 0.151184616447895 
997	 0.151718253473339 
998	 0.152175659936584 
999	 0.152856986968156 
1000	 0.153346209014426 
1001	 0.156908528014294 
1002	 0.157484802180565 
1003	 0.158088772754084 
1004	 0.158629414898357 
1005	 0.159123478057564 
1006	 0.159662585908486 
1007	 0.160178914182784 
1008	 0.160731181034891 
1009	 0.161351625927973 
1010	 0.161880732878283 
1011	 0.162358766251714 
1012	 0.162883010463392 
1013	 0.163356635305555 
1014	 0.16389320611449 
1015	 0.164504164951988 
1016	 0.165087904877432 
1017	 0.165676830305615 
1018	 0.166249315251251 
1019	 0.166827680489454 
1020	 0.167407544332591 
1021	 0.167964839948693 
1022	 0.168515285269332 
1023	 0.169067922030452 
1024	 0.169580772674841 
1025	 0.170143678554258 
1026	 0.170742688433499 
1027	 0.171316336260678 
1028	 0.171895226439527 
1029	 0.172484106133395 
1030	 0.173078331416543 
1031	 0.17368782748275 
1032	 0.174221881654818 
1033	 0.174778962396765 
1034	 0.175365204941802 
1035	 0.175884513500115 
1036	 0.176453575533055 
1037	 0.177117669585929 
1038	 0.177682869850076 
1039	 0.178194994052143 
1040	 0.178738283910814 
1041	 0.179238617436719 
1042	 0.179779511007944 
1043	 0.180366411180136 
1044	 0.18090452282563 
1045	 0.181450741362987 
1046	 0.182041714037678 
1047	 0.18259026072052 
1048	 0.18317825633355 
1049	 0.183737061147603 
1050	 0.184264213987045 
1051	 0.184857629455808 
1052	 0.185434382246896 
1053	 0.186012478863508 
1054	 0.186640310451814 
1055	 0.187211440782434 
1056	 0.187731127101369 
1057	 0.188285735345756 
1058	 0.188820926892979 
1059	 0.189391146493388 
1060	 0.190022549206232 
1061	 0.190615410343499 
1062	 0.191229781800996 
1063	 0.191850305175575 
1064	 0.192401460275133 
1065	 0.192952132981348 
1066	 0.193519484297669 
1067	 0.194094725442806 
1068	 0.194686383258634 
1069	 0.195267707311146 
1070	 0.195869752841063 
1071	 0.196483145230699 
1072	 0.19708348306305 
1073	 0.197679709759346 
1074	 0.198305757744624 
1075	 0.198877611217709 
1076	 0.199415874460231 
1077	 0.199969341512862 
1078	 0.200491045183196 
1079	 0.201062742074679 
1080	 0.201691631572388 
1081	 0.202289363925171 
1082	 0.202908083854861 
1083	 0.203500679365606 
1084	 0.204068683847755 
1085	 0.204685819263094 
1086	 0.205277990282009 
1087	 0.205866356533085 
1088	 0.206457741606735 
1089	 0.207036466127856 
1090	 0.207574016430918 
1091	 0.208148819061217 
1092	 0.208726697353553 
1093	 0.209309799067251 
1094	 0.209912447068448 
1095	 0.210479486499731 
1096	 0.211062199748425 
1097	 0.211664321958167 
1098	 0.212231399668708 
1099	 0.212783092465783 
1100	 0.213327751502369 
1101	 0.213865696654606 
1102	 0.214421514650631 
1103	 0.214986537826388 
1104	 0.215577092808564 
1105	 0.216180815583545 
1106	 0.216753273389703 
1107	 0.217281749453813 
1108	 0.217832109446472 
1109	 0.218371945917157 
1110	 0.218912198478185 
1111	 0.219506541443061 
1112	 0.220070355246904 
1113	 0.220608055167396 
1114	 0.22116041878121 
1115	 0.221682362818249 
1116	 0.22220811123946 
1117	 0.222742065484117 
1118	 0.223267796421031 
1119	 0.2237868247994 
1120	 0.224303659961017 
1121	 0.22480451609162 
1122	 0.22534494624154 
1123	 0.225893293947893 
1124	 0.226399626501283 
1125	 0.226939367566377 
1126	 0.227435729860657 
1127	 0.227914550075032 
1128	 0.228445222446888 
1129	 0.228931058510197 
1130	 0.229424224454747 
1131	 0.229910024236202 
1132	 0.230340805053435 
1133	 0.230818559950716 
1134	 0.231295222819178 
1135	 0.231761638714044 
1136	 0.232239163397588 
1137	 0.23270412585315 
1138	 0.233135128865786 
1139	 0.233603930771553 
1140	 0.234099110301958 
1141	 0.234561710512983 
1142	 0.23503442394096 
1143	 0.235473749296025 
1144	 0.235887439728542 
1145	 0.236330389443761 
1146	 0.236760280474795 
1147	 0.237208341562476 
1148	 0.23765736949377 
1149	 0.238061841913571 
1150	 0.238472469375169 
1151	 0.238888368734656 
1152	 0.239310573358459 
1153	 0.239737133839481 
1154	 0.24016724084761 
1155	 0.240612378748768 
1156	 0.241042151508795 
1157	 0.241467548312004 
1158	 0.241876589997697 
1159	 0.242270894853292 
1160	 0.242669718362835 
1161	 0.243068442029613 
1162	 0.243468635961657 
1163	 0.243860605053171 
1164	 0.24427518920545 
1165	 0.244686851465114 
1166	 0.245064491135366 
1167	 0.245457124523116 
1168	 0.245826728834085 
1169	 0.246200524687569 
1170	 0.246563514692429 
1171	 0.246942787886199 
1172	 0.247332178195789 
1173	 0.247716213563974 
1174	 0.248103006082667 
1175	 0.248475752086995 
1176	 0.248844535392547 
1177	 0.249204246429862 
1178	 0.249553387728966 
1179	 0.249903820032083 
1180	 0.250238297345451 
1181	 0.250583918253349 
1182	 0.250915674343268 
1183	 0.25124123511358 
1184	 0.251582776801382 
1185	 0.251904920374139 
1186	 0.252246284295157 
1187	 0.252600084480218 
1188	 0.252952605069458 
1189	 0.253311338102014 
1190	 0.25367769550697 
1191	 0.254029798835278 
1192	 0.25441168995963 
1193	 0.254814256866398 
1194	 0.255222010786548 
1195	 0.25565882573365 
1196	 0.256091740320652 
1197	 0.256528468428966 
1198	 0.256962557813428 
1199	 0.257419219697665 
1200	 0.257853004268798 
1201	 0.258306668446903 
1202	 0.258769991225262 
1203	 0.259234272211088 
1204	 0.259746123200752 
1205	 0.260249800197275 
1206	 0.260765270265447 
1207	 0.261296296876481 
1208	 0.261826129569572 
1209	 0.262384455189881 
1210	 0.262959451127221 
1211	 0.263565917696641 
1212	 0.264211987512122 
1213	 0.264857536179142 
1214	 0.265517200889254 
1215	 0.26620335692424 
1216	 0.266897699688621 
1217	 0.267608558088701 
1218	 0.268353949024898 
1219	 0.26910474979431 
1220	 0.269858173025375 
1221	 0.270660599505678 
1222	 0.27143153206739 
1223	 0.272216738593808 
1224	 0.272994023967037 
1225	 0.273769696753652 
1226	 0.274510946403173 
1227	 0.275239808570168 
1228	 0.275969932351232 
1229	 0.276685017717435 
1230	 0.277384117276374 
1231	 0.278086408972238 
1232	 0.2787730469283 
1233	 0.279423046484832 
1234	 0.280073382851747 
1235	 0.280726918137857 
1236	 0.281369637680607 
1237	 0.281999782653866 
1238	 0.282621389989613 
1239	 0.283224685976916 
1240	 0.283840716181161 
1241	 0.284477435693994 
1242	 0.285071606692962 
1243	 0.285654786786134 
1244	 0.286232926467748 
1245	 0.286804257590055 
1246	 0.287339574041334 
1247	 0.287903098219845 
1248	 0.288485826501771 
1249	 0.289060799529899 
1250	 0.289636082410941 
1251	 0.290200838036876 
1252	 0.290774472632545 
1253	 0.291327219361901 
1254	 0.291868413701422 
1255	 0.292398716869088 
1256	 0.292905314022851 
1257	 0.293425497667138 
1258	 0.293953144677312 
1259	 0.294459024051312 
1260	 0.294954049920967 
1261	 0.295455397897834 
1262	 0.295930050979 
1263	 0.296429618571915 
1264	 0.296927677387412 
1265	 0.297443603244843 
1266	 0.297947669276168 
1267	 0.298452275703846 
1268	 0.298940244645705 
1269	 0.299418398182994 
1270	 0.299902175403467 
1271	 0.300373253476793 
1272	 0.300853052942053 
1273	 0.301344983669055 
1274	 0.301826028293036 
1275	 0.302287042879975 
1276	 0.302770652131647 
1277	 0.303274667637207 
1278	 0.30375691138485 
1279	 0.304242432051535 
1280	 0.304719127846046 
1281	 0.305155565519169 
1282	 0.305624584859532 
1283	 0.306116790687878 
1284	 0.306598898349015 
1285	 0.307083324743321 
1286	 0.30757361952291 
1287	 0.308075856781378 
1288	 0.308576766159319 
1289	 0.30908283669825 
1290	 0.30960934651008 
1291	 0.310119011478017 
1292	 0.310620836973778 
1293	 0.311115852327084 
1294	 0.311600104059209 
1295	 0.312097927082729 
1296	 0.312593279221396 
1297	 0.313088508103755 
1298	 0.313599117476091 
1299	 0.314094820632665 
1300	 0.314571821837778 
1301	 0.315059850664606 
1302	 0.31555076172486 
1303	 0.316040082055043 
1304	 0.316534943556981 
1305	 0.317022710453341 
1306	 0.317497924053644 
1307	 0.317983620735537 
1308	 0.318464451575887 
1309	 0.318968055407361 
1310	 0.319436921641139 
1311	 0.319900514014695 
1312	 0.320364383736033 
1313	 0.320808151704049 
1314	 0.321260837241465 
1315	 0.321724746114874 
1316	 0.322178155203788 
1317	 0.322624559849018 
1318	 0.323063614438129 
1319	 0.323506929525847 
1320	 0.323931544730008 
1321	 0.32433735494665 
1322	 0.324743298898118 
1323	 0.325131909027751 
1324	 0.325536134829954 
1325	 0.32595081716612 
1326	 0.326351486345142 
1327	 0.326760741911138 
1328	 0.327153070618817 
1329	 0.327530779716115 
1330	 0.327898374357592 
1331	 0.3282479948514 
1332	 0.328603972070294 
1333	 0.328948038205616 
1334	 0.329305069937869 
1335	 0.329643334591476 
1336	 0.329985778023582 
1337	 0.330307848197483 
1338	 0.330613950815462 
1339	 0.330909283436392 
1340	 0.331191693629283 
1341	 0.331475918473738 
1342	 0.331752320243672 
1343	 0.3320197145308 
1344	 0.332291504376575 
1345	 0.332541663651617 
1346	 0.332776551092748 
1347	 0.332997375901038 
1348	 0.333208098581411 
1349	 0.333403506536109 
1350	 0.333576461231302 
1351	 0.333750863517555 
1352	 0.333911900439302 
1353	 0.334076864553515 
1354	 0.334241485884998 
1355	 0.334401440480527 
1356	 0.334558476877726 
1357	 0.334715961666664 
1358	 0.334870588857268 
1359	 0.335024983577335 
1360	 0.335184477107836 
1361	 0.335332014985375 
1362	 0.335493541091263 
1363	 0.335644645931677 
1364	 0.335784779566651 
1365	 0.335923591447702 
1366	 0.33604928013359 
1367	 0.336159958419583 
1368	 0.336263636741675 
1369	 0.33635964183517 
1370	 0.336452879066774 
1371	 0.336543569309509 
1372	 0.336611816026204 
1373	 0.336673797141517 
1374	 0.336719660024256 
1375	 0.336739717777606 
1376	 0.336761084694216 
1377	 0.336780919191801 
1378	 0.336786522306551 
1379	 0.336774369948294 
1380	 0.336766507207351 
1381	 0.336751405268329 
1382	 0.336735992929558 
1383	 0.336722914396297 
1384	 0.336703093720116 
1385	 0.336656960958174 
1386	 0.336645786755626 
1387	 0.33664370966022 
1388	 0.336655258472406 
1389	 0.336690246095513 
1390	 0.336737327059244 
1391	 0.336796090052161 
1392	 0.336864039395381 
1393	 0.336948181280556 
1394	 0.337039786730515 
1395	 0.337107490512691 
1396	 0.337181083931644 
1397	 0.33720403907307 
1398	 0.337211712112274 
1399	 0.337167322265636 
1400	 0.337090175800296 
1401	 0.336960146362495 
1402	 0.336792144627929 
1403	 0.336568998904475 
1404	 0.336280575305307 
1405	 0.335983747582562 
1406	 0.335641390914747 
1407	 0.335290391826978 
1408	 0.334896009693616 
1409	 0.334533707713944 
1410	 0.334139132105011 
1411	 0.333803539232393 
1412	 0.3334842946391 
1413	 0.333226129218604 
1414	 0.333001391052454 
1415	 0.332832985109229 
1416	 0.332721981290182 
1417	 0.332651358189126 
1418	 0.332647537328177 
1419	 0.332650519130442 
1420	 0.332706740407884 
1421	 0.33275439795816 
1422	 0.332804854013441 
1423	 0.332869127010377 
1424	 0.332940765625378 
1425	 0.333023932116722 
1426	 0.333118018587437 
1427	 0.333230124756352 
1428	 0.333361549817029 
1429	 0.333495937255837 
1430	 0.333659323342245 
1431	 0.333840031049433 
1432	 0.334051885946896 
1433	 0.334294886133554 
1434	 0.334540197122723 
1435	 0.334809369705393 
1436	 0.335083626992461 
1437	 0.335354107536395 
1438	 0.335660663549086 
1439	 0.335997041236662 
1440	 0.336336527292032 
1441	 0.336697426326289 
1442	 0.337063660129889 
1443	 0.337436485906756 
1444	 0.337823923195484 
1445	 0.338228458718549 
1446	 0.338633485923112 
1447	 0.339053280110632 
1448	 0.339465153752519 
1449	 0.339876665863421 
1450	 0.34029437223825 
1451	 0.340712959529024 
1452	 0.341133819977476 
1453	 0.341556664610498 
1454	 0.34198590185581 
1455	 0.342421583196709 
1456	 0.342853683375578 
1457	 0.34329821566817 
1458	 0.343731541496095 
1459	 0.344158001164129 
1460	 0.344579718299348 
1461	 0.344991562275533 
1462	 0.345403638892445 
1463	 0.345802564043486 
1464	 0.346215736778346 
1465	 0.346628548549984 
1466	 0.347062883974409 
1467	 0.347490735432854 
1468	 0.347924184517968 
1469	 0.348372910208926 
1470	 0.348798947778699 
1471	 0.349231873485734 
1472	 0.349672380870197 
1473	 0.350099068926137 
1474	 0.350514952338555 
1475	 0.350934731894731 
1476	 0.351358849606215 
1477	 0.351763955249583 
1478	 0.352157376857645 
1479	 0.352551607708575 
1480	 0.352940568371476 
1481	 0.353312301168122 
1482	 0.353684196965134 
1483	 0.354037836746593 
1484	 0.354366635394209 
1485	 0.354696065178524 
1486	 0.355014436844678 
1487	 0.355335154556348 
1488	 0.35563555250437 
1489	 0.355967486631654 
1490	 0.356316872339371 
1491	 0.356665957145727 
1492	 0.357039280555647 
1493	 0.357391973693728 
1494	 0.357722496766283 
1495	 0.358079052189226 
1496	 0.35844468104908 
1497	 0.358809494527105 
1498	 0.359188301242937 
1499	 0.359568108834382 
1500	 0.359938656959831 
1501	 0.360323488866265 
1502	 0.36071630225346 
1503	 0.361122125844587 
1504	 0.361545267266338 
1505	 0.361962830985254 
1506	 0.362397620842264 
1507	 0.362820186297748 
1508	 0.36322834884985 
1509	 0.363643228889745 
1510	 0.364062288981286 
1511	 0.364472990731381 
1512	 0.364882040738629 
1513	 0.365288630939521 
1514	 0.365684830981493 
1515	 0.366086568503841 
1516	 0.366488238464441 
1517	 0.366894501239728 
1518	 0.367316905077513 
1519	 0.367718683862118 
1520	 0.36810632397448 
1521	 0.368498546750124 
1522	 0.368874294651316 
1523	 0.369275201095511 
1524	 0.369679233660722 
1525	 0.37010201160637 
1526	 0.370515263826936 
1527	 0.370930445025982 
1528	 0.371340491318871 
1529	 0.371749092666926 
1530	 0.372163008039275 
1531	 0.372577550716501 
1532	 0.372987373060255 
1533	 0.373397462240213 
1534	 0.373813955243524 
1535	 0.37422464261234 
1536	 0.374646030747525 
1537	 0.375087658983443 
1538	 0.375503254229153 
1539	 0.375918496416894 
1540	 0.376308548197769 
1541	 0.37667401143467 
1542	 0.377049255027574 
1543	 0.377413897597011 
1544	 0.377776457767364 
1545	 0.37814628340627 
1546	 0.378496701071153 
1547	 0.378827782933119 
1548	 0.379166522336752 
1549	 0.379512138976626 
1550	 0.379828056882163 
1551	 0.380129250975663 
1552	 0.380429474020262 
1553	 0.380699424580378 
1554	 0.380993492735968 
1555	 0.381307908627198 
1556	 0.381602039674207 
1557	 0.381886812289792 
1558	 0.382180440625918 
1559	 0.38246536799213 
1560	 0.382761754191603 
1561	 0.383068293834355 
1562	 0.383378654592507 
1563	 0.38369304914097 
1564	 0.384009798021645 
1565	 0.384332398640739 
1566	 0.384659821517919 
1567	 0.384988963610331 
1568	 0.385323091445989 
1569	 0.38567004772201 
1570	 0.386008737140971 
1571	 0.386355431898333 
1572	 0.386681191088741 
1573	 0.386988406035783 
1574	 0.387305733443182 
1575	 0.38761323668181 
1576	 0.387925882131534 
1577	 0.38825362264549 
1578	 0.388566331220503 
1579	 0.388857361304187 
1580	 0.389170533709224 
1581	 0.389494955889495 
1582	 0.389812204675938 
1583	 0.390140175204591 
1584	 0.390462122536201 
1585	 0.390765223164485 
1586	 0.391087407936032 
1587	 0.391429202696228 
1588	 0.391756099566986 
1589	 0.392083651704286 
1590	 0.39240884244652 
1591	 0.392728403839174 
1592	 0.393042690341961 
1593	 0.39335558710095 
1594	 0.393666450568895 
1595	 0.393970956151825 
1596	 0.394270037720414 
1597	 0.394562354829365 
1598	 0.394862426524226 
1599	 0.395156691525456 
1600	 0.395457842017123 
1601	 0.395778109372849 
1602	 0.396081899982243 
1603	 0.396375708948135 
1604	 0.396671277774401 
1605	 0.396966454247045 
1606	 0.397251076413441 
1607	 0.397541279996796 
1608	 0.397810155005131 
1609	 0.398049998323732 
1610	 0.398301787849868 
1611	 0.398547741297005 
1612	 0.398791765964113 
1613	 0.399043249407331 
1614	 0.399284927153211 
1615	 0.399523604624153 
1616	 0.399749567938882 
1617	 0.399966704555116 
1618	 0.400177771545435 
1619	 0.400372443655542 
1620	 0.400566959796029 
1621	 0.400757195793771 
1622	 0.400947769621951 
1623	 0.401141291004477 
1624	 0.401322465848466 
1625	 0.401500972811455 
1626	 0.401668744099416 
1627	 0.401817392596684 
1628	 0.401970818172784 
1629	 0.402114880280691 
1630	 0.402268667740265 
1631	 0.402437962660022 
1632	 0.402589853426674 
1633	 0.402741259178771 
1634	 0.40288281186771 
1635	 0.403000429077617 
1636	 0.403127858560544 
1637	 0.403265173852896 
1638	 0.403388026608578 
1639	 0.403511551062614 
1640	 0.403619396802187 
1641	 0.403713366639692 
1642	 0.403795887454335 
1643	 0.403863243130024 
1644	 0.403927865398903 
1645	 0.403985789047477 
1646	 0.404029608248987 
1647	 0.404078787554307 
1648	 0.404092380877355 
1649	 0.404070341563068 
1650	 0.404051339550933 
1651	 0.404022500288599 
1652	 0.40396859158981 
1653	 0.403912353961658 
1654	 0.403823146191381 
1655	 0.403702667555842 
1656	 0.403555890907193 
1657	 0.403391322155052 
1658	 0.403191311595193 
1659	 0.40296816369472 
1660	 0.402695480782976 
1661	 0.402379826077761 
1662	 0.402028593188519 
1663	 0.401629820777453 
1664	 0.401197393615524 
1665	 0.400741793623725 
1666	 0.40023010203988 
1667	 0.399681711354621 
1668	 0.399068613802573 
1669	 0.39841831543281 
1670	 0.397675166498055 
1671	 0.396841435844951 
1672	 0.395962590238249 
1673	 0.395011152139226 
1674	 0.394001809272976 
1675	 0.392955290642089 
1676	 0.391833659237881 
1677	 0.390629544042222 
1678	 0.389381024552935 
1679	 0.38804513006063 
1680	 0.386694908259185 
1681	 0.385320009061236 
1682	 0.383863089748691 
1683	 0.382361555530312 
1684	 0.38082942861381 
1685	 0.379215374478769 
1686	 0.377585624391938 
1687	 0.375901826375462 
1688	 0.374232743014315 
1689	 0.372549958450934 
1690	 0.370830408163814 
1691	 0.369111670940892 
1692	 0.367404432333682 
1693	 0.365665792881477 
1694	 0.363924011964302 
1695	 0.362189651595122 
1696	 0.360426315223017 
1697	 0.358623292917303 
1698	 0.356821915692773 
1699	 0.355024588238232 
1700	 0.35326841385868 
1701	 0.351473199061839 
1702	 0.349793250503172 
1703	 0.348138340476587 
1704	 0.346624700346594 
1705	 0.345201664154695 
1706	 0.343845901705873 
1707	 0.342689224376697 
1708	 0.34158953356049 
1709	 0.340553792758058 
1710	 0.339620434048556 
1711	 0.338683699447837 
1712	 0.337769531421894 
1713	 0.336883979795727 
1714	 0.336002976540871 
1715	 0.335177724101326 
1716	 0.334374373350692 
1717	 0.333609973492275 
1718	 0.332884270981884 
1719	 0.332194974976156 
1720	 0.331596057744665 
1721	 0.33107638996693 
1722	 0.330684896631505 
1723	 0.33045075160133 
1724	 0.330350933000983 
1725	 0.330440261831004 
1726	 0.330747723859278 
1727	 0.331278536358274 
1728	 0.332004217332885 
1729	 0.332923835642162 
1730	 0.33401942811798 
1731	 0.335172951200527 
1732	 0.336485549727375 
1733	 0.337844145305782 
1734	 0.339220631992496 
1735	 0.340656924046928 
1736	 0.341969917073476 
1737	 0.343199576280649 
1738	 0.344300777283215 
1739	 0.345239363465727 
1740	 0.346052372879191 
1741	 0.346738169444338 
1742	 0.347262833884554 
1743	 0.347693328099222 
1744	 0.347980666858209 
1745	 0.348208428610937 
1746	 0.348304187483556 
1747	 0.34837795126576 
1748	 0.34836140925322 
1749	 0.348379133442819 
1750	 0.348335383027065 
1751	 0.348379201785115 
1752	 0.348440435990065 
1753	 0.34857846739735 
1754	 0.348758764820816 
1755	 0.349032404757364 
1756	 0.349359442409241 
1757	 0.349837149933417 
1758	 0.350437517612188 
1759	 0.351126752442143 
1760	 0.351946442241022 
1761	 0.352884858701014 
1762	 0.353863527763579 
1763	 0.354971164143281 
1764	 0.356139886007967 
1765	 0.357361505344302 
1766	 0.358737433223275 
1767	 0.360115477716686 
1768	 0.361565722538087 
1769	 0.3630748010637 
1770	 0.364445195772144 
1771	 0.365815946360828 
1772	 0.367159275511743 
1773	 0.368427869630247 
1774	 0.369706491249663 
1775	 0.370887126870318 
1776	 0.372035371370737 
1777	 0.37312515538787 
1778	 0.374088334214523 
1779	 0.37505366455401 
1780	 0.375933465159753 
1781	 0.376719031976763 
1782	 0.377496656816122 
1783	 0.378181865208394 
1784	 0.378814959704113 
1785	 0.379316301129216 
1786	 0.379828878031626 
1787	 0.380326337236785 
1788	 0.380789622347185 
1789	 0.381238200939098 
1790	 0.381655226893679 
1791	 0.382023173196736 
1792	 0.382383180141755 
1793	 0.382723432578523 
1794	 0.383009224247815 
1795	 0.383274302433064 
1796	 0.383525426816177 
1797	 0.383806641223497 
1798	 0.384114014537097 
1799	 0.38442709686321 
1800	 0.384728055260905 
1801	 0.374784670620607 
1802	 0.375070489513088 
1803	 0.375360732452903 
1804	 0.375634748936283 
1805	 0.375934541432283 
1806	 0.376228267024946 
1807	 0.376533722256648 
1808	 0.376827933281996 
1809	 0.377121324359753 
1810	 0.377406626226154 
1811	 0.377672257119585 
1812	 0.377960266018457 
1813	 0.37824370604805 
1814	 0.378568637840209 
1815	 0.37886816614898 
1816	 0.37917837336797 
1817	 0.37949774430082 
1818	 0.379806023537637 
1819	 0.380134379515637 
1820	 0.380496348334734 
1821	 0.380839955241236 
1822	 0.381175736922848 
1823	 0.381524805792713 
1824	 0.381871281238265 
1825	 0.382235672925434 
1826	 0.382594621549477 
1827	 0.382965520994199 
1828	 0.383322809734657 
1829	 0.383671594081523 
1830	 0.384023415018952 
1831	 0.384365694752914 
1832	 0.384726161197324 
1833	 0.385090036783755 
1834	 0.385467289020817 
1835	 0.385870953460922 
1836	 0.386255886168603 
1837	 0.386636367396606 
1838	 0.387007227840001 
1839	 0.387391473635188 
1840	 0.387778668848859 
1841	 0.38816706127696 
1842	 0.388563678505475 
1843	 0.388962996845697 
1844	 0.38935836328667 
1845	 0.389709071582514 
1846	 0.390077770612762 
1847	 0.390437459781019 
1848	 0.390784802596049 
1849	 0.391147048197934 
1850	 0.39146019082022 
1851	 0.391743652609725 
1852	 0.392017926782254 
1853	 0.392270486484451 
1854	 0.392470474841749 
1855	 0.392690303389973 
1856	 0.392904337262118 
1857	 0.393082819897774 
1858	 0.393257366375811 
1859	 0.393403369101617 
1860	 0.393531329688297 
1861	 0.393621527222173 
1862	 0.393684471025334 
1863	 0.393733613427874 
1864	 0.393737207372831 
1865	 0.393693507170609 
1866	 0.393612664593842 
1867	 0.393486748188896 
1868	 0.393311641518882 
1869	 0.39308820259331 
1870	 0.392833480590005 
1871	 0.392549133649583 
1872	 0.392213238838351 
1873	 0.391834415496345 
1874	 0.391430685482025 
1875	 0.390979907523465 
1876	 0.390423094289484 
1877	 0.389852829427518 
1878	 0.389206217711467 
1879	 0.388447104612295 
1880	 0.387661693794839 
1881	 0.386760994699906 
1882	 0.385760595392605 
1883	 0.384672759073551 
1884	 0.383466456290958 
1885	 0.382070045733465 
1886	 0.380595617489034 
1887	 0.378950555084276 
1888	 0.377118579856152 
1889	 0.375328383209721 
1890	 0.373391074097188 
1891	 0.37139436993513 
1892	 0.369420560058717 
1893	 0.367357916035052 
1894	 0.365178075549897 
1895	 0.363049422307997 
1896	 0.360898578404542 
1897	 0.358739676590965 
1898	 0.356767049062012 
1899	 0.354777047647738 
1900	 0.352857212188204 
1901	 0.351054398778481 
1902	 0.34917098169001 
1903	 0.347409260492003 
1904	 0.345717951079486 
1905	 0.344071248916036 
1906	 0.342482662678228 
1907	 0.34110963850601 
1908	 0.33976516614186 
1909	 0.338497066411082 
1910	 0.337346040631256 
1911	 0.336167623918761 
1912	 0.335074591743967 
1913	 0.334049074736612 
1914	 0.333040729894091 
1915	 0.332119813340219 
1916	 0.331292678203332 
1917	 0.330482503607779 
1918	 0.329722540000762 
1919	 0.329017546616455 
1920	 0.328314378975023 
1921	 0.327692346392009 
1922	 0.327103122722598 
1923	 0.32656570146792 
1924	 0.32613605033456 
1925	 0.325747065706547 
1926	 0.325391820850293 
1927	 0.325110495603901 
1928	 0.324831377728441 
1929	 0.32457076337157 
1930	 0.324336831078106 
1931	 0.324144279181098 
1932	 0.323995181471906 
1933	 0.323923889414032 
1934	 0.323893410826643 
1935	 0.32388258720561 
1936	 0.323929867915967 
1937	 0.3240358401584 
1938	 0.324187773988515 
1939	 0.324380218589373 
1940	 0.324628949010922 
1941	 0.324943925302788 
1942	 0.325259127854042 
1943	 0.325601875056581 
1944	 0.325982334696172 
1945	 0.326358898840612 
1946	 0.326789581708825 
1947	 0.327228798345204 
1948	 0.327692384733478 
1949	 0.328205223873684 
1950	 0.328700395376207 
1951	 0.32919281199778 
1952	 0.32970309410326 
1953	 0.330223163448999 
1954	 0.33074091457512 
1955	 0.331303919689294 
1956	 0.33184173844977 
1957	 0.332398191595054 
1958	 0.332959227128617 
1959	 0.333485568520692 
1960	 0.334034035440088 
1961	 0.334571901741875 
1962	 0.335097172121065 
1963	 0.33564343558101 
1964	 0.336197216813249 
1965	 0.336741895022631 
1966	 0.337308280718179 
1967	 0.337857320056597 
1968	 0.338343809876315 
1969	 0.338862588063607 
1970	 0.339366544688961 
1971	 0.339853060735084 
1972	 0.340394032400236 
1973	 0.340908266693674 
1974	 0.341418222543837 
1975	 0.341939150213279 
1976	 0.342439143742917 
1977	 0.342919128395394 
1978	 0.343397125766725 
1979	 0.343868782110788 
1980	 0.344317364914516 
1981	 0.344788345123729 
1982	 0.345233939769084 
1983	 0.345682039257348 
1984	 0.346152975697781 
1985	 0.346573770410536 
1986	 0.346997920501101 
1987	 0.34742229732271 
1988	 0.347835789192542 
1989	 0.348246749324906 
1990	 0.348670969014093 
1991	 0.349070737452589 
1992	 0.349462711316579 
1993	 0.349838670783706 
1994	 0.350180762243399 
1995	 0.350520608204336 
1996	 0.350840010029251 
1997	 0.351130974026314 
1998	 0.35143160527 
1999	 0.351720096036266 
2000	 0.352014489825062 
2001	 0.352335883694162 
2002	 0.352603633278738 
2003	 0.352846981642428 
2004	 0.353086988755489 
2005	 0.353297386517261 
2006	 0.353493467082603 
2007	 0.353697595189979 
2008	 0.353866007955537 
2009	 0.353988527926614 
2010	 0.35410191831934 
2011	 0.354188960327957 
2012	 0.354241368186288 
2013	 0.354273542931715 
2014	 0.354300244299616 
2015	 0.354261172963336 
2016	 0.354187196737642 
2017	 0.354068687461887 
2018	 0.353891966913605 
2019	 0.353679302174252 
2020	 0.353426113458706 
2021	 0.353135955735139 
2022	 0.352819492684859 
2023	 0.352465376633483 
2024	 0.352037163295857 
2025	 0.351586531624265 
2026	 0.351097195680183 
2027	 0.350522284731034 
2028	 0.349984695362715 
2029	 0.349439751848408 
2030	 0.348882117011739 
2031	 0.348311140092825 
2032	 0.34774732778991 
2033	 0.347140880970221 
2034	 0.346602232656614 
2035	 0.346084029289703 
2036	 0.345588989823555 
2037	 0.3451684307174 
2038	 0.34479683547475 
2039	 0.344476861980385 
2040	 0.344218117304252 
2041	 0.343989074344109 
2042	 0.343811487745415 
2043	 0.343663275152977 
2044	 0.343545676848011 
2045	 0.343475026374254 
2046	 0.343458032649501 
2047	 0.343461400947305 
2048	 0.343498840275701 
2049	 0.343572182894613 
2050	 0.343694206601454 
2051	 0.343815505214149 
2052	 0.343965839771775 
2053	 0.344160385562071 
2054	 0.344359283551573 
2055	 0.344579165895757 
2056	 0.344801155761538 
2057	 0.345034694061896 
2058	 0.34528768171502 
2059	 0.345559892733474 
2060	 0.345821386386452 
2061	 0.346109756007838 
2062	 0.346379476609294 
2063	 0.3466254449987 
2064	 0.346883141209711 
2065	 0.347147193975622 
2066	 0.34741021309722 
2067	 0.347674447249861 
2068	 0.347927324896746 
2069	 0.348165009300742 
2070	 0.348400459109541 
2071	 0.348606032482358 
2072	 0.348786479707558 
2073	 0.348962724027619 
2074	 0.349112238587744 
2075	 0.349272269659139 
2076	 0.349429751915799 
2077	 0.349580370682798 
2078	 0.349745673254498 
2079	 0.349878786466306 
2080	 0.349999832871104 
2081	 0.350098866590874 
2082	 0.350181805101753 
2083	 0.35022291811009 
2084	 0.350253718336646 
2085	 0.350278197109834 
2086	 0.35030210272164 
2087	 0.350317032167768 
2088	 0.350327288244656 
2089	 0.350337841554233 
2090	 0.350336794654804 
2091	 0.350331822773542 
2092	 0.35030768128512 
2093	 0.350270747547057 
2094	 0.35022694820867 
2095	 0.350166441787917 
2096	 0.350095960371045 
2097	 0.350022428106074 
2098	 0.349931463152526 
2099	 0.349824633618108 
2100	 0.349723599309065 
2101	 0.349596372993501 
2102	 0.349455797704474 
2103	 0.349308651163597 
2104	 0.349155062943786 
2105	 0.348960869946842 
2106	 0.348746460414609 
2107	 0.348519580563261 
2108	 0.348260420638863 
2109	 0.347988734603539 
2110	 0.347710375703854 
2111	 0.347414055505069 
2112	 0.347083203986229 
2113	 0.346748351455151 
2114	 0.346403887398775 
2115	 0.346052615644386 
2116	 0.345670455268349 
2117	 0.345315683903475 
2118	 0.344953435304792 
2119	 0.344595481882711 
2120	 0.344230295082434 
2121	 0.343857215044392 
2122	 0.343495297285603 
2123	 0.343125854076642 
2124	 0.34277324796083 
2125	 0.342452392928858 
2126	 0.342100901114246 
2127	 0.341745118555392 
2128	 0.341385206689145 
2129	 0.340992126079604 
2130	 0.34062428455394 
2131	 0.340286247138774 
2132	 0.339920343212288 
2133	 0.339539976876317 
2134	 0.339179086419337 
2135	 0.338795023892467 
2136	 0.338406646666493 
2137	 0.338007523401321 
2138	 0.337599498441008 
2139	 0.337208580027792 
2140	 0.336796055380985 
2141	 0.336422219128762 
2142	 0.336076570400251 
2143	 0.335741721342059 
2144	 0.335414414576921 
2145	 0.335119144770388 
2146	 0.334850980388526 
2147	 0.334593996074858 
2148	 0.334375703858241 
2149	 0.334142496886806 
2150	 0.333919390665223 
2151	 0.333691696499839 
2152	 0.333455702099492 
2153	 0.333232117676572 
2154	 0.33299237639009 
2155	 0.33274700880229 
2156	 0.332494847152211 
2157	 0.332225610868779 
2158	 0.331967427471406 
2159	 0.331725347055836 
2160	 0.33144360826506 
2161	 0.33114593401113 
2162	 0.330845815988473 
2163	 0.330494639678634 
2164	 0.33020024954606 
2165	 0.329922000646952 
2166	 0.3296699948708 
2167	 0.32943983264958 
2168	 0.329237233626302 
2169	 0.329055097559887 
2170	 0.328904205481723 
2171	 0.328781733384454 
2172	 0.32869161019932 
2173	 0.328643762979067 
2174	 0.328605086410489 
2175	 0.328582525271918 
2176	 0.328595773391684 
2177	 0.328629416047181 
2178	 0.328683614272856 
2179	 0.328753538490666 
2180	 0.328858362563884 
2181	 0.328958694948548 
2182	 0.329054094415698 
2183	 0.329194494159016 
2184	 0.329369737787656 
2185	 0.329540701990935 
2186	 0.329743448634735 
2187	 0.329933009202322 
2188	 0.33013359831359 
2189	 0.330307122678104 
2190	 0.330473544545523 
2191	 0.330634281502764 
2192	 0.330762010537625 
2193	 0.330907218174325 
2194	 0.331054625109935 
2195	 0.33120960341006 
2196	 0.331380325226926 
2197	 0.331541737700572 
2198	 0.33167905771516 
2199	 0.331843897734445 
2200	 0.331974816991833 
2201	 0.332085878434328 
2202	 0.332179138292206 
2203	 0.332256804400177 
2204	 0.332330226932344 
2205	 0.332387860428088 
2206	 0.332427755913066 
2207	 0.332461987237648 
2208	 0.332477876288431 
2209	 0.332468501758913 
2210	 0.332451801157356 
2211	 0.332422863979502 
2212	 0.332388683160351 
2213	 0.33236304715965 
2214	 0.332278689817137 
2215	 0.33216593049667 
2216	 0.332039610170992 
2217	 0.331872882364768 
2218	 0.331681167264189 
2219	 0.33149852906164 
2220	 0.331256739940554 
2221	 0.330959917290758 
2222	 0.330631020203351 
2223	 0.330293105091184 
2224	 0.329861751196249 
2225	 0.329373783943404 
2226	 0.328854242159779 
2227	 0.328241397282474 
2228	 0.327561073520134 
2229	 0.326788695260972 
2230	 0.32593487390262 
2231	 0.324997162883558 
2232	 0.323968014981216 
2233	 0.322849317516464 
2234	 0.321690419755045 
2235	 0.320346140217884 
2236	 0.318892088747047 
2237	 0.317280994566499 
2238	 0.31543728341671 
2239	 0.313589529333425 
2240	 0.311668029596348 
2241	 0.309602868744095 
2242	 0.307530940858042 
2243	 0.305206356927512 
2244	 0.302630079440243 
2245	 0.30000267671236 
2246	 0.297103105454854 
2247	 0.294278426026022 
2248	 0.291475136725857 
2249	 0.288545035244984 
2250	 0.285557437714663 
2251	 0.282574770101976 
2252	 0.279285185465168 
2253	 0.276039215385827 
2254	 0.272758985944857 
2255	 0.269426303774176 
2256	 0.266329940307723 
2257	 0.263189836247629 
2258	 0.260147731851939 
2259	 0.257236431399501 
2260	 0.254244568236548 
2261	 0.251216283463852 
2262	 0.248343739721044 
2263	 0.245435574657428 
2264	 0.2427466582912 
2265	 0.240281715037233 
2266	 0.237763867069089 
2267	 0.235371952094562 
2268	 0.232936304333297 
2269	 0.230461449377399 
2270	 0.228106503938496 
2271	 0.225729628568075 
2272	 0.2235311880552 
2273	 0.221495410387931 
2274	 0.21948132678679 
2275	 0.217650046106643 
2276	 0.215749821369304 
2277	 0.213848205411329 
2278	 0.211974291256264 
2279	 0.210070209645469 
2280	 0.20822116640449 
2281	 0.2064625244227 
2282	 0.204651406436731 
2283	 0.202868593477427 
2284	 0.201068840934711 
2285	 0.19910122118622 
2286	 0.197131769649437 
2287	 0.195047336553697 
2288	 0.192860644358685 
2289	 0.190788752091743 
2290	 0.188589336821022 
2291	 0.186378887181938 
2292	 0.184175928513424 
2293	 0.181755405211139 
2294	 0.179403196067946 
2295	 0.177126740731837 
2296	 0.174874294512876 
2297	 0.172907300383084 
2298	 0.171140396678267 
2299	 0.16953825498565 
2300	 0.168112034930159 
2301	 0.166959489321785 
2302	 0.165979544249357 
2303	 0.16535298702212 
2304	 0.165022071075081 
2305	 0.164970547907106 
2306	 0.165234037019707 
2307	 0.165794955422718 
2308	 0.166666772965168 
2309	 0.167834383265067 
2310	 0.169411347206201 
2311	 0.171088921955684 
2312	 0.173171524084892 
2313	 0.175155551201181 
2314	 0.177319150793455 
2315	 0.17937036190924 
2316	 0.181427064013208 
2317	 0.18339221376888 
2318	 0.185404147842123 
2319	 0.187154917056947 
2320	 0.188849089198169 
2321	 0.190239971814581 
2322	 0.191358424966272 
2323	 0.192283485398157 
2324	 0.192911336917016 
2325	 0.193436287065184 
2326	 0.193798780385424 
2327	 0.193949766379513 
2328	 0.193898851558955 
2329	 0.193686808270338 
2330	 0.193270187880732 
2331	 0.192641410355074 
2332	 0.191878787740559 
2333	 0.190956322881653 
2334	 0.189749583717919 
2335	 0.188409912224831 
2336	 0.186921686398414 
2337	 0.185316175823112 
2338	 0.183741578515552 
2339	 0.182069028696095 
2340	 0.180446589457882 
2341	 0.178913124275955 
2342	 0.177420639582202 
2343	 0.17615169723343 
2344	 0.175089426731875 
2345	 0.174291716271285 
2346	 0.173855604842233 
2347	 0.173797911587267 
2348	 0.17409384299824 
2349	 0.174821012666616 
2350	 0.175838149794546 
2351	 0.177145416942761 
2352	 0.178689374801331 
2353	 0.180286424577507 
2354	 0.181859971490835 
2355	 0.183430583957158 
2356	 0.184879486006156 
2357	 0.186190738227354 
2358	 0.1875211481956 
2359	 0.188599381181288 
2360	 0.189452145883855 
2361	 0.190206937474631 
2362	 0.190768208423669 
2363	 0.191206473227598 
2364	 0.191618956073961 
2365	 0.191987444466248 
2366	 0.192303753017326 
2367	 0.192621127371673 
2368	 0.192971875786452 
2369	 0.193265989648166 
2370	 0.193527701416828 
2371	 0.193803813697395 
2372	 0.194025974487804 
2373	 0.194204144651433 
2374	 0.194372542454585 
2375	 0.194562564449312 
2376	 0.194794694729441 
2377	 0.195084661972008 
2378	 0.195355863771191 
2379	 0.195582722752654 
2380	 0.195748062790873 
2381	 0.195900598030376 
2382	 0.19610071010585 
2383	 0.196311932082049 
2384	 0.196531609855834 
2385	 0.196827911289947 
2386	 0.197053982229419 
2387	 0.197230060438226 
2388	 0.197466457032847 
2389	 0.197694072452429 
2390	 0.197909106588067 
2391	 0.198182555117061 
2392	 0.198381786461467 
2393	 0.198564307670005 
2394	 0.198689610846952 
2395	 0.198690755997049 
2396	 0.198783906267619 
2397	 0.198891608627153 
2398	 0.199002679216603 
2399	 0.199164551476487 
2400	 0.199314973754002 
2401	 0.199442489573987 
2402	 0.199506653960697 
2403	 0.199661271751384 
2404	 0.199880931304937 
2405	 0.200059173098551 
2406	 0.200198798329614 
2407	 0.200379713767053 
2408	 0.200594851473453 
2409	 0.20082561756725 
2410	 0.201088843924823 
2411	 0.201361871487738 
2412	 0.201484470870835 
2413	 0.201512225264818 
2414	 0.201634685875891 
2415	 0.201770550914864 
2416	 0.202009263539532 
2417	 0.20227329573981 
2418	 0.202391328084053 
2419	 0.202536737067653 
2420	 0.202643474344864 
2421	 0.202712068175314 
2422	 0.202848003135031 
2423	 0.202972836949308 
2424	 0.203119559358874 
2425	 0.203227832531304 
2426	 0.203322556551666 
2427	 0.203479529583387 
2428	 0.203531164292712 
2429	 0.203558750706218 
2430	 0.20369164151645 
2431	 0.203774127200024 
2432	 0.203876196909278 
2433	 0.203927394361874 
2434	 0.203742678051072 
2435	 0.203584050413789 
2436	 0.203414699076764 
2437	 0.203185105457371 
2438	 0.203092572469277 
2439	 0.202970718020774 
2440	 0.202821008070608 
2441	 0.202697637617289 
2442	 0.202402751617949 
2443	 0.201993215798944 
2444	 0.201502566038169 
2445	 0.201065620119479 
2446	 0.200858101013346 
2447	 0.2006917175936 
2448	 0.200463335678599 
2449	 0.199995042164929 
2450	 0.199397070216673 
2451	 0.198834375749703 
2452	 0.198258807471394 
2453	 0.197793933245221 
2454	 0.197330470028837 
2455	 0.196832972099773 
2456	 0.196257449973361 
2457	 0.195724660902197 
2458	 0.19540750122229 
2459	 0.195052558342509 
2460	 0.194721879980677 
2461	 0.194509534855667 
2462	 0.194217798230244 
2463	 0.193917915294024 
2464	 0.193810846895684 
2465	 0.193705577837841 
2466	 0.193506984034724 
2467	 0.19325231501022 
2468	 0.192924404237048 
2469	 0.192763840032417 
2470	 0.192691270715712 
2471	 0.192782013725141 
2472	 0.192977136567 
2473	 0.193009594431428 
2474	 0.19308691930305 
2475	 0.193099783477958 
2476	 0.192988843724901 
2477	 0.192956024875809 
2478	 0.192959566940923 
2479	 0.193007401726058 
2480	 0.19316839459046 
2481	 0.193353216959329 
2482	 0.193544793944088 
2483	 0.193712756161058 
2484	 0.194079048754323 
2485	 0.194431241211274 
2486	 0.194619571820535 
2487	 0.194914143402489 
2488	 0.195169352352118 
2489	 0.195154864130428 
2490	 0.195179287500113 
2491	 0.195230575155153 
2492	 0.195428804203718 
2493	 0.196042987261805 
2494	 0.196696447760599 
2495	 0.197374347811104 
2496	 0.197899901608566 
2497	 0.198013225561312 
2498	 0.198318382143785 
2499	 0.198829313745125 
2500	 0.199104216815514 
