Wavelength	spectrum00017.asd
350	 3.49099995965521E-02 
351	 3.55821820985117E-02 
352	 3.56363449134749E-02 
353	 3.48882960908694E-02 
354	 3.37242041580106E-02 
355	 3.26340775357564E-02 
356	 3.21753437912344E-02 
357	 3.23043432472116E-02 
358	 3.12753111797645E-02 
359	 3.07247682944923E-02 
360	 3.03540446567278E-02 
361	 2.92428060967831E-02 
362	 3.04635192926864E-02 
363	 3.01689227270026E-02 
364	 2.78303859306664E-02 
365	 2.79621573606297E-02 
366	 2.99828885949473E-02 
367	 3.07601701006041E-02 
368	 2.87492587335068E-02 
369	 2.96213156357208E-02 
370	 2.97173717430763E-02 
371	 2.86920392225718E-02 
372	 2.81931058890387E-02 
373	 2.90482146916732E-02 
374	 2.97047080550808E-02 
375	 2.95517451543838E-02 
376	 2.96849000704668E-02 
377	 2.99094820805004E-02 
378	 2.96434248420938E-02 
379	 2.87026158477819E-02 
380	 2.85259349502109E-02 
381	 0.029138574800508 
382	 2.95457215790352E-02 
383	 2.85003036834211E-02 
384	 2.82726619331018E-02 
385	 0.028873856538968 
386	 2.94351800823574E-02 
387	 2.81967665959397E-02 
388	 2.77036307331834E-02 
389	 2.78887320157246E-02 
390	 2.80713183956564E-02 
391	 2.82594469565696E-02 
392	 2.85042921143842E-02 
393	 2.85591765028995E-02 
394	 2.81095029325452E-02 
395	 2.82284203336672E-02 
396	 2.85037679299148E-02 
397	 2.86365354172362E-02 
398	 2.88601096064532E-02 
399	 2.89764388871096E-02 
400	 2.88066225392186E-02 
401	 2.83452686764197E-02 
402	 2.82106361028033E-02 
403	 2.80486131278146E-02 
404	 2.77577480039744E-02 
405	 2.74817436604503E-02 
406	 2.76771901511054E-02 
407	 2.80132345747117E-02 
408	 2.81581752692931E-02 
409	 2.79696868880184E-02 
410	 2.79345807718561E-02 
411	 2.79172812363927E-02 
412	 2.77138830361657E-02 
413	 2.79093210353052E-02 
414	 2.80415310556739E-02 
415	 2.80004444279342E-02 
416	 2.80296684004779E-02 
417	 2.79653211386255E-02 
418	 2.78540057879476E-02 
419	 2.77842444242967E-02 
420	 2.78894318956846E-02 
421	 2.77632334938264E-02 
422	 2.76906342512729E-02 
423	 0.028083312199176 
424	 2.82414995728444E-02 
425	 2.80199852683525E-02 
426	 2.77077673108691E-02 
427	 2.80060088992535E-02 
428	 2.78853629912125E-02 
429	 2.76503985248943E-02 
430	 2.76813584089602E-02 
431	 2.76174588002861E-02 
432	 2.77254163809397E-02 
433	 2.79150466880625E-02 
434	 2.79315451276801E-02 
435	 2.80154047586661E-02 
436	 2.80675172903407E-02 
437	 2.80103923415195E-02 
438	 2.78410727778915E-02 
439	 2.78910588062819E-02 
440	 2.80477727372122E-02 
441	 2.81071017383267E-02 
442	 2.80883614126098E-02 
443	 2.82217767214196E-02 
444	 2.84006027945035E-02 
445	 2.82835004380795E-02 
446	 0.028332716343001 
447	 2.83590309313867E-02 
448	 2.82464297622008E-02 
449	 2.82666055922071E-02 
450	 2.83814683403502E-02 
451	 0.028499133265287 
452	 2.85130452052782E-02 
453	 2.84082915354396E-02 
454	 2.84366065081046E-02 
455	 2.86077253252223E-02 
456	 2.86485896188189E-02 
457	 2.86060287848063E-02 
458	 2.85302008628876E-02 
459	 2.85038348877485E-02 
460	 2.87118292454068E-02 
461	 2.87957958265835E-02 
462	 2.87178446496396E-02 
463	 2.86398601179878E-02 
464	 2.86889093525845E-02 
465	 0.028782252165682 
466	 2.88336077242259E-02 
467	 0.028790263318671 
468	 2.88035717799341E-02 
469	 2.88864375591407E-02 
470	 2.89976870451636E-02 
471	 0.029089814499845 
472	 0.029066674247309 
473	 2.89898379765043E-02 
474	 2.90372758499908E-02 
475	 2.91545459766181E-02 
476	 2.91987977294092E-02 
477	 2.91219725408132E-02 
478	 2.91080169154395E-02 
479	 0.029113005780999 
480	 2.91513980516283E-02 
481	 0.029232669785818 
482	 0.029222546956991 
483	 2.92732605777027E-02 
484	 2.94037533568323E-02 
485	 2.94602408017524E-02 
486	 2.95448960930337E-02 
487	 2.95899093705234E-02 
488	 2.95518974043022E-02 
489	 2.95662520779148E-02 
490	 2.96576983667895E-02 
491	 2.97616994707147E-02 
492	 2.97773426021241E-02 
493	 2.98162563449376E-02 
494	 2.98712789973188E-02 
495	 2.99309445449164E-02 
496	 3.00059566205952E-02 
497	 0.030012848970781 
498	 2.99989907394083E-02 
499	 3.00457100555047E-02 
500	 3.01920020187943E-02 
501	 3.02560383128266E-02 
502	 3.02438610806322E-02 
503	 3.03263306441546E-02 
504	 3.04010530900427E-02 
505	 3.04593919581666E-02 
506	 3.05072460716288E-02 
507	 3.05443733753077E-02 
508	 3.05793994441449E-02 
509	 3.06154274142631E-02 
510	 0.030657756649587 
511	 3.07577996268866E-02 
512	 3.07892339079553E-02 
513	 3.07593599344444E-02 
514	 3.08651975698474E-02 
515	 3.09074582742809E-02 
516	 3.09350446958979E-02 
517	 3.10193568689564E-02 
518	 0.031075330373804 
519	 0.031154033767317 
520	 3.12477214791785E-02 
521	 3.13105112302179E-02 
522	 3.13779522437362E-02 
523	 3.14229971114627E-02 
524	 3.14523358811098E-02 
525	 3.15603327979656E-02 
526	 3.16580099471136E-02 
527	 3.17381804928828E-02 
528	 0.031824757992401 
529	 3.19431605197564E-02 
530	 3.20425163209079E-02 
531	 3.21280711923203E-02 
532	 3.22668751204511E-02 
533	 3.24015490908866E-02 
534	 3.25314489822569E-02 
535	 3.26617754330839E-02 
536	 3.27740250705333E-02 
537	 3.29133791799272E-02 
538	 3.30712421925473E-02 
539	 3.32139742917922E-02 
540	 3.33818761256066E-02 
541	 0.033560969715121 
542	 3.37421245275391E-02 
543	 3.39341672554792E-02 
544	 3.41366758561694E-02 
545	 3.43332866873823E-02 
546	 3.45134336116121E-02 
547	 0.034717340853468 
548	 3.49042388550701E-02 
549	 3.50859488022523E-02 
550	 3.53188098178083E-02 
551	 3.55249771716808E-02 
552	 3.57371445992606E-02 
553	 3.59778571080064E-02 
554	 3.61881038054885E-02 
555	 3.64077960185148E-02 
556	 3.66599008894118E-02 
557	 3.69519720483765E-02 
558	 3.72379063465323E-02 
559	 3.75672653539402E-02 
560	 0.037926768676241 
561	 3.82047503855973E-02 
562	 3.85242286958125E-02 
563	 3.89090465857365E-02 
564	 3.93396463977159E-02 
565	 3.97580567867679E-02 
566	 4.01226779021186E-02 
567	 4.04876212028384E-02 
568	 4.09595296352392E-02 
569	 4.13203631006501E-02 
570	 4.16913005315582E-02 
571	 4.21465171059613E-02 
572	 4.25371580592026E-02 
573	 4.30029940133866E-02 
574	 4.35166078371018E-02 
575	 4.40053813281205E-02 
576	 4.45420563462208E-02 
577	 4.50681087287904E-02 
578	 4.55826343223691E-02 
579	 4.61559723294095E-02 
580	 4.67010272935396E-02 
581	 4.72076769276893E-02 
582	 4.76970463157667E-02 
583	 4.82151526526808E-02 
584	 4.87964988213914E-02 
585	 4.94107843879633E-02 
586	 4.99989451702023E-02 
587	 5.06323479907994E-02 
588	 5.12846257979054E-02 
589	 5.19136244502032E-02 
590	 5.24677352287254E-02 
591	 5.30602773412513E-02 
592	 5.36475498185117E-02 
593	 0.054167032463019 
594	 5.47067862351386E-02 
595	 5.52331583864305E-02 
596	 0.055754764196712 
597	 5.63161722148885E-02 
598	 5.69009380750577E-02 
599	 5.74936009886871E-02 
600	 5.80918965195808E-02 
601	 5.87206779955927E-02 
602	 5.93737622763396E-02 
603	 6.00199401264333E-02 
604	 6.06294203672642E-02 
605	 6.12752063347609E-02 
606	 6.19069368402395E-02 
607	 6.25150075813453E-02 
608	 6.31503752888594E-02 
609	 0.063733551306314 
610	 6.43208650827889E-02 
611	 6.49614299670858E-02 
612	 6.55645320095664E-02 
613	 6.61298035735483E-02 
614	 6.66798416671122E-02 
615	 6.72506734170913E-02 
616	 6.78314668038614E-02 
617	 6.83892627056511E-02 
618	 6.89220352740751E-02 
619	 6.94909706241063E-02 
620	 7.00382930897657E-02 
621	 7.05683971095586E-02 
622	 0.071103905646644 
623	 7.16485468621711E-02 
624	 7.21846616811337E-02 
625	 7.27081028166923E-02 
626	 7.32287678161144E-02 
627	 7.37382642645537E-02 
628	 7.42442003867498E-02 
629	 0.074760094649948 
630	 7.53142940292209E-02 
631	 7.58129706119199E-02 
632	 7.62788568044635E-02 
633	 7.67775118855332E-02 
634	 7.72609004063613E-02 
635	 7.77502634692302E-02 
636	 0.078259508889975 
637	 7.87837906016568E-02 
638	 7.92672758860974E-02 
639	 7.97452570350589E-02 
640	 8.02490521708575E-02 
641	 8.07158494830048E-02 
642	 8.11680613876111E-02 
643	 8.16392635040359E-02 
644	 8.21596871527094E-02 
645	 8.26544345569414E-02 
646	 8.31397959499921E-02 
647	 8.36304177549868E-02 
648	 8.41188244258761E-02 
649	 8.46157708397159E-02 
650	 8.51186652024427E-02 
651	 8.56181249888285E-02 
652	 8.60958897036159E-02 
653	 8.65772662451997E-02 
654	 0.087079717143713 
655	 8.76085151943055E-02 
656	 8.81298825980553E-02 
657	 8.86370396022146E-02 
658	 8.91335378260958E-02 
659	 8.96310454140693E-02 
660	 9.01512524351563E-02 
661	 9.06960198007176E-02 
662	 9.12523620690857E-02 
663	 0.091784802220723 
664	 9.23153806539294E-02 
665	 9.28531077152007E-02 
666	 9.33898098321507E-02 
667	 9.39467191622342E-02 
668	 9.45143962029395E-02 
669	 9.50844812884588E-02 
670	 0.095673646131656 
671	 9.62403130504029E-02 
672	 9.68003236928677E-02 
673	 9.73901746003003E-02 
674	 9.79802785578188E-02 
675	 9.85686796732572E-02 
676	 9.91732168764695E-02 
677	 9.98319704787291E-02 
678	 0.100436837095696 
679	 0.101021056357447 
680	 0.101641042851174 
681	 0.102316780902977 
682	 0.102985722164136 
683	 0.10362691961476 
684	 0.104248884612486 
685	 0.1048765826932 
686	 0.105518450540675 
687	 0.10618185043643 
688	 0.106878050170843 
689	 0.107571046103695 
690	 0.108238911347028 
691	 0.108890234293888 
692	 0.109616667304109 
693	 0.110333069364754 
694	 0.111025407961314 
695	 0.111723176561394 
696	 0.112405218103193 
697	 0.113108748293975 
698	 0.113842216239541 
699	 0.114559165119733 
700	 0.115271605430925 
701	 0.115983848221581 
702	 0.116701252352096 
703	 0.117433707866728 
704	 0.118175944349548 
705	 0.118907542597046 
706	 0.119604595911975 
707	 0.1203122866948 
708	 0.121027515286565 
709	 0.121738528920199 
710	 0.12242933833208 
711	 0.123153255559575 
712	 0.123873820635667 
713	 0.124551431568559 
714	 0.12524941367406 
715	 0.125942586389038 
716	 0.126629615250294 
717	 0.127321739301194 
718	 0.127975001825631 
719	 0.128605329122138 
720	 0.129231558656644 
721	 0.129860520403366 
722	 0.130478087413811 
723	 0.13109181061465 
724	 0.1317043786739 
725	 0.132273887850773 
726	 0.132831799589939 
727	 0.133408332519858 
728	 0.134016992320794 
729	 0.13452454492821 
730	 0.134996444307707 
731	 0.135481369193683 
732	 0.135953157027855 
733	 0.136435802255842 
734	 0.136900945427422 
735	 0.137316542305677 
736	 0.137687898316703 
737	 0.138069529457236 
738	 0.138442547221184 
739	 0.138752162908412 
740	 0.139107831745831 
741	 0.139466708641729 
742	 0.139787083736321 
743	 0.140059219076683 
744	 0.140312636581236 
745	 0.14054944758597 
746	 0.140769906941274 
747	 0.141000189197333 
748	 0.141183085262148 
749	 0.141315297398279 
750	 0.141430656840344 
751	 0.141569917741096 
752	 0.141717214553365 
753	 0.141834232294467 
754	 0.141865982319794 
755	 0.141904895298816 
756	 0.141940551375349 
757	 0.141943286263658 
758	 0.141897096148937 
759	 0.14187972523294 
760	 0.141867548714417 
761	 0.141797272552656 
762	 0.141693201317783 
763	 0.141612661643493 
764	 0.14155019023476 
765	 0.141433304881641 
766	 0.141269483514165 
767	 0.141112479207452 
768	 0.140985898114716 
769	 0.140826089612907 
770	 0.140620999932446 
771	 0.140414838435865 
772	 0.140248772510184 
773	 0.140031306493234 
774	 0.139803481272007 
775	 0.139566153779235 
776	 0.139290834361898 
777	 0.139060675495952 
778	 0.138833304979347 
779	 0.138572647172332 
780	 0.138287079305643 
781	 0.137959667311737 
782	 0.137649222439977 
783	 0.137397755591988 
784	 0.137115694118545 
785	 0.136836909110709 
786	 0.136545085354528 
787	 0.136206788365806 
788	 0.135878373282062 
789	 0.135559799349157 
790	 0.135254155608109 
791	 0.134971801225649 
792	 0.134644553724345 
793	 0.134295922471825 
794	 0.133962925808914 
795	 0.133668439291323 
796	 0.133348473930688 
797	 0.133014859820568 
798	 0.132692807564301 
799	 0.132316936025709 
800	 0.131958278653946 
801	 0.131628927039189 
802	 0.131292953832335 
803	 0.130964370056513 
804	 0.130636708543679 
805	 0.130309303107789 
806	 0.129992668588407 
807	 0.12968001234781 
808	 0.129369348284922 
809	 0.129059287741761 
810	 0.128743608427961 
811	 0.128462669665613 
812	 0.128186963580668 
813	 0.127868369796434 
814	 0.127548490169222 
815	 0.127253127810821 
816	 0.126982371570064 
817	 0.126715530932182 
818	 0.126469332344771 
819	 0.126204240347144 
820	 0.125915468848267 
821	 0.125665892623474 
822	 0.125426701463518 
823	 0.125194324757597 
824	 0.124964887170404 
825	 0.12471212255707 
826	 0.124486933308006 
827	 0.124282713794493 
828	 0.124071470478747 
829	 0.123876040503683 
830	 0.123688728231812 
831	 0.123498616051578 
832	 0.12329816618217 
833	 0.123129022224447 
834	 0.122965265815814 
835	 0.122786969855443 
836	 0.12259920158481 
837	 0.122461749148101 
838	 0.122328171128196 
839	 0.122165252267723 
840	 0.122058558143898 
841	 0.121934974314703 
842	 0.121806313309604 
843	 0.121700083720881 
844	 0.121536254020599 
845	 0.121419504507263 
846	 0.121357479936436 
847	 0.121282637098863 
848	 0.121199722475551 
849	 0.121114943242009 
850	 0.12103646421183 
851	 0.120972820016983 
852	 0.120925139185961 
853	 0.120880301492713 
854	 0.120843443291142 
855	 0.120868907958752 
856	 0.120837462245783 
857	 0.120778595546721 
858	 0.120754934358454 
859	 0.120755428531924 
860	 0.120783300273849 
861	 0.120824185434521 
862	 0.120859647877201 
863	 0.120906102299521 
864	 0.120944015966948 
865	 0.120995308062718 
866	 0.121103615022656 
867	 0.121134385306784 
868	 0.121189808633383 
869	 0.121306663422993 
870	 0.121391039063544 
871	 0.12154844388748 
872	 0.121719074103336 
873	 0.121846992675497 
874	 0.121963622422498 
875	 0.122105765967261 
876	 0.122258207734598 
877	 0.122404217919698 
878	 0.122588269090734 
879	 0.122786727164951 
880	 0.122981279816843 
881	 0.12316416778514 
882	 0.123364049068877 
883	 0.123565780416748 
884	 0.123788794650899 
885	 0.124067504943112 
886	 0.124317550228903 
887	 0.124566433329013 
888	 0.124834349349277 
889	 0.125115351377755 
890	 0.125393400576987 
891	 0.125643240965616 
892	 0.125880539390653 
893	 0.126187107194345 
894	 0.126529599216034 
895	 0.12685862110907 
896	 0.127156139286723 
897	 0.127495647884229 
898	 0.127836343677692 
899	 0.128169225824929 
900	 0.128503675259894 
901	 0.128871850256067 
902	 0.129264868958454 
903	 0.129681691187277 
904	 0.130110858676219 
905	 0.130469811069933 
906	 0.130843411653076 
907	 0.13126772146745 
908	 0.131724838419897 
909	 0.132146241940623 
910	 0.132591807618433 
911	 0.133073172504434 
912	 0.133544590058373 
913	 0.134040706529862 
914	 0.134542167587341 
915	 0.135037389559668 
916	 0.13553821271354 
917	 0.136094388941042 
918	 0.13668091258993 
919	 0.137268511839708 
920	 0.137853863967325 
921	 0.138400499232503 
922	 0.138956689047051 
923	 0.139569769989203 
924	 0.140228897290791 
925	 0.140887465196001 
926	 0.141522379371737 
927	 0.142148235716491 
928	 0.142866866276907 
929	 0.143560124583146 
930	 0.144220568474524 
931	 0.144892832604691 
932	 0.145612557988742 
933	 0.146356914225384 
934	 0.147120875269837 
935	 0.147901031780543 
936	 0.148634328147807 
937	 0.149437401659232 
938	 0.150276067724639 
939	 0.151036540696706 
940	 0.151865488543857 
941	 0.152725497495903 
942	 0.153590283092201 
943	 0.15445864601731 
944	 0.155335518482173 
945	 0.156164276976672 
946	 0.15699322348982 
947	 0.15795763927379 
948	 0.158849672378616 
949	 0.159746330661626 
950	 0.160673362308906 
951	 0.1615490484085 
952	 0.162447552212416 
953	 0.16346089223403 
954	 0.164541818457187 
955	 0.165459046253941 
956	 0.166429421502086 
957	 0.167425313873916 
958	 0.168405640318221 
959	 0.16939349157264 
960	 0.170399040340299 
961	 0.171439608699628 
962	 0.172501728780045 
963	 0.173515999531927 
964	 0.174462332834112 
965	 0.17544841751435 
966	 0.176547373735235 
967	 0.177679934163508 
968	 0.178809536135172 
969	 0.17992734771284 
970	 0.18102779596286 
971	 0.182082149542937 
972	 0.183162388433829 
973	 0.18425974533977 
974	 0.185359755023765 
975	 0.186507570212691 
976	 0.187701764634673 
977	 0.188898379930881 
978	 0.190051142069381 
979	 0.19114207526104 
980	 0.192333220912349 
981	 0.193583985481655 
982	 0.19479446706807 
983	 0.195921584559787 
984	 0.197189128566691 
985	 0.198486762915333 
986	 0.19966504399829 
987	 0.200869110080506 
988	 0.202123472601239 
989	 0.203418060668972 
990	 0.204702651462475 
991	 0.205853306754511 
992	 0.207117559614332 
993	 0.208393381721554 
994	 0.209559300123542 
995	 0.210890252488664 
996	 0.212247817928413 
997	 0.213512737871868 
998	 0.214681218435247 
999	 0.216084009676377 
1000	 0.217509481611003 
1001	 0.225588573145201 
1002	 0.226899434262636 
1003	 0.228219536585877 
1004	 0.229522727121187 
1005	 0.23079333410176 
1006	 0.232079896735006 
1007	 0.233350674462608 
1008	 0.234675200782067 
1009	 0.23601877134602 
1010	 0.237346607482824 
1011	 0.23874691992692 
1012	 0.240061779859549 
1013	 0.241278806254175 
1014	 0.242572204900639 
1015	 0.243869253190393 
1016	 0.245156229052857 
1017	 0.246547331503878 
1018	 0.247893938191589 
1019	 0.249235495094393 
1020	 0.250565048831106 
1021	 0.25183964450475 
1022	 0.253063581874639 
1023	 0.254310409232093 
1024	 0.255496658465924 
1025	 0.256768241921681 
1026	 0.258098013663836 
1027	 0.259384551449114 
1028	 0.260709513592578 
1029	 0.262014905354999 
1030	 0.263190466914751 
1031	 0.264393300654272 
1032	 0.265570658207356 
1033	 0.26674010124451 
1034	 0.268030287538363 
1035	 0.269290557307466 
1036	 0.270538176361973 
1037	 0.271834306848402 
1038	 0.273053950894664 
1039	 0.274219580752133 
1040	 0.275401754249493 
1041	 0.276522980951215 
1042	 0.2777138522614 
1043	 0.278939492151426 
1044	 0.280148044080757 
1045	 0.281410808317516 
1046	 0.282679066643219 
1047	 0.283867199162868 
1048	 0.285081352180424 
1049	 0.28625809115522 
1050	 0.287445485189811 
1051	 0.288726827242916 
1052	 0.289950530206937 
1053	 0.291177546540954 
1054	 0.292453004438706 
1055	 0.293660699667991 
1056	 0.294804227533609 
1057	 0.29598661261039 
1058	 0.297149382546617 
1059	 0.298303460780862 
1060	 0.299578119367786 
1061	 0.300808640312352 
1062	 0.302067137967378 
1063	 0.303340645157866 
1064	 0.304493745609868 
1065	 0.305682250903253 
1066	 0.306871631470344 
1067	 0.308056020010473 
1068	 0.309302615176815 
1069	 0.310494871416502 
1070	 0.311695241606476 
1071	 0.312897499284555 
1072	 0.314105664971595 
1073	 0.315249722086893 
1074	 0.316438298879304 
1075	 0.317608675749724 
1076	 0.318735156139944 
1077	 0.319915242838336 
1078	 0.321066659153721 
1079	 0.32222645229172 
1080	 0.323409502083361 
1081	 0.324538108949515 
1082	 0.32567259664173 
1083	 0.326769091305706 
1084	 0.327879075604685 
1085	 0.329058840595628 
1086	 0.330182674257406 
1087	 0.331279072605451 
1088	 0.332419663814224 
1089	 0.333559706105551 
1090	 0.334597816417839 
1091	 0.335675696637317 
1092	 0.336750519489754 
1093	 0.33783124348276 
1094	 0.338974847664438 
1095	 0.34005938231379 
1096	 0.341157104427394 
1097	 0.342257117554103 
1098	 0.34325838989346 
1099	 0.344320993076882 
1100	 0.345394668441074 
1101	 0.346402119962309 
1102	 0.347459124108806 
1103	 0.348497582540312 
1104	 0.349526272071178 
1105	 0.350562325089163 
1106	 0.351631859692202 
1107	 0.352643647332556 
1108	 0.353677407881586 
1109	 0.3546878089414 
1110	 0.355650680477842 
1111	 0.356652749999245 
1112	 0.357618649019844 
1113	 0.358602989175484 
1114	 0.359624490116618 
1115	 0.360571733447351 
1116	 0.361516628958153 
1117	 0.362439669052955 
1118	 0.363370662453502 
1119	 0.364291143589302 
1120	 0.365227938913899 
1121	 0.36617300622914 
1122	 0.367128303918517 
1123	 0.368074950960135 
1124	 0.368943293091635 
1125	 0.369828110557729 
1126	 0.370691270049092 
1127	 0.371513663013727 
1128	 0.372375007658586 
1129	 0.373208699926628 
1130	 0.374041226436517 
1131	 0.374888460307613 
1132	 0.375653893460317 
1133	 0.376414238921029 
1134	 0.377158057736677 
1135	 0.377893466452886 
1136	 0.378623302424048 
1137	 0.379344120754272 
1138	 0.380055788142267 
1139	 0.38075392967992 
1140	 0.38145547551451 
1141	 0.382087961235085 
1142	 0.38272286070533 
1143	 0.383349725126159 
1144	 0.383935929946255 
1145	 0.384541080365133 
1146	 0.385129688313238 
1147	 0.385691445706871 
1148	 0.386262690621977 
1149	 0.386802978521549 
1150	 0.387318384897558 
1151	 0.38782382696405 
1152	 0.388332587154824 
1153	 0.38882875986013 
1154	 0.38932670189612 
1155	 0.389839512907345 
1156	 0.390330579793353 
1157	 0.39082476027438 
1158	 0.391262902066106 
1159	 0.391675468314647 
1160	 0.392063940701892 
1161	 0.392406302827717 
1162	 0.392753015987549 
1163	 0.393116138203532 
1164	 0.393482236372403 
1165	 0.39383010397309 
1166	 0.394169023648995 
1167	 0.394487302759368 
1168	 0.394775464732085 
1169	 0.395070316797457 
1170	 0.395363491740948 
1171	 0.395640792265811 
1172	 0.395918803235783 
1173	 0.396172648968932 
1174	 0.396408011716735 
1175	 0.396626173937495 
1176	 0.396827536284173 
1177	 0.397013958970058 
1178	 0.397177978703624 
1179	 0.397339409345186 
1180	 0.39749586584982 
1181	 0.397634967773353 
1182	 0.397778713145547 
1183	 0.397921307146508 
1184	 0.398057491485142 
1185	 0.398202177608307 
1186	 0.398340154793477 
1187	 0.398467326389229 
1188	 0.398618708853885 
1189	 0.398765939134114 
1190	 0.398941145070425 
1191	 0.399140787632513 
1192	 0.399347387893994 
1193	 0.399560609967181 
1194	 0.399798659911473 
1195	 0.400050411189718 
1196	 0.400329558806841 
1197	 0.400631374592085 
1198	 0.400959036175504 
1199	 0.401305937293225 
1200	 0.401653752262413 
1201	 0.402029435741681 
1202	 0.402420089942857 
1203	 0.402847739215727 
1204	 0.403333673580954 
1205	 0.403839189635611 
1206	 0.404365513938864 
1207	 0.404969441813122 
1208	 0.405600139229248 
1209	 0.406308193324842 
1210	 0.407089873950567 
1211	 0.407928240216663 
1212	 0.408838708748373 
1213	 0.409792066402939 
1214	 0.410803238573341 
1215	 0.411869404159939 
1216	 0.412990289472066 
1217	 0.414141260620569 
1218	 0.415365947254826 
1219	 0.416598822326403 
1220	 0.417833931618437 
1221	 0.419173477103882 
1222	 0.420458573072311 
1223	 0.42174465276408 
1224	 0.423008713712332 
1225	 0.424265747211744 
1226	 0.42545490322871 
1227	 0.426633165745771 
1228	 0.427745380003547 
1229	 0.428794212281003 
1230	 0.429813724624969 
1231	 0.430791348457365 
1232	 0.431737085975493 
1233	 0.432629256893161 
1234	 0.433495281738875 
1235	 0.434332262093377 
1236	 0.435138793272878 
1237	 0.435907671237224 
1238	 0.436660069290137 
1239	 0.43738447081275 
1240	 0.438082204102217 
1241	 0.438790840794424 
1242	 0.439439917513448 
1243	 0.440077924310862 
1244	 0.440691998855576 
1245	 0.441297644400424 
1246	 0.441878842943043 
1247	 0.442450338793253 
1248	 0.443016376810041 
1249	 0.443563905688635 
1250	 0.444085471923961 
1251	 0.444599902533877 
1252	 0.445102601125643 
1253	 0.445601116236756 
1254	 0.446103791850379 
1255	 0.44657175010925 
1256	 0.447019175453186 
1257	 0.447459884113475 
1258	 0.447869032444883 
1259	 0.448277080076167 
1260	 0.448683379113651 
1261	 0.449084253441973 
1262	 0.449465226541544 
1263	 0.449854925122563 
1264	 0.450241671084333 
1265	 0.450632851184804 
1266	 0.451012689624656 
1267	 0.451379228478208 
1268	 0.451762866314685 
1269	 0.452159908001067 
1270	 0.452527187548126 
1271	 0.452891244267655 
1272	 0.453250324131395 
1273	 0.453579984506743 
1274	 0.453923705181941 
1275	 0.454278714276273 
1276	 0.454624976379207 
1277	 0.454966256288571 
1278	 0.45530119510626 
1279	 0.455621820736481 
1280	 0.455958891094227 
1281	 0.456296964675621 
1282	 0.456636072523025 
1283	 0.456992060403597 
1284	 0.457338203110829 
1285	 0.457679043342306 
1286	 0.458008050017972 
1287	 0.458346996138632 
1288	 0.458686847559074 
1289	 0.459026857127909 
1290	 0.459379728457416 
1291	 0.459700332439523 
1292	 0.460010316492738 
1293	 0.460308068416578 
1294	 0.460577904852747 
1295	 0.460857820385348 
1296	 0.461132593717529 
1297	 0.461410702039767 
1298	 0.461689056701692 
1299	 0.461964036220622 
1300	 0.46223602498418 
1301	 0.462512131957028 
1302	 0.462791619568237 
1303	 0.463063082486945 
1304	 0.463342634180905 
1305	 0.463605662150417 
1306	 0.46384322702908 
1307	 0.464094017643514 
1308	 0.464347622390903 
1309	 0.464598093726625 
1310	 0.464836965893371 
1311	 0.465076899953127 
1312	 0.465311681993612 
1313	 0.465533986553575 
1314	 0.465754440581788 
1315	 0.465979336407346 
1316	 0.46619325592085 
1317	 0.466397767910367 
1318	 0.466592528647731 
1319	 0.466786744765066 
1320	 0.466964367912528 
1321	 0.467120460358492 
1322	 0.467280879308386 
1323	 0.467439586349335 
1324	 0.467588009704284 
1325	 0.467735148664854 
1326	 0.46786794480589 
1327	 0.4679900529336 
1328	 0.468101396079496 
1329	 0.468210116052782 
1330	 0.468295754851559 
1331	 0.468363096669794 
1332	 0.468420160967545 
1333	 0.468460455578832 
1334	 0.468488971379416 
1335	 0.468503064854284 
1336	 0.468516592200986 
1337	 0.468483704565525 
1338	 0.46842024226324 
1339	 0.468351316619629 
1340	 0.468250621332684 
1341	 0.468155734837328 
1342	 0.468062069704956 
1343	 0.467947029397593 
1344	 0.467833153233899 
1345	 0.4676719193228 
1346	 0.467478552132242 
1347	 0.467278383527415 
1348	 0.467050574467368 
1349	 0.466807209249638 
1350	 0.466556189227143 
1351	 0.466284266950283 
1352	 0.465972116610569 
1353	 0.465669933455502 
1354	 0.465357156725657 
1355	 0.465051252866289 
1356	 0.46475573899471 
1357	 0.464443213982508 
1358	 0.464123596475824 
1359	 0.463800181046442 
1360	 0.463477524709447 
1361	 0.463133614560221 
1362	 0.462756899473479 
1363	 0.462392057344359 
1364	 0.461994712933145 
1365	 0.461577975332214 
1366	 0.461118047875342 
1367	 0.460641368326914 
1368	 0.46012797622957 
1369	 0.4595627592536 
1370	 0.458994430551456 
1371	 0.458416883009022 
1372	 0.457810736217107 
1373	 0.457177467872174 
1374	 0.456524082962552 
1375	 0.455837475223085 
1376	 0.455147993728726 
1377	 0.454448403013412 
1378	 0.453714498036214 
1379	 0.452954289696577 
1380	 0.452191255380434 
1381	 0.451390997987854 
1382	 0.450601120369348 
1383	 0.44980198628593 
1384	 0.44902347794554 
1385	 0.448225676751855 
1386	 0.447482513263305 
1387	 0.446772981701941 
1388	 0.446097624336627 
1389	 0.445465434038336 
1390	 0.444851825324204 
1391	 0.444291775746452 
1392	 0.443706565636306 
1393	 0.443159051244121 
1394	 0.442595293792133 
1395	 0.441962722493299 
1396	 0.441322434596635 
1397	 0.440580012315154 
1398	 0.439792077932479 
1399	 0.438875699642866 
1400	 0.437872377549303 
1401	 0.436777427525108 
1402	 0.435572491990796 
1403	 0.434293918085375 
1404	 0.432906593620416 
1405	 0.431522994501204 
1406	 0.430045585933644 
1407	 0.428596323487799 
1408	 0.427095200333469 
1409	 0.425678758173424 
1410	 0.42422908587925 
1411	 0.422910281163937 
1412	 0.421658525088923 
1413	 0.420524875396123 
1414	 0.419473144664062 
1415	 0.418530994490512 
1416	 0.417728534277518 
1417	 0.416964827126358 
1418	 0.416304034525162 
1419	 0.415668059599509 
1420	 0.415082388052897 
1421	 0.414543085283748 
1422	 0.414058943159646 
1423	 0.413602116103858 
1424	 0.413207045163733 
1425	 0.4128020959992 
1426	 0.412440099211025 
1427	 0.412109633916755 
1428	 0.411800042979542 
1429	 0.411560209309393 
1430	 0.411357704828877 
1431	 0.411203588747275 
1432	 0.411071191606433 
1433	 0.410979837892729 
1434	 0.410923487449586 
1435	 0.410898695757856 
1436	 0.410898804601672 
1437	 0.410947643709397 
1438	 0.410998734284126 
1439	 0.411054925751714 
1440	 0.411154532338989 
1441	 0.411281886389509 
1442	 0.411438527683909 
1443	 0.411635613076057 
1444	 0.411842050177936 
1445	 0.412073386992685 
1446	 0.412317128970533 
1447	 0.412571464058656 
1448	 0.412854052826038 
1449	 0.413172097829458 
1450	 0.413485008154615 
1451	 0.413818012850817 
1452	 0.414150652207628 
1453	 0.414489850864928 
1454	 0.414820105753276 
1455	 0.415162880463892 
1456	 0.415487391767686 
1457	 0.415796926666075 
1458	 0.416102280115138 
1459	 0.41639059862838 
1460	 0.416689375613717 
1461	 0.416990820318871 
1462	 0.417285575424724 
1463	 0.41756615198165 
1464	 0.417871451217374 
1465	 0.418188441014914 
1466	 0.418504082921204 
1467	 0.418828701730486 
1468	 0.419172205475852 
1469	 0.419507182160053 
1470	 0.419831581875671 
1471	 0.420170885428408 
1472	 0.420524018731667 
1473	 0.420871751536476 
1474	 0.421224629793892 
1475	 0.421564443643277 
1476	 0.421906196161632 
1477	 0.422232584419264 
1478	 0.422544264368742 
1479	 0.422852095150366 
1480	 0.423153718196743 
1481	 0.423447279830227 
1482	 0.42373227940764 
1483	 0.424013719508908 
1484	 0.42429984486528 
1485	 0.424554257511678 
1486	 0.424785675571711 
1487	 0.425019304804801 
1488	 0.425226696904292 
1489	 0.425448483761336 
1490	 0.425683685157458 
1491	 0.425905098519596 
1492	 0.426116044362573 
1493	 0.42633314125327 
1494	 0.426543171257124 
1495	 0.426762278911586 
1496	 0.426977949042734 
1497	 0.427214365803476 
1498	 0.427467078015999 
1499	 0.427720292206861 
1500	 0.427995753637378 
1501	 0.428257891486243 
1502	 0.428513388607774 
1503	 0.42876869330935 
1504	 0.429023736701459 
1505	 0.429273981089117 
1506	 0.42952534370295 
1507	 0.429767639227601 
1508	 0.429993946268259 
1509	 0.430230428128994 
1510	 0.430466271950246 
1511	 0.430702911379037 
1512	 0.43095320057303 
1513	 0.431190652519866 
1514	 0.431411506868942 
1515	 0.431644010012065 
1516	 0.431882401284767 
1517	 0.43211394231263 
1518	 0.43235234037412 
1519	 0.43258288038492 
1520	 0.43281179285935 
1521	 0.433014516440787 
1522	 0.433225452077533 
1523	 0.433464530662526 
1524	 0.433696004684504 
1525	 0.43393422522922 
1526	 0.434170856411197 
1527	 0.434410677231919 
1528	 0.434645818166571 
1529	 0.434883344046298 
1530	 0.435110208456494 
1531	 0.435331067968722 
1532	 0.435551423530927 
1533	 0.435765773778706 
1534	 0.435981320741235 
1535	 0.436196171840035 
1536	 0.436409363925787 
1537	 0.43662598487855 
1538	 0.436824979893726 
1539	 0.437017712228763 
1540	 0.437204105698879 
1541	 0.437372043872903 
1542	 0.437552019690399 
1543	 0.437740054757619 
1544	 0.437910898284328 
1545	 0.438089768890573 
1546	 0.438229331855767 
1547	 0.438335279680392 
1548	 0.438454932321998 
1549	 0.438556149732755 
1550	 0.438662981525514 
1551	 0.438787088721206 
1552	 0.438881436220255 
1553	 0.438957880901444 
1554	 0.439028126400381 
1555	 0.439069659495774 
1556	 0.43914124866575 
1557	 0.439221493691896 
1558	 0.439296723090379 
1559	 0.439384750007166 
1560	 0.43946868065031 
1561	 0.439536486888703 
1562	 0.439624878406769 
1563	 0.439716852438337 
1564	 0.439835099249749 
1565	 0.439973315483846 
1566	 0.440115385139586 
1567	 0.440281317869829 
1568	 0.440444526262249 
1569	 0.440611629613089 
1570	 0.440777661647771 
1571	 0.440949946270685 
1572	 0.44112229467439 
1573	 0.441295416970008 
1574	 0.441463832096834 
1575	 0.441638582815057 
1576	 0.441801691776581 
1577	 0.441956885039905 
1578	 0.442105215785959 
1579	 0.442244857261833 
1580	 0.442382948158686 
1581	 0.442507035398605 
1582	 0.442642524426456 
1583	 0.442781920719191 
1584	 0.442922236768546 
1585	 0.443070135532885 
1586	 0.443213434116935 
1587	 0.443356362077939 
1588	 0.443496179569042 
1589	 0.443631532700466 
1590	 0.443769137086521 
1591	 0.443903955913587 
1592	 0.444042624321109 
1593	 0.444186690837463 
1594	 0.444327525040705 
1595	 0.444477062297651 
1596	 0.444608585180868 
1597	 0.444725836851604 
1598	 0.444846977999524 
1599	 0.444961629017452 
1600	 0.445071372976243 
1601	 0.445179939432551 
1602	 0.445288278121124 
1603	 0.445392079956341 
1604	 0.445490491486548 
1605	 0.445600135590105 
1606	 0.445685047390824 
1607	 0.445746387989651 
1608	 0.445810397559422 
1609	 0.445865348954773 
1610	 0.44591297960996 
1611	 0.445965733456401 
1612	 0.445996061342589 
1613	 0.446004505182759 
1614	 0.446011113795667 
1615	 0.446012384007221 
1616	 0.445994773234871 
1617	 0.445953791547057 
1618	 0.44592363597693 
1619	 0.445882583957257 
1620	 0.445842875405797 
1621	 0.445827824198942 
1622	 0.445781632391705 
1623	 0.445710782063287 
1624	 0.445640185905819 
1625	 0.445554157340758 
1626	 0.445465556432709 
1627	 0.445367053499345 
1628	 0.44527713471927 
1629	 0.44519480383286 
1630	 0.445097489996556 
1631	 0.444997922310505 
1632	 0.444894886932111 
1633	 0.444777829614676 
1634	 0.44465797099182 
1635	 0.444528933716966 
1636	 0.444417598454891 
1637	 0.444319087465037 
1638	 0.444203606640424 
1639	 0.44409512395249 
1640	 0.443975805232748 
1641	 0.443845512971902 
1642	 0.443697470596866 
1643	 0.443555734924961 
1644	 0.443381527036546 
1645	 0.443166537223343 
1646	 0.442950896161583 
1647	 0.442711509755639 
1648	 0.442478581560005 
1649	 0.442270683728742 
1650	 0.442005856082294 
1651	 0.441722448758104 
1652	 0.4414073781833 
1653	 0.441050034041464 
1654	 0.440661929852758 
1655	 0.440247585148841 
1656	 0.439801244452285 
1657	 0.43931991059277 
1658	 0.43879638996683 
1659	 0.43825985935327 
1660	 0.43765570311831 
1661	 0.436996533994492 
1662	 0.436281142970111 
1663	 0.435513067441023 
1664	 0.434672667417638 
1665	 0.433784306876564 
1666	 0.432800651874139 
1667	 0.43172274137613 
1668	 0.430611296023117 
1669	 0.429450712873611 
1670	 0.428189379815692 
1671	 0.426860398404972 
1672	 0.425438332636196 
1673	 0.423918132769461 
1674	 0.422307344034365 
1675	 0.420614186199909 
1676	 0.418874475161722 
1677	 0.417035847830767 
1678	 0.415150449625751 
1679	 0.413217139724435 
1680	 0.41119011439967 
1681	 0.409089782334635 
1682	 0.406895428789134 
1683	 0.404625200530637 
1684	 0.402297119447352 
1685	 0.399868755812636 
1686	 0.397399295890999 
1687	 0.394838334046529 
1688	 0.392253627299339 
1689	 0.389629026088567 
1690	 0.386930772703169 
1691	 0.384189131553382 
1692	 0.381456396492231 
1693	 0.3786839781007 
1694	 0.375860002628356 
1695	 0.372995203150878 
1696	 0.370089320281408 
1697	 0.36710553154921 
1698	 0.364112800793223 
1699	 0.361096604700478 
1700	 0.358182007569343 
1701	 0.355206219217722 
1702	 0.352435134054786 
1703	 0.349738245276958 
1704	 0.347230811052475 
1705	 0.344850163806764 
1706	 0.342614383494609 
1707	 0.340690638675272 
1708	 0.338894154296703 
1709	 0.337238467792639 
1710	 0.335733390956207 
1711	 0.334243845076005 
1712	 0.332861667513464 
1713	 0.331513999728968 
1714	 0.330197399943512 
1715	 0.329031467820352 
1716	 0.327858465641454 
1717	 0.326746785542162 
1718	 0.325728440073626 
1719	 0.324697591314674 
1720	 0.323765555493262 
1721	 0.322962959936976 
1722	 0.32228434846633 
1723	 0.321826054593815 
1724	 0.32156753467053 
1725	 0.321501359271398 
1726	 0.321697489998474 
1727	 0.322146007779422 
1728	 0.322823876209703 
1729	 0.323751263053139 
1730	 0.324909193527953 
1731	 0.326162467903033 
1732	 0.327572439728544 
1733	 0.329017638476552 
1734	 0.330458491924971 
1735	 0.331929951271538 
1736	 0.333236376469395 
1737	 0.334406101717068 
1738	 0.335368867687811 
1739	 0.336130150198976 
1740	 0.336721965214499 
1741	 0.337129729773749 
1742	 0.337284469508022 
1743	 0.337382388316117 
1744	 0.337287080049661 
1745	 0.337181081313234 
1746	 0.33696369418704 
1747	 0.336777241677976 
1748	 0.336513079610267 
1749	 0.336353916507171 
1750	 0.336201463639329 
1751	 0.336162130760675 
1752	 0.336190519331244 
1753	 0.336337617350039 
1754	 0.33656367947107 
1755	 0.336945947534699 
1756	 0.337430731736467 
1757	 0.338072617752786 
1758	 0.338910848491035 
1759	 0.339849575807898 
1760	 0.34099515582587 
1761	 0.342325293543983 
1762	 0.343684717295464 
1763	 0.345224995107735 
1764	 0.346874951874922 
1765	 0.34859267438079 
1766	 0.350498086431516 
1767	 0.352352453437146 
1768	 0.354223110452523 
1769	 0.356123082799555 
1770	 0.357849687047306 
1771	 0.35959231767556 
1772	 0.361257406611225 
1773	 0.362741534430445 
1774	 0.364205689493823 
1775	 0.365556145413298 
1776	 0.366805157591011 
1777	 0.367973530761233 
1778	 0.368986917130703 
1779	 0.369875747862156 
1780	 0.370640220698629 
1781	 0.371308835193857 
1782	 0.371960518308565 
1783	 0.372549839415233 
1784	 0.373076782687198 
1785	 0.37348467007992 
1786	 0.373863454274105 
1787	 0.374174298255571 
1788	 0.374474995592519 
1789	 0.374744619119631 
1790	 0.375002173402128 
1791	 0.375235101739038 
1792	 0.375444302143995 
1793	 0.375619709223993 
1794	 0.375801939845632 
1795	 0.375971282735496 
1796	 0.376176632234701 
1797	 0.376371173305788 
1798	 0.37654228844401 
1799	 0.376751399548459 
1800	 0.376937143520065 
1801	 0.363166142655546 
1802	 0.363351650331184 
1803	 0.36355983121262 
1804	 0.363773180412774 
1805	 0.36401468149604 
1806	 0.36424793627512 
1807	 0.364489213326456 
1808	 0.364731743370319 
1809	 0.364987137900713 
1810	 0.365223358295712 
1811	 0.365442290730043 
1812	 0.365686365736957 
1813	 0.365919990037149 
1814	 0.36618754962965 
1815	 0.366458445551237 
1816	 0.366735474995421 
1817	 0.367028093861236 
1818	 0.367323315393511 
1819	 0.367626447495208 
1820	 0.367947800731261 
1821	 0.368276220180949 
1822	 0.368608464257793 
1823	 0.368954078127792 
1824	 0.369293159041331 
1825	 0.369649808107494 
1826	 0.369986954861135 
1827	 0.370309935561221 
1828	 0.370626760106494 
1829	 0.370944534736475 
1830	 0.371247650994837 
1831	 0.371529537036192 
1832	 0.371834059771993 
1833	 0.372101057839167 
1834	 0.372379985333441 
1835	 0.372674448733789 
1836	 0.372942622379106 
1837	 0.373239293215578 
1838	 0.373553619343628 
1839	 0.373867279977791 
1840	 0.374210289948365 
1841	 0.374521212600195 
1842	 0.374818664290213 
1843	 0.375127124454283 
1844	 0.375412094999662 
1845	 0.375669662384625 
1846	 0.375982661448485 
1847	 0.376278959578825 
1848	 0.376553595672394 
1849	 0.376843296678903 
1850	 0.377087350870314 
1851	 0.377296436112537 
1852	 0.377497742898208 
1853	 0.377663910790692 
1854	 0.377784992006636 
1855	 0.377901735685436 
1856	 0.377984334021474 
1857	 0.378058431476041 
1858	 0.3781253921239 
1859	 0.378145553365738 
1860	 0.378148811404038 
1861	 0.378089768091624 
1862	 0.377980194221025 
1863	 0.377843844937139 
1864	 0.377667792815569 
1865	 0.377448473150937 
1866	 0.377207687137289 
1867	 0.376905372779297 
1868	 0.376559903195534 
1869	 0.376165710051567 
1870	 0.375700238551337 
1871	 0.375183748818423 
1872	 0.37461110477174 
1873	 0.373978649110702 
1874	 0.373286971154434 
1875	 0.372556063673401 
1876	 0.371686112190778 
1877	 0.370775490040905 
1878	 0.369734197743114 
1879	 0.368538426694748 
1880	 0.367344511124699 
1881	 0.365977205275371 
1882	 0.364469108819694 
1883	 0.362848972505153 
1884	 0.361085821636684 
1885	 0.359026518544017 
1886	 0.356872712823427 
1887	 0.354502293882763 
1888	 0.351897422272021 
1889	 0.34935070113181 
1890	 0.346584298568595 
1891	 0.343785436773743 
1892	 0.340987304027096 
1893	 0.338074855177449 
1894	 0.334993230081868 
1895	 0.332042290276771 
1896	 0.329037631097514 
1897	 0.326037936044728 
1898	 0.323324208263953 
1899	 0.320577559453918 
1900	 0.317932500306839 
1901	 0.315451989307074 
1902	 0.31286728488938 
1903	 0.310459000625864 
1904	 0.308151851922341 
1905	 0.305910592164868 
1906	 0.303767971877734 
1907	 0.301918519982272 
1908	 0.300098397519128 
1909	 0.298389832941021 
1910	 0.296838990137482 
1911	 0.295266991285651 
1912	 0.293822020862584 
1913	 0.292461886967032 
1914	 0.291127693103182 
1915	 0.289914751934827 
1916	 0.288821373309241 
1917	 0.287764380758649 
1918	 0.28678992528282 
1919	 0.285914155235293 
1920	 0.285042390085564 
1921	 0.284251709953663 
1922	 0.283511870000473 
1923	 0.282815491927084 
1924	 0.282229427638893 
1925	 0.281698922406825 
1926	 0.281221200615771 
1927	 0.280823947606044 
1928	 0.280447554493349 
1929	 0.280114005896423 
1930	 0.279819753460368 
1931	 0.279563945967005 
1932	 0.279359185110184 
1933	 0.27923031462645 
1934	 0.279165165454318 
1935	 0.27915338665422 
1936	 0.279210124295719 
1937	 0.27930358285687 
1938	 0.279441975406432 
1939	 0.279626730602449 
1940	 0.279861759345767 
1941	 0.280138031796561 
1942	 0.280445207051723 
1943	 0.280822925357456 
1944	 0.281237433497904 
1945	 0.281688923417798 
1946	 0.28219829939529 
1947	 0.282715680816916 
1948	 0.283253051571788 
1949	 0.283812933800897 
1950	 0.284371455880558 
1951	 0.284934509525949 
1952	 0.285522856104283 
1953	 0.286128793262064 
1954	 0.28672811548197 
1955	 0.287376043916244 
1956	 0.287998455736307 
1957	 0.288610413837142 
1958	 0.289252650544775 
1959	 0.289832265936156 
1960	 0.290399343879187 
1961	 0.290960212472244 
1962	 0.291486835972607 
1963	 0.292028723628645 
1964	 0.2925872928107 
1965	 0.293107814529918 
1966	 0.293618663007691 
1967	 0.294122995840972 
1968	 0.294566359793618 
1969	 0.295041144895027 
1970	 0.295518442052655 
1971	 0.295990160391198 
1972	 0.296497159349678 
1973	 0.296990877041007 
1974	 0.2974802105862 
1975	 0.297975644050558 
1976	 0.298458017857712 
1977	 0.298929219744109 
1978	 0.299402594701443 
1979	 0.299873273357879 
1980	 0.300335463600345 
1981	 0.300813612651057 
1982	 0.301258218894917 
1983	 0.301713282256737 
1984	 0.302188312738176 
1985	 0.302612662515893 
1986	 0.303034068989215 
1987	 0.303450687950516 
1988	 0.30383853389049 
1989	 0.304240878470525 
1990	 0.30466562791387 
1991	 0.305057611936786 
1992	 0.305441220613133 
1993	 0.305816354768083 
1994	 0.306141552591751 
1995	 0.306469056037689 
1996	 0.306785069118538 
1997	 0.307073242587195 
1998	 0.307375133317411 
1999	 0.307682163038519 
2000	 0.307968102113459 
2001	 0.308268930701577 
2002	 0.30851952763091 
2003	 0.308737726477765 
2004	 0.308942320089565 
2005	 0.309112141161384 
2006	 0.309268028567817 
2007	 0.309407963713348 
2008	 0.309543384424834 
2009	 0.30963746448296 
2010	 0.309703703533273 
2011	 0.309743006385314 
2012	 0.309739203829544 
2013	 0.309707692932138 
2014	 0.309649005155341 
2015	 0.309548419259886 
2016	 0.309424453773278 
2017	 0.309242124044073 
2018	 0.30900593216448 
2019	 0.30873485707427 
2020	 0.308427177040765 
2021	 0.308053392941371 
2022	 0.307656669763867 
2023	 0.30723918170489 
2024	 0.306741193355043 
2025	 0.306207281212643 
2026	 0.305634687702458 
2027	 0.304977277766714 
2028	 0.30435821544733 
2029	 0.303718546752825 
2030	 0.303080355566014 
2031	 0.302447488454961 
2032	 0.301806815812902 
2033	 0.301129221576042 
2034	 0.300502260158689 
2035	 0.299883356852997 
2036	 0.299281892063117 
2037	 0.298756647595157 
2038	 0.298246429837523 
2039	 0.29779551495673 
2040	 0.297404991730739 
2041	 0.297036130192401 
2042	 0.296702032611774 
2043	 0.29642053901071 
2044	 0.29617348103972 
2045	 0.295972055000095 
2046	 0.295837512660732 
2047	 0.295711315656768 
2048	 0.295616900878149 
2049	 0.29555486789678 
2050	 0.295525422765562 
2051	 0.295520814175853 
2052	 0.295530556935962 
2053	 0.295570871431871 
2054	 0.295624659205328 
2055	 0.29569634549076 
2056	 0.295771740960104 
2057	 0.295879195861953 
2058	 0.295967708686684 
2059	 0.296049192096945 
2060	 0.29613942384472 
2061	 0.296235073251626 
2062	 0.296326044907741 
2063	 0.296420056306046 
2064	 0.296511728435132 
2065	 0.296595362217542 
2066	 0.29668982875222 
2067	 0.296785339000774 
2068	 0.296872308169987 
2069	 0.296953166335302 
2070	 0.297037166454967 
2071	 0.297096880578073 
2072	 0.297147469530517 
2073	 0.297177118232114 
2074	 0.297185449651564 
2075	 0.297183714203449 
2076	 0.297158375794835 
2077	 0.297137501512308 
2078	 0.297110402399091 
2079	 0.29707526016644 
2080	 0.297043009426065 
2081	 0.296990725251967 
2082	 0.296916292951137 
2083	 0.296840120888376 
2084	 0.296756526347264 
2085	 0.296687473195581 
2086	 0.296603316400786 
2087	 0.29652968204186 
2088	 0.296423887447308 
2089	 0.296299523780946 
2090	 0.296160033875473 
2091	 0.29600053389091 
2092	 0.295832463456778 
2093	 0.295648274384325 
2094	 0.295459405282136 
2095	 0.295257812951885 
2096	 0.295048703720065 
2097	 0.294842554192898 
2098	 0.294607731281317 
2099	 0.2943531401044 
2100	 0.294115922056937 
2101	 0.293847987886333 
2102	 0.293568525405054 
2103	 0.293263875914395 
2104	 0.292937233323393 
2105	 0.292597412151019 
2106	 0.292237662865179 
2107	 0.291856545552846 
2108	 0.291467959914144 
2109	 0.291045145346451 
2110	 0.290586006133985 
2111	 0.290120796383123 
2112	 0.289623728407563 
2113	 0.289125217287378 
2114	 0.288626339162446 
2115	 0.288102387575807 
2116	 0.287556347142793 
2117	 0.28701744738834 
2118	 0.286439416640292 
2119	 0.285819072658617 
2120	 0.285231387158613 
2121	 0.284617523534883 
2122	 0.284050932331026 
2123	 0.283519341382162 
2124	 0.282980816632014 
2125	 0.282472555156575 
2126	 0.281934090839397 
2127	 0.281359000683799 
2128	 0.280836934086616 
2129	 0.28031390958376 
2130	 0.279823461498619 
2131	 0.279387402637074 
2132	 0.27894835905405 
2133	 0.278522186930648 
2134	 0.278114810226505 
2135	 0.277662127409125 
2136	 0.277232295817617 
2137	 0.276820268553472 
2138	 0.276383754972329 
2139	 0.27600734895428 
2140	 0.275679947385381 
2141	 0.275363901171498 
2142	 0.2750643537686 
2143	 0.27479827225145 
2144	 0.27457848570367 
2145	 0.27435233773734 
2146	 0.274147926547515 
2147	 0.273944772048892 
2148	 0.273733411960844 
2149	 0.273554565038738 
2150	 0.273399191725034 
2151	 0.273252407220966 
2152	 0.273123127699017 
2153	 0.27302245364083 
2154	 0.272907813405928 
2155	 0.27278060968385 
2156	 0.272657939624744 
2157	 0.272526221184283 
2158	 0.272414898485265 
2159	 0.272324707652927 
2160	 0.272203707206228 
2161	 0.27208662467659 
2162	 0.271948297972319 
2163	 0.271764256611033 
2164	 0.271620222684903 
2165	 0.271485138022364 
2166	 0.271358101949082 
2167	 0.271242471553828 
2168	 0.271138135037786 
2169	 0.271027621037043 
2170	 0.270954648375984 
2171	 0.270921820812711 
2172	 0.270881194978531 
2173	 0.270862988795941 
2174	 0.270834440840419 
2175	 0.270824562482439 
2176	 0.270825825115464 
2177	 0.270841534504049 
2178	 0.270882005380639 
2179	 0.270927644383878 
2180	 0.270991531248485 
2181	 0.271033712204779 
2182	 0.271063073645423 
2183	 0.271137452404492 
2184	 0.271224770672574 
2185	 0.271298947065742 
2186	 0.27142507122298 
2187	 0.271499666195787 
2188	 0.271513108264009 
2189	 0.271567418829538 
2190	 0.271639720792821 
2191	 0.27169381220268 
2192	 0.271749075858992 
2193	 0.271800966675312 
2194	 0.271845645868014 
2195	 0.271879210102528 
2196	 0.271906250004823 
2197	 0.27193363144946 
2198	 0.27195649425222 
2199	 0.271985373725092 
2200	 0.272004865407929 
2201	 0.272040543855342 
2202	 0.272042076565833 
2203	 0.272017679667086 
2204	 0.272002070433524 
2205	 0.271977992941533 
2206	 0.271942289439577 
2207	 0.271909536794768 
2208	 0.27184968352514 
2209	 0.271761356925475 
2210	 0.27169014195237 
2211	 0.271617381553505 
2212	 0.271527308647784 
2213	 0.271441272952041 
2214	 0.27133169107337 
2215	 0.271210012391245 
2216	 0.271060588005943 
2217	 0.270910715058848 
2218	 0.270711071900249 
2219	 0.270477406842448 
2220	 0.270198386811789 
2221	 0.269870044264981 
2222	 0.269518250290831 
2223	 0.269125706474401 
2224	 0.268674298052505 
2225	 0.268176770596872 
2226	 0.267611359052422 
2227	 0.266989893108025 
2228	 0.266320543348117 
2229	 0.265550130168341 
2230	 0.264706489742335 
2231	 0.263782189012198 
2232	 0.262758960212441 
2233	 0.261672966231462 
2234	 0.260577411790841 
2235	 0.259264299790316 
2236	 0.257820864626739 
2237	 0.25625820502253 
2238	 0.254468628692436 
2239	 0.252677234190776 
2240	 0.250842128379235 
2241	 0.248864662263095 
2242	 0.246843274719481 
2243	 0.24463052812795 
2244	 0.242204642940517 
2245	 0.239749263385789 
2246	 0.237072942784655 
2247	 0.234460646715291 
2248	 0.231851789824118 
2249	 0.229186677416845 
2250	 0.226491135959106 
2251	 0.223832609048536 
2252	 0.220951517563121 
2253	 0.218123732179664 
2254	 0.215225950962878 
2255	 0.212279162882006 
2256	 0.209574897297584 
2257	 0.206863898205215 
2258	 0.204233854769325 
2259	 0.201750514027045 
2260	 0.199190347169585 
2261	 0.196598087277416 
2262	 0.194125876609173 
2263	 0.191639597104011 
2264	 0.189317406011715 
2265	 0.187151059091807 
2266	 0.184962318402237 
2267	 0.182907611067657 
2268	 0.180764163474189 
2269	 0.178570213678185 
2270	 0.176474097982986 
2271	 0.174321255310487 
2272	 0.172334035579993 
2273	 0.170524310901011 
2274	 0.168646446820353 
2275	 0.166885923213706 
2276	 0.165038796757521 
2277	 0.163127722170901 
2278	 0.16123592658284 
2279	 0.159271363353992 
2280	 0.157381323087284 
2281	 0.155567884115302 
2282	 0.15369462619033 
2283	 0.151836376524263 
2284	 0.149993045224715 
2285	 0.148000607130195 
2286	 0.146050534248085 
2287	 0.144040022859701 
2288	 0.141985921824993 
2289	 0.140066993404641 
2290	 0.138104760938674 
2291	 0.136208170502283 
2292	 0.134366323394838 
2293	 0.132440346397132 
2294	 0.130612124608615 
2295	 0.128880387119524 
2296	 0.127283922998935 
2297	 0.125946216515025 
2298	 0.124805253402446 
2299	 0.123874902531885 
2300	 0.123191026182018 
2301	 0.122689987329293 
2302	 0.122358546559923 
2303	 0.122342163979232 
2304	 0.122600281354206 
2305	 0.123058996930884 
2306	 0.123840477626607 
2307	 0.124740653180548 
2308	 0.125797842582513 
2309	 0.127125449669113 
2310	 0.128762388770033 
2311	 0.13042731973491 
2312	 0.13241563764929 
2313	 0.134269574412232 
2314	 0.136205264454726 
2315	 0.138036868186546 
2316	 0.139874674491328 
2317	 0.141538418106124 
2318	 0.143190184854928 
2319	 0.144510633495194 
2320	 0.145645730578934 
2321	 0.146551244186681 
2322	 0.147124531403575 
2323	 0.147592169424135 
2324	 0.147886028172697 
2325	 0.147989008885451 
2326	 0.147878243422624 
2327	 0.14763128750636 
2328	 0.147156610985209 
2329	 0.14659089732032 
2330	 0.145902835701045 
2331	 0.145033611194981 
2332	 0.144078631975134 
2333	 0.142989505046105 
2334	 0.141755880720452 
2335	 0.140501701620545 
2336	 0.139103565127205 
2337	 0.137593228517015 
2338	 0.136123666157779 
2339	 0.134600691044787 
2340	 0.133157050831967 
2341	 0.131852508200013 
2342	 0.130615467258744 
2343	 0.129610018600992 
2344	 0.128911611365291 
2345	 0.128537206532291 
2346	 0.128481809705534 
2347	 0.12876447872549 
2348	 0.129203002019968 
2349	 0.129943156849671 
2350	 0.130984200823018 
2351	 0.132140263780947 
2352	 0.133498580136729 
2353	 0.134902643085367 
2354	 0.136173818076216 
2355	 0.137435644758153 
2356	 0.138589552289918 
2357	 0.139542187373976 
2358	 0.140428036697824 
2359	 0.141115535836689 
2360	 0.141602502336515 
2361	 0.141936136350228 
2362	 0.142119792979747 
2363	 0.142195937956564 
2364	 0.142229065716437 
2365	 0.142270306981158 
2366	 0.142306729646883 
2367	 0.142279479061894 
2368	 0.14222006724947 
2369	 0.142179803136206 
2370	 0.14214719386715 
2371	 0.142135515339928 
2372	 0.142142290190307 
2373	 0.142162208574621 
2374	 0.142170112078443 
2375	 0.142172481940215 
2376	 0.142209727921932 
2377	 0.142269905051858 
2378	 0.142289390239857 
2379	 0.142325546667176 
2380	 0.142408014284779 
2381	 0.142491126086763 
2382	 0.142588583694968 
2383	 0.14273063579804 
2384	 0.142860617451186 
2385	 0.142976092196017 
2386	 0.143108304778204 
2387	 0.143280727774242 
2388	 0.143414571926989 
2389	 0.143525967566387 
2390	 0.143663127981746 
2391	 0.143800281906174 
2392	 0.143903801686941 
2393	 0.144024484868575 
2394	 0.144083821270865 
2395	 0.144067278220558 
2396	 0.144114054713357 
2397	 0.144176725672831 
2398	 0.144216167742768 
2399	 0.144241736418311 
2400	 0.144302017681907 
2401	 0.144357189904047 
2402	 0.144462901815289 
2403	 0.144587879113595 
2404	 0.144715088802377 
2405	 0.144759106149332 
2406	 0.144726938898081 
2407	 0.144742527247938 
2408	 0.144740063054751 
2409	 0.144770410334761 
2410	 0.144865490230702 
2411	 0.144904740545095 
2412	 0.144936617932793 
2413	 0.144996622310478 
2414	 0.145008128179006 
2415	 0.145072839318107 
2416	 0.14522962903676 
2417	 0.145325634232826 
2418	 0.145428888617721 
2419	 0.145509116212294 
2420	 0.145416561082068 
2421	 0.145333493888788 
2422	 0.145386142588232 
2423	 0.145399536114454 
2424	 0.145394151196101 
2425	 0.145428336955724 
2426	 0.145446082143069 
2427	 0.145452942845901 
2428	 0.145423561467486 
2429	 0.145447728656751 
2430	 0.145471457247052 
2431	 0.145493275399791 
2432	 0.145607995531917 
2433	 0.145574137766733 
2434	 0.145405489694733 
2435	 0.145280883787907 
2436	 0.145138675905845 
2437	 0.145035622817836 
2438	 0.144912808142866 
2439	 0.144693391287977 
2440	 0.144530500298454 
2441	 0.144337619725421 
2442	 0.144056841783569 
2443	 0.143696622195833 
2444	 0.143193171885393 
2445	 0.142769627077688 
2446	 0.142486653502007 
2447	 0.142214382105442 
2448	 0.14197553740035 
2449	 0.141714852119814 
2450	 0.141326218431124 
2451	 0.140859324741024 
2452	 0.140458926005501 
2453	 0.140014106477912 
2454	 0.139518595779055 
2455	 0.139017714590336 
2456	 0.138490441607189 
2457	 0.138135177938455 
2458	 0.137857313483685 
2459	 0.137661406324179 
2460	 0.137525041814999 
2461	 0.137228047054603 
2462	 0.136886190041556 
2463	 0.136607959130575 
2464	 0.136322667121914 
2465	 0.135913802719458 
2466	 0.135527788081184 
2467	 0.135256428171618 
2468	 0.134917069504343 
2469	 0.134635472464463 
2470	 0.134483027270624 
2471	 0.134303702517539 
2472	 0.134173287021901 
2473	 0.134085603898726 
2474	 0.133991995496503 
2475	 0.133835645794511 
2476	 0.133693218645841 
2477	 0.133715027855858 
2478	 0.133637384345156 
2479	 0.133536378347703 
2480	 0.133703124123199 
2481	 0.133736903960407 
2482	 0.133799064567849 
2483	 0.133818860314513 
2484	 0.133763729932484 
2485	 0.133927337583746 
2486	 0.134058576717594 
2487	 0.134112747847719 
2488	 0.134188556606907 
2489	 0.134030380228923 
2490	 0.134077269720693 
2491	 0.134521561638698 
2492	 0.134981864836074 
2493	 0.135437131860596 
2494	 0.13567472768273 
2495	 0.13576629773928 
2496	 0.136035267861363 
2497	 0.136360071131335 
2498	 0.136747729777832 
2499	 0.137092939005669 
2500	 0.137362516324357 
