Wavelength	spectrum00006.asd
350	 0.030318036819211 
351	 3.12775418321406E-02 
352	 3.13042446574122E-02 
353	 2.99142540734611E-02 
354	 3.00121645192894E-02 
355	 0.031090658958833 
356	 3.10148880749876E-02 
357	 2.88506590887473E-02 
358	 2.80226605927279E-02 
359	 2.79086928255962E-02 
360	 2.83147122835333E-02 
361	 2.91461724432836E-02 
362	 2.96763788502762E-02 
363	 2.88598288284114E-02 
364	 2.71607415206164E-02 
365	 2.69236986468417E-02 
366	 2.76477039481194E-02 
367	 2.79442692295087E-02 
368	 0.027201595117008 
369	 2.81727708571631E-02 
370	 2.80541478543627E-02 
371	 2.74976953597361E-02 
372	 2.86062471737657E-02 
373	 2.72659841770331E-02 
374	 0.026592526583489 
375	 2.78007902706418E-02 
376	 2.83519489073429E-02 
377	 2.89270542099241E-02 
378	 2.91203037046869E-02 
379	 2.86477428892746E-02 
380	 2.83290829820478E-02 
381	 2.84701563591611E-02 
382	 2.82996007813037E-02 
383	 2.68184905891998E-02 
384	 2.73186847870596E-02 
385	 2.81403012972254E-02 
386	 2.81168420905822E-02 
387	 2.77329001322883E-02 
388	 2.67795895012673E-02 
389	 2.65442924688465E-02 
390	 2.77404686344126E-02 
391	 2.77099371226357E-02 
392	 2.74325827315731E-02 
393	 2.75944928557972E-02 
394	 2.84367410242549E-02 
395	 2.83259834077502E-02 
396	 0.028026325109258 
397	 2.81264656647343E-02 
398	 2.84417664255214E-02 
399	 2.81239936006686E-02 
400	 0.027870391858139 
401	 2.83242609871312E-02 
402	 2.78274116182387E-02 
403	 2.78373535899908E-02 
404	 2.83171328398851E-02 
405	 2.81340892475846E-02 
406	 2.82066463541903E-02 
407	 2.81102392936742E-02 
408	 2.77453310564349E-02 
409	 0.028038622647649 
410	 2.81406795227698E-02 
411	 2.80219019736506E-02 
412	 2.79619101527509E-02 
413	 2.84345932909905E-02 
414	 2.81442451275876E-02 
415	 2.74109047269651E-02 
416	 2.79463171509819E-02 
417	 2.81100919643306E-02 
418	 2.80733886139624E-02 
419	 2.81165622599519E-02 
420	 2.79731491408373E-02 
421	 2.79169985401637E-02 
422	 0.027955928060878 
423	 2.79848306369853E-02 
424	 2.79754870640839E-02 
425	 2.78904884403673E-02 
426	 2.78037367232655E-02 
427	 2.79077107297854E-02 
428	 2.79197399679517E-02 
429	 2.79554243349408E-02 
430	 2.80907842682247E-02 
431	 2.79799571912395E-02 
432	 2.80382629939025E-02 
433	 2.81571408641059E-02 
434	 2.79981289479615E-02 
435	 2.80640412012545E-02 
436	 2.81382618151748E-02 
437	 2.80765521556085E-02 
438	 2.79605758632645E-02 
439	 2.80620389581193E-02 
440	 2.81615169116501E-02 
441	 2.80340523754759E-02 
442	 2.80888182433509E-02 
443	 2.81830264149044E-02 
444	 2.82231464519088E-02 
445	 2.81826555092432E-02 
446	 2.82206458137769E-02 
447	 2.82373156298571E-02 
448	 2.81884888422616E-02 
449	 2.82403642752231E-02 
450	 2.84106380079007E-02 
451	 2.84964422458454E-02 
452	 2.83189609546738E-02 
453	 2.84211518186993E-02 
454	 2.85039154127672E-02 
455	 2.84463296518054E-02 
456	 2.83930856017754E-02 
457	 2.84719579360142E-02 
458	 2.85009779273636E-02 
459	 2.83999148898896E-02 
460	 2.86517645400969E-02 
461	 2.86167903886703E-02 
462	 2.84402330292467E-02 
463	 2.86281393056756E-02 
464	 2.86303295814543E-02 
465	 2.86421454930808E-02 
466	 2.87347096070922E-02 
467	 2.86564638113505E-02 
468	 0.028647527050368 
469	 2.86416813961211E-02 
470	 2.85730681349093E-02 
471	 2.87820175850809E-02 
472	 2.88818279385335E-02 
473	 2.88199611781756E-02 
474	 2.88257651830456E-02 
475	 2.88765124627117E-02 
476	 2.88966641891739E-02 
477	 2.88623295193347E-02 
478	 2.88886600038488E-02 
479	 2.89154544866539E-02 
480	 2.89275596639749E-02 
481	 0.0289306689361 
482	 2.89560508410157E-02 
483	 2.89642364263652E-02 
484	 2.89629190101551E-02 
485	 2.90174810955344E-02 
486	 2.90820850129294E-02 
487	 2.91252973164818E-02 
488	 2.91415948875284E-02 
489	 2.91936685376836E-02 
490	 2.92325536066879E-02 
491	 2.92817698326822E-02 
492	 0.029387374434312 
493	 2.93701920067472E-02 
494	 2.93816929948413E-02 
495	 2.94708405466237E-02 
496	 2.94460345616283E-02 
497	 2.94917184968048E-02 
498	 2.95462572332337E-02 
499	 2.95236689725241E-02 
500	 2.95962740475711E-02 
501	 2.96336749220448E-02 
502	 0.029617597596397 
503	 2.96377001750136E-02 
504	 2.97046539599353E-02 
505	 2.97352017706959E-02 
506	 2.97104085745881E-02 
507	 2.98202750096794E-02 
508	 2.98552468556678E-02 
509	 2.98473488251766E-02 
510	 2.99126516201941E-02 
511	 2.99274871986601E-02 
512	 0.029969150759808 
513	 3.00647159234242E-02 
514	 3.01580049829313E-02 
515	 0.030135782448087 
516	 3.01111752828492E-02 
517	 3.01881804254487E-02 
518	 3.02143038282754E-02 
519	 0.030240252407637 
520	 3.02953115094872E-02 
521	 3.03831876034871E-02 
522	 3.04128036525033E-02 
523	 3.04310693160534E-02 
524	 3.04814843525488E-02 
525	 3.05661053261688E-02 
526	 3.06140103804505E-02 
527	 3.06588877142143E-02 
528	 3.07506733816652E-02 
529	 3.07960839280352E-02 
530	 3.08313171268438E-02 
531	 3.08914111098293E-02 
532	 3.09988527917573E-02 
533	 0.031086252593366 
534	 3.11351033947694E-02 
535	 3.11607830445914E-02 
536	 3.12375602390336E-02 
537	 3.13208469563704E-02 
538	 3.14013297180521E-02 
539	 3.14869866534077E-02 
540	 3.15477222821083E-02 
541	 3.16361453684513E-02 
542	 3.17532822513081E-02 
543	 3.18011057169448E-02 
544	 3.18654510327759E-02 
545	 3.19356291894775E-02 
546	 3.19926463617445E-02 
547	 3.21226351705549E-02 
548	 3.22279080644149E-02 
549	 3.23058617387212E-02 
550	 3.24388452760421E-02 
551	 3.25145137826336E-02 
552	 3.26168155423374E-02 
553	 3.27863489582324E-02 
554	 3.28563187703773E-02 
555	 3.29586303692812E-02 
556	 3.30886305645972E-02 
557	 3.31910535064707E-02 
558	 3.33458243229838E-02 
559	 3.35238958919036E-02 
560	 3.36831891239133E-02 
561	 3.37786081779018E-02 
562	 3.38738233446376E-02 
563	 3.39960420980489E-02 
564	 3.41446057067441E-02 
565	 0.034264188915949 
566	 3.43477989958659E-02 
567	 3.44243190102719E-02 
568	 3.45434936950981E-02 
569	 3.46613575800711E-02 
570	 3.47409572617379E-02 
571	 3.47896803620652E-02 
572	 3.49064338997541E-02 
573	 3.50284989305766E-02 
574	 3.51379413516598E-02 
575	 3.52397124797372E-02 
576	 3.53779744064052E-02 
577	 3.54963363111306E-02 
578	 3.55813182463901E-02 
579	 3.56757665103957E-02 
580	 3.58068781841173E-02 
581	 3.59314634299637E-02 
582	 3.60178752359718E-02 
583	 3.61223706595418E-02 
584	 3.62524267144064E-02 
585	 3.63946833729949E-02 
586	 0.036522874161763 
587	 3.66283802557534E-02 
588	 3.67317266164389E-02 
589	 3.68442565580551E-02 
590	 0.036957779845828 
591	 3.70411634680263E-02 
592	 3.71183415681893E-02 
593	 3.72144016271847E-02 
594	 3.72752115206335E-02 
595	 3.73391034099909E-02 
596	 3.74250536173857E-02 
597	 3.75292465037251E-02 
598	 3.76109890425409E-02 
599	 3.76972602722953E-02 
600	 3.78042798665547E-02 
601	 3.78886455877604E-02 
602	 3.79857983052173E-02 
603	 3.80978079852996E-02 
604	 3.82088092827807E-02 
605	 3.82903984908936E-02 
606	 3.83721910610596E-02 
607	 3.84756686484532E-02 
608	 3.86054089877038E-02 
609	 3.86707576755997E-02 
610	 3.87270082790096E-02 
611	 3.88325152744091E-02 
612	 3.89279541896681E-02 
613	 3.89877597513387E-02 
614	 3.90375114007299E-02 
615	 3.91283971175148E-02 
616	 3.91941991703416E-02 
617	 3.92753539665352E-02 
618	 3.93807985134812E-02 
619	 0.039438130374453 
620	 3.95048292145476E-02 
621	 3.95799465883541E-02 
622	 3.96464060851941E-02 
623	 3.97032576576472E-02 
624	 3.97830449367562E-02 
625	 3.98772502671833E-02 
626	 3.99404932470658E-02 
627	 4.00020045014429E-02 
628	 4.00652241627952E-02 
629	 4.01314513138325E-02 
630	 4.02090085053065E-02 
631	 4.02848095935966E-02 
632	 4.03627400433713E-02 
633	 4.04489551674035E-02 
634	 4.05093254734831E-02 
635	 4.05738319978406E-02 
636	 4.06523175282416E-02 
637	 0.040722578392526 
638	 0.040780119508797 
639	 4.08425093562376E-02 
640	 4.09224127801089E-02 
641	 4.09974118385724E-02 
642	 4.10728608610153E-02 
643	 4.11394653865013E-02 
644	 4.11864452642421E-02 
645	 4.12754075136536E-02 
646	 4.13556585971269E-02 
647	 4.14070867655299E-02 
648	 4.14821209297943E-02 
649	 0.041564240424291 
650	 4.16427981197026E-02 
651	 4.17115107180708E-02 
652	 4.17788987243628E-02 
653	 0.041847591562832 
654	 4.19171713907863E-02 
655	 4.19853923013008E-02 
656	 4.20613046603543E-02 
657	 4.21448382501789E-02 
658	 4.22280985701286E-02 
659	 4.22858271924176E-02 
660	 4.23822178531161E-02 
661	 4.24853515425065E-02 
662	 0.042545319056405 
663	 4.26336725574947E-02 
664	 4.26949418071156E-02 
665	 4.27402130895583E-02 
666	 4.28484382921745E-02 
667	 4.29098374918291E-02 
668	 4.29694939659008E-02 
669	 4.30631509068462E-02 
670	 4.31203389020842E-02 
671	 4.31771853620875E-02 
672	 4.32576484285522E-02 
673	 4.33704554586923E-02 
674	 4.34648312914676E-02 
675	 4.35258400743726E-02 
676	 4.35774433789449E-02 
677	 4.36834068580208E-02 
678	 4.37517098488108E-02 
679	 4.38242070030224E-02 
680	 4.39394995441835E-02 
681	 0.044029251377103 
682	 4.41162328952859E-02 
683	 4.41979582101394E-02 
684	 4.42628698792822E-02 
685	 4.43370409125602E-02 
686	 4.44201949058589E-02 
687	 4.45122044812178E-02 
688	 4.46181682985131E-02 
689	 4.47078496084658E-02 
690	 4.47758772245672E-02 
691	 4.48372165113165E-02 
692	 4.49487074184263E-02 
693	 4.50527639664164E-02 
694	 4.51376708544941E-02 
695	 4.52221156617981E-02 
696	 4.53039193634491E-02 
697	 4.54021799114599E-02 
698	 4.55122248208839E-02 
699	 0.045589414784384 
700	 4.56649392293123E-02 
701	 4.57518056644867E-02 
702	 4.58527219251822E-02 
703	 4.59509082463991E-02 
704	 4.60635431681309E-02 
705	 4.61753291225882E-02 
706	 4.62554130794443E-02 
707	 4.63601026818362E-02 
708	 4.64685923027377E-02 
709	 4.65644593249408E-02 
710	 4.66558376313228E-02 
711	 4.67467490395541E-02 
712	 4.68471230690988E-02 
713	 4.69652760152215E-02 
714	 4.71040578133809E-02 
715	 4.72098524218509E-02 
716	 4.72862434934861E-02 
717	 4.73791131408017E-02 
718	 4.75014919038657E-02 
719	 4.76376041791405E-02 
720	 4.77600630629099E-02 
721	 0.047827814532787 
722	 4.79215385651928E-02 
723	 4.80436756163885E-02 
724	 4.81713837280767E-02 
725	 4.82928728168954E-02 
726	 0.04838930252525 
727	 4.84857209939729E-02 
728	 4.86280073675341E-02 
729	 4.87340087070469E-02 
730	 4.88418564541199E-02 
731	 4.89713048354355E-02 
732	 4.90846427093793E-02 
733	 4.92263519784648E-02 
734	 4.93627366864569E-02 
735	 4.94628139588785E-02 
736	 4.95909923953971E-02 
737	 4.97333192621904E-02 
738	 4.98668902939674E-02 
739	 4.99717756810489E-02 
740	 5.01077033645784E-02 
741	 5.02486150787791E-02 
742	 5.03785857790122E-02 
743	 5.05135517383398E-02 
744	 5.06386316183917E-02 
745	 5.07663649289404E-02 
746	 0.050907929146588 
747	 5.10446396599142E-02 
748	 0.051187149220149 
749	 5.13336448165241E-02 
750	 5.14755917419517E-02 
751	 5.16127317783272E-02 
752	 0.051752778362658 
753	 5.18951011387433E-02 
754	 5.20275249138605E-02 
755	 5.21573246141457E-02 
756	 5.22966359596192E-02 
757	 5.24468733920917E-02 
758	 5.25737803622189E-02 
759	 5.27166053550608E-02 
760	 0.052870205660555 
761	 5.30122714948819E-02 
762	 5.31586150563554E-02 
763	 5.33088373105593E-02 
764	 5.34604594611122E-02 
765	 5.36106372862947E-02 
766	 5.37642093914692E-02 
767	 5.39090932878365E-02 
768	 5.40462858233887E-02 
769	 5.42153031402972E-02 
770	 5.43792343275116E-02 
771	 5.45269867925443E-02 
772	 5.46640757824159E-02 
773	 5.48247162636467E-02 
774	 0.0549869155202 
775	 5.51387828487265E-02 
776	 5.52820751757549E-02 
777	 0.055445680390212 
778	 5.56188160092705E-02 
779	 5.57849779278179E-02 
780	 5.59283587606363E-02 
781	 5.60854825523663E-02 
782	 5.62457459522639E-02 
783	 0.056396578219208 
784	 5.65692330927707E-02 
785	 5.67458542114813E-02 
786	 5.69120618545228E-02 
787	 5.70595280852987E-02 
788	 5.72020466833502E-02 
789	 0.057366926870633 
790	 5.75480622637268E-02 
791	 5.77017481656408E-02 
792	 5.78725679851871E-02 
793	 5.80397622230067E-02 
794	 5.81898550041875E-02 
795	 5.83581404572815E-02 
796	 5.85434651927411E-02 
797	 5.87263987385606E-02 
798	 5.88835189732006E-02 
799	 5.90120077471078E-02 
800	 5.91547235901279E-02 
801	 5.93186459826144E-02 
802	 5.94816888849586E-02 
803	 5.96552010101585E-02 
804	 5.98178332940083E-02 
805	 0.059972106811353 
806	 6.01610220137181E-02 
807	 6.03316017696011E-02 
808	 6.04881846230703E-02 
809	 6.06465679519218E-02 
810	 6.08086637140247E-02 
811	 6.09841589565388E-02 
812	 6.11481117523517E-02 
813	 6.12782808518565E-02 
814	 6.14586352262715E-02 
815	 6.16380361799562E-02 
816	 6.17970681190706E-02 
817	 0.061952534841318 
818	 6.21105140223247E-02 
819	 6.22608874252591E-02 
820	 6.24105453251262E-02 
821	 6.25980120838673E-02 
822	 6.27681616287594E-02 
823	 6.29317728012318E-02 
824	 6.31076085938319E-02 
825	 6.32826305793844E-02 
826	 6.34392555868791E-02 
827	 6.35940508893074E-02 
828	 6.37745773273902E-02 
829	 6.39711440009069E-02 
830	 6.41500983865675E-02 
831	 6.43071145734271E-02 
832	 0.064465718533384 
833	 6.46405753610528E-02 
834	 6.48123486731061E-02 
835	 6.49748003770372E-02 
836	 6.51502313707001E-02 
837	 0.065332181872938 
838	 6.55073891605846E-02 
839	 6.56703044502509E-02 
840	 0.065844385099763 
841	 6.59994184868491E-02 
842	 6.61494646275926E-02 
843	 0.066318764320584 
844	 6.64837812720931E-02 
845	 6.66474228580857E-02 
846	 6.68194956533401E-02 
847	 6.70104457972271E-02 
848	 0.067203420874111 
849	 6.73646422871083E-02 
850	 6.75005811805373E-02 
851	 6.76661579653664E-02 
852	 6.78329328813671E-02 
853	 6.80143389471118E-02 
854	 6.82121428554009E-02 
855	 6.83890755706955E-02 
856	 6.85374341708835E-02 
857	 6.86966682312768E-02 
858	 6.88993929829385E-02 
859	 6.90996135741612E-02 
860	 6.92753785675244E-02 
861	 6.94376618251566E-02 
862	 6.96156768071923E-02 
863	 6.98314235121958E-02 
864	 7.00132818841198E-02 
865	 7.01664787225899E-02 
866	 7.03579632794929E-02 
867	 7.05023278984363E-02 
868	 7.06693502370917E-02 
869	 7.08765093424576E-02 
870	 7.10451430801382E-02 
871	 7.12528143871694E-02 
872	 7.14512464777461E-02 
873	 7.16158385888949E-02 
874	 0.071834617713381 
875	 7.20377371688986E-02 
876	 0.072228679935605 
877	 7.24286088425389E-02 
878	 7.26339129976798E-02 
879	 7.28385436298008E-02 
880	 7.30387676205664E-02 
881	 7.32328267737324E-02 
882	 0.073416265163593 
883	 7.36332099385525E-02 
884	 7.38732610595528E-02 
885	 7.40854762206639E-02 
886	 7.42624740467996E-02 
887	 7.44572769019209E-02 
888	 7.46794692037302E-02 
889	 0.074882869268688 
890	 7.51049986816443E-02 
891	 7.53198529719584E-02 
892	 7.55124991387419E-02 
893	 0.075704733482252 
894	 7.59366550760969E-02 
895	 7.61763803550987E-02 
896	 7.63922671498192E-02 
897	 7.66065634292138E-02 
898	 7.68097880990994E-02 
899	 7.69999149691731E-02 
900	 7.71914902561076E-02 
901	 7.74503279884126E-02 
902	 7.76912124424193E-02 
903	 7.79054322068645E-02 
904	 0.078122120989731 
905	 7.83308756835179E-02 
906	 7.85577640711447E-02 
907	 7.88123997518093E-02 
908	 7.90811414484537E-02 
909	 0.079288474403169 
910	 7.95249063518651E-02 
911	 7.98080340861326E-02 
912	 8.00689236971797E-02 
913	 8.03313348884334E-02 
914	 8.05833550519312E-02 
915	 8.08158585018185E-02 
916	 8.10325426032964E-02 
917	 8.13080190542423E-02 
918	 8.16034740546585E-02 
919	 8.18839497783589E-02 
920	 8.21701631167312E-02 
921	 8.24029194496516E-02 
922	 8.26134907210145E-02 
923	 8.28562907145145E-02 
924	 8.31809752617168E-02 
925	 8.34851576090598E-02 
926	 8.37447918148863E-02 
927	 8.39838629094476E-02 
928	 8.42825261178602E-02 
929	 8.45649375154723E-02 
930	 8.48307246916688E-02 
931	 8.51056094723628E-02 
932	 8.53701865547541E-02 
933	 8.56866856498026E-02 
934	 8.60235889178352E-02 
935	 8.63122088310972E-02 
936	 8.65788350011363E-02 
937	 8.69427553771614E-02 
938	 8.73193135185487E-02 
939	 8.75392143953872E-02 
940	 8.78917407234529E-02 
941	 8.82216916318442E-02 
942	 0.088518792671675 
943	 8.89020381648397E-02 
944	 8.91901029193877E-02 
945	 8.94664794065617E-02 
946	 8.97737892463055E-02 
947	 9.00805592427886E-02 
948	 9.04145354463408E-02 
949	 9.07605249034887E-02 
950	 9.10895024070369E-02 
951	 9.13725589833656E-02 
952	 9.16949002407868E-02 
953	 9.20550095699855E-02 
954	 9.24122293952216E-02 
955	 0.092704168131124 
956	 9.30787035775847E-02 
957	 0.093466532604211 
958	 9.37958998781782E-02 
959	 9.40761989187597E-02 
960	 0.094401306698697 
961	 9.47618667976916E-02 
962	 9.51437442327269E-02 
963	 9.55809791938913E-02 
964	 0.095825255688362 
965	 9.61240470802099E-02 
966	 9.66221852802442E-02 
967	 9.69398936984385E-02 
968	 9.72495909796282E-02 
969	 9.76476132697736E-02 
970	 9.81073144650682E-02 
971	 9.83472153316498E-02 
972	 9.87102800114368E-02 
973	 9.91447961020276E-02 
974	 9.95095964958936E-02 
975	 9.97725038156046E-02 
976	 0.100141442702615 
977	 0.10059358337567 
978	 0.101023085985404 
979	 0.101337694999575 
980	 0.10167109588107 
981	 0.102039059014885 
982	 0.102417287957759 
983	 0.102794583022387 
984	 0.103227813651353 
985	 0.103710905107856 
986	 0.104187719635794 
987	 0.104524872862708 
988	 0.104915982957016 
989	 0.105367270645617 
990	 0.105801627040843 
991	 0.106123729183127 
992	 0.106498846240857 
993	 0.106885962144413 
994	 0.107238453385364 
995	 0.107773230753912 
996	 0.108230055798407 
997	 0.108564404222091 
998	 0.1088673579126 
999	 0.109363820356291 
1000	 0.109864248736599 
1001	 0.113010010944736 
1002	 0.113415941378293 
1003	 0.113854162249109 
1004	 0.114281898121277 
1005	 0.114692888561796 
1006	 0.115132989017825 
1007	 0.115585133324531 
1008	 0.116035063163453 
1009	 0.11650774589069 
1010	 0.116958588552542 
1011	 0.117394697863542 
1012	 0.117844308208492 
1013	 0.118299605496644 
1014	 0.118749691010069 
1015	 0.119212589808292 
1016	 0.119639100995526 
1017	 0.120098916573254 
1018	 0.120525741905382 
1019	 0.120952460283156 
1020	 0.121422515203891 
1021	 0.121895066072598 
1022	 0.122393700012365 
1023	 0.12286096924541 
1024	 0.123325776110367 
1025	 0.123792486018722 
1026	 0.12423526088501 
1027	 0.124686810169428 
1028	 0.125139400977006 
1029	 0.125629907691117 
1030	 0.126096335532518 
1031	 0.126555574665344 
1032	 0.127016123597749 
1033	 0.127477781390185 
1034	 0.12794314513706 
1035	 0.128384072197713 
1036	 0.128838171020824 
1037	 0.129294018291156 
1038	 0.129755043294663 
1039	 0.130235371348247 
1040	 0.130704935196043 
1041	 0.131158860179662 
1042	 0.131628983016328 
1043	 0.132113179969847 
1044	 0.132563717240809 
1045	 0.13303742137772 
1046	 0.133537675981061 
1047	 0.133967572954541 
1048	 0.134428186172187 
1049	 0.134900758755021 
1050	 0.135346542838602 
1051	 0.135846482997006 
1052	 0.136313122524871 
1053	 0.136812252946132 
1054	 0.137355235349034 
1055	 0.137846041483277 
1056	 0.138337418532616 
1057	 0.138830925089403 
1058	 0.139283859053703 
1059	 0.139717817693097 
1060	 0.140264044889799 
1061	 0.140792178501409 
1062	 0.141342270906746 
1063	 0.141890269457047 
1064	 0.142373305020928 
1065	 0.142865380647208 
1066	 0.143320119308124 
1067	 0.143780055423288 
1068	 0.144319049549447 
1069	 0.144820014070758 
1070	 0.145322575411712 
1071	 0.145832760807136 
1072	 0.146368207524792 
1073	 0.14683991839101 
1074	 0.14734794925857 
1075	 0.147859475311789 
1076	 0.148348744270837 
1077	 0.148882602429026 
1078	 0.149373026832877 
1079	 0.149871394943641 
1080	 0.150406294117383 
1081	 0.150893944785635 
1082	 0.151408382837508 
1083	 0.151935443080349 
1084	 0.152444784752682 
1085	 0.152962898868551 
1086	 0.153462041229978 
1087	 0.153940562497661 
1088	 0.15444643235611 
1089	 0.154963336913943 
1090	 0.155454360481629 
1091	 0.155976437173238 
1092	 0.156475260108287 
1093	 0.156957314733246 
1094	 0.157479255695035 
1095	 0.157973319362823 
1096	 0.158451823615997 
1097	 0.158943347268143 
1098	 0.159404669175626 
1099	 0.159887807937863 
1100	 0.160395959580179 
1101	 0.160875899631253 
1102	 0.161363138048482 
1103	 0.161866839540798 
1104	 0.162383239217724 
1105	 0.162899691302254 
1106	 0.163416651990942 
1107	 0.163907040561365 
1108	 0.164377749359066 
1109	 0.164847972702715 
1110	 0.165327598156282 
1111	 0.16583456522043 
1112	 0.166328543308678 
1113	 0.166815187705026 
1114	 0.167319726833598 
1115	 0.167809726324305 
1116	 0.168304337436187 
1117	 0.168792464142286 
1118	 0.169274866785005 
1119	 0.169740404724689 
1120	 0.170218736941749 
1121	 0.170698813196763 
1122	 0.171187554484218 
1123	 0.171667264556451 
1124	 0.172129478058272 
1125	 0.172596828136325 
1126	 0.173043512923307 
1127	 0.173501756644415 
1128	 0.173980971524866 
1129	 0.174450799189779 
1130	 0.174953918192309 
1131	 0.175458627962998 
1132	 0.175930024479302 
1133	 0.176396910301107 
1134	 0.176824971140824 
1135	 0.177263604332291 
1136	 0.177689509855948 
1137	 0.178131341191325 
1138	 0.178583694866679 
1139	 0.179032212845665 
1140	 0.179486762686457 
1141	 0.179920046530794 
1142	 0.180364329988747 
1143	 0.180803819955183 
1144	 0.181262382304358 
1145	 0.181729266592956 
1146	 0.18216310502491 
1147	 0.182621847301768 
1148	 0.183089375066241 
1149	 0.183531365902999 
1150	 0.183985291955065 
1151	 0.184409193169034 
1152	 0.184833968474674 
1153	 0.185228583232607 
1154	 0.18565731404352 
1155	 0.18610898068767 
1156	 0.186549560045376 
1157	 0.187000034913682 
1158	 0.187425717754004 
1159	 0.187838081554403 
1160	 0.188241622406283 
1161	 0.188631964332604 
1162	 0.189058934563377 
1163	 0.189482456485289 
1164	 0.189912508012615 
1165	 0.190362602124623 
1166	 0.190782560197096 
1167	 0.191204272999837 
1168	 0.191617246512239 
1169	 0.192035711149974 
1170	 0.192456156465604 
1171	 0.1928750127071 
1172	 0.193297737666097 
1173	 0.193715120567165 
1174	 0.194118162955464 
1175	 0.194527425990424 
1176	 0.194943222415522 
1177	 0.195353775759178 
1178	 0.19575621978192 
1179	 0.196179436380142 
1180	 0.196588227738007 
1181	 0.197000448962206 
1182	 0.197424371067994 
1183	 0.197827652229752 
1184	 0.198236881758825 
1185	 0.198647973128773 
1186	 0.199072668947219 
1187	 0.199513738242591 
1188	 0.199942071696305 
1189	 0.200376837971782 
1190	 0.200803836340608 
1191	 0.201215456195044 
1192	 0.201634855865522 
1193	 0.202052639881266 
1194	 0.202481235962728 
1195	 0.202919236200607 
1196	 0.203355748132994 
1197	 0.20378479925802 
1198	 0.204247885797348 
1199	 0.20471963842637 
1200	 0.205151501815857 
1201	 0.20560461636053 
1202	 0.206053568489831 
1203	 0.206484200611201 
1204	 0.206960096048932 
1205	 0.207437267240028 
1206	 0.20793936909569 
1207	 0.208426983979717 
1208	 0.208909063577682 
1209	 0.209405178540068 
1210	 0.209906410051325 
1211	 0.210410017447382 
1212	 0.210932761842615 
1213	 0.21145185075543 
1214	 0.211946572204278 
1215	 0.212481327639163 
1216	 0.213048868234563 
1217	 0.213600948187926 
1218	 0.214166290949684 
1219	 0.214739557747177 
1220	 0.215287859136602 
1221	 0.215864137773211 
1222	 0.216432147273612 
1223	 0.216990605478695 
1224	 0.217548713841045 
1225	 0.218094163483648 
1226	 0.218641549039013 
1227	 0.219189109800713 
1228	 0.219741604064586 
1229	 0.220303973826557 
1230	 0.220844134410962 
1231	 0.221382745126554 
1232	 0.221909862456383 
1233	 0.222403435328486 
1234	 0.222913617595316 
1235	 0.223430095717524 
1236	 0.223945819776787 
1237	 0.224477404649006 
1238	 0.224987194965928 
1239	 0.225471831801292 
1240	 0.225975972635367 
1241	 0.22649436320322 
1242	 0.226971736381757 
1243	 0.227468346278067 
1244	 0.227980729187179 
1245	 0.228478429762668 
1246	 0.22896712087687 
1247	 0.229452790561557 
1248	 0.229935712701674 
1249	 0.230422791695131 
1250	 0.230907852633361 
1251	 0.231383210219859 
1252	 0.231856647010572 
1253	 0.232334861710818 
1254	 0.232811640655051 
1255	 0.233279165892694 
1256	 0.233752799660225 
1257	 0.234221017955535 
1258	 0.234673334061184 
1259	 0.235125796585094 
1260	 0.235577749528793 
1261	 0.236032967204616 
1262	 0.236475553632937 
1263	 0.236938993561752 
1264	 0.237391058631888 
1265	 0.237847941107053 
1266	 0.238305871847964 
1267	 0.238762992432623 
1268	 0.239209788291897 
1269	 0.239656715401203 
1270	 0.240101237646963 
1271	 0.240530765465949 
1272	 0.240971369573721 
1273	 0.241424217031372 
1274	 0.241865106147435 
1275	 0.242289583358991 
1276	 0.242730971180491 
1277	 0.243171636735945 
1278	 0.24362167505039 
1279	 0.244088828901145 
1280	 0.24455063405498 
1281	 0.245005445347409 
1282	 0.245472296778629 
1283	 0.245951197505837 
1284	 0.24642002277368 
1285	 0.246887657470204 
1286	 0.247364452600743 
1287	 0.247819361912714 
1288	 0.248256062911159 
1289	 0.248703486790956 
1290	 0.249138126530247 
1291	 0.24959519740356 
1292	 0.250067097536848 
1293	 0.250527324985403 
1294	 0.250994292862139 
1295	 0.25145424236104 
1296	 0.251907535200841 
1297	 0.252356047285054 
1298	 0.252790747950093 
1299	 0.253246699491479 
1300	 0.253710666545231 
1301	 0.254167065898884 
1302	 0.254642492796163 
1303	 0.255100448045436 
1304	 0.255539120931894 
1305	 0.255979027143381 
1306	 0.2564013648498 
1307	 0.256844963776469 
1308	 0.257290411280233 
1309	 0.257755780503489 
1310	 0.258198621234061 
1311	 0.258649003607523 
1312	 0.259093282239086 
1313	 0.259519722516902 
1314	 0.259954928589242 
1315	 0.260405048211746 
1316	 0.260836419450164 
1317	 0.261257444084249 
1318	 0.261672475132697 
1319	 0.262076867789245 
1320	 0.262487514327795 
1321	 0.262884901262241 
1322	 0.263298855214072 
1323	 0.263730902870745 
1324	 0.264148652876927 
1325	 0.264573337629236 
1326	 0.264982560119875 
1327	 0.265371512533944 
1328	 0.265770538408206 
1329	 0.266169680226032 
1330	 0.266563453949165 
1331	 0.26696260591516 
1332	 0.267353059454838 
1333	 0.267720992595294 
1334	 0.268113600610303 
1335	 0.268486930408072 
1336	 0.26885460257894 
1337	 0.269222490028826 
1338	 0.269587387550095 
1339	 0.269944322669345 
1340	 0.270296227853266 
1341	 0.270650912074025 
1342	 0.271003347449169 
1343	 0.271349751429735 
1344	 0.271700429970305 
1345	 0.272039223942562 
1346	 0.272367823299005 
1347	 0.27268981508834 
1348	 0.273001750819972 
1349	 0.273319449251646 
1350	 0.273634032704885 
1351	 0.27394722073576 
1352	 0.274265913176991 
1353	 0.274578285350383 
1354	 0.274877562120497 
1355	 0.275186463369062 
1356	 0.275502517078435 
1357	 0.275814133153004 
1358	 0.276131712218677 
1359	 0.276442795450945 
1360	 0.276740722123029 
1361	 0.277046743784416 
1362	 0.27737618700117 
1363	 0.277685009170579 
1364	 0.277977977632732 
1365	 0.278270114146029 
1366	 0.278547653246238 
1367	 0.278793578142993 
1368	 0.27905838619233 
1369	 0.279327493272619 
1370	 0.279597644770822 
1371	 0.2798786857543 
1372	 0.280129454638364 
1373	 0.280374216825361 
1374	 0.28060848949697 
1375	 0.280811761016409 
1376	 0.281033314597476 
1377	 0.281269160124837 
1378	 0.281488382134785 
1379	 0.281706674994315 
1380	 0.281912470985901 
1381	 0.2821075356896 
1382	 0.28229510307028 
1383	 0.282466575002038 
1384	 0.282643436454271 
1385	 0.28281499374935 
1386	 0.282985849760278 
1387	 0.283153145246656 
1388	 0.283325791329278 
1389	 0.283502498656579 
1390	 0.283673160974943 
1391	 0.283843353964935 
1392	 0.284024749580209 
1393	 0.284174404272433 
1394	 0.284325738165544 
1395	 0.284459863419171 
1396	 0.28458661867591 
1397	 0.284685068973941 
1398	 0.284767539389802 
1399	 0.284832464744325 
1400	 0.284877102495963 
1401	 0.284901714497117 
1402	 0.284917350418973 
1403	 0.28489796511339 
1404	 0.284837738850436 
1405	 0.284786636835816 
1406	 0.284715457147737 
1407	 0.284646180628221 
1408	 0.284563117855627 
1409	 0.284501210674771 
1410	 0.284426397931763 
1411	 0.284388205135928 
1412	 0.284374052715924 
1413	 0.284378641567564 
1414	 0.284393590106229 
1415	 0.284445863329633 
1416	 0.284532626961455 
1417	 0.284631693414767 
1418	 0.284764198953121 
1419	 0.284903711691539 
1420	 0.285053414063973 
1421	 0.285217474203733 
1422	 0.285407718527617 
1423	 0.285593547634749 
1424	 0.285774844000083 
1425	 0.285981080002496 
1426	 0.286186952211688 
1427	 0.286406763238863 
1428	 0.286650366204995 
1429	 0.28689359146412 
1430	 0.287161275014725 
1431	 0.287442398338219 
1432	 0.287736846397696 
1433	 0.288059047478668 
1434	 0.288370425837661 
1435	 0.288683425201971 
1436	 0.289007839526959 
1437	 0.289338253094481 
1438	 0.289666852989605 
1439	 0.289999197979046 
1440	 0.290345786361541 
1441	 0.290697594499859 
1442	 0.291055095631611 
1443	 0.291424571181023 
1444	 0.291802048692007 
1445	 0.292186774707939 
1446	 0.292566962979712 
1447	 0.292960050283631 
1448	 0.293346099504826 
1449	 0.293718476458015 
1450	 0.294105797732126 
1451	 0.294505581326985 
1452	 0.294900653905728 
1453	 0.295297252360153 
1454	 0.295693472270168 
1455	 0.296092321441509 
1456	 0.296485772674901 
1457	 0.296874830786684 
1458	 0.297271282763539 
1459	 0.297668172386381 
1460	 0.298064281548769 
1461	 0.298462542754089 
1462	 0.298863776733652 
1463	 0.299261747020183 
1464	 0.299664735959679 
1465	 0.300068216061624 
1466	 0.300491492675205 
1467	 0.300900801810421 
1468	 0.301311348440608 
1469	 0.301728169636063 
1470	 0.302131151311653 
1471	 0.30252619758225 
1472	 0.302917669755243 
1473	 0.303297207333531 
1474	 0.303654701139892 
1475	 0.304035996555187 
1476	 0.304423051844875 
1477	 0.304807155913137 
1478	 0.305201029855782 
1479	 0.305582263725342 
1480	 0.305952830900102 
1481	 0.306329227905781 
1482	 0.306715316196074 
1483	 0.307080156206768 
1484	 0.30743387384881 
1485	 0.307789566200875 
1486	 0.308128363345016 
1487	 0.308477449648456 
1488	 0.308830532546198 
1489	 0.309187654382196 
1490	 0.30954790831001 
1491	 0.309909327445405 
1492	 0.310274791628535 
1493	 0.310644565849949 
1494	 0.311018749858905 
1495	 0.311385535333537 
1496	 0.311754596091927 
1497	 0.312122494686917 
1498	 0.3124799367013 
1499	 0.312847059660094 
1500	 0.313212720502618 
1501	 0.313595579910224 
1502	 0.313989591704103 
1503	 0.314385081572764 
1504	 0.314797342657301 
1505	 0.315205209071877 
1506	 0.315621213601602 
1507	 0.316022557981168 
1508	 0.31640384871275 
1509	 0.316807462416002 
1510	 0.317208448663307 
1511	 0.317617795334854 
1512	 0.318059933426676 
1513	 0.318483416456475 
1514	 0.318899677564656 
1515	 0.319311583716998 
1516	 0.319717377874795 
1517	 0.32011850461618 
1518	 0.320499033852812 
1519	 0.320897360883953 
1520	 0.321305854549889 
1521	 0.321708134876775 
1522	 0.322115174497696 
1523	 0.32255619543642 
1524	 0.322977701682385 
1525	 0.323392045803918 
1526	 0.3238254672296 
1527	 0.324272244998092 
1528	 0.32469742738413 
1529	 0.325120435383045 
1530	 0.325553609907022 
1531	 0.325979837278717 
1532	 0.326404977029648 
1533	 0.326840059270139 
1534	 0.327277856678162 
1535	 0.327704559194611 
1536	 0.328139684114798 
1537	 0.328597210795713 
1538	 0.329032115705263 
1539	 0.329457156503521 
1540	 0.329871830420822 
1541	 0.33027416648534 
1542	 0.330686853908144 
1543	 0.331098903028105 
1544	 0.331493138588429 
1545	 0.331884662025838 
1546	 0.332277950106544 
1547	 0.332659305020619 
1548	 0.333031826750129 
1549	 0.333414758794419 
1550	 0.333776560072772 
1551	 0.334102572437515 
1552	 0.334453386555097 
1553	 0.334808776928076 
1554	 0.335169266539643 
1555	 0.33554215531171 
1556	 0.335901961613347 
1557	 0.336252237406823 
1558	 0.336620598174294 
1559	 0.336995895898967 
1560	 0.337362287389361 
1561	 0.337745016812663 
1562	 0.338108456448013 
1563	 0.338439144748884 
1564	 0.338801022638882 
1565	 0.339173249447745 
1566	 0.339548460370229 
1567	 0.339937155869189 
1568	 0.34032702849354 
1569	 0.340718435800126 
1570	 0.34111395733528 
1571	 0.341524634204627 
1572	 0.341920623959727 
1573	 0.342307463653249 
1574	 0.342700475056057 
1575	 0.34309368534755 
1576	 0.343481537576598 
1577	 0.343870655098986 
1578	 0.344257601354311 
1579	 0.344631601606282 
1580	 0.345016647360805 
1581	 0.345403929763358 
1582	 0.345801648794248 
1583	 0.346224658445901 
1584	 0.34661808916118 
1585	 0.34700138600421 
1586	 0.347387232425765 
1587	 0.347756506926571 
1588	 0.348124535969092 
1589	 0.348492533660074 
1590	 0.348866987345015 
1591	 0.349234651383135 
1592	 0.34960707831789 
1593	 0.349993655774998 
1594	 0.350375824928875 
1595	 0.350757203499591 
1596	 0.351129808355978 
1597	 0.351490155897114 
1598	 0.351867669594376 
1599	 0.352253775210679 
1600	 0.352628236343557 
1601	 0.353003387057204 
1602	 0.353389719888387 
1603	 0.353781121796385 
1604	 0.354152977393077 
1605	 0.3545296127813 
1606	 0.354899603860078 
1607	 0.355245806536081 
1608	 0.355594029037488 
1609	 0.355946859783242 
1610	 0.356298520765589 
1611	 0.356640704487355 
1612	 0.356981647237903 
1613	 0.357334204050022 
1614	 0.357671096106723 
1615	 0.357984245788637 
1616	 0.358313004191087 
1617	 0.358637413849225 
1618	 0.358974036616739 
1619	 0.359343961216918 
1620	 0.359678862642337 
1621	 0.360000235272773 
1622	 0.360317760933665 
1623	 0.360605561277489 
1624	 0.360907653813868 
1625	 0.361216764270345 
1626	 0.361526855349378 
1627	 0.361835904176735 
1628	 0.362149088008735 
1629	 0.362479037695395 
1630	 0.362790120171475 
1631	 0.363096460746863 
1632	 0.363393943089896 
1633	 0.363664557886882 
1634	 0.363950823509689 
1635	 0.364244431721227 
1636	 0.364534574707019 
1637	 0.364828115262096 
1638	 0.365123418072659 
1639	 0.365418805745809 
1640	 0.365708614031909 
1641	 0.366012100395364 
1642	 0.366292330701359 
1643	 0.366545567900179 
1644	 0.366808333015866 
1645	 0.36707315497702 
1646	 0.367318213831699 
1647	 0.36756191164299 
1648	 0.367796515645538 
1649	 0.368008510935749 
1650	 0.368221074949404 
1651	 0.368431907366487 
1652	 0.368633655372325 
1653	 0.368834199578822 
1654	 0.369012219932947 
1655	 0.369173399301179 
1656	 0.369334343577013 
1657	 0.369485619654924 
1658	 0.369622224311953 
1659	 0.36977570365812 
1660	 0.36987233214603 
1661	 0.369926668343043 
1662	 0.369962459581797 
1663	 0.369953520297712 
1664	 0.369941505609827 
1665	 0.369932824610779 
1666	 0.369876279808097 
1667	 0.369796806068956 
1668	 0.369678198451711 
1669	 0.369519130391171 
1670	 0.369320157384671 
1671	 0.369084256528061 
1672	 0.368810007404384 
1673	 0.368489802204209 
1674	 0.368142128625838 
1675	 0.367764137442501 
1676	 0.367352091406643 
1677	 0.366892930417332 
1678	 0.366423382620881 
1679	 0.365918122974838 
1680	 0.365410206026317 
1681	 0.364894273574165 
1682	 0.364350505339243 
1683	 0.36379200379375 
1684	 0.36321155294897 
1685	 0.36259972711688 
1686	 0.361983513578201 
1687	 0.36133675794022 
1688	 0.360708576794767 
1689	 0.360083003875981 
1690	 0.359443975535084 
1691	 0.358828518655983 
1692	 0.358165512048623 
1693	 0.357475305182018 
1694	 0.356769200426247 
1695	 0.3560256518562 
1696	 0.355275193536965 
1697	 0.354519062323441 
1698	 0.353716837597065 
1699	 0.352883511209809 
1700	 0.35206489804888 
1701	 0.351198686104412 
1702	 0.350399260743386 
1703	 0.349606855115902 
1704	 0.348876622940752 
1705	 0.348183658953591 
1706	 0.347525795529955 
1707	 0.346967888836783 
1708	 0.346443630995829 
1709	 0.345944235359157 
1710	 0.345503381705338 
1711	 0.345076503395015 
1712	 0.344674114430901 
1713	 0.344282963910486 
1714	 0.343882047744575 
1715	 0.343517104282739 
1716	 0.343141425602658 
1717	 0.342781885989149 
1718	 0.342464714329092 
1719	 0.342147203996634 
1720	 0.341885944068997 
1721	 0.341709598152742 
1722	 0.341590865935867 
1723	 0.341549737887268 
1724	 0.341589852448746 
1725	 0.341709356259958 
1726	 0.341952461828465 
1727	 0.342310109469813 
1728	 0.342771552001719 
1729	 0.343368390301921 
1730	 0.344081043570818 
1731	 0.344830483323254 
1732	 0.345663863462861 
1733	 0.346510670631212 
1734	 0.347341387958679 
1735	 0.348220586460456 
1736	 0.349019210719083 
1737	 0.349747784023695 
1738	 0.350378388319924 
1739	 0.350926571476135 
1740	 0.351402517336502 
1741	 0.351820113000771 
1742	 0.352144164524301 
1743	 0.352452322396267 
1744	 0.352697508721313 
1745	 0.352933831327133 
1746	 0.353126224105055 
1747	 0.353316785718762 
1748	 0.353475062994817 
1749	 0.353662768890048 
1750	 0.35384093833037 
1751	 0.354068641049127 
1752	 0.354317368544281 
1753	 0.35461850711265 
1754	 0.354943953490456 
1755	 0.35532989741737 
1756	 0.355748180876892 
1757	 0.356280493163815 
1758	 0.356911294047598 
1759	 0.357554757010786 
1760	 0.358275528324681 
1761	 0.359074350699718 
1762	 0.359876235283533 
1763	 0.360782018594621 
1764	 0.361730277551969 
1765	 0.36267939383952 
1766	 0.363710239032671 
1767	 0.36472917447519 
1768	 0.365764162678069 
1769	 0.366819461021611 
1770	 0.367765704250949 
1771	 0.368670657891124 
1772	 0.369549372590624 
1773	 0.370353499798172 
1774	 0.371151649837306 
1775	 0.371941854322241 
1776	 0.372687813988396 
1777	 0.373362093147634 
1778	 0.373976622192243 
1779	 0.374550698584572 
1780	 0.375065142088608 
1781	 0.37555869662418 
1782	 0.376050756532005 
1783	 0.376509274595457 
1784	 0.376950386098218 
1785	 0.377341077447095 
1786	 0.377718141557788 
1787	 0.378051191148757 
1788	 0.378403223543336 
1789	 0.378765396983878 
1790	 0.379113752927398 
1791	 0.379465376915797 
1792	 0.379804916925501 
1793	 0.380125450739457 
1794	 0.380425531506356 
1795	 0.380705761155155 
1796	 0.380962930725309 
1797	 0.381264118300762 
1798	 0.381594822026521 
1799	 0.381933996417528 
1800	 0.382290795821317 
1801	 0.378044711405636 
1802	 0.378366164600373 
1803	 0.378691727913425 
1804	 0.379018866795926 
1805	 0.379337887465263 
1806	 0.379667314936174 
1807	 0.380006880119799 
1808	 0.380342994829682 
1809	 0.380684442242273 
1810	 0.38101747374391 
1811	 0.381358671879137 
1812	 0.381685993129815 
1813	 0.381995822615977 
1814	 0.382323488880749 
1815	 0.382628970871669 
1816	 0.382933381125019 
1817	 0.383272167841935 
1818	 0.383624789447532 
1819	 0.383983008620184 
1820	 0.384381288155229 
1821	 0.384753135224008 
1822	 0.385098753954981 
1823	 0.385485535728311 
1824	 0.385862182527687 
1825	 0.386247262696971 
1826	 0.386621143801699 
1827	 0.386997495762417 
1828	 0.3873597902987 
1829	 0.387703529365771 
1830	 0.388052807288631 
1831	 0.388390342926727 
1832	 0.388766345567078 
1833	 0.389101760064245 
1834	 0.389450034017419 
1835	 0.389817404613713 
1836	 0.390149599634633 
1837	 0.390495660978112 
1838	 0.390850751148173 
1839	 0.391203423852604 
1840	 0.391557738021789 
1841	 0.391901854805802 
1842	 0.392239870202118 
1843	 0.3925885343762 
1844	 0.392931634660254 
1845	 0.393236618306178 
1846	 0.393536763416568 
1847	 0.393830190322314 
1848	 0.39411228730309 
1849	 0.394379645630797 
1850	 0.394637917598682 
1851	 0.394889955503133 
1852	 0.395133893686359 
1853	 0.395365483669419 
1854	 0.395568546316907 
1855	 0.395759279580266 
1856	 0.395924443937634 
1857	 0.396081933789495 
1858	 0.396237011764148 
1859	 0.396359171975766 
1860	 0.396481699113726 
1861	 0.396564959764245 
1862	 0.396619745771367 
1863	 0.396629301397639 
1864	 0.396620119240613 
1865	 0.396572090629359 
1866	 0.396489733106938 
1867	 0.396381942009855 
1868	 0.396252523226351 
1869	 0.396086110160542 
1870	 0.395870054892469 
1871	 0.395610421369947 
1872	 0.395317075880886 
1873	 0.394983359697855 
1874	 0.394614855465872 
1875	 0.394218334313144 
1876	 0.393737507860557 
1877	 0.393211739922504 
1878	 0.392624547703294 
1879	 0.391959464470654 
1880	 0.391249027326098 
1881	 0.390430839072281 
1882	 0.389529638869789 
1883	 0.388539380857862 
1884	 0.387432192791004 
1885	 0.386170595873319 
1886	 0.384854501931683 
1887	 0.383381060941848 
1888	 0.381741575781787 
1889	 0.380143633573553 
1890	 0.378388391409724 
1891	 0.376579993098719 
1892	 0.374773686435214 
1893	 0.372867015153228 
1894	 0.370828867510655 
1895	 0.368839153570808 
1896	 0.366790891552848 
1897	 0.364705876924339 
1898	 0.362778207784128 
1899	 0.360805456792363 
1900	 0.358896620899266 
1901	 0.35706886525905 
1902	 0.355124454127125 
1903	 0.353295614799777 
1904	 0.351548861855585 
1905	 0.349840660333482 
1906	 0.348195854363452 
1907	 0.346785500831335 
1908	 0.345409772694173 
1909	 0.344097044506156 
1910	 0.342924174940468 
1911	 0.341737893435112 
1912	 0.340646541749287 
1913	 0.339644707082694 
1914	 0.338675221865003 
1915	 0.337787010670007 
1916	 0.336996463264745 
1917	 0.336228956138696 
1918	 0.335517051260561 
1919	 0.334874402202709 
1920	 0.334247978049921 
1921	 0.333695890438864 
1922	 0.333182725112176 
1923	 0.332701385582349 
1924	 0.332314540064533 
1925	 0.331970127107503 
1926	 0.331647882043712 
1927	 0.331365623607669 
1928	 0.331117792090594 
1929	 0.330899793470523 
1930	 0.330711411762095 
1931	 0.330563519059076 
1932	 0.330459191475292 
1933	 0.330391927016975 
1934	 0.330374929571739 
1935	 0.33038139933838 
1936	 0.330409226140433 
1937	 0.330505632615806 
1938	 0.330649076242422 
1939	 0.330821816541541 
1940	 0.331040986658791 
1941	 0.331331894590002 
1942	 0.331609647508982 
1943	 0.3319083605713 
1944	 0.332231331377219 
1945	 0.332569277170244 
1946	 0.33295795893554 
1947	 0.333359411411028 
1948	 0.333792664544097 
1949	 0.334276667663979 
1950	 0.334741836392778 
1951	 0.335201219960512 
1952	 0.335684330510405 
1953	 0.336182854473771 
1954	 0.336678138030697 
1955	 0.337201733451729 
1956	 0.337720957998387 
1957	 0.338245710853238 
1958	 0.338758296728094 
1959	 0.339235067450911 
1960	 0.339742455546779 
1961	 0.340240561424336 
1962	 0.34071956273967 
1963	 0.341222833391686 
1964	 0.341752195026974 
1965	 0.342248816822419 
1966	 0.342745215325288 
1967	 0.343237767145408 
1968	 0.343684737307696 
1969	 0.344155548877448 
1970	 0.344645247837693 
1971	 0.345134804797283 
1972	 0.345628156635108 
1973	 0.346121442666793 
1974	 0.346620863788776 
1975	 0.34712245516692 
1976	 0.347614067712365 
1977	 0.348120805965392 
1978	 0.34860859521985 
1979	 0.349066714887121 
1980	 0.349538620317602 
1981	 0.350053684198263 
1982	 0.350529277533138 
1983	 0.351035735230424 
1984	 0.351566342169363 
1985	 0.35203881309434 
1986	 0.352532313775637 
1987	 0.353027932838439 
1988	 0.353503993795268 
1989	 0.35401556111246 
1990	 0.354565503631892 
1991	 0.355086599414734 
1992	 0.355615960532968 
1993	 0.356147776183676 
1994	 0.356626880105184 
1995	 0.357115982903029 
1996	 0.357608045339506 
1997	 0.358082868272813 
1998	 0.358562930396226 
1999	 0.359040568760312 
2000	 0.359516400144393 
2001	 0.360008476207521 
2002	 0.360458857331113 
2003	 0.360899535976263 
2004	 0.361327374263551 
2005	 0.361709488457067 
2006	 0.362103650914021 
2007	 0.362515895838359 
2008	 0.362885558027289 
2009	 0.363235531749572 
2010	 0.363603275756358 
2011	 0.363931113234104 
2012	 0.364248268140951 
2013	 0.364537867716697 
2014	 0.364822842790785 
2015	 0.365053082236189 
2016	 0.36525536658373 
2017	 0.36540653818856 
2018	 0.365507813559622 
2019	 0.365578987482443 
2020	 0.365611324719238 
2021	 0.365605056375423 
2022	 0.365560644142459 
2023	 0.365471734433969 
2024	 0.365341110252369 
2025	 0.365167858230993 
2026	 0.36495307943609 
2027	 0.364679997187792 
2028	 0.364409503270984 
2029	 0.364087588720732 
2030	 0.363778253412402 
2031	 0.363459976414052 
2032	 0.363152898892815 
2033	 0.36280665866742 
2034	 0.362524950530343 
2035	 0.36228340384368 
2036	 0.362032372928284 
2037	 0.361841016798228 
2038	 0.361703999021033 
2039	 0.361590016752735 
2040	 0.361497462833985 
2041	 0.36147323032406 
2042	 0.361496340098862 
2043	 0.361562766596407 
2044	 0.361694368923447 
2045	 0.361847527450856 
2046	 0.362049024945699 
2047	 0.362260402251613 
2048	 0.36249551918404 
2049	 0.362764419258083 
2050	 0.363062839714749 
2051	 0.36338026479296 
2052	 0.363725577054817 
2053	 0.364090513547066 
2054	 0.36447367203295 
2055	 0.364881409587766 
2056	 0.365278940950657 
2057	 0.3656915853255 
2058	 0.366113708461124 
2059	 0.366539888679962 
2060	 0.366957293068433 
2061	 0.367397135349651 
2062	 0.367820206260818 
2063	 0.36821332188119 
2064	 0.368623793888625 
2065	 0.369047131794174 
2066	 0.369454572719752 
2067	 0.369889900514385 
2068	 0.370338070359221 
2069	 0.370759774046805 
2070	 0.371193123305119 
2071	 0.371598771955356 
2072	 0.371973794029876 
2073	 0.372350021950207 
2074	 0.372720823343961 
2075	 0.373077653969523 
2076	 0.373427364898308 
2077	 0.373755703199392 
2078	 0.374079938192677 
2079	 0.37437808813858 
2080	 0.37464180612106 
2081	 0.374901242914535 
2082	 0.375153517240726 
2083	 0.375372528527753 
2084	 0.375584116342982 
2085	 0.375793294465736 
2086	 0.375998676232855 
2087	 0.376204229251697 
2088	 0.376380328067213 
2089	 0.376550567525015 
2090	 0.376696681352125 
2091	 0.376805938163936 
2092	 0.376918429864856 
2093	 0.377020456843969 
2094	 0.377117117998145 
2095	 0.377204541256685 
2096	 0.377283296070513 
2097	 0.377356287348884 
2098	 0.377425147696242 
2099	 0.377454467513661 
2100	 0.377488525925548 
2101	 0.377520248854273 
2102	 0.377543471582407 
2103	 0.377549332062419 
2104	 0.377557864063312 
2105	 0.377541048860541 
2106	 0.377490755757751 
2107	 0.377452841644156 
2108	 0.377425689316369 
2109	 0.3773634587951 
2110	 0.377299099788885 
2111	 0.377194916633004 
2112	 0.377039499757044 
2113	 0.376890287566734 
2114	 0.376715475128001 
2115	 0.376540081394406 
2116	 0.376356634812461 
2117	 0.376184447009357 
2118	 0.37598914054138 
2119	 0.375777915428398 
2120	 0.375576841868893 
2121	 0.375359863596743 
2122	 0.375166831483263 
2123	 0.374996725513993 
2124	 0.374803898729983 
2125	 0.374625055877703 
2126	 0.374412162683867 
2127	 0.374163817095907 
2128	 0.373933055920673 
2129	 0.373687143466588 
2130	 0.373450742844856 
2131	 0.37323639480082 
2132	 0.373000606967711 
2133	 0.372752072184058 
2134	 0.372511048456275 
2135	 0.372243846462237 
2136	 0.371966585418518 
2137	 0.37167891128594 
2138	 0.371371097907101 
2139	 0.371074665565913 
2140	 0.370768618025204 
2141	 0.370475306750411 
2142	 0.370179957485852 
2143	 0.36990679475062 
2144	 0.369655367404433 
2145	 0.369391805384551 
2146	 0.369134225363625 
2147	 0.368883186171297 
2148	 0.368639675884569 
2149	 0.368379174189288 
2150	 0.368116477563458 
2151	 0.367859244050066 
2152	 0.367592130670003 
2153	 0.367317646819052 
2154	 0.367072586047212 
2155	 0.366824067345446 
2156	 0.366543874574601 
2157	 0.366235980960596 
2158	 0.365956307756543 
2159	 0.365673091575865 
2160	 0.365378822883487 
2161	 0.365096201113302 
2162	 0.364807945792117 
2163	 0.364487640855101 
2164	 0.364195163215231 
2165	 0.363914094405965 
2166	 0.363651364704734 
2167	 0.363386286719974 
2168	 0.363159251532419 
2169	 0.362964671913484 
2170	 0.362785827175842 
2171	 0.362630463227167 
2172	 0.362495204779821 
2173	 0.362382931544351 
2174	 0.362277257304987 
2175	 0.362231415077251 
2176	 0.362201538929299 
2177	 0.362198931231622 
2178	 0.362239117565005 
2179	 0.362285971833306 
2180	 0.362344391565616 
2181	 0.36243454901111 
2182	 0.362564255554325 
2183	 0.362682011086076 
2184	 0.362810596435241 
2185	 0.362954415683221 
2186	 0.36311036215385 
2187	 0.363266758602189 
2188	 0.363446344278863 
2189	 0.36361410260662 
2190	 0.363761829173347 
2191	 0.363933170097992 
2192	 0.364122596268535 
2193	 0.364307333863651 
2194	 0.364509822416454 
2195	 0.364699457236195 
2196	 0.364890806431507 
2197	 0.365060626256438 
2198	 0.36522693746828 
2199	 0.365391697777501 
2200	 0.36554124697429 
2201	 0.365672643232351 
2202	 0.365816191600066 
2203	 0.365961711617328 
2204	 0.366090444319263 
2205	 0.366219550439588 
2206	 0.366337953649179 
2207	 0.366441241823597 
2208	 0.366533821998089 
2209	 0.366617774444583 
2210	 0.36670081635753 
2211	 0.366771673440168 
2212	 0.366834955693904 
2213	 0.36692104264791 
2214	 0.366952552088092 
2215	 0.366950729049178 
2216	 0.36693149211213 
2217	 0.366865987982906 
2218	 0.3668066367152 
2219	 0.366762318943451 
2220	 0.36666304600456 
2221	 0.36653698913019 
2222	 0.366382679733538 
2223	 0.366203869406642 
2224	 0.365976698229287 
2225	 0.365713085059185 
2226	 0.365419133549883 
2227	 0.365029780296192 
2228	 0.364569375513969 
2229	 0.364032878778371 
2230	 0.36341049303697 
2231	 0.362735601932449 
2232	 0.361992862638561 
2233	 0.361172537002131 
2234	 0.360323793139864 
2235	 0.359325256493887 
2236	 0.358231939772195 
2237	 0.357003131865463 
2238	 0.355583903836665 
2239	 0.354170271647953 
2240	 0.352689248910996 
2241	 0.351103155209875 
2242	 0.349526399774925 
2243	 0.347738580464106 
2244	 0.345744426715244 
2245	 0.343717254021487 
2246	 0.341486285065893 
2247	 0.339292591524643 
2248	 0.337095914668806 
2249	 0.334814136514844 
2250	 0.332475819173287 
2251	 0.330158283049923 
2252	 0.327618801440985 
2253	 0.325080135219587 
2254	 0.322493217405284 
2255	 0.31988516942132 
2256	 0.317475709747708 
2257	 0.315094564693755 
2258	 0.312781445060962 
2259	 0.31059258385887 
2260	 0.308359219194 
2261	 0.306120717106718 
2262	 0.303981757583613 
2263	 0.30184368349019 
2264	 0.299851146282456 
2265	 0.298010922818218 
2266	 0.296117059504087 
2267	 0.294327603182902 
2268	 0.292465321760416 
2269	 0.290538479055842 
2270	 0.288695452460827 
2271	 0.286857996570127 
2272	 0.285059028885799 
2273	 0.283338461799302 
2274	 0.281572964409891 
2275	 0.279845193867667 
2276	 0.278058278658372 
2277	 0.276257763352674 
2278	 0.274412262262115 
2279	 0.272458435721717 
2280	 0.270556889874479 
2281	 0.268674013089037 
2282	 0.26675411141148 
2283	 0.264848721517016 
2284	 0.262946184758353 
2285	 0.260874650485282 
2286	 0.258838810994623 
2287	 0.25674502160577 
2288	 0.25459840356332 
2289	 0.252590403135971 
2290	 0.250467556174031 
2291	 0.248383830083318 
2292	 0.24638304125305 
2293	 0.244269779571074 
2294	 0.24228254239348 
2295	 0.240406116807145 
2296	 0.238618936509845 
2297	 0.237158670313496 
2298	 0.235923945708524 
2299	 0.234959444715251 
2300	 0.234258964038953 
2301	 0.233850490040476 
2302	 0.233723150469169 
2303	 0.233883865444553 
2304	 0.234388951484833 
2305	 0.235084885019832 
2306	 0.236068093884448 
2307	 0.237268766598288 
2308	 0.238713327012755 
2309	 0.24038959164591 
2310	 0.242437653141912 
2311	 0.244456764579597 
2312	 0.246792625197374 
2313	 0.248923786971184 
2314	 0.251081790835457 
2315	 0.253120573293377 
2316	 0.255123618808531 
2317	 0.256910184043886 
2318	 0.258627016960466 
2319	 0.260057515953231 
2320	 0.26129323242763 
2321	 0.262257729055629 
2322	 0.262924835150003 
2323	 0.263430846415397 
2324	 0.263636632190699 
2325	 0.263731436596537 
2326	 0.263671503398368 
2327	 0.263416120013387 
2328	 0.262931535954985 
2329	 0.26233934713624 
2330	 0.26158309224715 
2331	 0.260643539522201 
2332	 0.259612769118785 
2333	 0.258440510470167 
2334	 0.256997632002805 
2335	 0.25552092242341 
2336	 0.253955160927827 
2337	 0.252276920341543 
2338	 0.250777058387304 
2339	 0.249241878636846 
2340	 0.247719171315965 
2341	 0.246315850061096 
2342	 0.244921087401176 
2343	 0.24378150412734 
2344	 0.242972073362115 
2345	 0.242541953137044 
2346	 0.242496021776993 
2347	 0.242793200707935 
2348	 0.243341737879288 
2349	 0.244197081963083 
2350	 0.24534797474858 
2351	 0.246744487555204 
2352	 0.248360733644009 
2353	 0.250044456356568 
2354	 0.251627113423859 
2355	 0.253118990568364 
2356	 0.254458291650104 
2357	 0.255590204582934 
2358	 0.256690540096481 
2359	 0.257536947001023 
2360	 0.258121616962002 
2361	 0.258633211732987 
2362	 0.258957712408545 
2363	 0.259171124943326 
2364	 0.259379119490155 
2365	 0.259505421002013 
2366	 0.259654893531413 
2367	 0.259859296261246 
2368	 0.260052236880532 
2369	 0.260241048397589 
2370	 0.260349217501313 
2371	 0.260420215638445 
2372	 0.260556130276974 
2373	 0.260682918428054 
2374	 0.260792882277289 
2375	 0.260893397718102 
2376	 0.260910556988105 
2377	 0.260977533754955 
2378	 0.261133979758167 
2379	 0.261271598106402 
2380	 0.261391581766278 
2381	 0.26149041451645 
2382	 0.261656297797492 
2383	 0.261818672959711 
2384	 0.262027238434705 
2385	 0.262363376912537 
2386	 0.262596687629679 
2387	 0.262778189462134 
2388	 0.262963771999785 
2389	 0.26310684689457 
2390	 0.263290107855246 
2391	 0.263485433084347 
2392	 0.263661473300173 
2393	 0.263876469197277 
2394	 0.264028837810814 
2395	 0.264128690356539 
2396	 0.264232894616023 
2397	 0.264294391276021 
2398	 0.264417842990047 
2399	 0.264545398795925 
2400	 0.264698036708475 
2401	 0.264929618204554 
2402	 0.265054214657675 
2403	 0.265194854719558 
2404	 0.265332678358161 
2405	 0.265348273934999 
2406	 0.265326718312681 
2407	 0.265411606807522 
2408	 0.265495994399389 
2409	 0.265522237044045 
2410	 0.265598090354651 
2411	 0.265597594867371 
2412	 0.265459583174163 
2413	 0.265376410525437 
2414	 0.265292799940893 
2415	 0.2652159023582 
2416	 0.265311674588829 
2417	 0.265423098406281 
2418	 0.265492380425211 
2419	 0.265628810214131 
2420	 0.265633477262272 
2421	 0.265539014878232 
2422	 0.265549203702872 
2423	 0.265472446904287 
2424	 0.265415405868528 
2425	 0.265524545702895 
2426	 0.265524790511028 
2427	 0.265479689351738 
2428	 0.265446734168736 
2429	 0.265223649788435 
2430	 0.265038471377272 
2431	 0.264889914289349 
2432	 0.264570490803719 
2433	 0.264380663825446 
2434	 0.264233579261493 
2435	 0.264042205506879 
2436	 0.264014148954939 
2437	 0.263852641351345 
2438	 0.263497673780255 
2439	 0.263076216313948 
2440	 0.262617349225027 
2441	 0.262257979149619 
2442	 0.261930306914619 
2443	 0.261650607805656 
2444	 0.261264732799047 
2445	 0.260654420913725 
2446	 0.260114984739866 
2447	 0.259619114531294 
2448	 0.259039251470566 
2449	 0.258483671745775 
2450	 0.257930606363041 
2451	 0.257371386054406 
2452	 0.256931354862302 
2453	 0.256396779918347 
2454	 0.255775243273973 
2455	 0.255251184590701 
2456	 0.254586275571508 
2457	 0.254031552973512 
2458	 0.253614235372037 
2459	 0.252999517133031 
2460	 0.252518505043619 
2461	 0.252109621954532 
2462	 0.25153072823006 
2463	 0.251028545276912 
2464	 0.250566398261352 
2465	 0.25008754065031 
2466	 0.249763409352829 
2467	 0.249425634535905 
2468	 0.248871920936166 
2469	 0.248379281398305 
2470	 0.248070295156588 
2471	 0.247711810115361 
2472	 0.247335308330325 
2473	 0.247032358941933 
2474	 0.246688981055531 
2475	 0.246384902773348 
2476	 0.246186521725405 
2477	 0.245890109979428 
2478	 0.245554750096758 
2479	 0.245350988078946 
2480	 0.245083441943356 
2481	 0.245033281707429 
2482	 0.245145385794423 
2483	 0.244985766571212 
2484	 0.2450723280385 
2485	 0.244897218944543 
2486	 0.244664054548995 
2487	 0.244629614409357 
2488	 0.244751213408723 
2489	 0.244752958678704 
2490	 0.244609829902407 
2491	 0.244618196051196 
2492	 0.244621465850611 
2493	 0.244809639950178 
2494	 0.245106655602301 
2495	 0.245291503300489 
2496	 0.245493838300651 
2497	 0.245623495436607 
2498	 0.245869645685871 
2499	 0.246400463463752 
2500	 0.246907440739588 
