Wavelength	spectrum00018.asd
350	 5.22590155383939E-02 
351	 5.18081807569773E-02 
352	 5.08039509925984E-02 
353	 4.96192395891639E-02 
354	 5.05766546322698E-02 
355	 4.97854746015719E-02 
356	 4.80299741049558E-02 
357	 0.046657614249951 
358	 4.50901468777089E-02 
359	 4.52414011398274E-02 
360	 4.57593899728499E-02 
361	 4.41735127268791E-02 
362	 4.36460686664532E-02 
363	 4.29892249386804E-02 
364	 4.19664789934058E-02 
365	 4.21100581124659E-02 
366	 4.26687356935094E-02 
367	 4.23938190331684E-02 
368	 4.11617208978258E-02 
369	 4.29969772403591E-02 
370	 4.32297093853452E-02 
371	 4.20188599292251E-02 
372	 4.20683272426201E-02 
373	 0.041485911626168 
374	 4.16920356225987E-02 
375	 4.25569940871912E-02 
376	 4.13017576532355E-02 
377	 4.14164750070992E-02 
378	 4.18289194097165E-02 
379	 4.10792335657681E-02 
380	 4.06611210235477E-02 
381	 4.04346981155309E-02 
382	 4.00663886880192E-02 
383	 3.93433834934906E-02 
384	 4.03638375792648E-02 
385	 4.12842196454638E-02 
386	 4.10859990846289E-02 
387	 0.040675481803565 
388	 3.96831150358871E-02 
389	 3.89703192947477E-02 
390	 3.92580388160752E-02 
391	 3.97516407369054E-02 
392	 3.96271338393717E-02 
393	 3.91645468447838E-02 
394	 0.0392390642319 
395	 0.038545809555138 
396	 3.85565344620725E-02 
397	 3.95246790354115E-02 
398	 3.91621207102354E-02 
399	 3.87959694632946E-02 
400	 3.86724695220628E-02 
401	 3.86255627287491E-02 
402	 3.80145372521739E-02 
403	 3.80247436268925E-02 
404	 3.84525087192643E-02 
405	 3.81214210809537E-02 
406	 3.79439691369119E-02 
407	 3.78044409022041E-02 
408	 3.76715101397364E-02 
409	 3.80712890842387E-02 
410	 3.77025917562564E-02 
411	 3.72384574187306E-02 
412	 3.76365333232777E-02 
413	 3.78277370760204E-02 
414	 3.75785236413194E-02 
415	 3.71245582633925E-02 
416	 3.70475256068667E-02 
417	 3.72964326887425E-02 
418	 3.74820531055083E-02 
419	 3.73333916319652E-02 
420	 3.69262408613474E-02 
421	 3.67683095492337E-02 
422	 0.036897376982513 
423	 3.71023227795457E-02 
424	 3.71045878066623E-02 
425	 0.037012621588714 
426	 0.036946343766882 
427	 3.69932965039824E-02 
428	 3.69091177734689E-02 
429	 3.68197864524637E-02 
430	 3.68598067175229E-02 
431	 3.69260227359514E-02 
432	 3.70695034949548E-02 
433	 3.71112568143653E-02 
434	 3.68440114905159E-02 
435	 3.70437175513009E-02 
436	 3.71488265539637E-02 
437	 3.69537774205813E-02 
438	 3.70450034768785E-02 
439	 3.70377943500615E-02 
440	 3.69456579667536E-02 
441	 3.68903576129483E-02 
442	 3.69404784197875E-02 
443	 3.70659772792383E-02 
444	 0.037226262259769 
445	 3.73679175526397E-02 
446	 3.73038128582726E-02 
447	 3.72580475736618E-02 
448	 3.73425236707458E-02 
449	 3.72483695198759E-02 
450	 0.03736909969546 
451	 0.037515172350826 
452	 0.037374464876285 
453	 3.73560775285975E-02 
454	 3.74571360403827E-02 
455	 3.75635163026371E-02 
456	 3.74815351953743E-02 
457	 3.75397179404302E-02 
458	 0.037545634640191 
459	 3.74010192066254E-02 
460	 3.76636217599148E-02 
461	 3.78402872593501E-02 
462	 0.037808668015464 
463	 3.76854941058513E-02 
464	 0.037647048367213 
465	 3.77033763280093E-02 
466	 0.037787983862928 
467	 3.77497927642552E-02 
468	 3.78482089633097E-02 
469	 3.79422548810307E-02 
470	 3.78768864638396E-02 
471	 3.79636493913181E-02 
472	 3.79784452532665E-02 
473	 0.037917238785835 
474	 3.79523005972652E-02 
475	 3.79457471517823E-02 
476	 3.79662261534099E-02 
477	 3.80470978078447E-02 
478	 3.80787089225477E-02 
479	 3.80468976521993E-02 
480	 3.80598282561356E-02 
481	 3.82113803229981E-02 
482	 3.81638082321692E-02 
483	 3.81645723016749E-02 
484	 3.82719598554982E-02 
485	 3.82831540387573E-02 
486	 3.83446700780694E-02 
487	 3.83851457539027E-02 
488	 3.83480276921614E-02 
489	 3.83615978581607E-02 
490	 3.84649526637838E-02 
491	 3.85920244035249E-02 
492	 3.86290735910781E-02 
493	 3.86646457802482E-02 
494	 3.87346585259479E-02 
495	 3.88293615272799E-02 
496	 3.88754804640369E-02 
497	 3.89172162995786E-02 
498	 0.038922572277436 
499	 3.88832852381609E-02 
500	 3.90055090714364E-02 
501	 3.90887829367538E-02 
502	 3.90527112892083E-02 
503	 3.89499824722252E-02 
504	 3.89925461285099E-02 
505	 3.91093148332351E-02 
506	 3.92109271289116E-02 
507	 3.93171012979286E-02 
508	 3.93252839777042E-02 
509	 3.92951985454458E-02 
510	 3.93468176597759E-02 
511	 3.94503093041354E-02 
512	 3.95206114313735E-02 
513	 0.039568220726325 
514	 3.97345438874543E-02 
515	 3.97596152745671E-02 
516	 3.97365190457904E-02 
517	 3.97880093191381E-02 
518	 3.97821187853052E-02 
519	 3.98714083265073E-02 
520	 4.00391828200042E-02 
521	 4.01516362332708E-02 
522	 4.02122292722816E-02 
523	 4.02710500511679E-02 
524	 4.03589293352276E-02 
525	 4.04586445194287E-02 
526	 4.05175167918425E-02 
527	 4.05709201913235E-02 
528	 0.040679275605644 
529	 4.08462376102313E-02 
530	 4.09680396840884E-02 
531	 4.10577330414614E-02 
532	 4.12525944448139E-02 
533	 4.13561191827553E-02 
534	 4.14692440078656E-02 
535	 4.16744166377536E-02 
536	 4.18047152414489E-02 
537	 4.19696102573848E-02 
538	 4.21790697242781E-02 
539	 4.23874722869634E-02 
540	 0.042591898067108 
541	 4.28051339703542E-02 
542	 4.30366906510047E-02 
543	 4.32878890288376E-02 
544	 4.35457831124205E-02 
545	 4.37985137973277E-02 
546	 4.40456179858803E-02 
547	 4.43340116276093E-02 
548	 4.46211902839003E-02 
549	 4.48887002449004E-02 
550	 4.51451005694487E-02 
551	 4.54361741927292E-02 
552	 4.57478096681138E-02 
553	 4.60621321636848E-02 
554	 4.63793107747258E-02 
555	 4.67329391161312E-02 
556	 4.71139891738362E-02 
557	 4.74983885392188E-02 
558	 4.79209127900516E-02 
559	 4.83940871711259E-02 
560	 4.88828774651818E-02 
561	 4.92899487488283E-02 
562	 4.97841915051101E-02 
563	 0.050375257419175 
564	 5.10113212399381E-02 
565	 0.051600940481766 
566	 0.052207721232842 
567	 5.28500336415534E-02 
568	 5.35070559172736E-02 
569	 5.41518820374178E-02 
570	 5.47722928720332E-02 
571	 5.53763989353264E-02 
572	 5.59998124312458E-02 
573	 5.66826634333226E-02 
574	 5.74081972893079E-02 
575	 5.81469895210187E-02 
576	 5.89541190671898E-02 
577	 5.97966524919336E-02 
578	 6.06538614766535E-02 
579	 6.15245286243054E-02 
580	 6.24188659792289E-02 
581	 6.33046686168678E-02 
582	 6.41603837075712E-02 
583	 6.50144925960921E-02 
584	 0.065935801102156 
585	 0.066899045876815 
586	 6.78389623358889E-02 
587	 6.88879574138342E-02 
588	 6.99645757954858E-02 
589	 7.10026186547138E-02 
590	 7.20009033962262E-02 
591	 7.30322835869543E-02 
592	 7.40659467753328E-02 
593	 7.50602027843489E-02 
594	 7.60874232777061E-02 
595	 0.077109641231727 
596	 7.81353355892287E-02 
597	 7.92108105039813E-02 
598	 8.03243005548568E-02 
599	 8.14766390772627E-02 
600	 8.26509373455217E-02 
601	 8.37678778420335E-02 
602	 8.49431094839919E-02 
603	 8.61367393026173E-02 
604	 8.72617833965077E-02 
605	 8.84314902001277E-02 
606	 8.96064676761436E-02 
607	 9.07626997701807E-02 
608	 9.19075948936893E-02 
609	 0.093045100885204 
610	 9.42036221496145E-02 
611	 9.53929796749932E-02 
612	 9.65374276972831E-02 
613	 9.76706399099765E-02 
614	 0.098802998702068 
615	 9.99298173584594E-02 
616	 0.101028555821714 
617	 0.10213378027678 
618	 0.103255771047724 
619	 0.104351523648224 
620	 0.105453026167994 
621	 0.106550410488361 
622	 0.10762852491134 
623	 0.108709417172136 
624	 0.109813901507065 
625	 0.110914813475177 
626	 0.111948227860871 
627	 0.112989740982454 
628	 0.11404780628882 
629	 0.115118468261051 
630	 0.11620638759071 
631	 0.117236982463446 
632	 0.118257900421635 
633	 0.119347392040073 
634	 0.120377043271464 
635	 0.121401209549403 
636	 0.122445311174194 
637	 0.123474003220439 
638	 0.124501313215778 
639	 0.125538185639789 
640	 0.126582098600072 
641	 0.127586292906213 
642	 0.128581015954787 
643	 0.129596326542955 
644	 0.130655384733702 
645	 0.131707952045729 
646	 0.132741604823832 
647	 0.133764916701751 
648	 0.134813999162222 
649	 0.135840086958417 
650	 0.136866155693903 
651	 0.137919580313029 
652	 0.138943694464089 
653	 0.140016409854076 
654	 0.141122522001558 
655	 0.142174400490481 
656	 0.143249245223301 
657	 0.144343476027389 
658	 0.14544019344207 
659	 0.146521935322996 
660	 0.147615400524571 
661	 0.148743149587193 
662	 0.149908182076989 
663	 0.151029110618307 
664	 0.15214163480761 
665	 0.153282690293701 
666	 0.154476738471824 
667	 0.155661643595536 
668	 0.156839657698065 
669	 0.158029092246488 
670	 0.159258930180977 
671	 0.160485966411833 
672	 0.161694777752551 
673	 0.162897730426718 
674	 0.16418409080334 
675	 0.165433775472139 
676	 0.166646389837858 
677	 0.167984407329481 
678	 0.169284082487321 
679	 0.170557206565568 
680	 0.171851543091698 
681	 0.173189891587667 
682	 0.17456298542211 
683	 0.175940894046736 
684	 0.177289739350277 
685	 0.178638565528383 
686	 0.17999170033986 
687	 0.181370373480219 
688	 0.182826687637277 
689	 0.184261039447202 
690	 0.185652752340635 
691	 0.187030761761331 
692	 0.188498686825632 
693	 0.189988777023304 
694	 0.191477776410425 
695	 0.192964820988909 
696	 0.194394504037284 
697	 0.1958496162331 
698	 0.197359190659698 
699	 0.198841974241899 
700	 0.200309751529677 
701	 0.201771467211708 
702	 0.203242936776783 
703	 0.204749662001171 
704	 0.206298092747078 
705	 0.207830075227143 
706	 0.209263343180163 
707	 0.210740816606089 
708	 0.212222066232952 
709	 0.213683684003787 
710	 0.215173874851443 
711	 0.216646182339421 
712	 0.218093453481527 
713	 0.219522609609101 
714	 0.220945648899983 
715	 0.22235177835113 
716	 0.223758912530639 
717	 0.225193104284696 
718	 0.226574238759801 
719	 0.227880451342334 
720	 0.229132608059157 
721	 0.23039967651444 
722	 0.231682877194073 
723	 0.232951203547921 
724	 0.234179813080606 
725	 0.235429354396853 
726	 0.2365950908095 
727	 0.237735608293853 
728	 0.238993885922839 
729	 0.240079462307262 
730	 0.241083915465336 
731	 0.242096765898437 
732	 0.243117171087691 
733	 0.24407499594897 
734	 0.244981266790433 
735	 0.245860492580963 
736	 0.246675042912046 
737	 0.247474719624884 
738	 0.248247005614996 
739	 0.248947054279706 
740	 0.249660578256153 
741	 0.250361585674674 
742	 0.251009643832615 
743	 0.251566286944681 
744	 0.252109696489183 
745	 0.252651630911621 
746	 0.253174091283292 
747	 0.253637485404758 
748	 0.254005120727512 
749	 0.254312108012432 
750	 0.254630761573151 
751	 0.254960172385117 
752	 0.255258688528633 
753	 0.255476259306877 
754	 0.255562736198394 
755	 0.255711001819739 
756	 0.255886459483902 
757	 0.256002705349592 
758	 0.255991653729255 
759	 0.255971972921761 
760	 0.255957138416529 
761	 0.255905521869694 
762	 0.255781935772101 
763	 0.255659162317369 
764	 0.255553161082836 
765	 0.255409440716761 
766	 0.255184534012214 
767	 0.254957469646552 
768	 0.254764692920705 
769	 0.254489321789638 
770	 0.254169000726568 
771	 0.253842933889747 
772	 0.253533609620611 
773	 0.2531670883187 
774	 0.252791321456912 
775	 0.252384939239821 
776	 0.251884217908938 
777	 0.251461365199611 
778	 0.251077782642807 
779	 0.250668989326643 
780	 0.250185984950843 
781	 0.249669565667484 
782	 0.249154347990347 
783	 0.248658878124061 
784	 0.248155142197207 
785	 0.247654906466701 
786	 0.24712318966991 
787	 0.246517042007236 
788	 0.245923112451078 
789	 0.245371089283672 
790	 0.244850283401116 
791	 0.244311116830212 
792	 0.243767364121754 
793	 0.243180772021931 
794	 0.242545808647967 
795	 0.241952368020045 
796	 0.24139433370918 
797	 0.240844872805846 
798	 0.240267069827256 
799	 0.239627742914292 
800	 0.239043786583025 
801	 0.238500075463893 
802	 0.237892301439562 
803	 0.237362798004844 
804	 0.236827383471714 
805	 0.236237519510916 
806	 0.235641528236092 
807	 0.235127772650053 
808	 0.234622459531887 
809	 0.234063981908731 
810	 0.233556026430593 
811	 0.233103534970562 
812	 0.232620001236408 
813	 0.232023788965978 
814	 0.231513950625431 
815	 0.231002106856131 
816	 0.230482346329548 
817	 0.230030860810562 
818	 0.22961423448196 
819	 0.229172260070345 
820	 0.228698875907822 
821	 0.228280213632217 
822	 0.227880505368524 
823	 0.227488098364415 
824	 0.22709963362835 
825	 0.226726263954266 
826	 0.226302227393693 
827	 0.225891412073507 
828	 0.225586258770847 
829	 0.225274371838555 
830	 0.224946613438782 
831	 0.224589459809134 
832	 0.224195115083716 
833	 0.223895485691186 
834	 0.22366514149983 
835	 0.223447082195515 
836	 0.223179047054911 
837	 0.222951275331879 
838	 0.222730446986886 
839	 0.222496825445313 
840	 0.222364506669519 
841	 0.222183532807984 
842	 0.221980428212715 
843	 0.221832179780536 
844	 0.221675257955783 
845	 0.221520711002607 
846	 0.221389961666943 
847	 0.221301594133097 
848	 0.221199821611665 
849	 0.221122328276898 
850	 0.221070581774952 
851	 0.220992381162304 
852	 0.220978835578904 
853	 0.221012075408387 
854	 0.221050256195041 
855	 0.221050419938872 
856	 0.221103752004423 
857	 0.221175103519052 
858	 0.221212139317213 
859	 0.221251080878677 
860	 0.221345889392053 
861	 0.22149085789326 
862	 0.221644112771002 
863	 0.221767685365052 
864	 0.221934595154412 
865	 0.222160000489712 
866	 0.222393984054908 
867	 0.22253063734931 
868	 0.222692642256184 
869	 0.222944213573006 
870	 0.22322367356554 
871	 0.223568927027781 
872	 0.223884080942743 
873	 0.224129757247044 
874	 0.224449324063533 
875	 0.224766856522667 
876	 0.22509269595529 
877	 0.225460635484701 
878	 0.225897528352007 
879	 0.226299315150302 
880	 0.226660585118078 
881	 0.227038213097556 
882	 0.227515579393077 
883	 0.227983430696903 
884	 0.228426346619502 
885	 0.228905669562211 
886	 0.22938267822954 
887	 0.229919956160509 
888	 0.230504199573086 
889	 0.231032877273681 
890	 0.231613919722554 
891	 0.232228230493435 
892	 0.232840336748392 
893	 0.233428213916278 
894	 0.234070132385987 
895	 0.234736025638231 
896	 0.235393362408071 
897	 0.236076740340909 
898	 0.236816167069536 
899	 0.237563922975053 
900	 0.238271755097504 
901	 0.238989874322364 
902	 0.23978709552611 
903	 0.240641947275208 
904	 0.241482930143725 
905	 0.242257202885376 
906	 0.24307170485708 
907	 0.24394561251525 
908	 0.24483139476323 
909	 0.245761842659743 
910	 0.246712935376464 
911	 0.247664386464022 
912	 0.248608892773579 
913	 0.249552702299414 
914	 0.250548302378182 
915	 0.251590386981884 
916	 0.252593855387033 
917	 0.253621286216865 
918	 0.25473124916293 
919	 0.255908152562431 
920	 0.257010516074494 
921	 0.258095850355767 
922	 0.259190846528145 
923	 0.260328185688745 
924	 0.261571004075504 
925	 0.262874072856295 
926	 0.264147477465165 
927	 0.265353971520343 
928	 0.26666599472807 
929	 0.268032189808713 
930	 0.269345420740967 
931	 0.270547922637631 
932	 0.271881673440656 
933	 0.273267642105981 
934	 0.274679771511572 
935	 0.276114987412751 
936	 0.277495993074046 
937	 0.278989227480523 
938	 0.280510581361478 
939	 0.28186734181217 
940	 0.283429765084183 
941	 0.285022580490132 
942	 0.286552262692311 
943	 0.28806145052791 
944	 0.289729240755901 
945	 0.291334104931611 
946	 0.292839580883859 
947	 0.294438928895877 
948	 0.296061213277862 
949	 0.297695639799598 
950	 0.299337874515406 
951	 0.300989686480336 
952	 0.302712092250161 
953	 0.304456676270071 
954	 0.306179740448372 
955	 0.307880941787683 
956	 0.309606867807665 
957	 0.311357171550731 
958	 0.313130812605574 
959	 0.314941892365108 
960	 0.316741895607355 
961	 0.318532608255756 
962	 0.320339996423751 
963	 0.322208865188841 
964	 0.323984927920329 
965	 0.325800845671713 
966	 0.327730221547802 
967	 0.329547842970214 
968	 0.331399905843096 
969	 0.333302676926689 
970	 0.335235491316748 
971	 0.337183521812886 
972	 0.339141088205216 
973	 0.341117180810626 
974	 0.343093462423806 
975	 0.344963835284693 
976	 0.346876170797588 
977	 0.348849147096027 
978	 0.350849345835698 
979	 0.352826078999684 
980	 0.354886479378046 
981	 0.356972031609146 
982	 0.358994904251452 
983	 0.360971685813917 
984	 0.362978718976447 
985	 0.364992447860685 
986	 0.367000939334351 
987	 0.369170761669098 
988	 0.371236638077614 
989	 0.373235710387536 
990	 0.375270402427638 
991	 0.377248587875091 
992	 0.379234110717151 
993	 0.381230200388088 
994	 0.383240568016234 
995	 0.385352565402822 
996	 0.387463935852304 
997	 0.389473292551888 
998	 0.391389389023823 
999	 0.393553746956342 
1000	 0.395715306606332 
1001	 0.403720981910002 
1002	 0.405814461884027 
1003	 0.407924377454181 
1004	 0.409924307744899 
1005	 0.411860310019368 
1006	 0.413829888371664 
1007	 0.415709207469624 
1008	 0.417689953755283 
1009	 0.419716605074851 
1010	 0.421727414297362 
1011	 0.423793026502365 
1012	 0.425807969235347 
1013	 0.427817907341663 
1014	 0.429813318589075 
1015	 0.431787503763994 
1016	 0.433701922280104 
1017	 0.435708528804646 
1018	 0.437662374686249 
1019	 0.439666323676499 
1020	 0.441714701269488 
1021	 0.443667900658707 
1022	 0.445577278513032 
1023	 0.44748789857818 
1024	 0.449331844503916 
1025	 0.451232149487455 
1026	 0.45316574175942 
1027	 0.45506593997005 
1028	 0.456993704964736 
1029	 0.45888820269687 
1030	 0.460665054624214 
1031	 0.462500579385849 
1032	 0.464307754619434 
1033	 0.466089684913182 
1034	 0.467971938552108 
1035	 0.469795286921229 
1036	 0.471617946123559 
1037	 0.473473880374208 
1038	 0.475259225873406 
1039	 0.4770074005151 
1040	 0.478752931348448 
1041	 0.480424117201271 
1042	 0.482162720093451 
1043	 0.483955365582879 
1044	 0.485668369155653 
1045	 0.487421957189996 
1046	 0.489175434313936 
1047	 0.490753909225666 
1048	 0.492424440438745 
1049	 0.494109661296741 
1050	 0.495725915440665 
1051	 0.497491436582812 
1052	 0.499205352851988 
1053	 0.500892016000997 
1054	 0.502614713730234 
1055	 0.504254502244223 
1056	 0.505789612342984 
1057	 0.507392654549032 
1058	 0.508975925541248 
1059	 0.510543062900953 
1060	 0.512228057982606 
1061	 0.513852277933791 
1062	 0.51550191428549 
1063	 0.517203036638489 
1064	 0.518793876312706 
1065	 0.520388008999 
1066	 0.521929363481287 
1067	 0.523431372080578 
1068	 0.525044475838571 
1069	 0.526606688700602 
1070	 0.528178067533544 
1071	 0.529784453184944 
1072	 0.531395916891794 
1073	 0.532859424516523 
1074	 0.534384325987501 
1075	 0.535901253825206 
1076	 0.537321492402158 
1077	 0.538799221238182 
1078	 0.540239013342767 
1079	 0.541730702416373 
1080	 0.543287356357983 
1081	 0.544744713113068 
1082	 0.546222763074683 
1083	 0.547665425517735 
1084	 0.549056079375167 
1085	 0.550551079571091 
1086	 0.552014777657935 
1087	 0.553482220014115 
1088	 0.554956257543146 
1089	 0.556437314425755 
1090	 0.557778691002133 
1091	 0.55913886260058 
1092	 0.560501580251109 
1093	 0.561842045982146 
1094	 0.563267471132078 
1095	 0.564648301478927 
1096	 0.566030827646447 
1097	 0.567403239022885 
1098	 0.5686794205497 
1099	 0.569997585371497 
1100	 0.571303592925378 
1101	 0.572593246333403 
1102	 0.573959966087273 
1103	 0.575282395150895 
1104	 0.576597447539542 
1105	 0.577915897204497 
1106	 0.57925400853033 
1107	 0.580508842994656 
1108	 0.581759707889822 
1109	 0.58297275990508 
1110	 0.5841579433802 
1111	 0.585408625508442 
1112	 0.586631548667823 
1113	 0.587902655161373 
1114	 0.589184718500002 
1115	 0.590331309323761 
1116	 0.591507956448457 
1117	 0.592688043721103 
1118	 0.593839383432551 
1119	 0.594980882618923 
1120	 0.596105617014776 
1121	 0.597208828477492 
1122	 0.598296852946423 
1123	 0.599400066737453 
1124	 0.600433573368658 
1125	 0.601512665437347 
1126	 0.602569423825677 
1127	 0.603567755152954 
1128	 0.604612116878593 
1129	 0.60558256641885 
1130	 0.606530550666798 
1131	 0.607498215987353 
1132	 0.608359181955602 
1133	 0.609222104148755 
1134	 0.610070734360769 
1135	 0.610878423080684 
1136	 0.611641560387355 
1137	 0.612418061789696 
1138	 0.613170456512444 
1139	 0.61391649467054 
1140	 0.614685107548761 
1141	 0.615365768496471 
1142	 0.616029529321388 
1143	 0.616689637704152 
1144	 0.617296843023187 
1145	 0.617917042289993 
1146	 0.618501896585687 
1147	 0.619064273124791 
1148	 0.61962649666392 
1149	 0.620142201066268 
1150	 0.620659971695278 
1151	 0.621155142114816 
1152	 0.621630767452138 
1153	 0.622082921538924 
1154	 0.622532306469092 
1155	 0.62297846684695 
1156	 0.623390058808469 
1157	 0.623791368258719 
1158	 0.624137483936033 
1159	 0.624430838328746 
1160	 0.624728345288318 
1161	 0.62500093162008 
1162	 0.625269632360886 
1163	 0.625532292895365 
1164	 0.625806978454609 
1165	 0.626091460876189 
1166	 0.626348351069739 
1167	 0.626621248042683 
1168	 0.626879441927206 
1169	 0.627115756002324 
1170	 0.627322348136447 
1171	 0.627542336104397 
1172	 0.627765046144333 
1173	 0.6279598432719 
1174	 0.628157512968081 
1175	 0.628312164216662 
1176	 0.628436476654417 
1177	 0.628542702763381 
1178	 0.628610480792315 
1179	 0.628676676321016 
1180	 0.628755035006807 
1181	 0.628800779130961 
1182	 0.628837499797268 
1183	 0.628879288972309 
1184	 0.628919671088959 
1185	 0.6289629218933 
1186	 0.629039200252583 
1187	 0.629142024838978 
1188	 0.629267910004688 
1189	 0.629408114074522 
1190	 0.629583425032672 
1191	 0.62978625525797 
1192	 0.630009728481043 
1193	 0.630269245021995 
1194	 0.630532627604819 
1195	 0.630807697197183 
1196	 0.631115361672399 
1197	 0.631447346759867 
1198	 0.631786899879758 
1199	 0.632162824366175 
1200	 0.632532316670765 
1201	 0.632886283850993 
1202	 0.633255393148003 
1203	 0.633637752696543 
1204	 0.634068635574439 
1205	 0.634549592724745 
1206	 0.635067645995132 
1207	 0.635650366727144 
1208	 0.636263535434348 
1209	 0.636976539623851 
1210	 0.637736388666532 
1211	 0.638617570054722 
1212	 0.639606143156876 
1213	 0.640674413409955 
1214	 0.64183902652583 
1215	 0.643092841807917 
1216	 0.644455797117846 
1217	 0.645851305828412 
1218	 0.64734210478739 
1219	 0.648865086462075 
1220	 0.650408650192601 
1221	 0.652067436123549 
1222	 0.653667919674848 
1223	 0.65529914935318 
1224	 0.656886558558048 
1225	 0.658458667296437 
1226	 0.65995636605391 
1227	 0.661452363027259 
1228	 0.662844125464249 
1229	 0.664155612195644 
1230	 0.665424496731344 
1231	 0.666624449333541 
1232	 0.667785800740191 
1233	 0.668887728170842 
1234	 0.669940786940989 
1235	 0.670926800424041 
1236	 0.671903925311898 
1237	 0.672847693824606 
1238	 0.673758565202756 
1239	 0.674639230097941 
1240	 0.675505674227543 
1241	 0.67633010382464 
1242	 0.677071724916927 
1243	 0.677827818346539 
1244	 0.678557737845471 
1245	 0.679270732157816 
1246	 0.679971550709763 
1247	 0.680648136663602 
1248	 0.681296566575642 
1249	 0.681936599728722 
1250	 0.682561518980025 
1251	 0.683164779613349 
1252	 0.683754461493314 
1253	 0.684322985740492 
1254	 0.684883725128728 
1255	 0.68540395013273 
1256	 0.685888772242594 
1257	 0.686363512031895 
1258	 0.686801845945431 
1259	 0.687234341601137 
1260	 0.687670851286645 
1261	 0.688073535601166 
1262	 0.68844150969756 
1263	 0.688806095923315 
1264	 0.689154637159849 
1265	 0.689475019095002 
1266	 0.689807152780333 
1267	 0.690134169318656 
1268	 0.690458147824203 
1269	 0.690770392241464 
1270	 0.691099566833891 
1271	 0.69143755957543 
1272	 0.691768211947458 
1273	 0.692112970562196 
1274	 0.692434144114077 
1275	 0.69273325380715 
1276	 0.693040194711194 
1277	 0.693330220532385 
1278	 0.693638809290048 
1279	 0.693949428680109 
1280	 0.694275051129759 
1281	 0.694626864300621 
1282	 0.694964040009201 
1283	 0.695306732615944 
1284	 0.695641083126289 
1285	 0.695968087936787 
1286	 0.696273352709146 
1287	 0.696611619179178 
1288	 0.696966989799464 
1289	 0.697298120707532 
1290	 0.697630888173965 
1291	 0.697964553063792 
1292	 0.698284533713297 
1293	 0.698604388574881 
1294	 0.69894634660732 
1295	 0.699251151878546 
1296	 0.699526462522262 
1297	 0.699804938214462 
1298	 0.700057926490436 
1299	 0.700334701805285 
1300	 0.700625887517621 
1301	 0.700901662749035 
1302	 0.70120067922165 
1303	 0.701460670532652 
1304	 0.701692286246905 
1305	 0.701914632298621 
1306	 0.702114645404856 
1307	 0.702306821653624 
1308	 0.702477379876422 
1309	 0.70265100556007 
1310	 0.702837995288109 
1311	 0.703026995006241 
1312	 0.703206715055725 
1313	 0.7034016645045 
1314	 0.703570492501486 
1315	 0.703713897077813 
1316	 0.703869711113348 
1317	 0.704035583180784 
1318	 0.704172505283177 
1319	 0.70429708543895 
1320	 0.704416092476743 
1321	 0.70451329082586 
1322	 0.704614042882907 
1323	 0.704728618871056 
1324	 0.704810796245927 
1325	 0.70486508757042 
1326	 0.704928640647959 
1327	 0.704988445439004 
1328	 0.705030423610254 
1329	 0.705093928491007 
1330	 0.705106989866925 
1331	 0.705093978474581 
1332	 0.705042847959539 
1333	 0.704947325481582 
1334	 0.704830614262804 
1335	 0.704704650147316 
1336	 0.70455195409557 
1337	 0.704388381825627 
1338	 0.704215942681545 
1339	 0.704025378330686 
1340	 0.703816670489271 
1341	 0.703588062897959 
1342	 0.703347549145705 
1343	 0.703086013830145 
1344	 0.702814266601161 
1345	 0.702493752666035 
1346	 0.702155548905177 
1347	 0.701774814918295 
1348	 0.701343116126835 
1349	 0.700893161558253 
1350	 0.700401520256036 
1351	 0.699911965061299 
1352	 0.699393094156688 
1353	 0.698878120241117 
1354	 0.698356597028764 
1355	 0.697839437126547 
1356	 0.697315508276213 
1357	 0.696794290454278 
1358	 0.696277399170777 
1359	 0.695759998305751 
1360	 0.695253219091991 
1361	 0.69473235676993 
1362	 0.694186527397517 
1363	 0.693645509369466 
1364	 0.693057404003955 
1365	 0.692442170629703 
1366	 0.691794522087504 
1367	 0.691123403714418 
1368	 0.690409683887929 
1369	 0.689667158885245 
1370	 0.688873820344817 
1371	 0.688031377778031 
1372	 0.687182973048465 
1373	 0.686298570149399 
1374	 0.685392029215363 
1375	 0.684463976902074 
1376	 0.683510843587038 
1377	 0.682531112268621 
1378	 0.681508229979025 
1379	 0.680456294961367 
1380	 0.67937771397281 
1381	 0.678285481616919 
1382	 0.677113339828683 
1383	 0.675867452113626 
1384	 0.674633945105009 
1385	 0.673312900891109 
1386	 0.672051837404336 
1387	 0.670803584371875 
1388	 0.669615931270759 
1389	 0.668455001851918 
1390	 0.667336704349582 
1391	 0.666297474759501 
1392	 0.665239216861361 
1393	 0.664269866004795 
1394	 0.663285482596061 
1395	 0.662271209317012 
1396	 0.661311348182454 
1397	 0.660204459616254 
1398	 0.659064409698097 
1399	 0.657756677597519 
1400	 0.656348502642162 
1401	 0.654815683245725 
1402	 0.65315828373475 
1403	 0.651374022263578 
1404	 0.649442368360572 
1405	 0.647493083489694 
1406	 0.645402029718047 
1407	 0.643335301276232 
1408	 0.641164376475287 
1409	 0.639135766229796 
1410	 0.63705371981392 
1411	 0.635168212080526 
1412	 0.633387253430686 
1413	 0.631784101865862 
1414	 0.630300601248005 
1415	 0.628981673010438 
1416	 0.627874789059324 
1417	 0.626827631546696 
1418	 0.625938422565932 
1419	 0.6250821533024 
1420	 0.624318428152633 
1421	 0.623594877574957 
1422	 0.622941533397694 
1423	 0.622306619864169 
1424	 0.621733335236393 
1425	 0.62115040183677 
1426	 0.620589282302354 
1427	 0.620075006787625 
1428	 0.619570306291134 
1429	 0.619123445696761 
1430	 0.618725447528676 
1431	 0.618367984954942 
1432	 0.618065052423686 
1433	 0.617817895824328 
1434	 0.617610817948099 
1435	 0.617447743439858 
1436	 0.61733399869473 
1437	 0.617286264311883 
1438	 0.617238930747863 
1439	 0.617222203233354 
1440	 0.617237738337361 
1441	 0.617267601441004 
1442	 0.617341571937483 
1443	 0.617476233263426 
1444	 0.617603384163691 
1445	 0.617748767989024 
1446	 0.617909541399593 
1447	 0.618092206676415 
1448	 0.618271785913489 
1449	 0.618463980951925 
1450	 0.61866382195076 
1451	 0.618864690217951 
1452	 0.619075167535741 
1453	 0.619307935966627 
1454	 0.619529501573189 
1455	 0.619764860465868 
1456	 0.619970543283894 
1457	 0.620159172622026 
1458	 0.620344828120867 
1459	 0.620500474748565 
1460	 0.620671436054065 
1461	 0.62084013828723 
1462	 0.621021413673922 
1463	 0.621213070880025 
1464	 0.621407305910454 
1465	 0.621606515091322 
1466	 0.621821576945932 
1467	 0.622032748679766 
1468	 0.622244937818442 
1469	 0.622475623031331 
1470	 0.622711547930339 
1471	 0.622934743110661 
1472	 0.623166799423941 
1473	 0.623372490426399 
1474	 0.623561961666531 
1475	 0.623741274267274 
1476	 0.623913143625485 
1477	 0.624058963361559 
1478	 0.624191051734762 
1479	 0.62429756691045 
1480	 0.624384383964771 
1481	 0.624440673931839 
1482	 0.624476809442046 
1483	 0.624476100021018 
1484	 0.6244417706876 
1485	 0.624383122721194 
1486	 0.624271284841853 
1487	 0.624189089765156 
1488	 0.624094365615587 
1489	 0.624002657683801 
1490	 0.623917200863953 
1491	 0.62383626557681 
1492	 0.623726524428549 
1493	 0.623672520425467 
1494	 0.623655753701045 
1495	 0.623642498901353 
1496	 0.623642890721105 
1497	 0.62367939166589 
1498	 0.623730334815084 
1499	 0.623812430288812 
1500	 0.623950734613314 
1501	 0.624080022497305 
1502	 0.624213823477091 
1503	 0.624368602655318 
1504	 0.624535967339989 
1505	 0.624718411663192 
1506	 0.624931261523564 
1507	 0.625138618732173 
1508	 0.625340137034626 
1509	 0.625569059012726 
1510	 0.62581355456465 
1511	 0.626064140803622 
1512	 0.626341075404912 
1513	 0.626616291785093 
1514	 0.626889819198558 
1515	 0.627172186311115 
1516	 0.627454950502394 
1517	 0.62775708772926 
1518	 0.628070644498327 
1519	 0.628394896061969 
1520	 0.628740416291457 
1521	 0.629091949259282 
1522	 0.629429398895811 
1523	 0.629799396943675 
1524	 0.630167003558138 
1525	 0.630532211240349 
1526	 0.6309351874271 
1527	 0.631366471846051 
1528	 0.631780752311433 
1529	 0.632213203167667 
1530	 0.632635252714441 
1531	 0.633038798045461 
1532	 0.633471803211287 
1533	 0.633924628327271 
1534	 0.634369871877103 
1535	 0.634826574112994 
1536	 0.635266157085105 
1537	 0.635691481393701 
1538	 0.636139645001475 
1539	 0.636592151449115 
1540	 0.637043345503167 
1541	 0.637514133863068 
1542	 0.637963294679396 
1543	 0.638404608184266 
1544	 0.638828815144873 
1545	 0.639245434173233 
1546	 0.639648232540264 
1547	 0.640037549490997 
1548	 0.640405292760463 
1549	 0.640761965379935 
1550	 0.641098450907937 
1551	 0.641412921143764 
1552	 0.641706791313528 
1553	 0.641979479922606 
1554	 0.642245123268735 
1555	 0.642491818432856 
1556	 0.642723177348034 
1557	 0.642950951515915 
1558	 0.643151013032103 
1559	 0.64332071177717 
1560	 0.643484239948164 
1561	 0.643626211722169 
1562	 0.643770815956377 
1563	 0.643892911043298 
1564	 0.644039064146345 
1565	 0.644196622095125 
1566	 0.644350516938284 
1567	 0.644512846128113 
1568	 0.644675462406401 
1569	 0.644824964657071 
1570	 0.644999272664611 
1571	 0.645186682533175 
1572	 0.645385143130072 
1573	 0.645605170914556 
1574	 0.645820395786672 
1575	 0.64603555733583 
1576	 0.646267265963733 
1577	 0.646522218968749 
1578	 0.646752476289912 
1579	 0.646979705070792 
1580	 0.647210284477986 
1581	 0.647421586101202 
1582	 0.647644764771625 
1583	 0.647884801245778 
1584	 0.648120106925942 
1585	 0.64834810665964 
1586	 0.648583756567257 
1587	 0.648823251439292 
1588	 0.649069701773047 
1589	 0.649325362998949 
1590	 0.649575102831277 
1591	 0.649828677949164 
1592	 0.650082297819653 
1593	 0.650323146307859 
1594	 0.650582555035001 
1595	 0.650867204691002 
1596	 0.651128025294778 
1597	 0.6513814601915 
1598	 0.651640286984922 
1599	 0.651880657836094 
1600	 0.652138417886163 
1601	 0.652414192127294 
1602	 0.652686857916633 
1603	 0.652978449246822 
1604	 0.65324098099478 
1605	 0.653503247629568 
1606	 0.653737836721661 
1607	 0.653933479408699 
1608	 0.654133748206529 
1609	 0.654330867117471 
1610	 0.654507098953487 
1611	 0.654672175028396 
1612	 0.654823578387242 
1613	 0.654955806244582 
1614	 0.655073000350081 
1615	 0.655173777359865 
1616	 0.655271440061797 
1617	 0.655357398356611 
1618	 0.655429188275262 
1619	 0.655476339921633 
1620	 0.655544341127948 
1621	 0.655627075389725 
1622	 0.655678788830297 
1623	 0.655741512380122 
1624	 0.655777008586281 
1625	 0.655767097248035 
1626	 0.655757493346523 
1627	 0.655739481970769 
1628	 0.655715265584664 
1629	 0.655678846198248 
1630	 0.655637785020681 
1631	 0.655597309619826 
1632	 0.655541178626239 
1633	 0.655474193038601 
1634	 0.655393622369572 
1635	 0.65529923167705 
1636	 0.655196369121101 
1637	 0.65507495719968 
1638	 0.654955117217768 
1639	 0.654839028227757 
1640	 0.654699567217098 
1641	 0.654586185965397 
1642	 0.654390559865166 
1643	 0.654119780374903 
1644	 0.653863383630543 
1645	 0.653561731996713 
1646	 0.653260327174072 
1647	 0.652976280262203 
1648	 0.652656551824063 
1649	 0.652318431522766 
1650	 0.651935920061432 
1651	 0.651548015317234 
1652	 0.651093975984986 
1653	 0.650578952538932 
1654	 0.65002555328284 
1655	 0.649429702058009 
1656	 0.648770755752976 
1657	 0.648079232415222 
1658	 0.64729692613604 
1659	 0.646427670538097 
1660	 0.645518943336836 
1661	 0.644564603202553 
1662	 0.643511315441473 
1663	 0.642377385804554 
1664	 0.641180148097264 
1665	 0.639897732647987 
1666	 0.638529943248542 
1667	 0.637113508215473 
1668	 0.635605724264666 
1669	 0.634019855179026 
1670	 0.632308129373814 
1671	 0.630494568008701 
1672	 0.628570531316587 
1673	 0.62653847076386 
1674	 0.624362008007965 
1675	 0.622062632433532 
1676	 0.61970635953395 
1677	 0.617222719227253 
1678	 0.614651057716468 
1679	 0.611988888572673 
1680	 0.609237321874538 
1681	 0.60636088283716 
1682	 0.603415380766012 
1683	 0.600406206119309 
1684	 0.597361651736349 
1685	 0.594203360998854 
1686	 0.591054476433994 
1687	 0.587842376012669 
1688	 0.584640409312826 
1689	 0.581422259765678 
1690	 0.578190925195064 
1691	 0.57497255322911 
1692	 0.571792778969373 
1693	 0.568635928449759 
1694	 0.565407842179551 
1695	 0.562166783628341 
1696	 0.558875756584437 
1697	 0.555515519424757 
1698	 0.552109850562171 
1699	 0.548696568939137 
1700	 0.545308368975245 
1701	 0.541820992655355 
1702	 0.538484136469285 
1703	 0.535139276089305 
1704	 0.532006808021324 
1705	 0.528975101809567 
1706	 0.526035400259471 
1707	 0.523454647944193 
1708	 0.520905666359542 
1709	 0.518473671439911 
1710	 0.516234736595992 
1711	 0.513913018860654 
1712	 0.511713775365624 
1713	 0.509556641395266 
1714	 0.507369578336545 
1715	 0.505385232232524 
1716	 0.503368157772521 
1717	 0.50139574722645 
1718	 0.499546983807808 
1719	 0.497677497378099 
1720	 0.495965339109675 
1721	 0.494405327611053 
1722	 0.492977660038849 
1723	 0.491860869202294 
1724	 0.491009664798956 
1725	 0.49047153010585 
1726	 0.49038440377385 
1727	 0.490684865048143 
1728	 0.491373629911425 
1729	 0.49252565893744 
1730	 0.494105278336358 
1731	 0.495960668616925 
1732	 0.498185851608605 
1733	 0.500540602233814 
1734	 0.502993000521949 
1735	 0.505564992251544 
1736	 0.507964586135223 
1737	 0.510263032671251 
1738	 0.512336039857802 
1739	 0.51405160625228 
1740	 0.515514477895198 
1741	 0.516694489559464 
1742	 0.517517847291631 
1743	 0.518186780024458 
1744	 0.518597039781532 
1745	 0.518844461468637 
1746	 0.518802180393075 
1747	 0.518754144213188 
1748	 0.518526272626033 
1749	 0.518335012951055 
1750	 0.518072454845923 
1751	 0.517882857890505 
1752	 0.51765748670517 
1753	 0.517542266264763 
1754	 0.517461501737244 
1755	 0.517545670913568 
1756	 0.517685538343022 
1757	 0.51801286324423 
1758	 0.518583860395044 
1759	 0.519335654838627 
1760	 0.520363786175245 
1761	 0.521692313995033 
1762	 0.523158130177551 
1763	 0.524886297593909 
1764	 0.526772404752079 
1765	 0.528814720340777 
1766	 0.53113832571935 
1767	 0.533477586570606 
1768	 0.53593166781995 
1769	 0.538466564771374 
1770	 0.540788280476824 
1771	 0.543092485810192 
1772	 0.545307455622389 
1773	 0.547325437370386 
1774	 0.549306577507385 
1775	 0.551076589002346 
1776	 0.552722231817554 
1777	 0.554265668357416 
1778	 0.555560881798495 
1779	 0.556792879742812 
1780	 0.557892905949536 
1781	 0.558815289128535 
1782	 0.5597199113237 
1783	 0.560529125060936 
1784	 0.561234506323148 
1785	 0.561780340840598 
1786	 0.562285526451447 
1787	 0.562692188996471 
1788	 0.563061507657747 
1789	 0.563379478295576 
1790	 0.563661189114459 
1791	 0.563867356589102 
1792	 0.564075535106949 
1793	 0.56424406490662 
1794	 0.564444240842299 
1795	 0.564641757195659 
1796	 0.564852820597171 
1797	 0.565076765729082 
1798	 0.565286010937597 
1799	 0.565513677338775 
1800	 0.565790682448663 
1801	 0.545798438433362 
1802	 0.546077485449723 
1803	 0.546358363832894 
1804	 0.546599383477295 
1805	 0.546877415990064 
1806	 0.547157240869979 
1807	 0.547472667123255 
1808	 0.547763028314803 
1809	 0.548044640585972 
1810	 0.548322207950305 
1811	 0.548591079297093 
1812	 0.548877066540066 
1813	 0.549152257595462 
1814	 0.549465875461184 
1815	 0.549756719675329 
1816	 0.550071555000969 
1817	 0.550409093642317 
1818	 0.550739782831964 
1819	 0.551108109206644 
1820	 0.5515274583889 
1821	 0.551938783982883 
1822	 0.552359248551369 
1823	 0.552808700926853 
1824	 0.553234310031735 
1825	 0.553665692180809 
1826	 0.55409861150797 
1827	 0.554529160864109 
1828	 0.554951444760543 
1829	 0.555402253483443 
1830	 0.555801049636653 
1831	 0.556156643263961 
1832	 0.556537842834543 
1833	 0.556890381085691 
1834	 0.557244921643771 
1835	 0.557649105864717 
1836	 0.558033936651569 
1837	 0.558433902804702 
1838	 0.558859141471346 
1839	 0.559253234404329 
1840	 0.559642388950992 
1841	 0.560031634118893 
1842	 0.560402426596987 
1843	 0.560786012183139 
1844	 0.561184663706393 
1845	 0.561551153337199 
1846	 0.561925165081584 
1847	 0.562255334654888 
1848	 0.562560763942915 
1849	 0.56285877277902 
1850	 0.563109362230807 
1851	 0.563314198041458 
1852	 0.563511148352457 
1853	 0.563683276653555 
1854	 0.563785141870454 
1855	 0.563904492981499 
1856	 0.563993288877546 
1857	 0.56404464656151 
1858	 0.564055816234805 
1859	 0.563994656109175 
1860	 0.563889544442022 
1861	 0.56370246698874 
1862	 0.563437973056828 
1863	 0.563133321702656 
1864	 0.562757809011382 
1865	 0.562306056027492 
1866	 0.561820147926456 
1867	 0.561229207926541 
1868	 0.560595823990621 
1869	 0.559902094364004 
1870	 0.559096127879423 
1871	 0.55821820313505 
1872	 0.557253923682378 
1873	 0.556202984559635 
1874	 0.555059153434728 
1875	 0.5538352991011 
1876	 0.552428111835789 
1877	 0.55095236564544 
1878	 0.549270694774353 
1879	 0.547378643117613 
1880	 0.545463825645257 
1881	 0.543328342125148 
1882	 0.540989156191385 
1883	 0.538529440559547 
1884	 0.535877464276681 
1885	 0.53282785875292 
1886	 0.529660595133868 
1887	 0.526169080364988 
1888	 0.522363101615135 
1889	 0.518678478557936 
1890	 0.514684695955156 
1891	 0.510625264012665 
1892	 0.506579863489274 
1893	 0.502348955545767 
1894	 0.497865747203732 
1895	 0.493535993380174 
1896	 0.489108178641715 
1897	 0.484635663519333 
1898	 0.480516747813054 
1899	 0.476311605986173 
1900	 0.472217700731864 
1901	 0.468288493817195 
1902	 0.464149023967061 
1903	 0.460246878092354 
1904	 0.456460179056053 
1905	 0.452727653434396 
1906	 0.449110972988951 
1907	 0.445939923890398 
1908	 0.44277792898062 
1909	 0.439781701571999 
1910	 0.437025839471769 
1911	 0.43418770506061 
1912	 0.431564332182327 
1913	 0.429045650642416 
1914	 0.426550907892238 
1915	 0.424268174063964 
1916	 0.422203333914829 
1917	 0.42013569692274 
1918	 0.418188637572416 
1919	 0.416429358258443 
1920	 0.414635605204418 
1921	 0.412995995780063 
1922	 0.411460860988394 
1923	 0.409983925123987 
1924	 0.408709293099332 
1925	 0.407503725916357 
1926	 0.406390847183864 
1927	 0.405411287157608 
1928	 0.404476533393337 
1929	 0.40359372764713 
1930	 0.40282793675943 
1931	 0.402148766220004 
1932	 0.401553972728028 
1933	 0.401115793967345 
1934	 0.400757677675513 
1935	 0.4004638195271 
1936	 0.400280040570838 
1937	 0.400178861770682 
1938	 0.400161764325458 
1939	 0.400219901951009 
1940	 0.400370078286508 
1941	 0.400604366685957 
1942	 0.400884669007453 
1943	 0.401238287728025 
1944	 0.401653706297755 
1945	 0.402128802030367 
1946	 0.402703306964513 
1947	 0.403300424173041 
1948	 0.403931302273616 
1949	 0.404632349125308 
1950	 0.405329035583966 
1951	 0.406035330662111 
1952	 0.4067683362211 
1953	 0.407539582288536 
1954	 0.408293810385234 
1955	 0.409094904490966 
1956	 0.409881886891607 
1957	 0.410673816634255 
1958	 0.411474089466431 
1959	 0.412201710186788 
1960	 0.412939666819552 
1961	 0.413661942041946 
1962	 0.414353086803517 
1963	 0.415054879161284 
1964	 0.415767128466259 
1965	 0.416442406190104 
1966	 0.417106072868026 
1967	 0.417769744013086 
1968	 0.418364024980873 
1969	 0.418968801675392 
1970	 0.419571906242108 
1971	 0.420158466294461 
1972	 0.420792620290651 
1973	 0.421426374274019 
1974	 0.422072496713752 
1975	 0.422755068534444 
1976	 0.423409976753669 
1977	 0.424055154522743 
1978	 0.424707528186672 
1979	 0.425355383369238 
1980	 0.425982875277729 
1981	 0.426662328832597 
1982	 0.427349703649456 
1983	 0.428042030687321 
1984	 0.428750948745938 
1985	 0.429422841117927 
1986	 0.430092806796686 
1987	 0.430765565316169 
1988	 0.431417843311074 
1989	 0.432103434028953 
1990	 0.432831900875823 
1991	 0.433512035160801 
1992	 0.43420054002532 
1993	 0.434867398751292 
1994	 0.435450623324092 
1995	 0.436026004055116 
1996	 0.436583251119502 
1997	 0.437113343490526 
1998	 0.437657207845874 
1999	 0.438206308111068 
2000	 0.438727524808184 
2001	 0.439262102099521 
2002	 0.439738638037783 
2003	 0.440188063072609 
2004	 0.440602206005458 
2005	 0.440961119205071 
2006	 0.441311537055262 
2007	 0.441648040750818 
2008	 0.441944141101291 
2009	 0.442202108599539 
2010	 0.442446909855228 
2011	 0.442649205860259 
2012	 0.442801062763746 
2013	 0.442911822283226 
2014	 0.443011569343293 
2015	 0.443011637843885 
2016	 0.442951866027536 
2017	 0.442817718936617 
2018	 0.442595275829605 
2019	 0.44232285853533 
2020	 0.441994246414712 
2021	 0.441590215503124 
2022	 0.441135555338188 
2023	 0.440604201500328 
2024	 0.439945467036806 
2025	 0.439227458483842 
2026	 0.438431617957082 
2027	 0.43749835617201 
2028	 0.436592551594702 
2029	 0.435646418943769 
2030	 0.434658706565325 
2031	 0.433663122678127 
2032	 0.432597917002522 
2033	 0.431424588655417 
2034	 0.430301172459561 
2035	 0.429151463855433 
2036	 0.427974662650174 
2037	 0.426902230781966 
2038	 0.425827194530086 
2039	 0.424788073993708 
2040	 0.423785100221526 
2041	 0.422811521777872 
2042	 0.421845636280548 
2043	 0.42095543320097 
2044	 0.420082554779066 
2045	 0.41930426305008 
2046	 0.418600590094127 
2047	 0.417957148659103 
2048	 0.417386823026918 
2049	 0.416888317084439 
2050	 0.416452672483049 
2051	 0.416076079498143 
2052	 0.415796934144865 
2053	 0.415613608162744 
2054	 0.415544872899885 
2055	 0.41558259676262 
2056	 0.415718371698097 
2057	 0.415960872409819 
2058	 0.416314201208585 
2059	 0.416773724840252 
2060	 0.417330263197799 
2061	 0.41806313882225 
2062	 0.418777926447688 
2063	 0.419555225580378 
2064	 0.420386189056647 
2065	 0.42127284456529 
2066	 0.422157125966946 
2067	 0.42315485147862 
2068	 0.424170325510715 
2069	 0.425153578285897 
2070	 0.426168511458374 
2071	 0.427121383880474 
2072	 0.428049337619633 
2073	 0.428945101070869 
2074	 0.429822953026724 
2075	 0.43064036849865 
2076	 0.431412717935193 
2077	 0.432146677495528 
2078	 0.432840591704956 
2079	 0.433484768533315 
2080	 0.434091145647313 
2081	 0.434650062118912 
2082	 0.435154831822727 
2083	 0.435598507324025 
2084	 0.436043677370555 
2085	 0.436448480467705 
2086	 0.436787395611032 
2087	 0.437086915253236 
2088	 0.437333464350901 
2089	 0.43750122087975 
2090	 0.437652755998768 
2091	 0.437771798799977 
2092	 0.437853585072188 
2093	 0.437893195808563 
2094	 0.43789775614105 
2095	 0.437866917009279 
2096	 0.43779800888267 
2097	 0.437686287223571 
2098	 0.437540487828749 
2099	 0.437362998077547 
2100	 0.437173158690088 
2101	 0.436942033828029 
2102	 0.436685766261344 
2103	 0.436386302108119 
2104	 0.436028648904152 
2105	 0.435683963623548 
2106	 0.435331137938849 
2107	 0.434925613979012 
2108	 0.43452994997191 
2109	 0.434045435343168 
2110	 0.433465216099285 
2111	 0.432892832707799 
2112	 0.432255503225334 
2113	 0.431632735437698 
2114	 0.431022899253024 
2115	 0.430372098419789 
2116	 0.429698984132035 
2117	 0.429022123259666 
2118	 0.428296808706151 
2119	 0.427524455896378 
2120	 0.426766364449481 
2121	 0.425965430386284 
2122	 0.425209266655439 
2123	 0.424468668434183 
2124	 0.423722358427711 
2125	 0.423018612428428 
2126	 0.422254882942282 
2127	 0.421456650513286 
2128	 0.42066673812465 
2129	 0.419833547038663 
2130	 0.419025552634175 
2131	 0.418258084509936 
2132	 0.41744525461412 
2133	 0.416619177106182 
2134	 0.415792017878886 
2135	 0.414873895771872 
2136	 0.413979898892622 
2137	 0.413058880094413 
2138	 0.412085997502562 
2139	 0.411165946533748 
2140	 0.410255574827909 
2141	 0.409353737629628 
2142	 0.408482158675399 
2143	 0.40759761423827 
2144	 0.406709816997241 
2145	 0.405831409617309 
2146	 0.404922607204373 
2147	 0.404078415367304 
2148	 0.403283933015761 
2149	 0.402476696026446 
2150	 0.401732029192345 
2151	 0.400943916301036 
2152	 0.400106477101157 
2153	 0.399306185882229 
2154	 0.39850352559389 
2155	 0.39765736448671 
2156	 0.396849628157429 
2157	 0.396047381149097 
2158	 0.395256761800133 
2159	 0.394489014497054 
2160	 0.393707413822497 
2161	 0.392917066019423 
2162	 0.392159896101379 
2163	 0.391377753516194 
2164	 0.390676020752527 
2165	 0.390024444754689 
2166	 0.389401205165354 
2167	 0.38881431108596 
2168	 0.388279670149086 
2169	 0.387767373126157 
2170	 0.387331613207471 
2171	 0.386969442282561 
2172	 0.386647875377658 
2173	 0.386397760139366 
2174	 0.386166863242874 
2175	 0.385987596413371 
2176	 0.385854803794352 
2177	 0.385760435388076 
2178	 0.385709306314922 
2179	 0.385704717078212 
2180	 0.385767538392784 
2181	 0.385806715510397 
2182	 0.385869744891732 
2183	 0.385958714607509 
2184	 0.386049391345542 
2185	 0.386167689614724 
2186	 0.386328380058879 
2187	 0.386499692729674 
2188	 0.386709715923938 
2189	 0.386882116558263 
2190	 0.387077780856246 
2191	 0.387238944165873 
2192	 0.387339815739059 
2193	 0.387464724124035 
2194	 0.387619988876151 
2195	 0.387727417551646 
2196	 0.387807236916938 
2197	 0.387895189446259 
2198	 0.387923838489315 
2199	 0.387933844942416 
2200	 0.387944862742286 
2201	 0.387951969575485 
2202	 0.387922438285732 
2203	 0.387875788786241 
2204	 0.387808731846014 
2205	 0.387703152121958 
2206	 0.387604217497192 
2207	 0.387485551111069 
2208	 0.387389286877911 
2209	 0.387304081621858 
2210	 0.387195601179067 
2211	 0.387093760867316 
2212	 0.38697182581439 
2213	 0.386817045283702 
2214	 0.386676535688108 
2215	 0.386544595689668 
2216	 0.386398669365888 
2217	 0.386285727496305 
2218	 0.38609167223676 
2219	 0.385888770442242 
2220	 0.385603802433346 
2221	 0.385239248493207 
2222	 0.384821041830724 
2223	 0.384398194728378 
2224	 0.38384441554334 
2225	 0.383194660104559 
2226	 0.382467873058919 
2227	 0.381567764563369 
2228	 0.380509057581587 
2229	 0.379363472746936 
2230	 0.378074902043985 
2231	 0.376703238994066 
2232	 0.375241702265037 
2233	 0.373623733440102 
2234	 0.371931390864974 
2235	 0.370009328552586 
2236	 0.367880558853163 
2237	 0.36565780682612 
2238	 0.363169402145018 
2239	 0.360734385565251 
2240	 0.35827481381925 
2241	 0.355677067283267 
2242	 0.353099373287559 
2243	 0.350275433588996 
2244	 0.347180985000253 
2245	 0.34410893153493 
2246	 0.34082149767868 
2247	 0.337604673899698 
2248	 0.334425768525588 
2249	 0.331185602409692 
2250	 0.327912311069876 
2251	 0.324676169804078 
2252	 0.321194770862684 
2253	 0.317826078366848 
2254	 0.314424712771694 
2255	 0.310969396651792 
2256	 0.307832060909689 
2257	 0.304671396698939 
2258	 0.301593098619659 
2259	 0.2986594073147 
2260	 0.295654631309861 
2261	 0.292626020529467 
2262	 0.289718513891492 
2263	 0.286771814302826 
2264	 0.284046097275844 
2265	 0.281489199906001 
2266	 0.27894867017878 
2267	 0.27658848111577 
2268	 0.274163976425737 
2269	 0.27172171812349 
2270	 0.269393178331094 
2271	 0.267043285320833 
2272	 0.26486625150628 
2273	 0.262894487309881 
2274	 0.260849513676415 
2275	 0.258952199408752 
2276	 0.256932637079444 
2277	 0.254838664393428 
2278	 0.252750329991766 
2279	 0.250578408131679 
2280	 0.248451839313464 
2281	 0.246372753787955 
2282	 0.244224400425378 
2283	 0.24209190130459 
2284	 0.239925859803661 
2285	 0.237529946972599 
2286	 0.235169912982879 
2287	 0.232664456394367 
2288	 0.230058165606106 
2289	 0.227612124634648 
2290	 0.225035028413311 
2291	 0.222448881653441 
2292	 0.219896889172998 
2293	 0.21714009173071 
2294	 0.214441072989497 
2295	 0.211799071457923 
2296	 0.209180625687628 
2297	 0.20684087390035 
2298	 0.204655237991444 
2299	 0.202696346421184 
2300	 0.200946325353774 
2301	 0.199451323422785 
2302	 0.198113648476561 
2303	 0.197223522524744 
2304	 0.196617404405321 
2305	 0.196444458979481 
2306	 0.196680736514879 
2307	 0.197317775457348 
2308	 0.198338411605429 
2309	 0.199835174020743 
2310	 0.201921549263508 
2311	 0.204168536896455 
2312	 0.207021747284117 
2313	 0.209723526846926 
2314	 0.212687981808067 
2315	 0.215486334284433 
2316	 0.21835981889048 
2317	 0.220973672601827 
2318	 0.223575643067957 
2319	 0.225772982373611 
2320	 0.227783783902352 
2321	 0.229388271005868 
2322	 0.230558931479395 
2323	 0.23152573730617 
2324	 0.232090389086098 
2325	 0.232500644288271 
2326	 0.232712794233656 
2327	 0.232649388949571 
2328	 0.232274574018832 
2329	 0.231745149833093 
2330	 0.230971803603412 
2331	 0.22995814950538 
2332	 0.228835733163527 
2333	 0.227490392504101 
2334	 0.225810318035953 
2335	 0.224015288083711 
2336	 0.222022947365451 
2337	 0.219863012298121 
2338	 0.217745291466641 
2339	 0.215469512687029 
2340	 0.213253835352095 
2341	 0.211173858484946 
2342	 0.209126809468923 
2343	 0.207415714746368 
2344	 0.205996376930017 
2345	 0.204880836904317 
2346	 0.204277910729699 
2347	 0.204150068158823 
2348	 0.204460844261248 
2349	 0.205424211194838 
2350	 0.206848104472993 
2351	 0.208672079784599 
2352	 0.210830559983429 
2353	 0.21307651399665 
2354	 0.215196754685425 
2355	 0.217338776162359 
2356	 0.219368649402122 
2357	 0.221056585352281 
2358	 0.222708432034656 
2359	 0.224044417430645 
2360	 0.224972573727363 
2361	 0.225691198525623 
2362	 0.226196422354202 
2363	 0.22652652231891 
2364	 0.226830260089744 
2365	 0.227093744340266 
2366	 0.2272325396378 
2367	 0.22731675359422 
2368	 0.227372596969734 
2369	 0.227421459911027 
2370	 0.227522234860657 
2371	 0.227644627912638 
2372	 0.227726271852404 
2373	 0.227798843624472 
2374	 0.227882430714311 
2375	 0.227932859870791 
2376	 0.227956469489977 
2377	 0.228039851692603 
2378	 0.228134679910094 
2379	 0.228260967099961 
2380	 0.228380050504306 
2381	 0.228424654568002 
2382	 0.228511229287939 
2383	 0.228516709437347 
2384	 0.228635257438279 
2385	 0.228902141366688 
2386	 0.229068687132841 
2387	 0.229229627792979 
2388	 0.229358797777041 
2389	 0.229408054900684 
2390	 0.229519012385768 
2391	 0.229668672201586 
2392	 0.229792227691812 
2393	 0.22992560228354 
2394	 0.230018652659888 
2395	 0.230061273623269 
2396	 0.230137259550648 
2397	 0.230210208420587 
2398	 0.230316780038696 
2399	 0.230454455616556 
2400	 0.230562666187942 
2401	 0.230692133106692 
2402	 0.230745793457101 
2403	 0.230831701049094 
2404	 0.231072136574489 
2405	 0.231247254486425 
2406	 0.231398552091126 
2407	 0.231595014980787 
2408	 0.23162936913314 
2409	 0.231648985358512 
2410	 0.231747351724773 
2411	 0.231740335167271 
2412	 0.231784515666375 
2413	 0.231884931877817 
2414	 0.231925131025674 
2415	 0.231932707672222 
2416	 0.231878542584128 
2417	 0.231826407353388 
2418	 0.231799766414458 
2419	 0.231803994482121 
2420	 0.231848754676822 
2421	 0.23178354400964 
2422	 0.23162987138194 
2423	 0.231596908870551 
2424	 0.231568074116134 
2425	 0.231498876530882 
2426	 0.231548985490074 
2427	 0.231515961441653 
2428	 0.231362354473818 
2429	 0.231369728060652 
2430	 0.231335541181808 
2431	 0.231104583531865 
2432	 0.230972394859633 
2433	 0.230791712930888 
2434	 0.230428419388527 
2435	 0.230213025214938 
2436	 0.230076169909801 
2437	 0.229773813751747 
2438	 0.229490862044571 
2439	 0.229242495580738 
2440	 0.228809089929784 
2441	 0.228311382895744 
2442	 0.22789753632005 
2443	 0.227442260700606 
2444	 0.226984666606723 
2445	 0.22661245262083 
2446	 0.226134681292519 
2447	 0.225597111534603 
2448	 0.224974713767264 
2449	 0.224276282982686 
2450	 0.223638093753148 
2451	 0.223019751829842 
2452	 0.222505145297986 
2453	 0.221913954706001 
2454	 0.22139592744073 
2455	 0.221031691226133 
2456	 0.220460587602983 
2457	 0.21987651825815 
2458	 0.219340806395065 
2459	 0.218700987226185 
2460	 0.218265597291815 
2461	 0.218114937907978 
2462	 0.217860228326296 
2463	 0.217428495574772 
2464	 0.216984373271031 
2465	 0.216445559020137 
2466	 0.215969950265532 
2467	 0.215704819434267 
2468	 0.215350105931519 
2469	 0.215140046880984 
2470	 0.21515980033541 
2471	 0.215015725287289 
2472	 0.214913694855546 
2473	 0.214860104602021 
2474	 0.214757929803987 
2475	 0.214782808221792 
2476	 0.214881771522642 
2477	 0.215022483230701 
2478	 0.214940994850113 
2479	 0.214764940635394 
2480	 0.214696865085261 
2481	 0.214662370882607 
2482	 0.214778254330901 
2483	 0.215043588871195 
2484	 0.215184639062508 
2485	 0.215505672378307 
2486	 0.215740146743777 
2487	 0.215765073753881 
2488	 0.2158235204029 
2489	 0.21580517940084 
2490	 0.21597424378407 
2491	 0.216248903725751 
2492	 0.216493354155516 
2493	 0.216971052181693 
2494	 0.217211749008686 
2495	 0.217297167477615 
2496	 0.21735143390528 
2497	 0.217326469295396 
2498	 0.217609392898681 
2499	 0.217916868579084 
2500	 0.218255681295869 
