Wavelength	spectrum00011.asd
350	 0.057634926817545 
351	 5.72594562269867E-02 
352	 5.49751991496658E-02 
353	 5.27447433125063E-02 
354	 5.29573431654054E-02 
355	 5.19949922229469E-02 
356	 5.05968833125868E-02 
357	 4.95714597276924E-02 
358	 4.66054774495103E-02 
359	 4.47535894262733E-02 
360	 4.49887121797712E-02 
361	 4.66128126369838E-02 
362	 4.60356928048161E-02 
363	 4.46881340947501E-02 
364	 4.40045508599518E-02 
365	 4.46904360355975E-02 
366	 0.045534925453343 
367	 4.52566113842868E-02 
368	 0.043706738612014 
369	 4.42149143344548E-02 
370	 4.45438163573555E-02 
371	 4.42688299100194E-02 
372	 4.40153697012561E-02 
373	 4.35083486132608E-02 
374	 4.30871388281801E-02 
375	 4.30464544130418E-02 
376	 4.35479920046845E-02 
377	 4.39212172108329E-02 
378	 4.33530581412636E-02 
379	 4.19136093717252E-02 
380	 4.26188417148164E-02 
381	 4.33403893950771E-02 
382	 4.31778651687531E-02 
383	 4.22933413229186E-02 
384	 0.042535331880501 
385	 4.28281092920213E-02 
386	 4.24893204109236E-02 
387	 4.19476732119627E-02 
388	 0.041659671852638 
389	 4.17407243487758E-02 
390	 4.19190470940614E-02 
391	 4.08461775515938E-02 
392	 4.11505252235668E-02 
393	 4.22016980163864E-02 
394	 4.14907822623247E-02 
395	 4.14574553405784E-02 
396	 4.15221813891958E-02 
397	 4.12123433485285E-02 
398	 4.08487707023349E-02 
399	 4.06908919851856E-02 
400	 4.07053231892837E-02 
401	 4.07682864523584E-02 
402	 4.08791418939582E-02 
403	 4.08786810891663E-02 
404	 4.05977337169102E-02 
405	 3.99540538898366E-02 
406	 4.00813194354951E-02 
407	 4.03031054578632E-02 
408	 4.01716315769876E-02 
409	 0.040231067077682 
410	 3.99892537259052E-02 
411	 3.97422856185458E-02 
412	 3.98621014640781E-02 
413	 3.97473767772676E-02 
414	 3.97256776289394E-02 
415	 3.98754294492112E-02 
416	 4.00065998958781E-02 
417	 3.99050850023831E-02 
418	 3.99350319087836E-02 
419	 4.02102432148984E-02 
420	 4.00243582713526E-02 
421	 0.039737386174333 
422	 3.96766871615701E-02 
423	 4.00244511721467E-02 
424	 4.01779599036994E-02 
425	 4.01502331568716E-02 
426	 4.01329922498322E-02 
427	 4.04473519353965E-02 
428	 4.04566873761639E-02 
429	 0.040352232142013 
430	 4.04284674192816E-02 
431	 4.07141258993609E-02 
432	 4.09043950660354E-02 
433	 4.09715753200631E-02 
434	 4.10700055320087E-02 
435	 4.14118047318463E-02 
436	 4.16622298800012E-02 
437	 4.17085020465825E-02 
438	 4.18732768372419E-02 
439	 4.20325503507325E-02 
440	 4.21690549341101E-02 
441	 4.23066629901389E-02 
442	 4.25306840254171E-02 
443	 4.27495040265613E-02 
444	 4.29012523070087E-02 
445	 4.29618245742113E-02 
446	 4.29864634173295E-02 
447	 4.30683484307348E-02 
448	 0.043232524302052 
449	 4.33461080150134E-02 
450	 4.35127513882173E-02 
451	 0.043670377593226 
452	 4.37174382059855E-02 
453	 4.37133160382019E-02 
454	 4.37485083925652E-02 
455	 4.38086090291341E-02 
456	 4.37660032973346E-02 
457	 4.38076915108273E-02 
458	 0.043800277081671 
459	 4.36904753934035E-02 
460	 4.39095120411902E-02 
461	 4.39289347115019E-02 
462	 4.37691437162778E-02 
463	 4.37518222823727E-02 
464	 4.38620928909836E-02 
465	 4.39756850795963E-02 
466	 4.40122131535854E-02 
467	 4.39812104463474E-02 
468	 4.39322221854665E-02 
469	 4.39205385949931E-02 
470	 4.39872302114971E-02 
471	 0.044147356633699 
472	 4.41417998806972E-02 
473	 4.40513072217835E-02 
474	 4.42016788854621E-02 
475	 4.42044899296558E-02 
476	 4.42391431716564E-02 
477	 4.44181855121444E-02 
478	 4.45243482167215E-02 
479	 4.44351724197714E-02 
480	 4.43857621641577E-02 
481	 4.46488402092509E-02 
482	 4.47288187520523E-02 
483	 4.47759917896389E-02 
484	 4.48811366627461E-02 
485	 0.045011552226105 
486	 4.52742335651568E-02 
487	 4.54319248713386E-02 
488	 4.53732029245768E-02 
489	 4.56197894562031E-02 
490	 4.58315481792812E-02 
491	 4.59791470741536E-02 
492	 4.62028538791543E-02 
493	 4.63576805955802E-02 
494	 4.65371815342244E-02 
495	 4.67951938739862E-02 
496	 4.70810442077583E-02 
497	 4.72877704473237E-02 
498	 4.74934340206785E-02 
499	 4.77951864615022E-02 
500	 4.80913694535776E-02 
501	 4.83166486327546E-02 
502	 4.85181529600189E-02 
503	 4.88302166142175E-02 
504	 4.91274632941313E-02 
505	 4.94131720399129E-02 
506	 4.97111006192775E-02 
507	 5.00388466812481E-02 
508	 5.03581596180193E-02 
509	 5.06742073788124E-02 
510	 5.10091148258497E-02 
511	 5.13514539754847E-02 
512	 5.17097420915943E-02 
513	 5.20835064173348E-02 
514	 5.24610754599347E-02 
515	 5.27847983622724E-02 
516	 5.31371677047368E-02 
517	 5.35824355120212E-02 
518	 5.39865971241916E-02 
519	 5.44115161319726E-02 
520	 5.48750737017126E-02 
521	 5.53570626731595E-02 
522	 5.57915073907848E-02 
523	 5.62526976996211E-02 
524	 5.67747826843863E-02 
525	 5.72726402672934E-02 
526	 5.77950884985363E-02 
527	 5.83575861861064E-02 
528	 5.89540395935089E-02 
529	 5.95290740225073E-02 
530	 0.06008416124167 
531	 6.06634542169553E-02 
532	 6.13463692247126E-02 
533	 6.20137393083196E-02 
534	 6.27102253929575E-02 
535	 6.34685300009323E-02 
536	 6.41808028976074E-02 
537	 0.06492256525246 
538	 6.57015502841662E-02 
539	 6.64952161280653E-02 
540	 6.73747293092841E-02 
541	 6.82865114142714E-02 
542	 0.069195278243849 
543	 7.01167460059129E-02 
544	 7.10826533450492E-02 
545	 7.20611399404991E-02 
546	 7.30249534474057E-02 
547	 0.074060685535513 
548	 7.51576005146102E-02 
549	 7.62886999549379E-02 
550	 7.74190803190082E-02 
551	 7.86095656310318E-02 
552	 7.98499432195198E-02 
553	 8.11324523388097E-02 
554	 8.24917939467947E-02 
555	 8.38674388514835E-02 
556	 8.52770025336194E-02 
557	 8.67697903945949E-02 
558	 8.83308457072432E-02 
559	 8.99453260411238E-02 
560	 9.16009635841398E-02 
561	 0.093294122990103 
562	 9.49404141961123E-02 
563	 9.66147171123483E-02 
564	 9.83876718489569E-02 
565	 0.100132675228834 
566	 0.101928509500253 
567	 0.103779158978429 
568	 0.10563848135852 
569	 0.107620264463775 
570	 0.109622109647742 
571	 0.111568485183639 
572	 0.113497966456829 
573	 0.115501878919429 
574	 0.117533650072062 
575	 0.119511880411755 
576	 0.121518246438662 
577	 0.123512736089206 
578	 0.125488164720547 
579	 0.127479685327108 
580	 0.129528909289077 
581	 0.131612362446818 
582	 0.133702485398862 
583	 0.13580654902977 
584	 0.137945986442158 
585	 0.140094678902523 
586	 0.14220672999742 
587	 0.14430512125919 
588	 0.146411404555155 
589	 0.14851289735934 
590	 0.150542209583057 
591	 0.152563960200528 
592	 0.154557875800766 
593	 0.156477543057223 
594	 0.158299413243569 
595	 0.160029259939582 
596	 0.161709054020443 
597	 0.16339999815444 
598	 0.165065329869865 
599	 0.166730343114434 
600	 0.168404944664785 
601	 0.170021326356996 
602	 0.171650832692346 
603	 0.173269768579521 
604	 0.174812125751849 
605	 0.176258088530283 
606	 0.177667634425884 
607	 0.179071509256766 
608	 0.180450836193751 
609	 0.181741338874345 
610	 0.182981403828457 
611	 0.184220982266911 
612	 0.185451258374352 
613	 0.186594990792705 
614	 0.187658696486198 
615	 0.188706781135998 
616	 0.189743557492226 
617	 0.190770621046601 
618	 0.191778432251019 
619	 0.192742835832435 
620	 0.193703828614756 
621	 0.194637293790723 
622	 0.19551816256514 
623	 0.196419671940232 
624	 0.197329536119109 
625	 0.198200760477693 
626	 0.198969466674189 
627	 0.199784118648288 
628	 0.200620655167124 
629	 0.201441849110958 
630	 0.202268632805294 
631	 0.203053316802888 
632	 0.20382640224971 
633	 0.204636009976851 
634	 0.205383351412717 
635	 0.206163723310364 
636	 0.206991374778457 
637	 0.207757363935209 
638	 0.208466535456021 
639	 0.209216146175247 
640	 0.210056816118283 
641	 0.21081184874233 
642	 0.211527389539072 
643	 0.212264194780159 
644	 0.213078463633777 
645	 0.213874336193836 
646	 0.214658328285034 
647	 0.215441463788353 
648	 0.21621995474568 
649	 0.217020059179941 
650	 0.217832337084435 
651	 0.2186360085294 
652	 0.219412173397704 
653	 0.220225984736538 
654	 0.221088453773322 
655	 0.221962255933137 
656	 0.222838629082411 
657	 0.223729968626127 
658	 0.224637363928108 
659	 0.225532534475002 
660	 0.226402526579572 
661	 0.227288729126525 
662	 0.2282332220546 
663	 0.229159550303402 
664	 0.230097730768628 
665	 0.231054602925704 
666	 0.232008354035012 
667	 0.233030527854561 
668	 0.234055025322717 
669	 0.235033950574257 
670	 0.236032350196607 
671	 0.237106691494282 
672	 0.238204924470002 
673	 0.239247537863522 
674	 0.240354998386197 
675	 0.241425479173694 
676	 0.242466835101839 
677	 0.243637601615196 
678	 0.244774301593645 
679	 0.245896321139679 
680	 0.247051190224765 
681	 0.248238262502633 
682	 0.249416933195898 
683	 0.250598123117167 
684	 0.25181547248513 
685	 0.253027568672823 
686	 0.25423995232218 
687	 0.25547931778164 
688	 0.256798014497012 
689	 0.258096247239552 
690	 0.259375314543098 
691	 0.260661770328944 
692	 0.261949147927497 
693	 0.263311473410775 
694	 0.264706160456657 
695	 0.266027182915438 
696	 0.267352265720858 
697	 0.268742423509106 
698	 0.270184328213641 
699	 0.271552077604022 
700	 0.272936752661822 
701	 0.274348703552925 
702	 0.275781900791027 
703	 0.277252701810613 
704	 0.278739915643857 
705	 0.280199722637987 
706	 0.281592027225878 
707	 0.283057398670644 
708	 0.284578605519204 
709	 0.286096688079185 
710	 0.28752147278938 
711	 0.288954302840046 
712	 0.290443742889467 
713	 0.291992366868134 
714	 0.293503008337892 
715	 0.294983382467521 
716	 0.296459540913476 
717	 0.297962385797404 
718	 0.299477601069295 
719	 0.300949078481314 
720	 0.302371927126777 
721	 0.303830345163133 
722	 0.305282876835931 
723	 0.30672947281655 
724	 0.308179086095405 
725	 0.309640084169787 
726	 0.31105170472967 
727	 0.31244374981958 
728	 0.313893895994256 
729	 0.31523814856341 
730	 0.316519929278638 
731	 0.317814714766717 
732	 0.319206443026106 
733	 0.320451856072106 
734	 0.321657047753556 
735	 0.322954203810799 
736	 0.324141549194221 
737	 0.325357595892507 
738	 0.326559711621947 
739	 0.327609292173182 
740	 0.328701421234366 
741	 0.329820016386793 
742	 0.330905631651995 
743	 0.331878773178198 
744	 0.33285024699931 
745	 0.333829744457284 
746	 0.334797169091052 
747	 0.335744060273121 
748	 0.336596496808959 
749	 0.337364158260265 
750	 0.338110565838934 
751	 0.338880675023068 
752	 0.339638535293988 
753	 0.340347794872877 
754	 0.340985865560515 
755	 0.341568415851665 
756	 0.34217691159448 
757	 0.342825370267386 
758	 0.343290214053699 
759	 0.343744842622306 
760	 0.344206682533415 
761	 0.344620148392889 
762	 0.344968610567201 
763	 0.34534463934117 
764	 0.345729630749356 
765	 0.345988134434833 
766	 0.346224005753203 
767	 0.346442798278173 
768	 0.346646094628048 
769	 0.346880485258056 
770	 0.347017521169526 
771	 0.3470472665108 
772	 0.347028335703512 
773	 0.347087278775683 
774	 0.347172243103778 
775	 0.347196942956031 
776	 0.347079035252817 
777	 0.347014261570525 
778	 0.346955801248593 
779	 0.346860039002013 
780	 0.346756028415341 
781	 0.346537466760142 
782	 0.346254108033934 
783	 0.34599832893817 
784	 0.3458351918276 
785	 0.345687627815191 
786	 0.345457744931524 
787	 0.345075728138933 
788	 0.344725875916022 
789	 0.344392825372354 
790	 0.344056672038204 
791	 0.343715496643711 
792	 0.343366266447993 
793	 0.342958431642583 
794	 0.342485687717538 
795	 0.342064677955308 
796	 0.341661381900071 
797	 0.341276329738712 
798	 0.34088614342812 
799	 0.340309170679217 
800	 0.339763546557549 
801	 0.339296546186534 
802	 0.338812967669061 
803	 0.338351791224895 
804	 0.337869578635273 
805	 0.337351481259109 
806	 0.33683822103704 
807	 0.336286396867197 
808	 0.335740365482043 
809	 0.335230487317992 
810	 0.334677118279071 
811	 0.334179433254036 
812	 0.333659476446781 
813	 0.333008784614548 
814	 0.332420243550483 
815	 0.331875313095694 
816	 0.331345878692002 
817	 0.33080622637934 
818	 0.33022749021252 
819	 0.329650744446628 
820	 0.329087154815713 
821	 0.328480662204632 
822	 0.327868461645203 
823	 0.327297083975483 
824	 0.326789295944807 
825	 0.326305093602091 
826	 0.325710045463511 
827	 0.325087725827454 
828	 0.324582270089437 
829	 0.324032050513111 
830	 0.32349147714276 
831	 0.322950955303377 
832	 0.322353990889622 
833	 0.32188263604661 
834	 0.321428386808114 
835	 0.320905198110743 
836	 0.320330622107756 
837	 0.319844187277669 
838	 0.31935025987315 
839	 0.318785654955865 
840	 0.318358169983984 
841	 0.317892198208239 
842	 0.317426874330478 
843	 0.317035039852476 
844	 0.316505524384216 
845	 0.316004703802738 
846	 0.315594284789282 
847	 0.315230158908577 
848	 0.314802465305505 
849	 0.314328234180538 
850	 0.31385906845653 
851	 0.313461656082829 
852	 0.313045696486641 
853	 0.312639137138211 
854	 0.312274090799036 
855	 0.311943365475202 
856	 0.311566438220073 
857	 0.311180848325603 
858	 0.310843726691478 
859	 0.310531940216185 
860	 0.310186398176384 
861	 0.309832741068588 
862	 0.309535503040365 
863	 0.309294163260512 
864	 0.309038081748325 
865	 0.308759345482261 
866	 0.308503694156861 
867	 0.308232388149076 
868	 0.307956165562781 
869	 0.30770514021628 
870	 0.307521852444045 
871	 0.30733134253995 
872	 0.307154876151147 
873	 0.307000283821519 
874	 0.306797812918828 
875	 0.306596092634527 
876	 0.306410136838129 
877	 0.306249660651491 
878	 0.306146208804281 
879	 0.306058224001953 
880	 0.305931759032053 
881	 0.30574667939272 
882	 0.305678300751418 
883	 0.305569711599151 
884	 0.305441780337195 
885	 0.305436229300533 
886	 0.305388141104087 
887	 0.305315574410822 
888	 0.305280466548147 
889	 0.30535246984977 
890	 0.305310233913181 
891	 0.305236868572451 
892	 0.305215801251594 
893	 0.305229058844178 
894	 0.305251500620921 
895	 0.305286390809921 
896	 0.305336323115273 
897	 0.305380004951807 
898	 0.305443409030063 
899	 0.30550038041483 
900	 0.305540185637739 
901	 0.305677775027763 
902	 0.305806089469868 
903	 0.305938020304693 
904	 0.306111353059475 
905	 0.306139682783612 
906	 0.306225307684527 
907	 0.306420074295981 
908	 0.306634739369911 
909	 0.306743901951146 
910	 0.306891570089523 
911	 0.307113142762363 
912	 0.307310624842627 
913	 0.307506562285071 
914	 0.307762691711434 
915	 0.308060450014004 
916	 0.308273908884213 
917	 0.308506727322124 
918	 0.308778129927008 
919	 0.309074684887107 
920	 0.309358164692139 
921	 0.309605337769999 
922	 0.309877498721471 
923	 0.310210435164925 
924	 0.310515260960354 
925	 0.310883850868739 
926	 0.311252966839493 
927	 0.311576074762629 
928	 0.312040281608514 
929	 0.312459274130327 
930	 0.312827879686236 
931	 0.313211955077313 
932	 0.313613489115878 
933	 0.313985183952614 
934	 0.314392096966313 
935	 0.31491163533043 
936	 0.315334382921636 
937	 0.315855288779418 
938	 0.316407779489801 
939	 0.316789166279022 
940	 0.317264805555663 
941	 0.317794638325003 
942	 0.318338788839689 
943	 0.318881291330404 
944	 0.319418858692195 
945	 0.319884323732132 
946	 0.320336697717096 
947	 0.320938674559086 
948	 0.321455647612479 
949	 0.321904795723599 
950	 0.322357020217608 
951	 0.322889138861296 
952	 0.323407304501004 
953	 0.32396009298879 
954	 0.324549560052073 
955	 0.325080052715901 
956	 0.325596732929522 
957	 0.32613011243226 
958	 0.326723925847044 
959	 0.32743928513839 
960	 0.328016767149196 
961	 0.328510225890674 
962	 0.329037562478931 
963	 0.329672483202746 
964	 0.330233471770868 
965	 0.330806876547297 
966	 0.331456340053406 
967	 0.332032730997485 
968	 0.332635872992125 
969	 0.333277035564381 
970	 0.333938697003382 
971	 0.334602743664526 
972	 0.335206983967866 
973	 0.335794637280298 
974	 0.3364023713418 
975	 0.336942046421273 
976	 0.337567335368488 
977	 0.338279529733208 
978	 0.339009846568385 
979	 0.339655189162873 
980	 0.340304235987377 
981	 0.340977588156689 
982	 0.341663633048259 
983	 0.342325363121766 
984	 0.34305494000401 
985	 0.343769891346817 
986	 0.344404859304049 
987	 0.345162463978752 
988	 0.345907054271484 
989	 0.346628444535573 
990	 0.347351661144171 
991	 0.348062333010185 
992	 0.348705622046094 
993	 0.349388418436056 
994	 0.350196824612564 
995	 0.350951913955812 
996	 0.351673251266798 
997	 0.352344197958215 
998	 0.352986058369398 
999	 0.353761583990148 
1000	 0.354578434514416 
1001	 0.356815790153746 
1002	 0.357583782357297 
1003	 0.358371514852557 
1004	 0.359124024210168 
1005	 0.359854960580555 
1006	 0.360603771860078 
1007	 0.36133928437795 
1008	 0.362104060970066 
1009	 0.362894843950396 
1010	 0.3636623200394 
1011	 0.36441693435205 
1012	 0.365199997730636 
1013	 0.365984976996634 
1014	 0.366783773153878 
1015	 0.367615125366054 
1016	 0.368428316356869 
1017	 0.369240916293855 
1018	 0.370063479884202 
1019	 0.370913706489848 
1020	 0.371767500946871 
1021	 0.372586571474163 
1022	 0.373378734753569 
1023	 0.374189282712809 
1024	 0.374985344054095 
1025	 0.375806278700913 
1026	 0.37663832374108 
1027	 0.377493769914372 
1028	 0.378387614497147 
1029	 0.379239012495903 
1030	 0.380064112340382 
1031	 0.380949938215854 
1032	 0.381803629831721 
1033	 0.382637830987837 
1034	 0.383549170192918 
1035	 0.384437250117988 
1036	 0.38532765882399 
1037	 0.386259214241029 
1038	 0.387117264612388 
1039	 0.387919564604301 
1040	 0.388773203374407 
1041	 0.389571139092204 
1042	 0.390442605573762 
1043	 0.39139012766321 
1044	 0.392313503968078 
1045	 0.393232226441959 
1046	 0.394187816209002 
1047	 0.395081511550754 
1048	 0.396000292597418 
1049	 0.396917332262148 
1050	 0.397816453918167 
1051	 0.398779077480616 
1052	 0.399711608069248 
1053	 0.400669703089423 
1054	 0.401692519656343 
1055	 0.402658319715657 
1056	 0.403582754195698 
1057	 0.404545250823707 
1058	 0.405512850535678 
1059	 0.406423620938941 
1060	 0.407427024761538 
1061	 0.408454010159952 
1062	 0.409475817187216 
1063	 0.410522301356235 
1064	 0.411504803441967 
1065	 0.412489439475194 
1066	 0.413498740312504 
1067	 0.414507185616957 
1068	 0.415592889722166 
1069	 0.416668046674364 
1070	 0.41771219877854 
1071	 0.418734766009709 
1072	 0.419784706114875 
1073	 0.420792093615832 
1074	 0.421827384332227 
1075	 0.422874003936753 
1076	 0.423914310214078 
1077	 0.425013531950151 
1078	 0.426051743143031 
1079	 0.427135951463832 
1080	 0.42826565655632 
1081	 0.429298718093053 
1082	 0.430377916742662 
1083	 0.431462500370475 
1084	 0.43250855456307 
1085	 0.43364073942652 
1086	 0.434745194976629 
1087	 0.435848812602769 
1088	 0.436954079370621 
1089	 0.438056572020431 
1090	 0.439070373729581 
1091	 0.440137322122173 
1092	 0.44118955381265 
1093	 0.442224670291604 
1094	 0.443333230957378 
1095	 0.444390201435101 
1096	 0.445466153334526 
1097	 0.446591850974488 
1098	 0.447646537280363 
1099	 0.448707290962722 
1100	 0.449755065659238 
1101	 0.450759458001075 
1102	 0.451825550373999 
1103	 0.452885133823271 
1104	 0.453950975319837 
1105	 0.455031511420278 
1106	 0.45614071607898 
1107	 0.457177965269248 
1108	 0.458225313699474 
1109	 0.459267143404565 
1110	 0.460278669567123 
1111	 0.461357766292354 
1112	 0.462408502426705 
1113	 0.46346465080909 
1114	 0.464573864518427 
1115	 0.465597068738501 
1116	 0.46663007969013 
1117	 0.467680069171768 
1118	 0.468688492077016 
1119	 0.469657975391125 
1120	 0.470639310291743 
1121	 0.471605357719419 
1122	 0.472570395086598 
1123	 0.473572209489033 
1124	 0.474535179507708 
1125	 0.475505509908296 
1126	 0.476442456580018 
1127	 0.477337549352191 
1128	 0.478273172475927 
1129	 0.479164993498779 
1130	 0.480058503435937 
1131	 0.480988316981775 
1132	 0.481821621172272 
1133	 0.482643972426877 
1134	 0.48347191709102 
1135	 0.484279969518107 
1136	 0.485057084805866 
1137	 0.485831150537712 
1138	 0.486613670648808 
1139	 0.487371368721527 
1140	 0.488115759168282 
1141	 0.488793733940231 
1142	 0.48950567325822 
1143	 0.49016642416839 
1144	 0.490801973175839 
1145	 0.491483013729473 
1146	 0.492101704330687 
1147	 0.492727526184325 
1148	 0.493361440372395 
1149	 0.493927950104756 
1150	 0.494518632945866 
1151	 0.495095707679082 
1152	 0.495662177703873 
1153	 0.496221807287707 
1154	 0.496770175762425 
1155	 0.497319874912167 
1156	 0.497836074219818 
1157	 0.498319554647717 
1158	 0.498793968980892 
1159	 0.499255873960615 
1160	 0.499690781495904 
1161	 0.500110946058113 
1162	 0.500537794873729 
1163	 0.500941890664242 
1164	 0.501358485513843 
1165	 0.501778512256453 
1166	 0.502163929118411 
1167	 0.502526481700735 
1168	 0.502857070426864 
1169	 0.503187426197204 
1170	 0.503498181176795 
1171	 0.503811402534097 
1172	 0.504135254084547 
1173	 0.504425391733004 
1174	 0.504688990992209 
1175	 0.504946609720694 
1176	 0.505201187293025 
1177	 0.505421795452078 
1178	 0.505612287855409 
1179	 0.505809954646949 
1180	 0.506000136804123 
1181	 0.506159961736164 
1182	 0.506343605001343 
1183	 0.506531495754632 
1184	 0.506686205514313 
1185	 0.506844863245813 
1186	 0.50702690143062 
1187	 0.507211727254896 
1188	 0.507424228443023 
1189	 0.507667254722433 
1190	 0.507905983960388 
1191	 0.508149591596622 
1192	 0.508409002703108 
1193	 0.508675359918958 
1194	 0.508956236330523 
1195	 0.509252901756455 
1196	 0.509565821992951 
1197	 0.509880840914846 
1198	 0.51023283903901 
1199	 0.510614288133567 
1200	 0.51097451307524 
1201	 0.511353192609673 
1202	 0.511746762531494 
1203	 0.51216396603989 
1204	 0.512657023266887 
1205	 0.5131720393729 
1206	 0.513726080246058 
1207	 0.514334089090476 
1208	 0.514953778666048 
1209	 0.515670351703991 
1210	 0.516456091930034 
1211	 0.517310859276188 
1212	 0.5182552466135 
1213	 0.519242244418526 
1214	 0.520292432629401 
1215	 0.521395845817327 
1216	 0.522580685943411 
1217	 0.523757183709266 
1218	 0.524979249721901 
1219	 0.526213111758835 
1220	 0.52744860648682 
1221	 0.528766134103478 
1222	 0.530043993587499 
1223	 0.531326836709656 
1224	 0.532560426876579 
1225	 0.533753925866802 
1226	 0.534910241260561 
1227	 0.536051144863828 
1228	 0.537138414083571 
1229	 0.538188380895901 
1230	 0.539186262121244 
1231	 0.540139901613351 
1232	 0.541051189076209 
1233	 0.541898650798157 
1234	 0.542718092429534 
1235	 0.54348617153632 
1236	 0.54424789555502 
1237	 0.544996707046336 
1238	 0.545700488116701 
1239	 0.54637431032925 
1240	 0.547024874237099 
1241	 0.547639040102239 
1242	 0.548194873138237 
1243	 0.54876346591285 
1244	 0.549318468242652 
1245	 0.549860821959012 
1246	 0.55039702171782 
1247	 0.550905371406636 
1248	 0.551387766907017 
1249	 0.551875365568263 
1250	 0.552356093785498 
1251	 0.552803861171529 
1252	 0.553239723361062 
1253	 0.55366605485313 
1254	 0.554065145979369 
1255	 0.554453149915868 
1256	 0.554834754876921 
1257	 0.555209781542923 
1258	 0.555564345132837 
1259	 0.555910706953453 
1260	 0.556265702558296 
1261	 0.556596417043133 
1262	 0.556898389207441 
1263	 0.557194992018594 
1264	 0.557485758463358 
1265	 0.55775995689774 
1266	 0.558046584206857 
1267	 0.558340895737681 
1268	 0.558608306259573 
1269	 0.558870112245679 
1270	 0.55912156882351 
1271	 0.559361561858525 
1272	 0.559577380804719 
1273	 0.559774865841264 
1274	 0.559972735127596 
1275	 0.560137683035832 
1276	 0.560319046170919 
1277	 0.560517982939055 
1278	 0.56070078713261 
1279	 0.56086091908947 
1280	 0.561042244474806 
1281	 0.561235461385844 
1282	 0.561418779653403 
1283	 0.561617641130447 
1284	 0.561799142538729 
1285	 0.561969196429787 
1286	 0.562116166655087 
1287	 0.562286204665283 
1288	 0.562459074179548 
1289	 0.562626640903619 
1290	 0.562800413734223 
1291	 0.562967840352499 
1292	 0.563122675806941 
1293	 0.563288306745179 
1294	 0.563463434480459 
1295	 0.563629184875525 
1296	 0.563797436277393 
1297	 0.563953969508926 
1298	 0.56410279984552 
1299	 0.564247580184295 
1300	 0.564386647963306 
1301	 0.564518647865087 
1302	 0.56463725709124 
1303	 0.564764816829068 
1304	 0.564903789696888 
1305	 0.565020030542223 
1306	 0.565130961088646 
1307	 0.56523539280265 
1308	 0.565308689116821 
1309	 0.565398771878922 
1310	 0.565481909624522 
1311	 0.565565598650623 
1312	 0.565652689618835 
1313	 0.565739854046992 
1314	 0.565822978287192 
1315	 0.565915753906672 
1316	 0.565988154465186 
1317	 0.566053909414778 
1318	 0.566102798323536 
1319	 0.56613554698939 
1320	 0.566166529220861 
1321	 0.566182149767859 
1322	 0.566200997898411 
1323	 0.566226797821623 
1324	 0.566233151734503 
1325	 0.566232096231616 
1326	 0.566219255996743 
1327	 0.566190919088591 
1328	 0.566156793270731 
1329	 0.566126832052044 
1330	 0.566068647701777 
1331	 0.56600043689816 
1332	 0.565906870310369 
1333	 0.565782976418963 
1334	 0.565647096299527 
1335	 0.565500830971851 
1336	 0.565339778227704 
1337	 0.565163351289755 
1338	 0.564972936132626 
1339	 0.564776067053549 
1340	 0.564573074509774 
1341	 0.564338904811831 
1342	 0.564097417746588 
1343	 0.563822287499713 
1344	 0.563513592169118 
1345	 0.563189597580855 
1346	 0.562856787361781 
1347	 0.562481985172711 
1348	 0.562074151283815 
1349	 0.561647451724662 
1350	 0.561168751939496 
1351	 0.560711204694197 
1352	 0.560238746276083 
1353	 0.559776738025742 
1354	 0.559318869159886 
1355	 0.558867696415936 
1356	 0.558416418610617 
1357	 0.557974886049916 
1358	 0.557551609383458 
1359	 0.557117210719575 
1360	 0.556700868902217 
1361	 0.556261833563137 
1362	 0.555766918749951 
1363	 0.555286372487965 
1364	 0.55476817950644 
1365	 0.554218842869789 
1366	 0.553650825403437 
1367	 0.553071879165471 
1368	 0.552460066492475 
1369	 0.551820274913287 
1370	 0.551148535066573 
1371	 0.55045086255901 
1372	 0.549737470788554 
1373	 0.548998928586247 
1374	 0.548227894568181 
1375	 0.547433519531935 
1376	 0.546610225598091 
1377	 0.54575924559226 
1378	 0.544858121456803 
1379	 0.543921493865772 
1380	 0.542958831345406 
1381	 0.541940572717146 
1382	 0.540912142935018 
1383	 0.539852067070713 
1384	 0.538799221529769 
1385	 0.5377150881333 
1386	 0.536658245628506 
1387	 0.535608834478663 
1388	 0.534591430007306 
1389	 0.533592574140428 
1390	 0.532610649861211 
1391	 0.531683149840554 
1392	 0.530710169664483 
1393	 0.52979194950947 
1394	 0.528842197840144 
1395	 0.527839440495086 
1396	 0.526840740238588 
1397	 0.525738514018035 
1398	 0.524591425406894 
1399	 0.523321224197307 
1400	 0.521967043817904 
1401	 0.520528374251667 
1402	 0.518990340908764 
1403	 0.517364896436454 
1404	 0.515643662024618 
1405	 0.513896552793233 
1406	 0.512040827782708 
1407	 0.510195912722653 
1408	 0.508271945343066 
1409	 0.506439333892768 
1410	 0.504545560093224 
1411	 0.502815844761526 
1412	 0.50112559328487 
1413	 0.499644794795604 
1414	 0.498258263411959 
1415	 0.497080907105891 
1416	 0.496120332736431 
1417	 0.495268820476479 
1418	 0.494644775102343 
1419	 0.494027932141287 
1420	 0.493562043545617 
1421	 0.49307091495104 
1422	 0.492605735135702 
1423	 0.492150359582329 
1424	 0.49171292870369 
1425	 0.491267867897669 
1426	 0.49085601776554 
1427	 0.490482334374246 
1428	 0.490154114875435 
1429	 0.48988897863142 
1430	 0.489661386091943 
1431	 0.489484053676201 
1432	 0.489349258859027 
1433	 0.489265967156542 
1434	 0.489198294902763 
1435	 0.489173373121737 
1436	 0.48916761108347 
1437	 0.489182772899422 
1438	 0.489226354165693 
1439	 0.489310224091988 
1440	 0.489397600721109 
1441	 0.489494450122984 
1442	 0.489626458030147 
1443	 0.489772548920182 
1444	 0.489960270593747 
1445	 0.490184627495259 
1446	 0.490434405562915 
1447	 0.490727471571043 
1448	 0.491023363283877 
1449	 0.491356185487067 
1450	 0.491674817875971 
1451	 0.491997214688788 
1452	 0.492320776450014 
1453	 0.492645731323156 
1454	 0.492968979896971 
1455	 0.493295763504629 
1456	 0.49361904564813 
1457	 0.493937747584213 
1458	 0.494258220316688 
1459	 0.49457861264633 
1460	 0.49490143668557 
1461	 0.495224465582063 
1462	 0.495548299762219 
1463	 0.495868477601618 
1464	 0.496196687004632 
1465	 0.49651379730981 
1466	 0.496863962663041 
1467	 0.49722631205298 
1468	 0.497597617019471 
1469	 0.497978093631463 
1470	 0.498332716243561 
1471	 0.498669452239481 
1472	 0.498985919082277 
1473	 0.499295261026879 
1474	 0.49958657217622 
1475	 0.499877624896999 
1476	 0.500162522484666 
1477	 0.500434659670802 
1478	 0.50070147819808 
1479	 0.500948160252146 
1480	 0.501182992182797 
1481	 0.501398124648499 
1482	 0.501596382047554 
1483	 0.501778058994927 
1484	 0.501940549514292 
1485	 0.502090399925613 
1486	 0.502214993437367 
1487	 0.50234783943779 
1488	 0.502463117970099 
1489	 0.502597460833712 
1490	 0.502739272953068 
1491	 0.502884922068113 
1492	 0.503035106621186 
1493	 0.503193888246052 
1494	 0.503360415066667 
1495	 0.503529554912144 
1496	 0.503701837870547 
1497	 0.503888114874646 
1498	 0.504081132467511 
1499	 0.504281766983975 
1500	 0.504489646141904 
1501	 0.504714692540746 
1502	 0.504951774823485 
1503	 0.505194627647657 
1504	 0.505464501673605 
1505	 0.505721573826519 
1506	 0.50597337743805 
1507	 0.50622974464264 
1508	 0.506478194173706 
1509	 0.506741105093854 
1510	 0.507022100906669 
1511	 0.507290672658713 
1512	 0.507557395833196 
1513	 0.507830261650863 
1514	 0.508109483212591 
1515	 0.508374027384184 
1516	 0.508644509390606 
1517	 0.508899029249393 
1518	 0.509116969353574 
1519	 0.509352181303469 
1520	 0.509582149366919 
1521	 0.5098313555481 
1522	 0.51008512611173 
1523	 0.510339907967629 
1524	 0.510593361271054 
1525	 0.510844845540238 
1526	 0.51110620503862 
1527	 0.511372161951546 
1528	 0.511636508441756 
1529	 0.511906943054794 
1530	 0.512173991764513 
1531	 0.512433138464412 
1532	 0.512712449005666 
1533	 0.513003707424103 
1534	 0.513289237378108 
1535	 0.513588550092074 
1536	 0.513866097424868 
1537	 0.514136131719923 
1538	 0.514393446827367 
1539	 0.514638389842656 
1540	 0.514881550221415 
1541	 0.515109655760056 
1542	 0.51534840919399 
1543	 0.51560505474641 
1544	 0.515815152762547 
1545	 0.516020576668239 
1546	 0.516186371840044 
1547	 0.516308487378742 
1548	 0.516422821980506 
1549	 0.516509473509392 
1550	 0.516599015256991 
1551	 0.51666982666383 
1552	 0.516743264501532 
1553	 0.516826286563992 
1554	 0.516879010994687 
1555	 0.516899980148403 
1556	 0.516946682372537 
1557	 0.51696801515383 
1558	 0.517038829989547 
1559	 0.517158439423915 
1560	 0.517251901286232 
1561	 0.517354812771504 
1562	 0.51745861305015 
1563	 0.517538677270708 
1564	 0.517657504954357 
1565	 0.517807727711164 
1566	 0.517951451529005 
1567	 0.51811477424279 
1568	 0.518267277429142 
1569	 0.518407551673382 
1570	 0.518566480266057 
1571	 0.51873599264874 
1572	 0.51890296407856 
1573	 0.519091614622916 
1574	 0.519253915271289 
1575	 0.519391777836958 
1576	 0.519547265397497 
1577	 0.519698759108662 
1578	 0.519853738849613 
1579	 0.520036317958193 
1580	 0.520184289745524 
1581	 0.520303796999696 
1582	 0.520436796334937 
1583	 0.52055117072024 
1584	 0.5206845951889 
1585	 0.520834899530631 
1586	 0.520985036434091 
1587	 0.521147552865667 
1588	 0.521298008396639 
1589	 0.521444166972964 
1590	 0.521592865305191 
1591	 0.521742837181309 
1592	 0.521880904861313 
1593	 0.522013109535717 
1594	 0.522148867622936 
1595	 0.52227498533561 
1596	 0.522402202529629 
1597	 0.522536529561359 
1598	 0.522665900069067 
1599	 0.522793364008465 
1600	 0.522912321602549 
1601	 0.523027997998514 
1602	 0.523140908854792 
1603	 0.523247794121346 
1604	 0.52334515576916 
1605	 0.523441271334679 
1606	 0.523526458973506 
1607	 0.523602493708795 
1608	 0.523664637047535 
1609	 0.523708224727103 
1610	 0.523758419797173 
1611	 0.523803977881756 
1612	 0.523842166759514 
1613	 0.523886438357714 
1614	 0.523915242829779 
1615	 0.523937960934884 
1616	 0.52393514711407 
1617	 0.523917406160916 
1618	 0.523884657288651 
1619	 0.52381301882898 
1620	 0.523755548091071 
1621	 0.523703618420266 
1622	 0.523634910048042 
1623	 0.52356628949307 
1624	 0.523482216893459 
1625	 0.523364837058304 
1626	 0.523265835860025 
1627	 0.523177519999635 
1628	 0.52307262890275 
1629	 0.522959322863318 
1630	 0.522859126667648 
1631	 0.522752063206271 
1632	 0.522648251411624 
1633	 0.522567426384008 
1634	 0.522466877674983 
1635	 0.522348902517804 
1636	 0.522236552030682 
1637	 0.522125064344064 
1638	 0.522004342820153 
1639	 0.521884973318657 
1640	 0.521751433268088 
1641	 0.521617052129081 
1642	 0.521455211174541 
1643	 0.521280040710336 
1644	 0.521082455529376 
1645	 0.520851624635469 
1646	 0.520614046997139 
1647	 0.520358468160997 
1648	 0.52009226557878 
1649	 0.519825077044886 
1650	 0.519525965869893 
1651	 0.519212084165012 
1652	 0.518871619513339 
1653	 0.518508812209321 
1654	 0.518110524640011 
1655	 0.517693546135368 
1656	 0.517219663009767 
1657	 0.516706008492539 
1658	 0.51613931403544 
1659	 0.51552423334761 
1660	 0.514864932690119 
1661	 0.514170678645307 
1662	 0.513394272345548 
1663	 0.512554457196749 
1664	 0.51165037976606 
1665	 0.510691159263837 
1666	 0.509627901553724 
1667	 0.508492236493688 
1668	 0.507277484481913 
1669	 0.50597300028831 
1670	 0.504572828661817 
1671	 0.503071123606968 
1672	 0.501504966996192 
1673	 0.499852178477622 
1674	 0.498108429844316 
1675	 0.496300307124342 
1676	 0.494434684925122 
1677	 0.492462584474228 
1678	 0.490446031815619 
1679	 0.488352135713038 
1680	 0.486228325840238 
1681	 0.484045502322593 
1682	 0.481811812487546 
1683	 0.479550391513902 
1684	 0.477270113607859 
1685	 0.474926528494163 
1686	 0.472568202903483 
1687	 0.470170987341469 
1688	 0.467754195130343 
1689	 0.465303583358965 
1690	 0.462829380225744 
1691	 0.460367923536642 
1692	 0.457887472107994 
1693	 0.455394467926174 
1694	 0.452827739157828 
1695	 0.450201257535404 
1696	 0.447540117184586 
1697	 0.444805702485723 
1698	 0.442051898647689 
1699	 0.439274156178757 
1700	 0.43656097993523 
1701	 0.433793525808495 
1702	 0.431161801133638 
1703	 0.42854835689125 
1704	 0.426124900970845 
1705	 0.423797182582002 
1706	 0.421561070918465 
1707	 0.419630828216778 
1708	 0.417732890972321 
1709	 0.415954738263782 
1710	 0.414332437815784 
1711	 0.412679782435988 
1712	 0.411154608591984 
1713	 0.409678596145168 
1714	 0.408211454657357 
1715	 0.406893579773297 
1716	 0.405603957661398 
1717	 0.404375899950422 
1718	 0.403203578128086 
1719	 0.402062170088446 
1720	 0.401021601744273 
1721	 0.400083588561559 
1722	 0.399332573443903 
1723	 0.398809340440753 
1724	 0.398471159502564 
1725	 0.398330926890752 
1726	 0.398477582758084 
1727	 0.39893826811349 
1728	 0.399638087298981 
1729	 0.400602531819612 
1730	 0.401818667910448 
1731	 0.40310385926909 
1732	 0.404579570979562 
1733	 0.406132651026195 
1734	 0.407664006904734 
1735	 0.409216900384969 
1736	 0.410599991632045 
1737	 0.411835715295663 
1738	 0.412915152181221 
1739	 0.413764401171211 
1740	 0.41442067038252 
1741	 0.414908308807867 
1742	 0.415144149847663 
1743	 0.41530205795875 
1744	 0.415279225907166 
1745	 0.41521534533847 
1746	 0.415001122671216 
1747	 0.4148324499 
1748	 0.414585095346871 
1749	 0.414424668930485 
1750	 0.414270450363165 
1751	 0.414204892384256 
1752	 0.414177385085456 
1753	 0.414277525872629 
1754	 0.41444779748963 
1755	 0.414766179222536 
1756	 0.415177475336976 
1757	 0.415771488899752 
1758	 0.416550408590358 
1759	 0.41745544621087 
1760	 0.418591918054762 
1761	 0.419876571593976 
1762	 0.421189137420547 
1763	 0.422689822380635 
1764	 0.42427025008236 
1765	 0.425924574492976 
1766	 0.427771791558151 
1767	 0.429607696307464 
1768	 0.431468546071568 
1769	 0.433348026900715 
1770	 0.435085814397555 
1771	 0.436774446299286 
1772	 0.438353296291592 
1773	 0.439789446755116 
1774	 0.441194533082186 
1775	 0.442483466357112 
1776	 0.443708329753005 
1777	 0.444819813212684 
1778	 0.445743741488069 
1779	 0.446595987117641 
1780	 0.447335328361739 
1781	 0.448006807624042 
1782	 0.448680194232187 
1783	 0.449277805721862 
1784	 0.449820333902889 
1785	 0.450254767852382 
1786	 0.450648938577688 
1787	 0.450969337212151 
1788	 0.451274100857344 
1789	 0.451532467784355 
1790	 0.451789817271675 
1791	 0.452022309644957 
1792	 0.452238957337267 
1793	 0.452437555303519 
1794	 0.452631158728965 
1795	 0.452806247038973 
1796	 0.452979122262665 
1797	 0.453173997509092 
1798	 0.453400806477634 
1799	 0.453599837187998 
1800	 0.453804700477773 
1801	 0.452296782955169 
1802	 0.452558382730605 
1803	 0.452801228186522 
1804	 0.453016561727219 
1805	 0.453246486599498 
1806	 0.453479937393507 
1807	 0.453714974786224 
1808	 0.453955641211411 
1809	 0.454206309625281 
1810	 0.454450463123891 
1811	 0.454691638372254 
1812	 0.45494584267019 
1813	 0.455196580948526 
1814	 0.455466557102407 
1815	 0.455748147579717 
1816	 0.456031832890656 
1817	 0.456316731730718 
1818	 0.456591799207875 
1819	 0.456894418196586 
1820	 0.457207449182643 
1821	 0.457533890614868 
1822	 0.457881837093178 
1823	 0.458245426463358 
1824	 0.458588359133186 
1825	 0.458931094105047 
1826	 0.459270114997369 
1827	 0.459600983044245 
1828	 0.459924447370378 
1829	 0.460251559845606 
1830	 0.460567546764376 
1831	 0.46086315183927 
1832	 0.461182915730197 
1833	 0.461473957565761 
1834	 0.461761189540841 
1835	 0.462087803903225 
1836	 0.462389915144802 
1837	 0.462700736603838 
1838	 0.463036525555744 
1839	 0.463353060579546 
1840	 0.463659143350798 
1841	 0.463955203788998 
1842	 0.464239848121105 
1843	 0.464544214577552 
1844	 0.464826395429326 
1845	 0.465077855428176 
1846	 0.465344330930001 
1847	 0.465575529372254 
1848	 0.465796555474563 
1849	 0.466023152321268 
1850	 0.466197474806993 
1851	 0.46634385958899 
1852	 0.466462216117953 
1853	 0.466559638861665 
1854	 0.466620134449228 
1855	 0.466671528628278 
1856	 0.466697711431912 
1857	 0.466671398344375 
1858	 0.466586680048254 
1859	 0.466457881656646 
1860	 0.466282881617552 
1861	 0.466063258499072 
1862	 0.465790686221913 
1863	 0.465499326835604 
1864	 0.465135887873298 
1865	 0.464737305217038 
1866	 0.464285913867094 
1867	 0.463721342868234 
1868	 0.463134193863528 
1869	 0.462489239523146 
1870	 0.461763216160404 
1871	 0.460986658702637 
1872	 0.460133585364929 
1873	 0.459215259561717 
1874	 0.45821579028532 
1875	 0.457140472603333 
1876	 0.455919138204671 
1877	 0.454651597640387 
1878	 0.453226218624041 
1879	 0.451636308069563 
1880	 0.45002143712157 
1881	 0.448218769525983 
1882	 0.44624942632818 
1883	 0.444169803204016 
1884	 0.441902949128482 
1885	 0.439289238417717 
1886	 0.436569111857955 
1887	 0.433572995711769 
1888	 0.430301265766263 
1889	 0.427152493941711 
1890	 0.423750314771305 
1891	 0.420277138160711 
1892	 0.41682192473077 
1893	 0.413250582730623 
1894	 0.409483918393018 
1895	 0.405870935542971 
1896	 0.402224764656684 
1897	 0.398597878188647 
1898	 0.395287521766874 
1899	 0.391955962208163 
1900	 0.388755573742197 
1901	 0.385761849319485 
1902	 0.382671787711735 
1903	 0.379793011473971 
1904	 0.37705233144764 
1905	 0.374408683079682 
1906	 0.371894843535626 
1907	 0.369734283610448 
1908	 0.367620349111378 
1909	 0.365649396379224 
1910	 0.363858674020221 
1911	 0.362039806442177 
1912	 0.360407032239697 
1913	 0.358867019145292 
1914	 0.357373117826199 
1915	 0.35602638792221 
1916	 0.354849449825683 
1917	 0.353661237954392 
1918	 0.352561885528496 
1919	 0.351585327589628 
1920	 0.350591769829782 
1921	 0.34970853794305 
1922	 0.348908157806456 
1923	 0.348153911696326 
1924	 0.347524467773708 
1925	 0.346958708242885 
1926	 0.34644055994199 
1927	 0.34599817526205 
1928	 0.345587551450052 
1929	 0.345216869922659 
1930	 0.344901777820526 
1931	 0.344648702128711 
1932	 0.34445787462756 
1933	 0.344341420118333 
1934	 0.344287906366118 
1935	 0.344265494741566 
1936	 0.344306924562573 
1937	 0.344414820575016 
1938	 0.344593986597169 
1939	 0.344795758510285 
1940	 0.345051743485405 
1941	 0.34535995757891 
1942	 0.345682176918819 
1943	 0.346064433996353 
1944	 0.346495581008061 
1945	 0.346963558825879 
1946	 0.347489719363722 
1947	 0.34802964192524 
1948	 0.34860978908868 
1949	 0.349240762151176 
1950	 0.349852568419941 
1951	 0.350471023989209 
1952	 0.351105330785318 
1953	 0.351752104643038 
1954	 0.352380380266226 
1955	 0.353055951077226 
1956	 0.35370998799394 
1957	 0.354378370905639 
1958	 0.355066176977314 
1959	 0.355703000212267 
1960	 0.356380716466968 
1961	 0.357048145518543 
1962	 0.357700250976369 
1963	 0.358358529578638 
1964	 0.359039412477599 
1965	 0.359683538422598 
1966	 0.360310909261193 
1967	 0.360949480041248 
1968	 0.361533643406535 
1969	 0.362132978341436 
1970	 0.362725326202769 
1971	 0.363306173830384 
1972	 0.363935061378391 
1973	 0.364554867267124 
1974	 0.365169761534392 
1975	 0.365808593915075 
1976	 0.366411344638116 
1977	 0.366998059045826 
1978	 0.367570960330562 
1979	 0.368123527074729 
1980	 0.368656810249694 
1981	 0.36921795112861 
1982	 0.369740819429028 
1983	 0.370281888960833 
1984	 0.370832465880171 
1985	 0.371324300537556 
1986	 0.371816818192205 
1987	 0.372280395823416 
1988	 0.372695593520294 
1989	 0.373137781647626 
1990	 0.373585872779102 
1991	 0.374001781122925 
1992	 0.374411773519356 
1993	 0.374828308787161 
1994	 0.375180770178287 
1995	 0.375516779500254 
1996	 0.375851776051277 
1997	 0.376175869202223 
1998	 0.37647918441709 
1999	 0.37676313887599 
2000	 0.377040920038476 
2001	 0.377312465869038 
2002	 0.377544525624938 
2003	 0.377766123475201 
2004	 0.377960449686502 
2005	 0.37812028423724 
2006	 0.378256273574691 
2007	 0.378370312298009 
2008	 0.378456678047024 
2009	 0.37851598213544 
2010	 0.378554132375006 
2011	 0.378582114589637 
2012	 0.378561553540282 
2013	 0.378485351982102 
2014	 0.378367726508327 
2015	 0.37819861118624 
2016	 0.377972954157134 
2017	 0.377703168259646 
2018	 0.377395252606948 
2019	 0.377024987145975 
2020	 0.376606162248784 
2021	 0.376110001411468 
2022	 0.375588113315548 
2023	 0.374998078172787 
2024	 0.374319597215143 
2025	 0.37364177029705 
2026	 0.372896058114389 
2027	 0.372042423840223 
2028	 0.371240103265262 
2029	 0.370415586017644 
2030	 0.369587886307608 
2031	 0.368758745544321 
2032	 0.367942692468164 
2033	 0.367075068157439 
2034	 0.366294186075481 
2035	 0.365538973652487 
2036	 0.364827896264672 
2037	 0.364229752246336 
2038	 0.363678333075485 
2039	 0.363193775789727 
2040	 0.362794917931769 
2041	 0.36243376547325 
2042	 0.362114603758002 
2043	 0.361877485271733 
2044	 0.361708940203389 
2045	 0.361593367525466 
2046	 0.361573044066324 
2047	 0.361561125414599 
2048	 0.361594247582554 
2049	 0.361660114315489 
2050	 0.36176632632291 
2051	 0.361887214810166 
2052	 0.3620550969982 
2053	 0.362258518920903 
2054	 0.362472649119234 
2055	 0.362731128439257 
2056	 0.362962168933198 
2057	 0.363179505564528 
2058	 0.363443295879897 
2059	 0.363724076402711 
2060	 0.364002256189779 
2061	 0.364324770268313 
2062	 0.364626862462649 
2063	 0.364918524673735 
2064	 0.365203607957369 
2065	 0.365487006600365 
2066	 0.365772420323071 
2067	 0.3660541012814 
2068	 0.366301732083667 
2069	 0.366558800323745 
2070	 0.366828992875913 
2071	 0.367063514790741 
2072	 0.367288518410379 
2073	 0.367483118241987 
2074	 0.367652460730256 
2075	 0.367798670055044 
2076	 0.36790795138926 
2077	 0.36801661229259 
2078	 0.368111395507189 
2079	 0.368191940753549 
2080	 0.368269129387555 
2081	 0.368320844592479 
2082	 0.368354961284261 
2083	 0.368358335169081 
2084	 0.368346974899912 
2085	 0.368331279577546 
2086	 0.368301873147148 
2087	 0.368252941995163 
2088	 0.368212280906038 
2089	 0.368177231194525 
2090	 0.368111517412031 
2091	 0.368037929725322 
2092	 0.367946739790087 
2093	 0.367837620138923 
2094	 0.367703503292371 
2095	 0.367548944281219 
2096	 0.367386037024644 
2097	 0.367204146686818 
2098	 0.366994431688913 
2099	 0.36679100183974 
2100	 0.366573428859364 
2101	 0.366340153684766 
2102	 0.366096187358175 
2103	 0.365823031523726 
2104	 0.365520885687377 
2105	 0.36522604117591 
2106	 0.364918734921747 
2107	 0.364589076688815 
2108	 0.364273847520853 
2109	 0.363904984510044 
2110	 0.363484305940335 
2111	 0.363062080808036 
2112	 0.36260785049353 
2113	 0.362148550300379 
2114	 0.361687684095609 
2115	 0.361197724684477 
2116	 0.360672330925398 
2117	 0.360163917734944 
2118	 0.359627648688826 
2119	 0.359060539301076 
2120	 0.358515280577804 
2121	 0.357943648862172 
2122	 0.357432735707794 
2123	 0.356954300634544 
2124	 0.356469903275071 
2125	 0.356042629218238 
2126	 0.355560884857535 
2127	 0.355038074879709 
2128	 0.354545359960597 
2129	 0.354028373742843 
2130	 0.353550028166311 
2131	 0.353127239728782 
2132	 0.352668201994758 
2133	 0.352205364480061 
2134	 0.351755557680821 
2135	 0.351263685418519 
2136	 0.350768827499522 
2137	 0.350270667863347 
2138	 0.349759130837603 
2139	 0.349266654111059 
2140	 0.348768569983595 
2141	 0.348289341267264 
2142	 0.347830965929213 
2143	 0.347372249431625 
2144	 0.346918221143921 
2145	 0.34647655712989 
2146	 0.346032808791331 
2147	 0.345618095755494 
2148	 0.345220702459441 
2149	 0.344835228293912 
2150	 0.344499473339802 
2151	 0.344130131840002 
2152	 0.343735296987756 
2153	 0.343371706126749 
2154	 0.343007547103928 
2155	 0.342636051519746 
2156	 0.342285176798049 
2157	 0.341969875004422 
2158	 0.341618856466919 
2159	 0.341260534306178 
2160	 0.340892889423303 
2161	 0.340501157006808 
2162	 0.340138958025443 
2163	 0.339773544946437 
2164	 0.339425241956084 
2165	 0.339086869220919 
2166	 0.338776415101766 
2167	 0.338461228130377 
2168	 0.338201424417371 
2169	 0.337995107776261 
2170	 0.337797390485571 
2171	 0.337613319857165 
2172	 0.337480906826513 
2173	 0.337404572741965 
2174	 0.33730708304624 
2175	 0.33726650340069 
2176	 0.33727001196284 
2177	 0.337271630611932 
2178	 0.337281116147337 
2179	 0.33732226566045 
2180	 0.337392082790378 
2181	 0.337467744301718 
2182	 0.337565892955234 
2183	 0.337664892965121 
2184	 0.337778060962055 
2185	 0.337893228359883 
2186	 0.338013343188658 
2187	 0.338143284069343 
2188	 0.338292359566241 
2189	 0.338424157408031 
2190	 0.3385571712257 
2191	 0.338685513691995 
2192	 0.338809555052914 
2193	 0.338920372419959 
2194	 0.339029710096625 
2195	 0.339127384059114 
2196	 0.339208040098697 
2197	 0.339287750977865 
2198	 0.339338602308899 
2199	 0.33938357579907 
2200	 0.339406121548849 
2201	 0.339408395398747 
2202	 0.339376347253134 
2203	 0.339320229340163 
2204	 0.339253350084894 
2205	 0.339128485069044 
2206	 0.339057153988829 
2207	 0.338985637417409 
2208	 0.338953935592488 
2209	 0.338942791397941 
2210	 0.338971230832377 
2211	 0.339057898712789 
2212	 0.339123131997616 
2213	 0.33922888359908 
2214	 0.339294756379742 
2215	 0.339363650702704 
2216	 0.339377256572013 
2217	 0.339397557464742 
2218	 0.339319478193362 
2219	 0.339170330896288 
2220	 0.338967773162155 
2221	 0.338688157830385 
2222	 0.338352865461363 
2223	 0.337994123979723 
2224	 0.337560339640983 
2225	 0.337055598013866 
2226	 0.336495847728958 
2227	 0.335827486087642 
2228	 0.335078065369455 
2229	 0.334219740018392 
2230	 0.333242351633696 
2231	 0.332211596357031 
2232	 0.331111259987249 
2233	 0.329875410720337 
2234	 0.328594133801411 
2235	 0.32710226909856 
2236	 0.325435399772545 
2237	 0.323658429148964 
2238	 0.32165819468309 
2239	 0.319667111166647 
2240	 0.317632298145895 
2241	 0.315431247127442 
2242	 0.313210130870594 
2243	 0.310757136189283 
2244	 0.308047641938102 
2245	 0.305303296500247 
2246	 0.302312974432706 
2247	 0.299389696335972 
2248	 0.296475720303855 
2249	 0.293462986447212 
2250	 0.290387072909985 
2251	 0.287370990092066 
2252	 0.28405902891904 
2253	 0.280801008490232 
2254	 0.277527311720229 
2255	 0.274192706703171 
2256	 0.271191093871847 
2257	 0.268180561046745 
2258	 0.26525660767841 
2259	 0.26250325958783 
2260	 0.259689016689528 
2261	 0.25682831061043 
2262	 0.25415042811672 
2263	 0.251504331197574 
2264	 0.249028545933957 
2265	 0.246749993601121 
2266	 0.2444480842059 
2267	 0.242287417762577 
2268	 0.240059983792948 
2269	 0.237808099207746 
2270	 0.235635722910767 
2271	 0.233435641361222 
2272	 0.231361858034011 
2273	 0.229439446698467 
2274	 0.227454030688512 
2275	 0.225586645709357 
2276	 0.223592264450934 
2277	 0.221512063025792 
2278	 0.219443370094051 
2279	 0.217262176903123 
2280	 0.215155948108286 
2281	 0.213116809468684 
2282	 0.211026869948866 
2283	 0.20893680379922 
2284	 0.206893745085246 
2285	 0.204655488011005 
2286	 0.202435624836512 
2287	 0.200168297719626 
2288	 0.19782164883602 
2289	 0.195629861051485 
2290	 0.193339019535496 
2291	 0.191066335196283 
2292	 0.188882124770646 
2293	 0.186612551508762 
2294	 0.184477975077226 
2295	 0.182436908029705 
2296	 0.18048376502214 
2297	 0.178849462342327 
2298	 0.177416903136504 
2299	 0.176250559291137 
2300	 0.175369580366788 
2301	 0.174727213351247 
2302	 0.174279545471973 
2303	 0.174239775533225 
2304	 0.174573797941591 
2305	 0.175106560805906 
2306	 0.176022389425037 
2307	 0.177078453343793 
2308	 0.178306749129806 
2309	 0.179846497487937 
2310	 0.181771793699331 
2311	 0.183694482239567 
2312	 0.185991470907936 
2313	 0.188071981281424 
2314	 0.190176873616386 
2315	 0.192189315456668 
2316	 0.194215565381155 
2317	 0.195962422301891 
2318	 0.197628715204228 
2319	 0.199004846352556 
2320	 0.200117701922133 
2321	 0.201035838582194 
2322	 0.201715649372746 
2323	 0.202189437309875 
2324	 0.202392803145196 
2325	 0.202438008190255 
2326	 0.20226911109276 
2327	 0.201937438679309 
2328	 0.201363339607576 
2329	 0.200698727651114 
2330	 0.199899222798023 
2331	 0.198893459070454 
2332	 0.197778486904202 
2333	 0.196544870446578 
2334	 0.195045009178833 
2335	 0.19349096397722 
2336	 0.191844936144264 
2337	 0.190077746356875 
2338	 0.18845370775415 
2339	 0.186821359048686 
2340	 0.185257301151393 
2341	 0.183825658746353 
2342	 0.182446487611505 
2343	 0.181328244342201 
2344	 0.180469501217496 
2345	 0.179954176471236 
2346	 0.179791765080795 
2347	 0.179934137494018 
2348	 0.180374529655934 
2349	 0.181233085041842 
2350	 0.18245020919768 
2351	 0.18387506631164 
2352	 0.185485378548156 
2353	 0.187115531965174 
2354	 0.188559361162917 
2355	 0.189975953111239 
2356	 0.191285276919322 
2357	 0.192355100769593 
2358	 0.19340067331695 
2359	 0.194187534398329 
2360	 0.194686237036952 
2361	 0.195109314256971 
2362	 0.195426608293935 
2363	 0.195594920788571 
2364	 0.195771160842413 
2365	 0.195929916782697 
2366	 0.19597266300054 
2367	 0.19604533065151 
2368	 0.196122560636059 
2369	 0.196182719802559 
2370	 0.196248922097205 
2371	 0.196302651654525 
2372	 0.196412773901658 
2373	 0.196520619856563 
2374	 0.196577583215894 
2375	 0.196633161602867 
2376	 0.196676526254711 
2377	 0.196702536065881 
2378	 0.196772532925237 
2379	 0.196892454269169 
2380	 0.196985929529914 
2381	 0.197101102527378 
2382	 0.197259108605495 
2383	 0.197484277172254 
2384	 0.197650488138289 
2385	 0.197801854523396 
2386	 0.197964619049084 
2387	 0.198111963615924 
2388	 0.198275016656218 
2389	 0.198467916719342 
2390	 0.198664229854318 
2391	 0.198857094352644 
2392	 0.199009322662815 
2393	 0.199180883727181 
2394	 0.199300878960988 
2395	 0.199351873821895 
2396	 0.199425204405138 
2397	 0.199490321547391 
2398	 0.199578422188163 
2399	 0.199695140497109 
2400	 0.199725147179025 
2401	 0.199692565235567 
2402	 0.199691841832419 
2403	 0.199696717738301 
2404	 0.199819032425746 
2405	 0.20001016419881 
2406	 0.200075000038372 
2407	 0.200098232388285 
2408	 0.200194102284319 
2409	 0.200195437220946 
2410	 0.200145480967086 
2411	 0.200207715854959 
2412	 0.200211671379369 
2413	 0.200194272900876 
2414	 0.200231780367645 
2415	 0.2002083491757 
2416	 0.200202010126215 
2417	 0.20020119597237 
2418	 0.200259610470243 
2419	 0.200326282203402 
2420	 0.200246682622692 
2421	 0.200240649311276 
2422	 0.200259904090639 
2423	 0.200180028245074 
2424	 0.200121420528951 
2425	 0.199947227905883 
2426	 0.199691620084986 
2427	 0.199574636399521 
2428	 0.199516998691451 
2429	 0.19951439649161 
2430	 0.199579453141851 
2431	 0.199562894965661 
2432	 0.199470953495999 
2433	 0.199305267486406 
2434	 0.198990767158507 
2435	 0.198653111581321 
2436	 0.198384369825169 
2437	 0.198018353345985 
2438	 0.197681222348528 
2439	 0.197395174669509 
2440	 0.196980802806794 
2441	 0.196691310145876 
2442	 0.196355553188949 
2443	 0.195970041618381 
2444	 0.195633423675039 
2445	 0.195143049422947 
2446	 0.194743145240645 
2447	 0.194273114269708 
2448	 0.193823591486574 
2449	 0.193486381494181 
2450	 0.192987675446919 
2451	 0.192422200582918 
2452	 0.191789419137116 
2453	 0.191163330388578 
2454	 0.190678365382324 
2455	 0.19032080836393 
2456	 0.18990580922602 
2457	 0.189397952797531 
2458	 0.188852109627544 
2459	 0.188246045798703 
2460	 0.187677983259464 
2461	 0.187241514400878 
2462	 0.186873432555048 
2463	 0.18655970927385 
2464	 0.186288927972366 
2465	 0.185896917263542 
2466	 0.18556849662663 
2467	 0.185177243077357 
2468	 0.184578970489041 
2469	 0.184180105063444 
2470	 0.183807121615443 
2471	 0.183424174347625 
2472	 0.183169410844301 
2473	 0.182916927752984 
2474	 0.182542862858834 
2475	 0.182083249809227 
2476	 0.181980629334872 
2477	 0.181986762036174 
2478	 0.181841049047039 
2479	 0.181923645811821 
2480	 0.182035281730723 
2481	 0.181972474001293 
2482	 0.181921533939186 
2483	 0.181732269377892 
2484	 0.181455581044774 
2485	 0.181222850451908 
2486	 0.181323025395141 
2487	 0.181410601965011 
2488	 0.181277308973788 
2489	 0.181237500881961 
2490	 0.181355274686111 
2491	 0.181482551072554 
2492	 0.181671954773193 
2493	 0.18198858462482 
2494	 0.182288287708988 
2495	 0.182472392489471 
2496	 0.182602719753011 
2497	 0.182610558297476 
2498	 0.182430390330252 
2499	 0.182347609381315 
2500	 0.182549875859293 
