Wavelength	spectrum00000.asd
350	 0.191662568098066 
351	 0.190026132015357 
352	 0.18754795534297 
353	 0.185337194035097 
354	 0.185790759370644 
355	 0.185013586801325 
356	 0.183771487939098 
357	 0.18327887537148 
358	 0.182595150614844 
359	 0.183263635958435 
360	 0.184478064579504 
361	 0.184543565834057 
362	 0.185355632513924 
363	 0.184993057649761 
364	 0.183926478565376 
365	 0.186108777340598 
366	 0.188898971651345 
367	 0.190724768454423 
368	 0.191304047830861 
369	 0.193430716104464 
370	 0.195926150595265 
371	 0.198098567943816 
372	 0.19965768500464 
373	 0.200892137213777 
374	 0.202512478365032 
375	 0.20478623266852 
376	 0.207321402318479 
377	 0.20966211352453 
378	 0.211506090179901 
379	 0.213096799523178 
380	 0.216300032226848 
381	 0.219186221604596 
382	 0.220980919353303 
383	 0.222009534923141 
384	 0.224918709400283 
385	 0.227764134435809 
386	 0.229561938825736 
387	 0.231558071890366 
388	 0.23383479263941 
389	 0.23648279978078 
390	 0.239414281559108 
391	 0.242152489177095 
392	 0.244604287343124 
393	 0.246898151517544 
394	 0.249294215692617 
395	 0.251747349033422 
396	 0.254431492970588 
397	 0.257204580782593 
398	 0.259367732203394 
399	 0.2615139083072 
400	 0.2638741741738 
401	 0.266471566111065 
402	 0.26893025781425 
403	 0.271850120679053 
404	 0.274953165694877 
405	 0.277378653173519 
406	 0.279744144752232 
407	 0.282408189872436 
408	 0.285335022372771 
409	 0.287769603005086 
410	 0.290554973882747 
411	 0.293561245826335 
412	 0.296358582901429 
413	 0.298778363164188 
414	 0.301231916024783 
415	 0.303990718422286 
416	 0.307117900208446 
417	 0.309819814701702 
418	 0.312559266334873 
419	 0.315598994827087 
420	 0.31817941704888 
421	 0.320896244023638 
422	 0.323870951545851 
423	 0.326992397557949 
424	 0.330087061418936 
425	 0.33292137503836 
426	 0.335565783116074 
427	 0.338423743737277 
428	 0.341299470919888 
429	 0.34430142914169 
430	 0.347438719334604 
431	 0.350242584136588 
432	 0.353133892833568 
433	 0.356148260085747 
434	 0.359108045105042 
435	 0.361992885883939 
436	 0.364942037913377 
437	 0.367986060783998 
438	 0.37094639247377 
439	 0.373992864819772 
440	 0.377059679894003 
441	 0.380059149773619 
442	 0.383111011350455 
443	 0.386176692457253 
444	 0.389276557213088 
445	 0.392466995218693 
446	 0.395350461411203 
447	 0.398322106991382 
448	 0.401610266588332 
449	 0.404798543084644 
450	 0.407954170561626 
451	 0.411053951110286 
452	 0.414078626921797 
453	 0.417152499497876 
454	 0.420243724802987 
455	 0.423365102412517 
456	 0.426601178012102 
457	 0.429680343001945 
458	 0.432778663268583 
459	 0.436048194229844 
460	 0.439240360438601 
461	 0.442388115780927 
462	 0.44546795122683 
463	 0.448458361767585 
464	 0.451588297121647 
465	 0.454761604926972 
466	 0.45789124704871 
467	 0.460971436367645 
468	 0.464033123991634 
469	 0.467128244699055 
470	 0.470280250452067 
471	 0.473372506648372 
472	 0.476347165117006 
473	 0.479304405630393 
474	 0.482433762167156 
475	 0.485343203903563 
476	 0.488290350817884 
477	 0.491431091779718 
478	 0.494468944282984 
479	 0.497466162239447 
480	 0.500465970753542 
481	 0.503496650810419 
482	 0.506479689615268 
483	 0.509453496740447 
484	 0.512426134082645 
485	 0.515353257782483 
486	 0.518443949778199 
487	 0.521457230464258 
488	 0.524231439865166 
489	 0.527192936796758 
490	 0.530133282336381 
491	 0.53303334083732 
492	 0.535980601125335 
493	 0.538930263580655 
494	 0.541863146793899 
495	 0.54477606173475 
496	 0.547688059040952 
497	 0.550468623498707 
498	 0.553278045078403 
499	 0.556247412715897 
500	 0.558962128013944 
501	 0.56171287624658 
502	 0.564541387812082 
503	 0.567256750709047 
504	 0.570003420562118 
505	 0.572759339720501 
506	 0.575487753805193 
507	 0.578183212078089 
508	 0.580903663064647 
509	 0.583593006351668 
510	 0.586178124833767 
511	 0.58886133399969 
512	 0.591549753412343 
513	 0.594190578984867 
514	 0.59682619027871 
515	 0.599374308714889 
516	 0.601923060528851 
517	 0.604553344810013 
518	 0.607168042786195 
519	 0.609672813563811 
520	 0.612132408788055 
521	 0.614704042228332 
522	 0.617258469843137 
523	 0.619766186476868 
524	 0.62223383114118 
525	 0.624715274458616 
526	 0.627177576741286 
527	 0.629620290105945 
528	 0.632056282254075 
529	 0.634509296309454 
530	 0.636893719611532 
531	 0.639212143088046 
532	 0.64156243961975 
533	 0.643952772254806 
534	 0.646355719007672 
535	 0.648737925783004 
536	 0.65109003223416 
537	 0.653448587247406 
538	 0.655775798253252 
539	 0.65800984347244 
540	 0.660264529282305 
541	 0.662510438952583 
542	 0.664732277729574 
543	 0.666967123208972 
544	 0.66917919351076 
545	 0.671375751327577 
546	 0.673547119596341 
547	 0.675542376829457 
548	 0.677555843144926 
549	 0.67964595186691 
550	 0.681732806141537 
551	 0.683777102127308 
552	 0.685817084062317 
553	 0.687876458620284 
554	 0.689895637508595 
555	 0.691870802305703 
556	 0.693841443907068 
557	 0.695852351007611 
558	 0.697821971119296 
559	 0.699761068518023 
560	 0.701674902494273 
561	 0.703551045368713 
562	 0.705430337072647 
563	 0.707279717763399 
564	 0.709059143837752 
565	 0.710783468116058 
566	 0.712500569702721 
567	 0.714226031112925 
568	 0.715951371828384 
569	 0.717724564991837 
570	 0.719390228186886 
571	 0.720900901410068 
572	 0.722483449042088 
573	 0.724169723509221 
574	 0.725888613168765 
575	 0.727542502295042 
576	 0.729214505082247 
577	 0.730818914616687 
578	 0.73235648042257 
579	 0.733931096782549 
580	 0.735405058444453 
581	 0.736839082141369 
582	 0.738298400097329 
583	 0.739693513882359 
584	 0.741189343659513 
585	 0.742765615122675 
586	 0.744293428165089 
587	 0.745765706448091 
588	 0.747172574565756 
589	 0.748545216569797 
590	 0.749979929906443 
591	 0.751345329142951 
592	 0.752724873669754 
593	 0.754202500207683 
594	 0.755578044691977 
595	 0.756903879167937 
596	 0.75819177325659 
597	 0.759413433964367 
598	 0.760699265837135 
599	 0.76201812322722 
600	 0.763319081408591 
601	 0.764569959952346 
602	 0.765804209201046 
603	 0.767041063952052 
604	 0.768282325298784 
605	 0.769470912110678 
606	 0.770688049294773 
607	 0.771926438233949 
608	 0.773054301682575 
609	 0.774159411179079 
610	 0.775298101121777 
611	 0.776472880832305 
612	 0.777524615251826 
613	 0.778581808646023 
614	 0.779677681987029 
615	 0.780776741718292 
616	 0.781813339571463 
617	 0.782844013505149 
618	 0.783897010999591 
619	 0.784919267160912 
620	 0.786008210560296 
621	 0.787064700144775 
622	 0.787981505777243 
623	 0.788930879229662 
624	 0.789964306643963 
625	 0.791005603346336 
626	 0.791884038748979 
627	 0.792850986686972 
628	 0.793843312756608 
629	 0.794786604911311 
630	 0.795739911931411 
631	 0.796585405978115 
632	 0.797420228496543 
633	 0.798387460706732 
634	 0.799220928774466 
635	 0.800063988622878 
636	 0.800991952709647 
637	 0.80194704946904 
638	 0.802796562405557 
639	 0.803584659355348 
640	 0.80438649626559 
641	 0.805209023010689 
642	 0.806008256534067 
643	 0.80680309381845 
644	 0.807640756613573 
645	 0.808416683452103 
646	 0.809223001263581 
647	 0.81006415619323 
648	 0.810763342325771 
649	 0.811416585986521 
650	 0.812147439744385 
651	 0.813008503422468 
652	 0.813725446036545 
653	 0.814414311725967 
654	 0.815115929063643 
655	 0.815800917456449 
656	 0.81649485943763 
657	 0.817214026460811 
658	 0.817944018104901 
659	 0.818614786416003 
660	 0.819216673001863 
661	 0.819856294099073 
662	 0.820616226995372 
663	 0.821192827425942 
664	 0.821756320517367 
665	 0.82237280620566 
666	 0.822977028779321 
667	 0.823687954839969 
668	 0.82437215464943 
669	 0.82492998084682 
670	 0.825459700416566 
671	 0.82611942216178 
672	 0.826766550076565 
673	 0.827193201165177 
674	 0.8277946973893 
675	 0.828395967606469 
676	 0.828931736674058 
677	 0.829526348061355 
678	 0.830094865485616 
679	 0.830641603448399 
680	 0.83117583129737 
681	 0.831648939390157 
682	 0.832155417427268 
683	 0.832747725776757 
684	 0.8334161196879 
685	 0.833900115511703 
686	 0.834291543962212 
687	 0.834715730356661 
688	 0.83528687159911 
689	 0.835800598861401 
690	 0.836203094214013 
691	 0.836556192228513 
692	 0.837148056870368 
693	 0.837808247586051 
694	 0.838328390656181 
695	 0.838553118026406 
696	 0.838986101497799 
697	 0.839553454755935 
698	 0.840067966793174 
699	 0.840280257032741 
700	 0.840621666574241 
701	 0.841136822960254 
702	 0.841715005896576 
703	 0.842140302192724 
704	 0.842597399371733 
705	 0.843090321380488 
706	 0.843501831264162 
707	 0.843896652417253 
708	 0.844265378956903 
709	 0.844633351301022 
710	 0.845102644612762 
711	 0.845499738743036 
712	 0.845854405716211 
713	 0.846233901889924 
714	 0.846574937411719 
715	 0.847009422222312 
716	 0.847485749894754 
717	 0.847828475176928 
718	 0.848062557279607 
719	 0.848383224822869 
720	 0.8488543764747 
721	 0.849292418954937 
722	 0.849521539009317 
723	 0.849733767093463 
724	 0.850142735466989 
725	 0.850560342167385 
726	 0.850842263443341 
727	 0.85111675896983 
728	 0.851647119535173 
729	 0.851970500339007 
730	 0.852172614303427 
731	 0.852410812816535 
732	 0.852833333850149 
733	 0.853226913526663 
734	 0.85353955038273 
735	 0.853785961572185 
736	 0.85400979967827 
737	 0.854341753314825 
738	 0.854691235438878 
739	 0.854861254446026 
740	 0.855146084158409 
741	 0.855401864794957 
742	 0.855613394391403 
743	 0.85603857571958 
744	 0.856240868765748 
745	 0.856457382482755 
746	 0.856922501927359 
747	 0.857239839813825 
748	 0.857443485978294 
749	 0.85761560834144 
750	 0.857852259044506 
751	 0.858084849305205 
752	 0.858340206085151 
753	 0.858625587741614 
754	 0.858912651994603 
755	 0.859295020661915 
756	 0.859657849626713 
757	 0.859875186130069 
758	 0.859910637315041 
759	 0.860000529848322 
760	 0.860242505757555 
761	 0.860620308082566 
762	 0.860939908663031 
763	 0.861190784546602 
764	 0.861404819639426 
765	 0.861639378103017 
766	 0.861858640974505 
767	 0.862138906699065 
768	 0.862492883475917 
769	 0.862753522784747 
770	 0.862892801555348 
771	 0.863023131236185 
772	 0.86327712920247 
773	 0.863585351627969 
774	 0.863845886282034 
775	 0.86403104973777 
776	 0.864182171657778 
777	 0.86433419967055 
778	 0.864548217550364 
779	 0.864831596721614 
780	 0.865107489844658 
781	 0.865208036858599 
782	 0.865296738772529 
783	 0.865551124889074 
784	 0.865826224107599 
785	 0.866156609072054 
786	 0.866450334312908 
787	 0.866569903857457 
788	 0.86658755074029 
789	 0.866640740999443 
790	 0.866791277486519 
791	 0.867001049605823 
792	 0.867255612644152 
793	 0.867486986685603 
794	 0.867660877344585 
795	 0.867838485920984 
796	 0.868052156947335 
797	 0.868272803115177 
798	 0.868449731774472 
799	 0.868563898040377 
800	 0.868706243402004 
801	 0.868850270065447 
802	 0.868900496910126 
803	 0.869073957223336 
804	 0.869277137080417 
805	 0.869480980870704 
806	 0.86981597843696 
807	 0.869934831180817 
808	 0.869889164380593 
809	 0.869879510938196 
810	 0.870211089886848 
811	 0.870551616870292 
812	 0.870742581218911 
813	 0.870770975185892 
814	 0.870913597239796 
815	 0.871020962794778 
816	 0.871081998400319 
817	 0.871229434838423 
818	 0.871535911375125 
819	 0.871693202934205 
820	 0.871645649183455 
821	 0.871835109708311 
822	 0.871980427620876 
823	 0.872130037758299 
824	 0.872355641029233 
825	 0.872564692679669 
826	 0.872502463497243 
827	 0.872431471457138 
828	 0.872727712202265 
829	 0.872910896488475 
830	 0.873041929936745 
831	 0.873180772136989 
832	 0.873353168813299 
833	 0.873526394136566 
834	 0.873621972936102 
835	 0.87363573561404 
836	 0.873681627951535 
837	 0.873892511783635 
838	 0.874066425801358 
839	 0.874099723558268 
840	 0.874439326931658 
841	 0.874568434881046 
842	 0.874606678365506 
843	 0.874826950438014 
844	 0.874865321852615 
845	 0.874908259018989 
846	 0.875029023561768 
847	 0.875186567223698 
848	 0.875284043321382 
849	 0.875378828557862 
850	 0.875501045795394 
851	 0.875623399579853 
852	 0.875818688110328 
853	 0.875944149901465 
854	 0.875927099437906 
855	 0.875923342575106 
856	 0.87604357290999 
857	 0.876196878268231 
858	 0.876268594772335 
859	 0.876327297531636 
860	 0.876456166787722 
861	 0.876611159248415 
862	 0.87669929306968 
863	 0.876781478944873 
864	 0.876868910581333 
865	 0.876958448800003 
866	 0.877038118570416 
867	 0.877112599944685 
868	 0.877213564734603 
869	 0.877328835980696 
870	 0.877386699812515 
871	 0.877463261279674 
872	 0.877515186546437 
873	 0.877531777907212 
874	 0.877630981560879 
875	 0.877713702591927 
876	 0.877766832845204 
877	 0.877826815364919 
878	 0.878013938347276 
879	 0.878065342548084 
880	 0.878039830839971 
881	 0.878119193842379 
882	 0.878204049723202 
883	 0.878179419488023 
884	 0.878135694355441 
885	 0.878271322225092 
886	 0.878298551001203 
887	 0.878299673049523 
888	 0.878317625397478 
889	 0.878305237591027 
890	 0.878322944901669 
891	 0.878337372206132 
892	 0.878326370234271 
893	 0.878315522506747 
894	 0.878342359492711 
895	 0.878338191257311 
896	 0.878284501943312 
897	 0.8783691866611 
898	 0.878388070468711 
899	 0.878375290461216 
900	 0.878409585164515 
901	 0.878415341541367 
902	 0.878333762725206 
903	 0.878202701502912 
904	 0.878108853115085 
905	 0.878093538189584 
906	 0.878100912146725 
907	 0.878087779334782 
908	 0.878045843725854 
909	 0.878095126878438 
910	 0.878195900750292 
911	 0.878268274642092 
912	 0.878233550563126 
913	 0.878271346690885 
914	 0.878274730312282 
915	 0.878192205709529 
916	 0.878111804701038 
917	 0.878216143524069 
918	 0.878260411928891 
919	 0.878160620998328 
920	 0.878286697245929 
921	 0.878420437395298 
922	 0.878471465004461 
923	 0.878453084311832 
924	 0.878544669661968 
925	 0.878705208792097 
926	 0.878831905520133 
927	 0.878885596571728 
928	 0.87911597368448 
929	 0.879325211128683 
930	 0.879497756482854 
931	 0.879676778521735 
932	 0.879788962411558 
933	 0.87993715890604 
934	 0.880120057602401 
935	 0.880281480931492 
936	 0.880421120636799 
937	 0.880621291717037 
938	 0.880826001825543 
939	 0.880936107451675 
940	 0.881257987592069 
941	 0.881601486262723 
942	 0.881842062804539 
943	 0.881967146882082 
944	 0.882021986274743 
945	 0.882029532364881 
946	 0.882073799609936 
947	 0.882278098394633 
948	 0.882528227485315 
949	 0.882632652016843 
950	 0.882592099345272 
951	 0.882645188202371 
952	 0.882752725713739 
953	 0.882774717900423 
954	 0.882684160948057 
955	 0.882646694713334 
956	 0.882740456523813 
957	 0.882825261918808 
958	 0.882808939004033 
959	 0.882770711837605 
960	 0.882801125523156 
961	 0.882856052732385 
962	 0.882881843970414 
963	 0.882882484821965 
964	 0.882832837078083 
965	 0.8827723731106 
966	 0.882768733729856 
967	 0.882910532224372 
968	 0.882955224028267 
969	 0.882998563843735 
970	 0.883093569284426 
971	 0.882929370013326 
972	 0.882774919072346 
973	 0.882766737771264 
974	 0.882884746684374 
975	 0.882810952580592 
976	 0.882849554317532 
977	 0.882993673603921 
978	 0.883107747197257 
979	 0.882997896688866 
980	 0.882941318069156 
981	 0.882933160220006 
982	 0.882939810360732 
983	 0.883188337511108 
984	 0.883269710103771 
985	 0.88320148546632 
986	 0.883161925102864 
987	 0.883291130757991 
988	 0.883289903821259 
989	 0.883219472993089 
990	 0.883237346716 
991	 0.883344759229986 
992	 0.883282367340002 
993	 0.883235617282336 
994	 0.883387184794485 
995	 0.883320052177863 
996	 0.883302682821679 
997	 0.883385345080018 
998	 0.883499102842369 
999	 0.883478825756695 
1000	 0.883429343815533 
1001	 0.885021054001556 
1002	 0.885073829732976 
1003	 0.885136133184831 
1004	 0.8852068722673 
1005	 0.885288195243498 
1006	 0.885334469930056 
1007	 0.885416282650882 
1008	 0.885443336678035 
1009	 0.8853915475516 
1010	 0.885408836608988 
1011	 0.8854299903523 
1012	 0.885452827249976 
1013	 0.885493414655921 
1014	 0.885547794104697 
1015	 0.885616735361928 
1016	 0.885680059469967 
1017	 0.885743870335896 
1018	 0.885829366352646 
1019	 0.8858808005482 
1020	 0.885950817574814 
1021	 0.886013850030557 
1022	 0.886091433263794 
1023	 0.886138497074652 
1024	 0.886168053740233 
1025	 0.886199146138215 
1026	 0.886174359595162 
1027	 0.886227401734909 
1028	 0.886310614431396 
1029	 0.886420994438501 
1030	 0.886552764101392 
1031	 0.886690709227079 
1032	 0.886815640486461 
1033	 0.88690969336378 
1034	 0.886984028794227 
1035	 0.887043848341653 
1036	 0.887091686431391 
1037	 0.887090375137289 
1038	 0.887150071693785 
1039	 0.887236185870093 
1040	 0.887298038066675 
1041	 0.887364225832208 
1042	 0.887438930111763 
1043	 0.887493978985282 
1044	 0.88758951457658 
1045	 0.887682499061867 
1046	 0.887757723848888 
1047	 0.887830093456984 
1048	 0.887892970220903 
1049	 0.887960719424704 
1050	 0.888064176978463 
1051	 0.888205306577589 
1052	 0.888315386913188 
1053	 0.888396200532703 
1054	 0.888464755020398 
1055	 0.88854910974871 
1056	 0.888581246340901 
1057	 0.888679596603233 
1058	 0.888841990205032 
1059	 0.888962245908955 
1060	 0.889113915355307 
1061	 0.889244990799187 
1062	 0.889311466608504 
1063	 0.889420426976447 
1064	 0.889482749506694 
1065	 0.889517595702025 
1066	 0.889596287074517 
1067	 0.88965345838811 
1068	 0.889747411750361 
1069	 0.88984924008108 
1070	 0.889942167786552 
1071	 0.890032318585869 
1072	 0.890152799002997 
1073	 0.890235261324507 
1074	 0.890331348760414 
1075	 0.890424488432969 
1076	 0.890464445158487 
1077	 0.890519358297589 
1078	 0.890559991463423 
1079	 0.89057236905732 
1080	 0.890659765063156 
1081	 0.890785965146469 
1082	 0.8908769584744 
1083	 0.890977022603671 
1084	 0.89104268641018 
1085	 0.891072585312974 
1086	 0.891126957536917 
1087	 0.891179932479308 
1088	 0.89125067776387 
1089	 0.89134387059049 
1090	 0.891435216219883 
1091	 0.891512267819428 
1092	 0.891593506871152 
1093	 0.891669832767719 
1094	 0.891757263012965 
1095	 0.891829957258947 
1096	 0.891856978952601 
1097	 0.891904700741671 
1098	 0.891926627817622 
1099	 0.891931010932814 
1100	 0.891993821077959 
1101	 0.892020186820905 
1102	 0.892014247533119 
1103	 0.892025260945019 
1104	 0.892040553788102 
1105	 0.892040763392268 
1106	 0.892077459865243 
1107	 0.892132500271404 
1108	 0.892155988805047 
1109	 0.892166321603441 
1110	 0.892158193417548 
1111	 0.892117178250405 
1112	 0.892100762338016 
1113	 0.892103646187259 
1114	 0.892069293639125 
1115	 0.892050821347435 
1116	 0.89203910840529 
1117	 0.892007101933092 
1118	 0.891970585898406 
1119	 0.891943162126072 
1120	 0.891886065320279 
1121	 0.891814543381231 
1122	 0.891715988021117 
1123	 0.891615327782778 
1124	 0.891518289589819 
1125	 0.89138475340755 
1126	 0.891246754583801 
1127	 0.891076605038693 
1128	 0.890865652835271 
1129	 0.89065520175113 
1130	 0.890408333391873 
1131	 0.890147343044577 
1132	 0.889853696661128 
1133	 0.889501692171698 
1134	 0.88916021771285 
1135	 0.888805800269219 
1136	 0.888430172189028 
1137	 0.888048122945344 
1138	 0.887677351736036 
1139	 0.887254541546368 
1140	 0.88679638261761 
1141	 0.886341645086203 
1142	 0.885844287989044 
1143	 0.885329147092678 
1144	 0.884789171128794 
1145	 0.884217090417714 
1146	 0.883638710951054 
1147	 0.883023860127085 
1148	 0.88242430424734 
1149	 0.881859284028724 
1150	 0.881260331276787 
1151	 0.880671206466407 
1152	 0.880049380915134 
1153	 0.879397785492585 
1154	 0.878727235206688 
1155	 0.878041556177827 
1156	 0.877333316921774 
1157	 0.87661311527294 
1158	 0.875876434300686 
1159	 0.875111430383346 
1160	 0.874336138473552 
1161	 0.873557705296689 
1162	 0.872723079607304 
1163	 0.871907824415332 
1164	 0.871085028867105 
1165	 0.870248258028222 
1166	 0.869454510687122 
1167	 0.868648040201151 
1168	 0.867844589995066 
1169	 0.867050883444526 
1170	 0.866267703743366 
1171	 0.865476631157101 
1172	 0.864707742568523 
1173	 0.863897852565501 
1174	 0.863073512063499 
1175	 0.8622452931107 
1176	 0.861392651547223 
1177	 0.860532132118967 
1178	 0.85967741089692 
1179	 0.858771269415073 
1180	 0.857901838665839 
1181	 0.857045305115461 
1182	 0.856179004650887 
1183	 0.855409314798855 
1184	 0.85462211221874 
1185	 0.853851697117875 
1186	 0.853125074231764 
1187	 0.85242636551566 
1188	 0.851765965369239 
1189	 0.85113670565933 
1190	 0.850543450703308 
1191	 0.849977787225969 
1192	 0.849477819006806 
1193	 0.849035096922794 
1194	 0.848612670764597 
1195	 0.848234798298996 
1196	 0.847888266218478 
1197	 0.847561505368906 
1198	 0.847270252609857 
1199	 0.847041007405031 
1200	 0.846850019252956 
1201	 0.846671241842764 
1202	 0.846549319813875 
1203	 0.846474107847166 
1204	 0.846436228467808 
1205	 0.846481962289575 
1206	 0.846581702075188 
1207	 0.846787315169339 
1208	 0.847043615381816 
1209	 0.847439580236469 
1210	 0.847937823977539 
1211	 0.848548264165856 
1212	 0.849289121563164 
1213	 0.850118650694128 
1214	 0.851058259229331 
1215	 0.852089058045776 
1216	 0.853250199274867 
1217	 0.854432489752529 
1218	 0.855711324839475 
1219	 0.857012620220198 
1220	 0.858344615711705 
1221	 0.859764255743888 
1222	 0.861141962286932 
1223	 0.862549947902347 
1224	 0.863890108178875 
1225	 0.865207778276602 
1226	 0.86643910256434 
1227	 0.867633536933194 
1228	 0.868754199354497 
1229	 0.869805297774814 
1230	 0.870797208128755 
1231	 0.871725679448209 
1232	 0.872611488586097 
1233	 0.87342465779861 
1234	 0.874190931093238 
1235	 0.874912598630435 
1236	 0.875589668057447 
1237	 0.876201232520592 
1238	 0.876788612906571 
1239	 0.87733947332293 
1240	 0.877854783036002 
1241	 0.878349233595591 
1242	 0.878780890547631 
1243	 0.879190412997016 
1244	 0.879545605143148 
1245	 0.879932874749488 
1246	 0.880317564594197 
1247	 0.880657809554701 
1248	 0.880998582876211 
1249	 0.881307281250019 
1250	 0.881558843209713 
1251	 0.881814409512034 
1252	 0.882073366033663 
1253	 0.882305488047747 
1254	 0.882507919449061 
1255	 0.882699881847044 
1256	 0.882881324353519 
1257	 0.883048426990449 
1258	 0.883198910100709 
1259	 0.883332785952774 
1260	 0.883449404998756 
1261	 0.88355555450629 
1262	 0.883643973946534 
1263	 0.883713043410638 
1264	 0.883795746842504 
1265	 0.883868854350298 
1266	 0.883965492722707 
1267	 0.884077996081449 
1268	 0.884177363019929 
1269	 0.884291550308981 
1270	 0.884381785689514 
1271	 0.884463978365586 
1272	 0.884525770280615 
1273	 0.884564097223772 
1274	 0.884610229716004 
1275	 0.884626914670597 
1276	 0.884674516963744 
1277	 0.884746753955734 
1278	 0.884807973016728 
1279	 0.884869302922753 
1280	 0.884940908154922 
1281	 0.885006549982649 
1282	 0.885086406355135 
1283	 0.885204564156173 
1284	 0.885292874108084 
1285	 0.885371092928269 
1286	 0.885441100557107 
1287	 0.885515213382037 
1288	 0.885579610201995 
1289	 0.885632927894093 
1290	 0.885689056309792 
1291	 0.885735820419149 
1292	 0.885759991475782 
1293	 0.885792758682386 
1294	 0.885821837061535 
1295	 0.885868441124075 
1296	 0.885927316179365 
1297	 0.885967699472442 
1298	 0.886031708552802 
1299	 0.886056668683753 
1300	 0.886039437537003 
1301	 0.88603542550222 
1302	 0.886019581787894 
1303	 0.88600826025949 
1304	 0.88600587536339 
1305	 0.885990853364771 
1306	 0.885969730602236 
1307	 0.885945093301554 
1308	 0.88591180932188 
1309	 0.885871515931653 
1310	 0.885846474169712 
1311	 0.885833000171082 
1312	 0.885793583829979 
1313	 0.885762448081312 
1314	 0.885695004539366 
1315	 0.885593628403152 
1316	 0.885503043751241 
1317	 0.885398867482432 
1318	 0.885298813696553 
1319	 0.885203973159024 
1320	 0.885094155023801 
1321	 0.88498002640994 
1322	 0.884854595995508 
1323	 0.884725742243945 
1324	 0.884575297070683 
1325	 0.884405567480209 
1326	 0.884234540203596 
1327	 0.884056446636821 
1328	 0.883859629492737 
1329	 0.883674912233198 
1330	 0.883445945872073 
1331	 0.883188473183652 
1332	 0.882903401991422 
1333	 0.882596776901547 
1334	 0.882240450101447 
1335	 0.881887752863875 
1336	 0.881517404085804 
1337	 0.881124556984367 
1338	 0.88071938046867 
1339	 0.88028721699413 
1340	 0.879824864157529 
1341	 0.879358293892006 
1342	 0.878873218461604 
1343	 0.878381770768979 
1344	 0.877906828042401 
1345	 0.877355007546429 
1346	 0.876761427678133 
1347	 0.876158411530808 
1348	 0.875529920408266 
1349	 0.874843582377897 
1350	 0.874110029941188 
1351	 0.87338423910634 
1352	 0.872588062917045 
1353	 0.871824903706015 
1354	 0.871091266199903 
1355	 0.870350818341103 
1356	 0.869594028121214 
1357	 0.86885081092589 
1358	 0.868132786476786 
1359	 0.867393621153925 
1360	 0.866658738992402 
1361	 0.865906070175552 
1362	 0.865112248317097 
1363	 0.864342585484875 
1364	 0.863527362870431 
1365	 0.862702065918209 
1366	 0.861820410767587 
1367	 0.860905554489781 
1368	 0.859959693287468 
1369	 0.858973535325076 
1370	 0.857955919889711 
1371	 0.856908557180305 
1372	 0.855845200050032 
1373	 0.854750614422012 
1374	 0.853626467740835 
1375	 0.852478531411447 
1376	 0.851298326200688 
1377	 0.850078496322002 
1378	 0.848824691518807 
1379	 0.847536780794834 
1380	 0.84623339259232 
1381	 0.844903880397282 
1382	 0.843535396971554 
1383	 0.842120627249727 
1384	 0.840719887391702 
1385	 0.839265402149788 
1386	 0.837865618528038 
1387	 0.836471312999393 
1388	 0.835152027377181 
1389	 0.833882524144851 
1390	 0.832643463639395 
1391	 0.831497175215615 
1392	 0.830310782477959 
1393	 0.829204000641622 
1394	 0.828047737449323 
1395	 0.826814877559094 
1396	 0.825595353833572 
1397	 0.824219573686083 
1398	 0.822769856021021 
1399	 0.821150116445833 
1400	 0.819423598378694 
1401	 0.817542860792108 
1402	 0.815512135031501 
1403	 0.813341661390211 
1404	 0.810996669779209 
1405	 0.808644606680806 
1406	 0.806123443120814 
1407	 0.803659769727326 
1408	 0.801103164104384 
1409	 0.798699243923596 
1410	 0.796257611361401 
1411	 0.794022001097369 
1412	 0.791903914194795 
1413	 0.789967174407063 
1414	 0.788194917731787 
1415	 0.786526945599746 
1416	 0.785052300751977 
1417	 0.783613000362729 
1418	 0.782291625118207 
1419	 0.780985566875134 
1420	 0.779753786913496 
1421	 0.778549498988788 
1422	 0.777375497442064 
1423	 0.77623016788272 
1424	 0.775145647417732 
1425	 0.774029218499713 
1426	 0.772991538631267 
1427	 0.772001319353134 
1428	 0.771047272481995 
1429	 0.77021485108735 
1430	 0.769419484409339 
1431	 0.768678647327961 
1432	 0.768004306940645 
1433	 0.767400826119335 
1434	 0.766843747489245 
1435	 0.766350016548128 
1436	 0.765886813679379 
1437	 0.765476379109405 
1438	 0.76510489548867 
1439	 0.764763046917794 
1440	 0.764484884163084 
1441	 0.764260300550657 
1442	 0.764080523668896 
1443	 0.763967776284178 
1444	 0.763862733092178 
1445	 0.763798305062554 
1446	 0.763753575306796 
1447	 0.763729888500787 
1448	 0.763733489806631 
1449	 0.763779580498375 
1450	 0.763824242598173 
1451	 0.763884420839355 
1452	 0.763955220019763 
1453	 0.76403238976221 
1454	 0.764128108807965 
1455	 0.764244596589765 
1456	 0.764368385583267 
1457	 0.764507016218163 
1458	 0.764651906358402 
1459	 0.764794544071193 
1460	 0.764965348999017 
1461	 0.76516131988351 
1462	 0.765358772723702 
1463	 0.76558116065461 
1464	 0.765800292355389 
1465	 0.766011050835921 
1466	 0.766240254909 
1467	 0.766472422204425 
1468	 0.7667098132745 
1469	 0.766952920841188 
1470	 0.76719987577942 
1471	 0.767460091949795 
1472	 0.767743989236522 
1473	 0.76798207234286 
1474	 0.768221951933079 
1475	 0.768427278581255 
1476	 0.768585313706373 
1477	 0.768768359033328 
1478	 0.768953977094484 
1479	 0.769117729316192 
1480	 0.769285134573963 
1481	 0.769412474380325 
1482	 0.769518982074018 
1483	 0.769595884421596 
1484	 0.769622473102147 
1485	 0.76968099241465 
1486	 0.769727242064932 
1487	 0.769778841885608 
1488	 0.769849722488598 
1489	 0.769903538199684 
1490	 0.769929448203829 
1491	 0.769986324915945 
1492	 0.770045682871196 
1493	 0.770130696473613 
1494	 0.770234898356747 
1495	 0.770355497160654 
1496	 0.770493537813457 
1497	 0.77064945098049 
1498	 0.770824695671971 
1499	 0.771015267693894 
1500	 0.77122137033739 
1501	 0.771447197242874 
1502	 0.771698700435551 
1503	 0.771951643853173 
1504	 0.772225817793524 
1505	 0.772497856060642 
1506	 0.772767200744034 
1507	 0.773050260044985 
1508	 0.773331609833395 
1509	 0.773637498131395 
1510	 0.773982875464888 
1511	 0.774302696713294 
1512	 0.774624808673187 
1513	 0.774947007233584 
1514	 0.77524603879211 
1515	 0.775560153152594 
1516	 0.775887242567081 
1517	 0.776218378956891 
1518	 0.776549164281976 
1519	 0.776889280488409 
1520	 0.777243317543762 
1521	 0.777601004749147 
1522	 0.777939562227716 
1523	 0.778296247881108 
1524	 0.778636950795161 
1525	 0.778964236697937 
1526	 0.779304164513148 
1527	 0.77964319360623 
1528	 0.779997055570153 
1529	 0.780357116046779 
1530	 0.780724214997529 
1531	 0.781102280290983 
1532	 0.781487000899708 
1533	 0.781870941640187 
1534	 0.782282553016858 
1535	 0.782721443383529 
1536	 0.783137597601019 
1537	 0.783573515962476 
1538	 0.783970390235599 
1539	 0.784347007995983 
1540	 0.784707211076382 
1541	 0.785058849415355 
1542	 0.785369422241756 
1543	 0.785654588725352 
1544	 0.78591024419618 
1545	 0.786132612154648 
1546	 0.78632921434935 
1547	 0.78650301726113 
1548	 0.786640636472206 
1549	 0.786745970609892 
1550	 0.78681883084239 
1551	 0.7868463932873 
1552	 0.78687425128067 
1553	 0.786851614082913 
1554	 0.786877598899247 
1555	 0.786915575804042 
1556	 0.786958312685542 
1557	 0.78702172337528 
1558	 0.787085127377414 
1559	 0.787139574856618 
1560	 0.787221188753192 
1561	 0.787330648231438 
1562	 0.787429223840287 
1563	 0.787526299581797 
1564	 0.78764639906058 
1565	 0.787759996131255 
1566	 0.787912352514472 
1567	 0.788103937379597 
1568	 0.788296473560267 
1569	 0.788508270236447 
1570	 0.788727676921112 
1571	 0.788971788763312 
1572	 0.789194820108657 
1573	 0.78942398120366 
1574	 0.789639552057215 
1575	 0.789827265647852 
1576	 0.790035173183052 
1577	 0.790252359166365 
1578	 0.790463362806699 
1579	 0.790676209228986 
1580	 0.790891020399624 
1581	 0.791100287851644 
1582	 0.791316270212487 
1583	 0.791547150190473 
1584	 0.79176463827252 
1585	 0.791970073455198 
1586	 0.792187099983062 
1587	 0.792414228171282 
1588	 0.792622697350235 
1589	 0.792826370957869 
1590	 0.793032108930302 
1591	 0.793219145191401 
1592	 0.793417404745957 
1593	 0.793630203614925 
1594	 0.79383713373517 
1595	 0.794042870251805 
1596	 0.794243669282588 
1597	 0.794442647295825 
1598	 0.79464066792011 
1599	 0.794838560361996 
1600	 0.795028768330115 
1601	 0.795209482130795 
1602	 0.795397922643298 
1603	 0.795588929260951 
1604	 0.795770203851146 
1605	 0.795963284911462 
1606	 0.796133947966269 
1607	 0.79628215713968 
1608	 0.796427738534987 
1609	 0.796556014316096 
1610	 0.796692299572336 
1611	 0.796851707466715 
1612	 0.796966676049932 
1613	 0.797058212579527 
1614	 0.797144928354139 
1615	 0.797192851486214 
1616	 0.797247916119818 
1617	 0.797320793065381 
1618	 0.797363431246636 
1619	 0.797375176512445 
1620	 0.797396336124899 
1621	 0.797413878151456 
1622	 0.797419407064681 
1623	 0.797436751832186 
1624	 0.797420759772946 
1625	 0.797376630589776 
1626	 0.797321186485482 
1627	 0.797232412954252 
1628	 0.797155789705205 
1629	 0.797083657932199 
1630	 0.796992252957858 
1631	 0.796895190463988 
1632	 0.796788221616676 
1633	 0.796659130748262 
1634	 0.796530274037664 
1635	 0.796404120404675 
1636	 0.796265513139962 
1637	 0.796110749022769 
1638	 0.795959745037627 
1639	 0.795810975838955 
1640	 0.795645784293052 
1641	 0.795492886563788 
1642	 0.79529556312129 
1643	 0.795079687135487 
1644	 0.794825026539326 
1645	 0.794528384834377 
1646	 0.794211237529062 
1647	 0.793847895676963 
1648	 0.793485292002028 
1649	 0.793124740391443 
1650	 0.792714907504367 
1651	 0.792291193472196 
1652	 0.791820802014646 
1653	 0.791308565706865 
1654	 0.790750240113045 
1655	 0.790164749652504 
1656	 0.789505914010427 
1657	 0.78878957869477 
1658	 0.788005015466447 
1659	 0.787162474690965 
1660	 0.786253405539114 
1661	 0.7852965862748 
1662	 0.784231951424417 
1663	 0.783092916624502 
1664	 0.781831101308293 
1665	 0.780472009584612 
1666	 0.77897402251027 
1667	 0.777351831826527 
1668	 0.775639779934905 
1669	 0.7738223054401 
1670	 0.771871343585443 
1671	 0.769792982584651 
1672	 0.767599472410875 
1673	 0.765259803767618 
1674	 0.762820925874162 
1675	 0.760285974084711 
1676	 0.757681419546035 
1677	 0.754960502261739 
1678	 0.752176195029366 
1679	 0.749255410029649 
1680	 0.746348385096349 
1681	 0.743390848804883 
1682	 0.7403842479798 
1683	 0.737367563488413 
1684	 0.734350587808138 
1685	 0.731282170940644 
1686	 0.728181486173155 
1687	 0.725048688595502 
1688	 0.721899973077827 
1689	 0.718691755657346 
1690	 0.715493333038878 
1691	 0.712348746954051 
1692	 0.70916984344585 
1693	 0.705976444338574 
1694	 0.70272408964547 
1695	 0.699426577099903 
1696	 0.696058238159942 
1697	 0.692619981114116 
1698	 0.689124511792397 
1699	 0.685565200402554 
1700	 0.682102542422915 
1701	 0.678565631124777 
1702	 0.675193858913181 
1703	 0.671845033731157 
1704	 0.668725322053008 
1705	 0.665729427951334 
1706	 0.662859754972976 
1707	 0.660316086924921 
1708	 0.657858077811331 
1709	 0.655556056313287 
1710	 0.653466280534373 
1711	 0.651350357317713 
1712	 0.649329507411143 
1713	 0.647365261353286 
1714	 0.645419397995602 
1715	 0.643665079311435 
1716	 0.641937318270739 
1717	 0.640244979984447 
1718	 0.638615069773038 
1719	 0.636980566778933 
1720	 0.635488656084944 
1721	 0.634170964046992 
1722	 0.63302895039932 
1723	 0.632184615618008 
1724	 0.631589239811062 
1725	 0.63126286285477 
1726	 0.631349045011796 
1727	 0.631790070554397 
1728	 0.632536772848643 
1729	 0.633653673891281 
1730	 0.635099180123901 
1731	 0.636693829062695 
1732	 0.638560581617317 
1733	 0.640486812259232 
1734	 0.642411612867186 
1735	 0.644419472261898 
1736	 0.646262787495515 
1737	 0.64798031651035 
1738	 0.649478262368112 
1739	 0.650695956066102 
1740	 0.651682503860699 
1741	 0.652443320150832 
1742	 0.652907911492058 
1743	 0.653263170022562 
1744	 0.653382327872985 
1745	 0.653441851182055 
1746	 0.653302823153345 
1747	 0.653195383627061 
1748	 0.652967316696816 
1749	 0.652849989890454 
1750	 0.652734899471723 
1751	 0.652739789218013 
1752	 0.652803695470376 
1753	 0.652971476598301 
1754	 0.653197465976311 
1755	 0.653603763223987 
1756	 0.654110783219752 
1757	 0.654814820902576 
1758	 0.655752255977997 
1759	 0.656835084484733 
1760	 0.658092968931968 
1761	 0.659569177885705 
1762	 0.661148858854213 
1763	 0.662970475087773 
1764	 0.664949877732762 
1765	 0.667011800799319 
1766	 0.669265287474541 
1767	 0.671488761135155 
1768	 0.673776066390933 
1769	 0.676106414155413 
1770	 0.678212031629119 
1771	 0.680290207357086 
1772	 0.682255005952524 
1773	 0.684022635040698 
1774	 0.685790610882631 
1775	 0.687371212713004 
1776	 0.688806967261783 
1777	 0.690150132039178 
1778	 0.691299873534547 
1779	 0.692385133458937 
1780	 0.693348163133992 
1781	 0.694183943896588 
1782	 0.694990778123977 
1783	 0.695676149516379 
1784	 0.696277171440226 
1785	 0.696753916437479 
1786	 0.697185088049912 
1787	 0.697523450498102 
1788	 0.69784496011034 
1789	 0.698116932868732 
1790	 0.698393634011743 
1791	 0.698647210485511 
1792	 0.698889417033381 
1793	 0.699113376226219 
1794	 0.699281303437764 
1795	 0.699458716734276 
1796	 0.699605151851572 
1797	 0.699751243745203 
1798	 0.699962686464225 
1799	 0.70019418143744 
1800	 0.700440394097513 
1801	 0.69935027378631 
1802	 0.699587298209651 
1803	 0.699846819383648 
1804	 0.700087439724833 
1805	 0.700379021301264 
1806	 0.700668635188293 
1807	 0.701002333014492 
1808	 0.701293284745259 
1809	 0.701574611970868 
1810	 0.701850042324411 
1811	 0.702090969973847 
1812	 0.702372340358531 
1813	 0.702655799127558 
1814	 0.702978836037337 
1815	 0.703322912209343 
1816	 0.703636518811257 
1817	 0.703989817106542 
1818	 0.704362620991938 
1819	 0.704739782698916 
1820	 0.705144734703307 
1821	 0.705542286463128 
1822	 0.705939372630414 
1823	 0.7063439950031 
1824	 0.706757212385816 
1825	 0.707180879101882 
1826	 0.707580107683902 
1827	 0.70798129647835 
1828	 0.708360472725579 
1829	 0.708716882807181 
1830	 0.709075698439828 
1831	 0.709425245429388 
1832	 0.709776347894001 
1833	 0.71011968795979 
1834	 0.710478893895309 
1835	 0.710877811586614 
1836	 0.711259214727295 
1837	 0.711646618660692 
1838	 0.712053497912499 
1839	 0.712427725756557 
1840	 0.71280034465093 
1841	 0.713159915089619 
1842	 0.713490096531995 
1843	 0.713841261772448 
1844	 0.714204982821354 
1845	 0.714503381498067 
1846	 0.714813239606425 
1847	 0.715107088811485 
1848	 0.715370029385874 
1849	 0.715639877410286 
1850	 0.715821440948094 
1851	 0.715953500961789 
1852	 0.716054555441038 
1853	 0.716106307973899 
1854	 0.716094345757757 
1855	 0.716064877792285 
1856	 0.715996188590629 
1857	 0.715880646987743 
1858	 0.715716356244781 
1859	 0.715509312622519 
1860	 0.715296426628885 
1861	 0.714985713780843 
1862	 0.714606889049554 
1863	 0.714169486939622 
1864	 0.713658337939305 
1865	 0.713099076359396 
1866	 0.71246118599104 
1867	 0.711712832529556 
1868	 0.71093173136862 
1869	 0.710052982501278 
1870	 0.7090673846717 
1871	 0.708006792065111 
1872	 0.706866343443272 
1873	 0.705634151588521 
1874	 0.704314722843248 
1875	 0.702919052551049 
1876	 0.701346929181987 
1877	 0.699716109202462 
1878	 0.697902020657633 
1879	 0.695938849561662 
1880	 0.693970983403298 
1881	 0.691805719678025 
1882	 0.689478108917841 
1883	 0.687040807217461 
1884	 0.684389715020702 
1885	 0.681361591454708 
1886	 0.678218697293431 
1887	 0.674747382023296 
1888	 0.670971442861691 
1889	 0.667292060627001 
1890	 0.663304870157742 
1891	 0.659260172717921 
1892	 0.655159227427812 
1893	 0.650837313785331 
1894	 0.646242110956982 
1895	 0.641755088819467 
1896	 0.637074754119476 
1897	 0.632344407423779 
1898	 0.627986058504582 
1899	 0.623520484264848 
1900	 0.619184065307897 
1901	 0.615033469624984 
1902	 0.61062208566171 
1903	 0.606410618225572 
1904	 0.602311969833975 
1905	 0.598252373384637 
1906	 0.594281255691286 
1907	 0.59074252280242 
1908	 0.587194513302567 
1909	 0.583801368010479 
1910	 0.580621138601175 
1911	 0.57735433687228 
1912	 0.574342360591083 
1913	 0.571414672418551 
1914	 0.568528849605583 
1915	 0.565868802845924 
1916	 0.563452581693966 
1917	 0.561008077437709 
1918	 0.55869814771371 
1919	 0.556563077647126 
1920	 0.554399838342281 
1921	 0.552439360776752 
1922	 0.550583248711634 
1923	 0.548796960046895 
1924	 0.547238299790079 
1925	 0.545751173610719 
1926	 0.544353139849222 
1927	 0.543100858380232 
1928	 0.541882021261919 
1929	 0.540705378328544 
1930	 0.539644889855339 
1931	 0.538677332765587 
1932	 0.53784406588228 
1933	 0.537203064444647 
1934	 0.53663549647077 
1935	 0.536150854103485 
1936	 0.535807502669966 
1937	 0.535554823684128 
1938	 0.535399913296868 
1939	 0.535337202259644 
1940	 0.53538874809207 
1941	 0.535519375082345 
1942	 0.535725220252084 
1943	 0.536008503692495 
1944	 0.536363050132458 
1945	 0.536792390641428 
1946	 0.537307572265246 
1947	 0.537853111446444 
1948	 0.53842637764619 
1949	 0.539072554069824 
1950	 0.539725645611554 
1951	 0.540374477050199 
1952	 0.541090973876032 
1953	 0.541872349634304 
1954	 0.542646965965424 
1955	 0.543482612959802 
1956	 0.544321597381656 
1957	 0.545179982977059 
1958	 0.546078994088077 
1959	 0.546918669756867 
1960	 0.547776391531601 
1961	 0.54863785377577 
1962	 0.549472814902789 
1963	 0.550347122180824 
1964	 0.551270493061629 
1965	 0.552147948738284 
1966	 0.553034551818457 
1967	 0.553905278014788 
1968	 0.554688304639579 
1969	 0.555523936169197 
1970	 0.556380711944028 
1971	 0.557219101410809 
1972	 0.558115304770131 
1973	 0.558981605590517 
1974	 0.559841637746177 
1975	 0.560696371155112 
1976	 0.561546093680723 
1977	 0.562391614533016 
1978	 0.563229701936157 
1979	 0.564068190016132 
1980	 0.564869293319354 
1981	 0.565695502260014 
1982	 0.566473506831267 
1983	 0.567265602995144 
1984	 0.568071531069809 
1985	 0.568788881311595 
1986	 0.569539494140186 
1987	 0.570266322371135 
1988	 0.570943137232744 
1989	 0.571647701856425 
1990	 0.572392223374314 
1991	 0.57307311433281 
1992	 0.573725981832373 
1993	 0.574387048596035 
1994	 0.5749855168354 
1995	 0.575580758136963 
1996	 0.576187933998497 
1997	 0.576791440125925 
1998	 0.577402240173522 
1999	 0.578035466301105 
2000	 0.578619953318007 
2001	 0.579205152244587 
2002	 0.579745526190639 
2003	 0.580244171876543 
2004	 0.580733811082103 
2005	 0.581199892440045 
2006	 0.58164413951399 
2007	 0.582087752268663 
2008	 0.582468870430011 
2009	 0.582817251133343 
2010	 0.583148238178983 
2011	 0.583381764115649 
2012	 0.583558566508134 
2013	 0.58369805456733 
2014	 0.583798266700831 
2015	 0.583808467947869 
2016	 0.58378490018993 
2017	 0.583659336236212 
2018	 0.583437719090962 
2019	 0.583131782473597 
2020	 0.582743086661347 
2021	 0.582272329107021 
2022	 0.581717947049667 
2023	 0.581130745444688 
2024	 0.580449437295443 
2025	 0.579687751222924 
2026	 0.578843329379283 
2027	 0.57785497960617 
2028	 0.576901080608722 
2029	 0.575876392284966 
2030	 0.574866990249531 
2031	 0.573855096817079 
2032	 0.572831780056951 
2033	 0.571716335608478 
2034	 0.570732795973184 
2035	 0.569789482850176 
2036	 0.568870491741976 
2037	 0.568085816029264 
2038	 0.567376839575164 
2039	 0.566746015688362 
2040	 0.566185784741877 
2041	 0.565722462634987 
2042	 0.56536540046444 
2043	 0.565060699049629 
2044	 0.564828870325485 
2045	 0.564666306880308 
2046	 0.564582608425212 
2047	 0.564551816332091 
2048	 0.56460298771746 
2049	 0.564702924393497 
2050	 0.564871781316868 
2051	 0.565070366278261 
2052	 0.565329858097621 
2053	 0.565646677535961 
2054	 0.565963970528867 
2055	 0.566313595251261 
2056	 0.566684709752597 
2057	 0.567066223729526 
2058	 0.567489248291047 
2059	 0.5679774594429 
2060	 0.568432377208453 
2061	 0.568917276263776 
2062	 0.569372184212311 
2063	 0.56977968164623 
2064	 0.57022441920214 
2065	 0.570674853790065 
2066	 0.57114615974212 
2067	 0.571627606457749 
2068	 0.572098729104915 
2069	 0.572536711881832 
2070	 0.57296359200786 
2071	 0.573348430923519 
2072	 0.573699472601778 
2073	 0.574038473431554 
2074	 0.574344265184026 
2075	 0.57463701022771 
2076	 0.574929185151523 
2077	 0.575170577961132 
2078	 0.575382627782812 
2079	 0.575565082600879 
2080	 0.575693977213673 
2081	 0.575818788032446 
2082	 0.57593377830604 
2083	 0.576005103733251 
2084	 0.576065782580353 
2085	 0.576112613843078 
2086	 0.576149279211043 
2087	 0.576168726724327 
2088	 0.576177097799653 
2089	 0.576185310947002 
2090	 0.576160843119268 
2091	 0.576111906783052 
2092	 0.576044997829653 
2093	 0.575959336538365 
2094	 0.575847922792554 
2095	 0.575714118755859 
2096	 0.575559139644987 
2097	 0.575375067126942 
2098	 0.575173195152858 
2099	 0.574959379570254 
2100	 0.574746178085816 
2101	 0.57451508483756 
2102	 0.574288526312414 
2103	 0.5740103633312 
2104	 0.573698079112605 
2105	 0.57337643837855 
2106	 0.573020010296327 
2107	 0.572655885227776 
2108	 0.572303974094726 
2109	 0.571893738901562 
2110	 0.571438774441157 
2111	 0.57097193977518 
2112	 0.570459284376635 
2113	 0.569941558901317 
2114	 0.56942427820225 
2115	 0.568871931005143 
2116	 0.568279661665741 
2117	 0.56768728770172 
2118	 0.567091818526808 
2119	 0.56647687562147 
2120	 0.565865222902633 
2121	 0.565241819940204 
2122	 0.564650614811204 
2123	 0.564054412519003 
2124	 0.563481852735786 
2125	 0.562961874619282 
2126	 0.562402118924911 
2127	 0.561818185350531 
2128	 0.561262465862809 
2129	 0.560712969741815 
2130	 0.560161033226411 
2131	 0.559651281820433 
2132	 0.559092846962502 
2133	 0.558489076723811 
2134	 0.557910335097394 
2135	 0.557300923115145 
2136	 0.556686281117556 
2137	 0.556055930739625 
2138	 0.555406193583915 
2139	 0.554779891469276 
2140	 0.554133467562873 
2141	 0.553524318880152 
2142	 0.552955071210543 
2143	 0.552371013358559 
2144	 0.551799578142435 
2145	 0.551220286635747 
2146	 0.55062715869714 
2147	 0.550052240085703 
2148	 0.549496525449024 
2149	 0.548917392129344 
2150	 0.548334531546711 
2151	 0.547758847594734 
2152	 0.547145831460777 
2153	 0.54658523735838 
2154	 0.546032690479474 
2155	 0.545483669735512 
2156	 0.544932129822993 
2157	 0.544380955070698 
2158	 0.543835521605562 
2159	 0.543302854719981 
2160	 0.542749187403196 
2161	 0.542181776392593 
2162	 0.541637924052302 
2163	 0.541071809469924 
2164	 0.540551259412522 
2165	 0.540059606461633 
2166	 0.539588903030405 
2167	 0.539129091309667 
2168	 0.538713627716503 
2169	 0.538329228318446 
2170	 0.537984862147103 
2171	 0.537665949104141 
2172	 0.537402127835432 
2173	 0.537194677072156 
2174	 0.537000590780176 
2175	 0.536883957864332 
2176	 0.536827355737021 
2177	 0.53679086772325 
2178	 0.536794836395693 
2179	 0.536851055636704 
2180	 0.536953421007019 
2181	 0.537077711953787 
2182	 0.537260487276546 
2183	 0.537443015483415 
2184	 0.53764864904702 
2185	 0.537860792239805 
2186	 0.538093755190454 
2187	 0.538339071291692 
2188	 0.538622010946148 
2189	 0.53885837386626 
2190	 0.539074495366997 
2191	 0.539315492364081 
2192	 0.539535730001584 
2193	 0.539767500653684 
2194	 0.540046937045451 
2195	 0.540292835622506 
2196	 0.540515429184902 
2197	 0.540733935010403 
2198	 0.540923646981678 
2199	 0.5411541255389 
2200	 0.54137671816547 
2201	 0.541618249746539 
2202	 0.541803261906264 
2203	 0.541981551942903 
2204	 0.542126147377586 
2205	 0.542212075732638 
2206	 0.542315476522638 
2207	 0.542428221464235 
2208	 0.5425035356525 
2209	 0.542568666404031 
2210	 0.542591951496367 
2211	 0.542583137414011 
2212	 0.542544551094816 
2213	 0.542451871948216 
2214	 0.542366852159732 
2215	 0.542283406371494 
2216	 0.542151169742571 
2217	 0.542017940580071 
2218	 0.541827501630296 
2219	 0.541611851296673 
2220	 0.541306296978564 
2221	 0.540949980694949 
2222	 0.540490451417725 
2223	 0.540023142713095 
2224	 0.539486510035274 
2225	 0.538850029344138 
2226	 0.538152338866391 
2227	 0.53729976441504 
2228	 0.536294459277173 
2229	 0.535202273987156 
2230	 0.534007244725926 
2231	 0.532697221514026 
2232	 0.531280912089492 
2233	 0.529704447310771 
2234	 0.528039494873638 
2235	 0.526148129880445 
2236	 0.524104647652439 
2237	 0.52183435369196 
2238	 0.519274232028166 
2239	 0.516677010890781 
2240	 0.513933703297947 
2241	 0.511013315271377 
2242	 0.508057372223676 
2243	 0.50480480017312 
2244	 0.501214580193623 
2245	 0.497602667449995 
2246	 0.493700577168299 
2247	 0.489858446132975 
2248	 0.486009367250514 
2249	 0.482061192179369 
2250	 0.478029706914947 
2251	 0.474079272626787 
2252	 0.469763673617322 
2253	 0.465544787443216 
2254	 0.461301657439085 
2255	 0.457019302687529 
2256	 0.453142906265121 
2257	 0.449301193940007 
2258	 0.44558428064513 
2259	 0.442087053093373 
2260	 0.438499430360931 
2261	 0.434898503204447 
2262	 0.431495592690808 
2263	 0.428068887866633 
2264	 0.424941634044958 
2265	 0.422121758917927 
2266	 0.41922992285274 
2267	 0.416541131979407 
2268	 0.413747981080915 
2269	 0.410892829746963 
2270	 0.408143403723553 
2271	 0.405375053928455 
2272	 0.402726949736507 
2273	 0.400244965177277 
2274	 0.397687400937499 
2275	 0.395254489129016 
2276	 0.3926682557422 
2277	 0.389963585773047 
2278	 0.387284302374974 
2279	 0.38448669448397 
2280	 0.381752143033723 
2281	 0.37910315959767 
2282	 0.376369319434067 
2283	 0.373621040916008 
2284	 0.37086970884341 
2285	 0.367895301417217 
2286	 0.365016485269942 
2287	 0.362047759635593 
2288	 0.358975410527658 
2289	 0.356067435047129 
2290	 0.35300536593538 
2291	 0.349941613541779 
2292	 0.346959795063927 
2293	 0.343860227981591 
2294	 0.340921652689291 
2295	 0.338149449763152 
2296	 0.335498808290568 
2297	 0.333282049737633 
2298	 0.331379509650835 
2299	 0.329794087752086 
2300	 0.328547410256084 
2301	 0.32767828653813 
2302	 0.327109047057105 
2303	 0.327025783834254 
2304	 0.327427147318395 
2305	 0.328138487229485 
2306	 0.329341150429749 
2307	 0.330753971921489 
2308	 0.332464096981571 
2309	 0.33453713385648 
2310	 0.337089097195878 
2311	 0.339647709034578 
2312	 0.34268472580871 
2313	 0.345469974790479 
2314	 0.348319543657886 
2315	 0.351018116269998 
2316	 0.353671066273423 
2317	 0.356124626026936 
2318	 0.358601558723091 
2319	 0.360567209339949 
2320	 0.362291393565051 
2321	 0.363617758277155 
2322	 0.364390723106144 
2323	 0.365038274558009 
2324	 0.365381841560858 
2325	 0.365513257253837 
2326	 0.36539679882337 
2327	 0.365059414528544 
2328	 0.364433352044883 
2329	 0.363625082125888 
2330	 0.362605896603732 
2331	 0.361322401572462 
2332	 0.359874529861281 
2333	 0.358215411741314 
2334	 0.356299364398675 
2335	 0.354319362751585 
2336	 0.352176997067694 
2337	 0.349913553064076 
2338	 0.347779012355226 
2339	 0.345571681590164 
2340	 0.343458852003977 
2341	 0.341594543053829 
2342	 0.339813616749624 
2343	 0.338303416128537 
2344	 0.337121904501743 
2345	 0.336347412511829 
2346	 0.336078347528019 
2347	 0.336335531587263 
2348	 0.336986960027304 
2349	 0.338146318159033 
2350	 0.339755239772334 
2351	 0.341663799367902 
2352	 0.343854516074561 
2353	 0.346168204320438 
2354	 0.348296686700999 
2355	 0.350330826382201 
2356	 0.352261498156497 
2357	 0.353888671826614 
2358	 0.355431788543334 
2359	 0.35668559816228 
2360	 0.357609178949798 
2361	 0.358340880777025 
2362	 0.358904939893464 
2363	 0.359257774447065 
2364	 0.359431086143371 
2365	 0.359608120908253 
2366	 0.359675620526862 
2367	 0.35969150457837 
2368	 0.359809316223152 
2369	 0.35995049848799 
2370	 0.360064568406866 
2371	 0.360164902790064 
2372	 0.360240254332291 
2373	 0.360225188089376 
2374	 0.360191628701699 
2375	 0.360237698754672 
2376	 0.360382894565832 
2377	 0.36062265040971 
2378	 0.360957194320651 
2379	 0.361220333199683 
2380	 0.361344617220641 
2381	 0.361438713866166 
2382	 0.36154665682955 
2383	 0.361535039586361 
2384	 0.361709814795623 
2385	 0.362017050205506 
2386	 0.362278830742749 
2387	 0.362630345482381 
2388	 0.362863331835645 
2389	 0.363040015104386 
2390	 0.363163813507551 
2391	 0.36316608849875 
2392	 0.363280308944185 
2393	 0.363432340740136 
2394	 0.363571258053486 
2395	 0.363799058999632 
2396	 0.363908244178306 
2397	 0.363880715999557 
2398	 0.364022638233581 
2399	 0.364197077131857 
2400	 0.364349782863647 
2401	 0.364572451839427 
2402	 0.364602360458236 
2403	 0.364824713726671 
2404	 0.364938086488907 
2405	 0.365026573801032 
2406	 0.365099704519426 
2407	 0.365123025727184 
2408	 0.365263453815136 
2409	 0.36537569415904 
2410	 0.365522170396126 
2411	 0.365582870637664 
2412	 0.3655048946517 
2413	 0.36556858761807 
2414	 0.365673063853188 
2415	 0.365774553419635 
2416	 0.36583404518773 
2417	 0.365839832463744 
2418	 0.36580304343455 
2419	 0.36574209737588 
2420	 0.365734148588551 
2421	 0.365546323593096 
2422	 0.365383041599705 
2423	 0.365316893155853 
2424	 0.365155950323715 
2425	 0.365053896453881 
2426	 0.364946685166516 
2427	 0.365002793146914 
2428	 0.365041905062918 
2429	 0.364911562394809 
2430	 0.364865850601826 
2431	 0.364695113478604 
2432	 0.364499923164321 
2433	 0.364397131357404 
2434	 0.364204974181035 
2435	 0.363918473121393 
2436	 0.363554796936556 
2437	 0.363158446576691 
2438	 0.362739138491559 
2439	 0.362132363372148 
2440	 0.361427019132754 
2441	 0.360947423490988 
2442	 0.360506942081211 
2443	 0.359891449880475 
2444	 0.359355064516877 
2445	 0.358807809602393 
2446	 0.358078803266118 
2447	 0.357354071248881 
2448	 0.356680847674685 
2449	 0.355825635653521 
2450	 0.354963005513641 
2451	 0.35433609150647 
2452	 0.353572013883527 
2453	 0.35273427505747 
2454	 0.352108250537534 
2455	 0.351341068043011 
2456	 0.350438857337023 
2457	 0.349800718901951 
2458	 0.348985317641883 
2459	 0.348215284555869 
2460	 0.347849170840002 
2461	 0.34712633908485 
2462	 0.346285676425859 
2463	 0.345647758299126 
2464	 0.344973777681977 
2465	 0.344473458161524 
2466	 0.344208504606678 
2467	 0.343848044554698 
2468	 0.343355956565058 
2469	 0.342785594641375 
2470	 0.342156906611999 
2471	 0.341532678814876 
2472	 0.340767812980446 
2473	 0.340437668755089 
2474	 0.340342677369065 
2475	 0.340042805254466 
2476	 0.340084303886239 
2477	 0.339887326943114 
2478	 0.339349836077568 
2479	 0.339234161623208 
2480	 0.339121398977513 
2481	 0.33885835522136 
2482	 0.338562811891088 
2483	 0.338225752341606 
2484	 0.338276975713539 
2485	 0.33837314398088 
2486	 0.338224929391131 
2487	 0.337916516540317 
2488	 0.337652519329795 
2489	 0.337834056873834 
2490	 0.338240258075682 
2491	 0.338602889118029 
2492	 0.339053361840577 
2493	 0.339235426081713 
2494	 0.339141100579954 
2495	 0.3395115807538 
2496	 0.339913865324672 
2497	 0.339853384294233 
2498	 0.340081674024667 
2499	 0.340491131426009 
2500	 0.340847884160924 
