Wavelength	spectrum00012.asd
350	 3.58496197311858E-02 
351	 3.62498720594684E-02 
352	 3.53891374046443E-02 
353	 3.36547353012625E-02 
354	 3.48450418029224E-02 
355	 0.033702048140268 
356	 3.28063415471101E-02 
357	 3.40091028096368E-02 
358	 3.16039079104307E-02 
359	 2.95884827745986E-02 
360	 2.93368809285567E-02 
361	 3.04069694682854E-02 
362	 0.03077516764207 
363	 0.029406607099325 
364	 2.72521711437678E-02 
365	 2.75556376865013E-02 
366	 2.78750532962126E-02 
367	 2.80808992929538E-02 
368	 2.84866442515801E-02 
369	 2.90816938475398E-02 
370	 2.89991849470476E-02 
371	 2.86722005437417E-02 
372	 2.91290525009855E-02 
373	 2.95370504424563E-02 
374	 2.96442155982874E-02 
375	 2.93071864947718E-02 
376	 2.83902633112097E-02 
377	 2.91401100465144E-02 
378	 3.00254062571301E-02 
379	 2.93039680980867E-02 
380	 2.79998286337433E-02 
381	 2.78447662859158E-02 
382	 2.84661546780649E-02 
383	 0.028363391642346 
384	 2.88952292960327E-02 
385	 2.92813443598706E-02 
386	 2.89181231076586E-02 
387	 2.77561120968144E-02 
388	 0.027587732940028 
389	 2.78069700918396E-02 
390	 2.75432900583752E-02 
391	 2.75702288567223E-02 
392	 2.86079873390172E-02 
393	 2.95699561965702E-02 
394	 2.85885790121298E-02 
395	 2.86933004125213E-02 
396	 2.90735187038069E-02 
397	 0.029053699717751 
398	 2.90526203443044E-02 
399	 2.86789292766614E-02 
400	 2.80948120336953E-02 
401	 2.76272691753116E-02 
402	 2.74571711833861E-02 
403	 2.80605740550335E-02 
404	 2.88597292476957E-02 
405	 2.86462557904878E-02 
406	 2.86770064511805E-02 
407	 2.85997041891163E-02 
408	 2.82526072368217E-02 
409	 2.83125020504326E-02 
410	 2.82667134005399E-02 
411	 2.82291784609967E-02 
412	 2.84195028433238E-02 
413	 2.86024055911748E-02 
414	 0.028328174516307 
415	 0.027940059482547 
416	 2.84035575515179E-02 
417	 2.84389073978426E-02 
418	 2.84046209663754E-02 
419	 2.86156771056451E-02 
420	 2.85894858564573E-02 
421	 2.84622580591527E-02 
422	 2.85445188184499E-02 
423	 0.029044973872083 
424	 2.90428767540109E-02 
425	 2.90817952023058E-02 
426	 2.92851879219524E-02 
427	 2.91725449208403E-02 
428	 2.91527176512194E-02 
429	 2.93288951520109E-02 
430	 2.96022608918684E-02 
431	 2.94764821915221E-02 
432	 2.94845475167133E-02 
433	 0.029685870455654 
434	 2.98767979902436E-02 
435	 3.01844736902768E-02 
436	 3.04096175204161E-02 
437	 3.04705636869043E-02 
438	 3.05021895695966E-02 
439	 3.07156740186431E-02 
440	 3.09213178387482E-02 
441	 3.09353366372331E-02 
442	 3.11400559753948E-02 
443	 3.14157081983419E-02 
444	 3.16239490234777E-02 
445	 3.16476448632228E-02 
446	 3.17147933125647E-02 
447	 3.17213413929053E-02 
448	 3.16713303457843E-02 
449	 3.19592181303621E-02 
450	 3.21095829031195E-02 
451	 3.21294917616989E-02 
452	 3.21958214565241E-02 
453	 3.22706430750849E-02 
454	 3.23242438754079E-02 
455	 3.23341248329075E-02 
456	 3.22896446028985E-02 
457	 3.23102951478616E-02 
458	 3.23634462508483E-02 
459	 3.23973657967574E-02 
460	 3.24214911859866E-02 
461	 3.24111451537562E-02 
462	 3.24038532449923E-02 
463	 3.24622539032771E-02 
464	 3.25441199937217E-02 
465	 3.26088882015048E-02 
466	 3.25834867905677E-02 
467	 3.23284315539237E-02 
468	 3.23159930763391E-02 
469	 3.24506795688347E-02 
470	 3.25288660044441E-02 
471	 3.27203252213239E-02 
472	 3.26983426279175E-02 
473	 3.26004631242536E-02 
474	 3.28857133911553E-02 
475	 3.28431309349018E-02 
476	 3.27414761971118E-02 
477	 3.28134787252322E-02 
478	 3.28525132778665E-02 
479	 3.29136694646099E-02 
480	 3.29978429769965E-02 
481	 3.30923226060799E-02 
482	 0.033206246587564 
483	 0.03336452172087 
484	 3.35352174783846E-02 
485	 3.36240478499163E-02 
486	 3.38148612598049E-02 
487	 3.39783330028967E-02 
488	 3.40168032730995E-02 
489	 0.034159414226777 
490	 3.42940377317775E-02 
491	 3.44355197819233E-02 
492	 3.46593545938811E-02 
493	 0.034872535006372 
494	 3.50232656468766E-02 
495	 3.51236147166258E-02 
496	 3.52716432309263E-02 
497	 3.55404963309015E-02 
498	 3.57924018348587E-02 
499	 3.59069785890619E-02 
500	 3.61812169450066E-02 
501	 3.64323192756579E-02 
502	 3.65975300411907E-02 
503	 3.67435872091329E-02 
504	 3.69997533608956E-02 
505	 3.72768778398662E-02 
506	 3.74921448917183E-02 
507	 3.76718767462936E-02 
508	 3.79063027543506E-02 
509	 3.81822707769278E-02 
510	 3.84437148524062E-02 
511	 3.87105204288626E-02 
512	 0.039012152567935 
513	 3.93420562394911E-02 
514	 3.96482202356988E-02 
515	 3.99513858920709E-02 
516	 0.040230506122487 
517	 4.04807191086354E-02 
518	 4.07759076994494E-02 
519	 4.11421743341766E-02 
520	 4.15369528774743E-02 
521	 4.18767237056536E-02 
522	 4.21921401634585E-02 
523	 4.25211606545761E-02 
524	 4.28927137338292E-02 
525	 4.33298575401781E-02 
526	 0.043688694733333 
527	 4.40375682694336E-02 
528	 0.044492017831429 
529	 4.49548468148099E-02 
530	 4.54040673519334E-02 
531	 4.58691370746282E-02 
532	 4.64238149690561E-02 
533	 4.69142998147184E-02 
534	 4.73728842782506E-02 
535	 4.78679799113364E-02 
536	 4.84497945085033E-02 
537	 4.90422150018787E-02 
538	 0.049631666184701 
539	 5.02383049023075E-02 
540	 5.08265124684156E-02 
541	 5.14662053685877E-02 
542	 5.21722571948154E-02 
543	 5.28538568635807E-02 
544	 5.35616090600612E-02 
545	 5.42594869786257E-02 
546	 5.49209052826266E-02 
547	 5.56785001932419E-02 
548	 5.64322334835536E-02 
549	 5.71827749436026E-02 
550	 5.80209966717087E-02 
551	 5.88257936380053E-02 
552	 5.96800579125795E-02 
553	 6.06346965069857E-02 
554	 6.15639010989252E-02 
555	 6.24971104528707E-02 
556	 0.063472087808506 
557	 6.45248618739748E-02 
558	 6.56304244288673E-02 
559	 6.67522267857126E-02 
560	 0.067868363529936 
561	 6.89800331736131E-02 
562	 7.01003837144507E-02 
563	 7.12621973583275E-02 
564	 7.24778093080517E-02 
565	 7.36769115478785E-02 
566	 7.48336364555037E-02 
567	 7.59892713749122E-02 
568	 7.72239229956839E-02 
569	 7.84235958443644E-02 
570	 0.079589765369449 
571	 8.07312508892667E-02 
572	 8.18166444835093E-02 
573	 8.29736672111395E-02 
574	 8.41788127766692E-02 
575	 8.53641426116711E-02 
576	 8.66015410918921E-02 
577	 8.78175765808515E-02 
578	 8.89766427452224E-02 
579	 9.00959025884872E-02 
580	 9.12278116436556E-02 
581	 9.23655669350135E-02 
582	 0.093501898979525 
583	 9.46822583925434E-02 
584	 9.58200547065922E-02 
585	 9.69217132949337E-02 
586	 9.80426264051498E-02 
587	 9.91113212650015E-02 
588	 0.100122127579598 
589	 0.101095844664825 
590	 0.102083873442439 
591	 0.103019409001563 
592	 0.103911026182672 
593	 0.104773076925455 
594	 0.105533723818541 
595	 0.106312494044296 
596	 0.107109021683416 
597	 0.107814120781576 
598	 0.108472911046265 
599	 0.109144532562528 
600	 0.109840820503652 
601	 0.110445758252319 
602	 0.111043937623423 
603	 0.1116467580371 
604	 0.112224884314001 
605	 0.112712032612462 
606	 0.113179362412611 
607	 0.11365563979326 
608	 0.114101174697499 
609	 0.114479814234977 
610	 0.114835612664952 
611	 0.115209812469554 
612	 0.115559514956863 
613	 0.115878383348258 
614	 0.116167512320971 
615	 0.116433695751503 
616	 0.116667973660878 
617	 0.116916836702118 
618	 0.117186014408428 
619	 0.117397760858502 
620	 0.117598858676593 
621	 0.117815777202295 
622	 0.118048448635041 
623	 0.118198000105179 
624	 0.118373333495816 
625	 0.1185819202934 
626	 0.118734058920365 
627	 0.118912084166158 
628	 0.119085067623571 
629	 0.119226925684537 
630	 0.119375428150621 
631	 0.119515525313553 
632	 0.119663095167644 
633	 0.119834048863397 
634	 0.119947755746796 
635	 0.120093068189137 
636	 0.120290368721225 
637	 0.120457468254805 
638	 0.120574928898891 
639	 0.120692803419272 
640	 0.120855871832785 
641	 0.121030645508617 
642	 0.121178189325446 
643	 0.121316944730961 
644	 0.1214971358383 
645	 0.121697959170038 
646	 0.121867621680984 
647	 0.122005660740682 
648	 0.122200759699044 
649	 0.122402330138352 
650	 0.122612534838796 
651	 0.122832505881784 
652	 0.122991758498743 
653	 0.123174442971692 
654	 0.123398048887054 
655	 0.123622456730465 
656	 0.123863613751377 
657	 0.124097925482078 
658	 0.124319101457524 
659	 0.124570923620688 
660	 0.124808788464616 
661	 0.125055894789818 
662	 0.125346045483991 
663	 0.125631047670724 
664	 0.125896284696672 
665	 0.1261497787795 
666	 0.126420185551444 
667	 0.12674507382673 
668	 0.127071959545072 
669	 0.127363596242309 
670	 0.127668361849687 
671	 0.127998339484445 
672	 0.128339669630192 
673	 0.128670421380998 
674	 0.129010151107833 
675	 0.129363320267725 
676	 0.129736753428805 
677	 0.130141411199823 
678	 0.13050900638565 
679	 0.13088027430873 
680	 0.131293605477548 
681	 0.131694447689525 
682	 0.132128825551652 
683	 0.132570991544395 
684	 0.132967048213653 
685	 0.133375630421472 
686	 0.133797268278501 
687	 0.134249353661818 
688	 0.13478412840081 
689	 0.135230461938345 
690	 0.135633330178542 
691	 0.136084956101043 
692	 0.136618466174388 
693	 0.137152501655856 
694	 0.137669622039793 
695	 0.13819093774526 
696	 0.138679838155857 
697	 0.139181001256565 
698	 0.139720413684592 
699	 0.140280515427869 
700	 0.140830073229335 
701	 0.141367356869701 
702	 0.141909193008979 
703	 0.142495282265849 
704	 0.143114137257731 
705	 0.143727444156905 
706	 0.144289179947354 
707	 0.144856690457975 
708	 0.145467463033085 
709	 0.146114458189059 
710	 0.146724808411476 
711	 0.147318967619563 
712	 0.147923776967154 
713	 0.148557961014129 
714	 0.149196102173379 
715	 0.149832296777791 
716	 0.150465179656612 
717	 0.151096701804358 
718	 0.151740887752362 
719	 0.152377699315213 
720	 0.152998116756962 
721	 0.153616768729152 
722	 0.154241564875875 
723	 0.154871838679738 
724	 0.155500727389149 
725	 0.156118182024375 
726	 0.156692063509625 
727	 0.157264567615241 
728	 0.157914172438693 
729	 0.15851134978909 
730	 0.159072454763806 
731	 0.159634317379665 
732	 0.160234280666767 
733	 0.160792722118101 
734	 0.161312678275146 
735	 0.161825614313955 
736	 0.162361387201587 
737	 0.162897789936045 
738	 0.163393135274207 
739	 0.163811691364679 
740	 0.164285745171498 
741	 0.164783471118898 
742	 0.165247742818876 
743	 0.165617839609646 
744	 0.166015020164408 
745	 0.166446751653697 
746	 0.16687461129866 
747	 0.167224581225868 
748	 0.16756230499928 
749	 0.167887799473861 
750	 0.168168583536017 
751	 0.168441048661617 
752	 0.168707131356817 
753	 0.168962714094201 
754	 0.169200561016893 
755	 0.1693774856153 
756	 0.16956097998982 
757	 0.169780128985502 
758	 0.169875649853455 
759	 0.169954100200763 
760	 0.170050848718984 
761	 0.170159989819773 
762	 0.170247247758532 
763	 0.17032115438632 
764	 0.170371894591 
765	 0.170369889501206 
766	 0.170355766190045 
767	 0.170318863128581 
768	 0.170256274192491 
769	 0.170206850918662 
770	 0.170150989861895 
771	 0.170053974823166 
772	 0.169898000362445 
773	 0.169771289891484 
774	 0.16964791072216 
775	 0.169495959653231 
776	 0.169290899535399 
777	 0.169099409270645 
778	 0.168904790836538 
779	 0.168684109393304 
780	 0.168426035414153 
781	 0.168169463722893 
782	 0.167885763063648 
783	 0.167560635597907 
784	 0.167298305595323 
785	 0.167057293387154 
786	 0.166774422731963 
787	 0.166399080682435 
788	 0.166051409699586 
789	 0.16570901268344 
790	 0.165356444745401 
791	 0.165002654486267 
792	 0.16464453876976 
793	 0.164272826985928 
794	 0.163882197128592 
795	 0.163476364997168 
796	 0.163084832560638 
797	 0.162704376039288 
798	 0.162308454492811 
799	 0.16182770387882 
800	 0.161375929441001 
801	 0.160959622613652 
802	 0.160505951704731 
803	 0.160097918878771 
804	 0.159681400536106 
805	 0.159227755324476 
806	 0.158772374838944 
807	 0.158320219735205 
808	 0.157862870250221 
809	 0.157398701956767 
810	 0.156960827348934 
811	 0.156516861328717 
812	 0.156057843631219 
813	 0.15558876890589 
814	 0.155124993696423 
815	 0.154665246342436 
816	 0.154203669537163 
817	 0.153732717477103 
818	 0.153255294771319 
819	 0.15278679624111 
820	 0.152333917406073 
821	 0.151886681406184 
822	 0.151402714400922 
823	 0.150932274919335 
824	 0.150518970504865 
825	 0.150114656617596 
826	 0.149626919604202 
827	 0.149128270627595 
828	 0.148735479901192 
829	 0.148331555214694 
830	 0.147901912364527 
831	 0.147446382009421 
832	 0.146979592291583 
833	 0.146576009487312 
834	 0.14616738056159 
835	 0.145728857675532 
836	 0.14533366121701 
837	 0.144946190247904 
838	 0.144540856732048 
839	 0.144121234106789 
840	 0.143769646754694 
841	 0.143362173081406 
842	 0.142951230491597 
843	 0.142616209481778 
844	 0.142188822573551 
845	 0.141788798031723 
846	 0.141447967948896 
847	 0.141118949743188 
848	 0.140760750986256 
849	 0.140381589893427 
850	 0.14000945471883 
851	 0.13968392917471 
852	 0.13933122811991 
853	 0.138991345882462 
854	 0.138687197339057 
855	 0.138356463840926 
856	 0.138020757372829 
857	 0.137673053675835 
858	 0.137322229897163 
859	 0.137062545607253 
860	 0.136761196303219 
861	 0.136440085905672 
862	 0.136184158132342 
863	 0.135919467417527 
864	 0.135650117501039 
865	 0.1353864335196 
866	 0.135136022016783 
867	 0.134870342541953 
868	 0.134595860693085 
869	 0.134327588519382 
870	 0.134083608853138 
871	 0.133868153173992 
872	 0.13364683509234 
873	 0.13341546017893 
874	 0.133258104401021 
875	 0.133045743299117 
876	 0.132829002006434 
877	 0.132674916830558 
878	 0.132499610352941 
879	 0.132295738469968 
880	 0.132087349814834 
881	 0.131910367157244 
882	 0.131765074670936 
883	 0.131636067908373 
884	 0.131503821006319 
885	 0.131350755870255 
886	 0.13118692443203 
887	 0.131041886987579 
888	 0.130923329612155 
889	 0.130810999835537 
890	 0.130688686501978 
891	 0.130564151624469 
892	 0.130440907615965 
893	 0.130305956497313 
894	 0.130242337867454 
895	 0.130189428476762 
896	 0.130092549278155 
897	 0.130012363544561 
898	 0.129935131152355 
899	 0.129845528447502 
900	 0.129749527056217 
901	 0.129738002175797 
902	 0.129716659569383 
903	 0.12967922485976 
904	 0.129644000191472 
905	 0.129483145819742 
906	 0.129413871175712 
907	 0.129450693218324 
908	 0.12945096301457 
909	 0.129398892197943 
910	 0.129362951494297 
911	 0.129370287947174 
912	 0.129391984816397 
913	 0.129388646900605 
914	 0.129403867777161 
915	 0.129441019877114 
916	 0.129435883659251 
917	 0.129463802109413 
918	 0.12949583409104 
919	 0.129514013344064 
920	 0.12955946617901 
921	 0.129612735790361 
922	 0.129663460567857 
923	 0.129710422912987 
924	 0.129771418113246 
925	 0.129809958519357 
926	 0.129848339148489 
927	 0.12992329578382 
928	 0.130053243242867 
929	 0.130161566209271 
930	 0.130252514065374 
931	 0.13034969796591 
932	 0.130384716909882 
933	 0.130478706535352 
934	 0.13063078825153 
935	 0.130765537958993 
936	 0.130821346818144 
937	 0.130968856882573 
938	 0.13114634040229 
939	 0.131180654163892 
940	 0.13136101331603 
941	 0.131552526026175 
942	 0.131710438504866 
943	 0.131893736540801 
944	 0.132060068894368 
945	 0.132253413575062 
946	 0.132448824481087 
947	 0.132558784105828 
948	 0.132723852901268 
949	 0.132906028891609 
950	 0.133079862058875 
951	 0.13326615759283 
952	 0.133393330529565 
953	 0.133561667063189 
954	 0.133796570107655 
955	 0.1339742827178 
956	 0.134127055402398 
957	 0.134322050435636 
958	 0.134573489177423 
959	 0.134794132897069 
960	 0.134998517131164 
961	 0.135207657362911 
962	 0.13543647444668 
963	 0.135681458844171 
964	 0.135877962070125 
965	 0.136079779745384 
966	 0.136315838284921 
967	 0.13648431834381 
968	 0.13675314599673 
969	 0.137037563787609 
970	 0.137249066512088 
971	 0.13747788119835 
972	 0.137779947449562 
973	 0.138070670261148 
974	 0.138280015114188 
975	 0.138506555322737 
976	 0.138764934615515 
977	 0.139104063030443 
978	 0.139497832675988 
979	 0.139682866894278 
980	 0.139905905195505 
981	 0.140209685049811 
982	 0.140530321325825 
983	 0.140700396226562 
984	 0.141021560658847 
985	 0.141452316695649 
986	 0.14183875944713 
987	 0.142114066848315 
988	 0.142399097042034 
989	 0.142695915640998 
990	 0.142967081795673 
991	 0.143193092641286 
992	 0.143557468196214 
993	 0.14396383864243 
994	 0.14427406711272 
995	 0.14458777188423 
996	 0.144962212618355 
997	 0.145337793494326 
998	 0.145652663140853 
999	 0.145993453908761 
1000	 0.146370646328428 
1001	 0.148263520581105 
1002	 0.148643784473433 
1003	 0.14899782224162 
1004	 0.149350438723219 
1005	 0.149715265599205 
1006	 0.150079864159899 
1007	 0.150414618438612 
1008	 0.150794421008211 
1009	 0.151209663409344 
1010	 0.151599526844919 
1011	 0.151999357888462 
1012	 0.152384926984642 
1013	 0.15273518762787 
1014	 0.153129450369489 
1015	 0.153540551441456 
1016	 0.153960766814435 
1017	 0.154381433905024 
1018	 0.154806420896518 
1019	 0.155221196915519 
1020	 0.155619900295737 
1021	 0.156042470309354 
1022	 0.156495832584176 
1023	 0.156921801194637 
1024	 0.157314984625227 
1025	 0.157762418896702 
1026	 0.158221974862999 
1027	 0.158684509582215 
1028	 0.159186418245443 
1029	 0.159698153956606 
1030	 0.160141233114622 
1031	 0.160607454150632 
1032	 0.161055445387059 
1033	 0.161502738748593 
1034	 0.162002944967298 
1035	 0.162464104296934 
1036	 0.162956891925945 
1037	 0.163480302507554 
1038	 0.16399885776248 
1039	 0.164540975130666 
1040	 0.165057909661396 
1041	 0.165543962886871 
1042	 0.166069780906766 
1043	 0.166606633698872 
1044	 0.167129867050969 
1045	 0.16769435528196 
1046	 0.168273486066518 
1047	 0.168789297415011 
1048	 0.169317781298948 
1049	 0.169849406846907 
1050	 0.170384162156763 
1051	 0.170977446120692 
1052	 0.17153232722556 
1053	 0.172110132895623 
1054	 0.172705405288021 
1055	 0.173322788028959 
1056	 0.173957521240635 
1057	 0.174594913092451 
1058	 0.17526101523144 
1059	 0.175880578009191 
1060	 0.176522402514041 
1061	 0.177169997227248 
1062	 0.177846330289548 
1063	 0.178522359054334 
1064	 0.179137409018753 
1065	 0.17978750613002 
1066	 0.180452642077589 
1067	 0.181121909824266 
1068	 0.18186021607538 
1069	 0.18258707287851 
1070	 0.183310862865209 
1071	 0.184032942946808 
1072	 0.184764451572057 
1073	 0.185464378152098 
1074	 0.186186286338054 
1075	 0.186902661555516 
1076	 0.187633423185874 
1077	 0.188433460341659 
1078	 0.189194951433436 
1079	 0.189944616094867 
1080	 0.190738230306172 
1081	 0.191473357601949 
1082	 0.192237907325029 
1083	 0.193035931049665 
1084	 0.193797148961577 
1085	 0.194621101627685 
1086	 0.195423934382454 
1087	 0.196216361500599 
1088	 0.197023337821811 
1089	 0.19788703217786 
1090	 0.198675165911214 
1091	 0.199486398716624 
1092	 0.200328615367833 
1093	 0.201152598300444 
1094	 0.202017314533191 
1095	 0.202862911965639 
1096	 0.203729894446652 
1097	 0.204589192943544 
1098	 0.205399793267694 
1099	 0.206286785042666 
1100	 0.207142874003279 
1101	 0.20797233775821 
1102	 0.208878954846185 
1103	 0.20976846181668 
1104	 0.210640513848445 
1105	 0.211564621815152 
1106	 0.212517208664605 
1107	 0.213406947826321 
1108	 0.214335054712661 
1109	 0.215236198674936 
1110	 0.216133341141171 
1111	 0.21709807651164 
1112	 0.218022489708059 
1113	 0.218967956832883 
1114	 0.219954707370239 
1115	 0.220878659719875 
1116	 0.221804399966388 
1117	 0.222732481945032 
1118	 0.22366592615629 
1119	 0.224583433187976 
1120	 0.225526555071288 
1121	 0.226482050606639 
1122	 0.227464403757321 
1123	 0.228449045679133 
1124	 0.229385091278858 
1125	 0.230350172194635 
1126	 0.231290298373457 
1127	 0.232214068967341 
1128	 0.23319437979853 
1129	 0.23415216139541 
1130	 0.235135499645465 
1131	 0.236129906048971 
1132	 0.237057263641328 
1133	 0.238007487694903 
1134	 0.238930490423515 
1135	 0.239858185181221 
1136	 0.240794834133722 
1137	 0.241723799325598 
1138	 0.242630161951276 
1139	 0.243565878155274 
1140	 0.244530566419046 
1141	 0.245427756424051 
1142	 0.246359793790331 
1143	 0.247293606843579 
1144	 0.248179234320609 
1145	 0.249097588103654 
1146	 0.249978819102996 
1147	 0.250868723821746 
1148	 0.251784281113261 
1149	 0.252631639983918 
1150	 0.253503336190075 
1151	 0.254371338379291 
1152	 0.255244360087891 
1153	 0.256134707365052 
1154	 0.257001481779816 
1155	 0.257861940481584 
1156	 0.25871645374474 
1157	 0.259536311464594 
1158	 0.26035529304721 
1159	 0.261179518756235 
1160	 0.26201022010794 
1161	 0.262801803874326 
1162	 0.263639899224084 
1163	 0.264448283330898 
1164	 0.265248426174602 
1165	 0.266071197640022 
1166	 0.266852507623574 
1167	 0.267628633064507 
1168	 0.268377508352791 
1169	 0.269135502452989 
1170	 0.269892376005623 
1171	 0.270624536944921 
1172	 0.271356279847648 
1173	 0.272071237784605 
1174	 0.272749862555034 
1175	 0.273419239785182 
1176	 0.27407627106003 
1177	 0.274740046307511 
1178	 0.275389828603306 
1179	 0.276054034614903 
1180	 0.276689838418727 
1181	 0.277334306096729 
1182	 0.27795693065339 
1183	 0.278520364739436 
1184	 0.279125020519878 
1185	 0.279717731400121 
1186	 0.280297778684042 
1187	 0.280873839294144 
1188	 0.281451063468251 
1189	 0.282004561544104 
1190	 0.282587082213851 
1191	 0.283189310212374 
1192	 0.283766809220767 
1193	 0.28433696906331 
1194	 0.284921578885838 
1195	 0.285497897267606 
1196	 0.286096303271074 
1197	 0.286710608600664 
1198	 0.287341718884679 
1199	 0.287996950647827 
1200	 0.288596630395828 
1201	 0.289220293757896 
1202	 0.289847259068446 
1203	 0.290465470498601 
1204	 0.29115322257262 
1205	 0.291832285395169 
1206	 0.292537953751295 
1207	 0.293247758753513 
1208	 0.293939748710656 
1209	 0.294689659465442 
1210	 0.295449397062431 
1211	 0.296278572665783 
1212	 0.297186700052459 
1213	 0.298098610360072 
1214	 0.299056003106632 
1215	 0.300028364729414 
1216	 0.301020969810443 
1217	 0.302015126299222 
1218	 0.303034412791749 
1219	 0.304059334044538 
1220	 0.305081993968405 
1221	 0.306152834447287 
1222	 0.307194787169692 
1223	 0.308261405400621 
1224	 0.309293490687294 
1225	 0.310310151633401 
1226	 0.311295194768961 
1227	 0.312272757357509 
1228	 0.313203535406174 
1229	 0.314106630453994 
1230	 0.314974479381411 
1231	 0.315790980810902 
1232	 0.316611105875577 
1233	 0.317411566899564 
1234	 0.318176024834909 
1235	 0.31891942558641 
1236	 0.319649071142522 
1237	 0.320348858414228 
1238	 0.321032499728148 
1239	 0.321700251901093 
1240	 0.322357346424323 
1241	 0.323011184482955 
1242	 0.323599526332242 
1243	 0.32420136231254 
1244	 0.324799607816222 
1245	 0.325375119484558 
1246	 0.325927682784539 
1247	 0.326480044340808 
1248	 0.327023933234604 
1249	 0.327559388265213 
1250	 0.328087861038409 
1251	 0.328600454846262 
1252	 0.329103234128534 
1253	 0.329591841759803 
1254	 0.33007252525202 
1255	 0.330534813633192 
1256	 0.330974257565934 
1257	 0.331414764998296 
1258	 0.33184819361976 
1259	 0.332265368627079 
1260	 0.332676407746393 
1261	 0.333076549072319 
1262	 0.333458185591545 
1263	 0.333836337149718 
1264	 0.334190735735775 
1265	 0.334530628630183 
1266	 0.334870642317803 
1267	 0.335184794993678 
1268	 0.335514705549488 
1269	 0.335854209259191 
1270	 0.336183247639427 
1271	 0.336522961729026 
1272	 0.336825294691949 
1273	 0.337095087268804 
1274	 0.33738734390024 
1275	 0.337666872023573 
1276	 0.337943725274913 
1277	 0.338238019898096 
1278	 0.338517173853077 
1279	 0.338762860760641 
1280	 0.339030966799586 
1281	 0.339321666687144 
1282	 0.339593290170507 
1283	 0.339864443523508 
1284	 0.340126174188016 
1285	 0.340378132644696 
1286	 0.340610655434364 
1287	 0.340856403872968 
1288	 0.34110344482772 
1289	 0.341343524106014 
1290	 0.341580406872242 
1291	 0.341819468221113 
1292	 0.34205013276868 
1293	 0.34229116556459 
1294	 0.342548418625345 
1295	 0.34278274911729 
1296	 0.343013056888161 
1297	 0.343234018505821 
1298	 0.343436554170751 
1299	 0.343643193949583 
1300	 0.34384954413033 
1301	 0.344049916590203 
1302	 0.344250372014045 
1303	 0.344438724376579 
1304	 0.344613371277331 
1305	 0.344791887959613 
1306	 0.344958182128697 
1307	 0.345132991270912 
1308	 0.345309422667293 
1309	 0.34550030238888 
1310	 0.345672852362656 
1311	 0.345843447683015 
1312	 0.346009553604113 
1313	 0.346168395703701 
1314	 0.34632255566514 
1315	 0.346478641992599 
1316	 0.346619729978869 
1317	 0.346748334592523 
1318	 0.346874666715609 
1319	 0.346994295575936 
1320	 0.347108755253219 
1321	 0.347219783524881 
1322	 0.347321333235815 
1323	 0.347417801380538 
1324	 0.347503759340017 
1325	 0.347572501610283 
1326	 0.347649511460901 
1327	 0.347727240172102 
1328	 0.347796612295948 
1329	 0.347869235894059 
1330	 0.347931691506222 
1331	 0.347987565534671 
1332	 0.348031140301075 
1333	 0.348055115024929 
1334	 0.348096295016766 
1335	 0.348113818300505 
1336	 0.348121712282084 
1337	 0.348109931921573 
1338	 0.348083735113866 
1339	 0.348054074607281 
1340	 0.348004279712766 
1341	 0.347962398906399 
1342	 0.347934489685381 
1343	 0.347868656058903 
1344	 0.347795522384204 
1345	 0.347691427891337 
1346	 0.347554346822765 
1347	 0.347412116970294 
1348	 0.347254924248434 
1349	 0.347079612740566 
1350	 0.346883298537451 
1351	 0.346684452627324 
1352	 0.346464809897276 
1353	 0.34624901980692 
1354	 0.346028644597495 
1355	 0.345810619105843 
1356	 0.345585752164132 
1357	 0.34536813306881 
1358	 0.345162956868424 
1359	 0.344945802464647 
1360	 0.344723699905667 
1361	 0.344507547547343 
1362	 0.344269678070009 
1363	 0.344036666075972 
1364	 0.343784752082571 
1365	 0.343535615464429 
1366	 0.343241541631116 
1367	 0.342923534464531 
1368	 0.342587827545333 
1369	 0.342222592716075 
1370	 0.341844814083507 
1371	 0.341460574694485 
1372	 0.341044338760755 
1373	 0.340610756210602 
1374	 0.340136447403626 
1375	 0.339628832692087 
1376	 0.339094863212297 
1377	 0.338524566930379 
1378	 0.33792781422209 
1379	 0.337293679309359 
1380	 0.336656665934038 
1381	 0.335996701600379 
1382	 0.335320655292304 
1383	 0.334627678679899 
1384	 0.333931489303166 
1385	 0.333209950713424 
1386	 0.332499895967761 
1387	 0.331792752903299 
1388	 0.331097427446526 
1389	 0.330396513102893 
1390	 0.329714887774501 
1391	 0.329054640790858 
1392	 0.328382352100292 
1393	 0.327755224109135 
1394	 0.327137310378196 
1395	 0.326524011504908 
1396	 0.325945943204871 
1397	 0.325319067563126 
1398	 0.324701766878869 
1399	 0.324004412158338 
1400	 0.32326517463285 
1401	 0.322489707040505 
1402	 0.321672165397107 
1403	 0.320798101374606 
1404	 0.319879512957728 
1405	 0.318936787832217 
1406	 0.317934279326138 
1407	 0.316918047644184 
1408	 0.315855358791955 
1409	 0.314822532570362 
1410	 0.313711892459273 
1411	 0.312731283817065 
1412	 0.31173776385691 
1413	 0.31094580000009 
1414	 0.310224759964437 
1415	 0.309706814276108 
1416	 0.309402103937428 
1417	 0.309173481812411 
1418	 0.309156790957222 
1419	 0.3091258795599 
1420	 0.309218896223843 
1421	 0.309258464950461 
1422	 0.309320802988518 
1423	 0.309344866950525 
1424	 0.30933820798911 
1425	 0.309314820677845 
1426	 0.309262892226673 
1427	 0.309205054336011 
1428	 0.309154081181468 
1429	 0.309105917929962 
1430	 0.309084819687544 
1431	 0.309076165958549 
1432	 0.309100002877524 
1433	 0.309151526142071 
1434	 0.309206963874949 
1435	 0.309288721721603 
1436	 0.30936997394765 
1437	 0.309451337829616 
1438	 0.309552499926554 
1439	 0.309667766697744 
1440	 0.309797594900944 
1441	 0.309944366491551 
1442	 0.310095385174293 
1443	 0.310250464652156 
1444	 0.31043507116186 
1445	 0.310635234525516 
1446	 0.310848097099449 
1447	 0.311093702563639 
1448	 0.311333308638824 
1449	 0.311583186776259 
1450	 0.311826910646621 
1451	 0.312073843924958 
1452	 0.312322152309803 
1453	 0.312565792680003 
1454	 0.312811353353565 
1455	 0.313065850782495 
1456	 0.313312377951447 
1457	 0.313556558157746 
1458	 0.313797635109015 
1459	 0.314032219350464 
1460	 0.314268167344681 
1461	 0.314500283646457 
1462	 0.314733294088507 
1463	 0.314969174688814 
1464	 0.315203446795057 
1465	 0.315434146922716 
1466	 0.31566934145724 
1467	 0.315904622251046 
1468	 0.316133302447608 
1469	 0.316371755972519 
1470	 0.316603832289253 
1471	 0.31682837755975 
1472	 0.317048509305516 
1473	 0.31726774099036 
1474	 0.317479470609545 
1475	 0.317691560118924 
1476	 0.317903947658848 
1477	 0.318118177823437 
1478	 0.318333801730633 
1479	 0.318535189785913 
1480	 0.318739067369942 
1481	 0.318923876771332 
1482	 0.319090772552739 
1483	 0.319254771222583 
1484	 0.319408435642616 
1485	 0.319562446678795 
1486	 0.319704202394694 
1487	 0.319853935473471 
1488	 0.32001075915731 
1489	 0.320156401053259 
1490	 0.320306393750583 
1491	 0.320438610719874 
1492	 0.320545875061292 
1493	 0.320673085191454 
1494	 0.320793234380146 
1495	 0.320926680487101 
1496	 0.321079630338927 
1497	 0.321226361799918 
1498	 0.321375243772661 
1499	 0.321524312508316 
1500	 0.321675654708231 
1501	 0.321825563332011 
1502	 0.321972056826829 
1503	 0.322122399662335 
1504	 0.32227581874423 
1505	 0.322427934065458 
1506	 0.322588926612273 
1507	 0.322737769086653 
1508	 0.322869162468474 
1509	 0.323015485993532 
1510	 0.323166088371628 
1511	 0.323312578617676 
1512	 0.323473775882306 
1513	 0.323622181356544 
1514	 0.323759502452604 
1515	 0.32389252407132 
1516	 0.324020630414595 
1517	 0.324143939477922 
1518	 0.324251482944129 
1519	 0.324368378741345 
1520	 0.324488838782969 
1521	 0.324607280562814 
1522	 0.324725475870466 
1523	 0.324856925977134 
1524	 0.324982620018986 
1525	 0.32510347005791 
1526	 0.325236989263928 
1527	 0.325382940732228 
1528	 0.325508954223031 
1529	 0.325636632886701 
1530	 0.325750427162524 
1531	 0.325842007677443 
1532	 0.325955176707806 
1533	 0.326073365002893 
1534	 0.326188362007553 
1535	 0.326310158139816 
1536	 0.326425135957898 
1537	 0.3265317400942 
1538	 0.326647602362272 
1539	 0.326776101317304 
1540	 0.326879115262117 
1541	 0.32697549933254 
1542	 0.327066168572205 
1543	 0.327139362048623 
1544	 0.327214205885006 
1545	 0.327292571228556 
1546	 0.327357395110061 
1547	 0.327412836040338 
1548	 0.327458846407795 
1549	 0.327494039701213 
1550	 0.327528993985701 
1551	 0.327555148503721 
1552	 0.3275787957764 
1553	 0.327598375047118 
1554	 0.32762054518311 
1555	 0.32763840947774 
1556	 0.327655987045359 
1557	 0.327665483181671 
1558	 0.327698720284741 
1559	 0.327743064753859 
1560	 0.327783006816391 
1561	 0.327843982568427 
1562	 0.327889417446618 
1563	 0.327914429878118 
1564	 0.327956862094483 
1565	 0.328002703397155 
1566	 0.328058788095654 
1567	 0.328129403355241 
1568	 0.328192201537761 
1569	 0.328257558425746 
1570	 0.328325542701784 
1571	 0.328389595717877 
1572	 0.328458857255722 
1573	 0.328540807922718 
1574	 0.328611575923025 
1575	 0.328672537121898 
1576	 0.328743175448119 
1577	 0.328822662324112 
1578	 0.328886683691705 
1579	 0.328946452556243 
1580	 0.329007726010468 
1581	 0.329051067031059 
1582	 0.329109627042785 
1583	 0.329182360772563 
1584	 0.329251349285412 
1585	 0.329329332831344 
1586	 0.329393446842866 
1587	 0.329453548327461 
1588	 0.329507864959913 
1589	 0.329548080803151 
1590	 0.329592755382117 
1591	 0.329637011804933 
1592	 0.329680085182225 
1593	 0.329717343626459 
1594	 0.329762280627665 
1595	 0.329816005090959 
1596	 0.32986037459284 
1597	 0.329911665338503 
1598	 0.329948950662528 
1599	 0.329962289125537 
1600	 0.329991830185534 
1601	 0.330029247771196 
1602	 0.330056876200274 
1603	 0.33009549636651 
1604	 0.330116513760533 
1605	 0.330119028325657 
1606	 0.330119444272224 
1607	 0.330106950776052 
1608	 0.330101456159832 
1609	 0.330103126376293 
1610	 0.330088372299977 
1611	 0.330069560899707 
1612	 0.330043463495433 
1613	 0.330008042056113 
1614	 0.32996023733207 
1615	 0.32989963124962 
1616	 0.329840874041741 
1617	 0.329762399093105 
1618	 0.329695821691 
1619	 0.32964602956405 
1620	 0.329584585860458 
1621	 0.329525620175351 
1622	 0.329453302655729 
1623	 0.329366351111707 
1624	 0.329279141826539 
1625	 0.329188335681083 
1626	 0.32908784102153 
1627	 0.32897050424179 
1628	 0.32886910729196 
1629	 0.328767832633094 
1630	 0.328668772485738 
1631	 0.32858943585244 
1632	 0.328495609914978 
1633	 0.328390089019698 
1634	 0.328283618047886 
1635	 0.328167831049216 
1636	 0.328061015726373 
1637	 0.32796619486041 
1638	 0.327857141504501 
1639	 0.327742132144028 
1640	 0.327628334311387 
1641	 0.327512290696406 
1642	 0.327380461371949 
1643	 0.327250227007133 
1644	 0.327105279669843 
1645	 0.326933719602393 
1646	 0.32676865975132 
1647	 0.326605360212593 
1648	 0.326430288891245 
1649	 0.32625613406115 
1650	 0.326060213606254 
1651	 0.325849892669688 
1652	 0.325629166738337 
1653	 0.325400739872271 
1654	 0.325143640783984 
1655	 0.32486974389289 
1656	 0.324569802837991 
1657	 0.324249689967464 
1658	 0.323892764400571 
1659	 0.323505499991092 
1660	 0.323098529531915 
1661	 0.322668232188009 
1662	 0.322196528059014 
1663	 0.321694124821596 
1664	 0.321159117177328 
1665	 0.320592130857238 
1666	 0.319966610037866 
1667	 0.319312418759785 
1668	 0.318605341116881 
1669	 0.317836631819588 
1670	 0.317028124236298 
1671	 0.316166960229671 
1672	 0.315271441715308 
1673	 0.314348801277497 
1674	 0.313341335684879 
1675	 0.312287596643155 
1676	 0.31118296269873 
1677	 0.309992690627041 
1678	 0.3087823014715 
1679	 0.307536104234361 
1680	 0.30622822136173 
1681	 0.304869612912664 
1682	 0.303450015000909 
1683	 0.30197203790189 
1684	 0.300476716184519 
1685	 0.298932869492263 
1686	 0.297345486188375 
1687	 0.295705124093654 
1688	 0.294042009221965 
1689	 0.292342976080917 
1690	 0.290597136202864 
1691	 0.288828404052788 
1692	 0.287043449886487 
1693	 0.28521133414045 
1694	 0.283360331091674 
1695	 0.281480388540202 
1696	 0.279574982494612 
1697	 0.277626455369638 
1698	 0.275661924638002 
1699	 0.273683254993143 
1700	 0.271746457352652 
1701	 0.269753985677435 
1702	 0.267903316453432 
1703	 0.266083194125561 
1704	 0.264398845670669 
1705	 0.262813470540474 
1706	 0.261301610184111 
1707	 0.259988749293665 
1708	 0.25873929542512 
1709	 0.257588949042226 
1710	 0.256569084799029 
1711	 0.255567504537496 
1712	 0.254664934951411 
1713	 0.253793758956679 
1714	 0.252902908209322 
1715	 0.252094034073253 
1716	 0.251278939742682 
1717	 0.25048396656513 
1718	 0.249755126583603 
1719	 0.249050573648834 
1720	 0.248403628974028 
1721	 0.247865892159728 
1722	 0.247444709351231 
1723	 0.247140735575816 
1724	 0.246987745325665 
1725	 0.246973364571084 
1726	 0.247108424920688 
1727	 0.247428058260694 
1728	 0.247881144707238 
1729	 0.248495513617696 
1730	 0.249303004222327 
1731	 0.250170603797393 
1732	 0.25114619407975 
1733	 0.252149452469669 
1734	 0.253120382027191 
1735	 0.25410751115823 
1736	 0.255014801399859 
1737	 0.255816705367354 
1738	 0.256459664530155 
1739	 0.256980362775124 
1740	 0.257365593630611 
1741	 0.257648267743962 
1742	 0.257797440707725 
1743	 0.257870996529085 
1744	 0.25780371520772 
1745	 0.257721322768035 
1746	 0.257543327706562 
1747	 0.257392597707853 
1748	 0.257188516627312 
1749	 0.25704549265947 
1750	 0.256907656875515 
1751	 0.256838790060986 
1752	 0.256793082046981 
1753	 0.256848181509559 
1754	 0.25696455728179 
1755	 0.257169641904653 
1756	 0.25744769973532 
1757	 0.257841042422282 
1758	 0.25836076551212 
1759	 0.258941945218558 
1760	 0.259659534493262 
1761	 0.260505632613527 
1762	 0.261374670831979 
1763	 0.262394506896308 
1764	 0.263492962044165 
1765	 0.264609223598509 
1766	 0.265852995592464 
1767	 0.267075789898492 
1768	 0.268336548880532 
1769	 0.269643868097747 
1770	 0.27080981628866 
1771	 0.271947336145594 
1772	 0.273020676123261 
1773	 0.274001941139969 
1774	 0.274982090579666 
1775	 0.275872094156952 
1776	 0.276717076703191 
1777	 0.277463124193958 
1778	 0.278056662841565 
1779	 0.278631405248442 
1780	 0.279144325911089 
1781	 0.279582772610321 
1782	 0.280045556035421 
1783	 0.280473201094608 
1784	 0.280815582335867 
1785	 0.281075294976032 
1786	 0.281331812543192 
1787	 0.281520603669512 
1788	 0.281720579565391 
1789	 0.281932406622199 
1790	 0.282126316591598 
1791	 0.282302867147346 
1792	 0.282461604989303 
1793	 0.28259299905865 
1794	 0.282702626867534 
1795	 0.282836143796937 
1796	 0.282995587593794 
1797	 0.28314459249005 
1798	 0.28328558313689 
1799	 0.283457177205207 
1800	 0.283629639218081 
1801	 0.281763327408554 
1802	 0.281951839027666 
1803	 0.282128983578627 
1804	 0.282307843299102 
1805	 0.282495860599164 
1806	 0.28266391124573 
1807	 0.282810784310652 
1808	 0.282980712504268 
1809	 0.283152016924947 
1810	 0.283323880265075 
1811	 0.283508223290551 
1812	 0.283690663985473 
1813	 0.283851747836263 
1814	 0.284047711197709 
1815	 0.28426393484479 
1816	 0.284480689280273 
1817	 0.284706656286492 
1818	 0.284959469196413 
1819	 0.285185600538794 
1820	 0.285390719373684 
1821	 0.285625261488134 
1822	 0.285854760256008 
1823	 0.28611352448855 
1824	 0.286393957706629 
1825	 0.286665205088269 
1826	 0.286920430103818 
1827	 0.287166953014146 
1828	 0.287406064848302 
1829	 0.287622165557414 
1830	 0.28785942590667 
1831	 0.288092811150115 
1832	 0.288356347253051 
1833	 0.288600583771768 
1834	 0.288843819943062 
1835	 0.28909715970778 
1836	 0.289319915056855 
1837	 0.289563076796669 
1838	 0.289809951655878 
1839	 0.290070049570779 
1840	 0.290363400561205 
1841	 0.290616842485004 
1842	 0.290857695481841 
1843	 0.29109504594119 
1844	 0.291334988810107 
1845	 0.291563352357223 
1846	 0.291814814987358 
1847	 0.292077618657516 
1848	 0.292308041894262 
1849	 0.292533322316716 
1850	 0.292711086522067 
1851	 0.292855610163936 
1852	 0.29299642187229 
1853	 0.293100868531805 
1854	 0.293189930444503 
1855	 0.293303412196776 
1856	 0.293380735393417 
1857	 0.293434960279534 
1858	 0.29347117287856 
1859	 0.293478364412058 
1860	 0.293461579364222 
1861	 0.293417210508143 
1862	 0.293349145497004 
1863	 0.29325498157196 
1864	 0.293126509057403 
1865	 0.292951225646059 
1866	 0.292748974927733 
1867	 0.292521178548425 
1868	 0.292272099221749 
1869	 0.291986801906724 
1870	 0.291661988387607 
1871	 0.291322189812771 
1872	 0.290915511117044 
1873	 0.290451243754857 
1874	 0.289972493510367 
1875	 0.289454506205799 
1876	 0.28883629317633 
1877	 0.288206716750439 
1878	 0.28749092753599 
1879	 0.28665882162463 
1880	 0.285798528543954 
1881	 0.28483006205204 
1882	 0.283763008048482 
1883	 0.282628438850905 
1884	 0.281387425264835 
1885	 0.279946010264821 
1886	 0.278454171802631 
1887	 0.276791462834439 
1888	 0.274951440526093 
1889	 0.273181962010639 
1890	 0.271250202790615 
1891	 0.269260175278687 
1892	 0.267270478280353 
1893	 0.265189998775291 
1894	 0.262979790182159 
1895	 0.260840217476382 
1896	 0.258667202891286 
1897	 0.256484860964415 
1898	 0.254489018825233 
1899	 0.25246109752967 
1900	 0.250498075792534 
1901	 0.248651752562328 
1902	 0.246725991372168 
1903	 0.244947239993189 
1904	 0.243258177851114 
1905	 0.241637922018802 
1906	 0.240082346266874 
1907	 0.238745311345301 
1908	 0.237434589583795 
1909	 0.236194932842573 
1910	 0.235083272408024 
1911	 0.233979391140492 
1912	 0.232976120658485 
1913	 0.232050363675148 
1914	 0.231181764219233 
1915	 0.230390338953978 
1916	 0.229694919115175 
1917	 0.229021039515113 
1918	 0.228413934423171 
1919	 0.227854431425011 
1920	 0.227302975812422 
1921	 0.226835515767905 
1922	 0.226400046513342 
1923	 0.225994349210877 
1924	 0.225675152701149 
1925	 0.225381046854123 
1926	 0.225119628658753 
1927	 0.224913511009493 
1928	 0.224715037928642 
1929	 0.224530587539879 
1930	 0.224385710390104 
1931	 0.224284575666599 
1932	 0.224206085859538 
1933	 0.224189489700169 
1934	 0.224213970012595 
1935	 0.224244738612522 
1936	 0.224313750792581 
1937	 0.224418083372718 
1938	 0.224552217240235 
1939	 0.224713686197373 
1940	 0.224909856501008 
1941	 0.225144580154529 
1942	 0.225386497228396 
1943	 0.225660116463449 
1944	 0.225953517007588 
1945	 0.226264047966417 
1946	 0.226594637199971 
1947	 0.226923047594889 
1948	 0.22729781786864 
1949	 0.227698658402381 
1950	 0.228082673732505 
1951	 0.228482999210218 
1952	 0.228882405241185 
1953	 0.229270589664895 
1954	 0.229654594587167 
1955	 0.230093067077976 
1956	 0.230521692459264 
1957	 0.23095442836162 
1958	 0.231381360421985 
1959	 0.231774567103449 
1960	 0.232194856130035 
1961	 0.232597546533293 
1962	 0.232982256688495 
1963	 0.233389143436828 
1964	 0.233803085431247 
1965	 0.234198766233941 
1966	 0.234600292929689 
1967	 0.235012775060712 
1968	 0.23536834433384 
1969	 0.235743095784311 
1970	 0.236118028768097 
1971	 0.236482422313916 
1972	 0.236880587468279 
1973	 0.237262235927853 
1974	 0.237641052919134 
1975	 0.238033143272431 
1976	 0.238399389511329 
1977	 0.238755646309816 
1978	 0.239096675783434 
1979	 0.239420162085021 
1980	 0.239723412188531 
1981	 0.240049695754196 
1982	 0.240357657134121 
1983	 0.240667129329542 
1984	 0.240982196792791 
1985	 0.241266000092532 
1986	 0.241542053668735 
1987	 0.241810700823899 
1988	 0.242073500945662 
1989	 0.242327744162582 
1990	 0.242577258153326 
1991	 0.242802626696012 
1992	 0.243006427874604 
1993	 0.243217513166989 
1994	 0.243414012701261 
1995	 0.243597757388608 
1996	 0.243788117963729 
1997	 0.243963770321743 
1998	 0.244123826430001 
1999	 0.244266429621709 
2000	 0.244399893004732 
2001	 0.244521260800386 
2002	 0.244632132939164 
2003	 0.244727096562576 
2004	 0.244818958555214 
2005	 0.244903534940288 
2006	 0.244977696489447 
2007	 0.245044937744493 
2008	 0.245099062503114 
2009	 0.245136982388645 
2010	 0.245179041944866 
2011	 0.245201647529724 
2012	 0.245200744955151 
2013	 0.245180241318823 
2014	 0.245145278964584 
2015	 0.245077897521603 
2016	 0.244995320419534 
2017	 0.244870419426253 
2018	 0.244705216604387 
2019	 0.244522451058823 
2020	 0.244313229348761 
2021	 0.24406479115795 
2022	 0.243796343059615 
2023	 0.243525165957769 
2024	 0.243198564336527 
2025	 0.242847751745556 
2026	 0.242477243725535 
2027	 0.242058330731463 
2028	 0.241658652608055 
2029	 0.241249893583981 
2030	 0.240832189792844 
2031	 0.240409167401063 
2032	 0.239993681870337 
2033	 0.239547699221522 
2034	 0.239144423231234 
2035	 0.23876439262917 
2036	 0.238383355009327 
2037	 0.238053257746199 
2038	 0.237753281412483 
2039	 0.237478794661511 
2040	 0.237239876252477 
2041	 0.237026812558889 
2042	 0.236835242080038 
2043	 0.236676879829189 
2044	 0.236549431870728 
2045	 0.236456970809369 
2046	 0.236413955770205 
2047	 0.236368489134428 
2048	 0.236348615515716 
2049	 0.236340426218192 
2050	 0.236341740388458 
2051	 0.236358289956058 
2052	 0.236379628635194 
2053	 0.236424378193195 
2054	 0.236476139507631 
2055	 0.236531857570626 
2056	 0.2365995273243 
2057	 0.236688686201826 
2058	 0.236777885702432 
2059	 0.236880551790311 
2060	 0.236967160283056 
2061	 0.237050715507213 
2062	 0.23714057009155 
2063	 0.237223273197967 
2064	 0.237308117463002 
2065	 0.237399703313386 
2066	 0.237499709401432 
2067	 0.237595461494397 
2068	 0.23766859364984 
2069	 0.237739217794129 
2070	 0.237809373333751 
2071	 0.237868718329219 
2072	 0.237910966720659 
2073	 0.237955586007916 
2074	 0.238008702180459 
2075	 0.238032450086282 
2076	 0.238042051941685 
2077	 0.238041482672185 
2078	 0.238014927753399 
2079	 0.23798787097726 
2080	 0.23796391703705 
2081	 0.237919201109315 
2082	 0.237852007450648 
2083	 0.237790707099883 
2084	 0.237715018478599 
2085	 0.237622640218557 
2086	 0.237534622550624 
2087	 0.237453116242715 
2088	 0.237348245131138 
2089	 0.237224019670245 
2090	 0.237107763713988 
2091	 0.236995311796125 
2092	 0.236853951406696 
2093	 0.236705998331946 
2094	 0.236545799558576 
2095	 0.236344846257932 
2096	 0.23615936167315 
2097	 0.23597427701068 
2098	 0.235797430618358 
2099	 0.23561429808494 
2100	 0.235426814195807 
2101	 0.235223141605807 
2102	 0.235018981839685 
2103	 0.234782601728395 
2104	 0.23452080789983 
2105	 0.23425433158043 
2106	 0.233967220502688 
2107	 0.233674358901398 
2108	 0.233381712989897 
2109	 0.233062970023021 
2110	 0.232714524809662 
2111	 0.232376002511012 
2112	 0.232029778005972 
2113	 0.231668939034224 
2114	 0.231320268069689 
2115	 0.230935315397757 
2116	 0.230501490854824 
2117	 0.230092244080766 
2118	 0.229662882104226 
2119	 0.229207065192013 
2120	 0.228776976989214 
2121	 0.228338895478116 
2122	 0.227933302235958 
2123	 0.227552028703612 
2124	 0.227164137723676 
2125	 0.226801713991488 
2126	 0.226422067029558 
2127	 0.226023928191494 
2128	 0.225649245985266 
2129	 0.225262719230601 
2130	 0.224912069091401 
2131	 0.224602465880102 
2132	 0.224278844954252 
2133	 0.22395958488147 
2134	 0.223675223273698 
2135	 0.223347991692351 
2136	 0.22302138849989 
2137	 0.222702007699519 
2138	 0.222375605275344 
2139	 0.222069437421291 
2140	 0.221775212726449 
2141	 0.22148416762343 
2142	 0.22119722803505 
2143	 0.220928461854593 
2144	 0.220676502077691 
2145	 0.220422829434212 
2146	 0.220177710174261 
2147	 0.219944380676372 
2148	 0.219710422642673 
2149	 0.219488201041831 
2150	 0.219294465495307 
2151	 0.219089840599296 
2152	 0.218871791937288 
2153	 0.218682440108826 
2154	 0.21848254363277 
2155	 0.218278893184949 
2156	 0.218098442393294 
2157	 0.217931543173081 
2158	 0.217758751106655 
2159	 0.217602684077448 
2160	 0.217436736562784 
2161	 0.21726117785358 
2162	 0.217099683664648 
2163	 0.216933986045598 
2164	 0.216787028591453 
2165	 0.216657751851908 
2166	 0.216526312220409 
2167	 0.21641484839793 
2168	 0.216288225395327 
2169	 0.216138437459206 
2170	 0.216016556955318 
2171	 0.215891385295521 
2172	 0.215794988325342 
2173	 0.215734916884682 
2174	 0.215671986489472 
2175	 0.215623914652471 
2176	 0.215583573950295 
2177	 0.21553758374211 
2178	 0.215489966589258 
2179	 0.215452570231212 
2180	 0.215424947976223 
2181	 0.215380428635742 
2182	 0.215337263430843 
2183	 0.215293556622851 
2184	 0.215248197314498 
2185	 0.215179502111625 
2186	 0.215099499277859 
2187	 0.215023310543146 
2188	 0.214927754568023 
2189	 0.214835832899767 
2190	 0.214765521156621 
2191	 0.214665388000889 
2192	 0.214532076224666 
2193	 0.214413583634978 
2194	 0.214300572834493 
2195	 0.214171738855188 
2196	 0.214053346292773 
2197	 0.213904101813486 
2198	 0.21372361048366 
2199	 0.213541733832625 
2200	 0.213347329211448 
2201	 0.213152152581627 
2202	 0.212898954641002 
2203	 0.21260906258835 
2204	 0.212323717440759 
2205	 0.211942957717714 
2206	 0.211706282136667 
2207	 0.211497262325841 
2208	 0.211386857218788 
2209	 0.211365187170464 
2210	 0.211414144124137 
2211	 0.2115557051841 
2212	 0.211732714147798 
2213	 0.212040697787126 
2214	 0.212275307811536 
2215	 0.212565157820481 
2216	 0.212763277994855 
2217	 0.21292483930964 
2218	 0.213016186546534 
2219	 0.213057210587838 
2220	 0.213021048481689 
2221	 0.212912554946179 
2222	 0.212731424266463 
2223	 0.212508525088188 
2224	 0.212236779521833 
2225	 0.211906983337668 
2226	 0.211537964564299 
2227	 0.211089378383338 
2228	 0.210562782501251 
2229	 0.209996313177765 
2230	 0.209376041988636 
2231	 0.20868094137271 
2232	 0.207921805605004 
2233	 0.207097132436603 
2234	 0.206220651151055 
2235	 0.205236314108677 
2236	 0.204174608761065 
2237	 0.203033495519673 
2238	 0.201749626840288 
2239	 0.200469626861531 
2240	 0.199170524941615 
2241	 0.19776294632077 
2242	 0.19632582254903 
2243	 0.194756735553957 
2244	 0.193034939804913 
2245	 0.191291634761262 
2246	 0.189396337092122 
2247	 0.18755629133774 
2248	 0.1857353230278 
2249	 0.183848072875082 
2250	 0.181937463042063 
2251	 0.18003576707008 
2252	 0.177976441766917 
2253	 0.175955444974519 
2254	 0.173921924704503 
2255	 0.171846891565929 
2256	 0.169903284935927 
2257	 0.167953346595203 
2258	 0.16605363769858 
2259	 0.164236393595649 
2260	 0.162378074790265 
2261	 0.160508515792051 
2262	 0.158698283946384 
2263	 0.156868757355724 
2264	 0.15514130771718 
2265	 0.153508434112174 
2266	 0.15185122721039 
2267	 0.15025204574878 
2268	 0.148648011749054 
2269	 0.147038918905376 
2270	 0.145465020061162 
2271	 0.143883223343788 
2272	 0.14237817482584 
2273	 0.140931350205301 
2274	 0.139486375780577 
2275	 0.138154366583094 
2276	 0.136735612183065 
2277	 0.135267899664003 
2278	 0.133818200971901 
2279	 0.132304441720831 
2280	 0.130846547113365 
2281	 0.129457264386455 
2282	 0.128017736266768 
2283	 0.126595893045162 
2284	 0.125155215665359 
2285	 0.123551959223633 
2286	 0.122017953662601 
2287	 0.12048738228214 
2288	 0.118900746463326 
2289	 0.11743997869859 
2290	 0.11592767849276 
2291	 0.114383386409035 
2292	 0.112887677400452 
2293	 0.111385174534846 
2294	 0.11001221926472 
2295	 0.108733696686656 
2296	 0.107530395221917 
2297	 0.106489063450565 
2298	 0.105568115464516 
2299	 0.104808033138905 
2300	 0.104199830359209 
2301	 0.103758265903796 
2302	 0.103465398518299 
2303	 0.103379208544776 
2304	 0.103479746272342 
2305	 0.103755298895291 
2306	 0.104264592251332 
2307	 0.104885863081067 
2308	 0.105651932651739 
2309	 0.106614001535577 
2310	 0.107816026571716 
2311	 0.109041864031113 
2312	 0.110529691053828 
2313	 0.111889326082998 
2314	 0.113282248947471 
2315	 0.114610308172585 
2316	 0.115947545265728 
2317	 0.117142361112202 
2318	 0.11832305276299 
2319	 0.119276588813555 
2320	 0.120079733264003 
2321	 0.120722164961675 
2322	 0.121143131869177 
2323	 0.121482792090043 
2324	 0.121681142046993 
2325	 0.121751635440933 
2326	 0.121707169010615 
2327	 0.12151562392589 
2328	 0.121131503185466 
2329	 0.120684733853128 
2330	 0.12013755975914 
2331	 0.119412774234435 
2332	 0.118638065535804 
2333	 0.117792598820475 
2334	 0.11682000838015 
2335	 0.115791881131373 
2336	 0.114659698062563 
2337	 0.11348743723483 
2338	 0.112375937509055 
2339	 0.11123064588614 
2340	 0.110154701283901 
2341	 0.10916096603982 
2342	 0.108161744206071 
2343	 0.107315018482438 
2344	 0.106666586948087 
2345	 0.106267395864842 
2346	 0.106153494444867 
2347	 0.106285168245651 
2348	 0.106602659847991 
2349	 0.107140176281915 
2350	 0.107833244549977 
2351	 0.108658275003246 
2352	 0.10958706456354 
2353	 0.110546449990064 
2354	 0.111427846542099 
2355	 0.112264925768199 
2356	 0.113069282357887 
2357	 0.113729274712559 
2358	 0.1143196298841 
2359	 0.114751965763272 
2360	 0.115068403765202 
2361	 0.115291743619312 
2362	 0.115401959745741 
2363	 0.115491781716897 
2364	 0.115500750598523 
2365	 0.11541904342624 
2366	 0.115340542488274 
2367	 0.115267205242476 
2368	 0.115161072363383 
2369	 0.115053405659422 
2370	 0.114955528538217 
2371	 0.114882918307527 
2372	 0.114848074836334 
2373	 0.114852139930682 
2374	 0.114893407658471 
2375	 0.114872542808979 
2376	 0.114831927092122 
2377	 0.114805222614288 
2378	 0.11474218899519 
2379	 0.114710365467046 
2380	 0.114708947682414 
2381	 0.114754282432922 
2382	 0.114794534977224 
2383	 0.114859086002993 
2384	 0.114913547563419 
2385	 0.11496424618069 
2386	 0.115021624380386 
2387	 0.115095563685116 
2388	 0.115181713212909 
2389	 0.115282304921538 
2390	 0.115354953448702 
2391	 0.115415015532865 
2392	 0.115482658436676 
2393	 0.115532456877432 
2394	 0.115610728817601 
2395	 0.115718677593566 
2396	 0.115807167636879 
2397	 0.115877873663826 
2398	 0.115975646380606 
2399	 0.116129563253347 
2400	 0.116187910354673 
2401	 0.116223567095481 
2402	 0.1162139242733 
2403	 0.116117473748311 
2404	 0.116084736471618 
2405	 0.116108068523361 
2406	 0.116161561792946 
2407	 0.116242297216015 
2408	 0.116229803614752 
2409	 0.116227589061875 
2410	 0.116238890071461 
2411	 0.116141088937773 
2412	 0.116134921033516 
2413	 0.116180954129598 
2414	 0.116161698373334 
2415	 0.116236338743401 
2416	 0.116289605462244 
2417	 0.116332049056281 
2418	 0.116395780471976 
2419	 0.116335925264188 
2420	 0.11632026905125 
2421	 0.116290798929698 
2422	 0.116169127179655 
2423	 0.116111092254484 
2424	 0.116036716403077 
2425	 0.116009062243851 
2426	 0.116115403383462 
2427	 0.116186060800844 
2428	 0.116182666482639 
2429	 0.116193918794713 
2430	 0.116207636928102 
2431	 0.116119226647096 
2432	 0.116059600244786 
2433	 0.11594921430807 
2434	 0.115607051199532 
2435	 0.115471122829898 
2436	 0.115459127901972 
2437	 0.115342172541583 
2438	 0.115358891970319 
2439	 0.11528524185646 
2440	 0.115096266352546 
2441	 0.114952481670559 
2442	 0.114648451258681 
2443	 0.114325782252148 
2444	 0.114151541216432 
2445	 0.113995264317224 
2446	 0.113897443363708 
2447	 0.113690791846327 
2448	 0.113495057130159 
2449	 0.113318110975803 
2450	 0.112959597822569 
2451	 0.112776074674727 
2452	 0.112570009956226 
2453	 0.112185975075046 
2454	 0.111881605395244 
2455	 0.111624773123593 
2456	 0.111239041478577 
2457	 0.110839872162233 
2458	 0.110613054763801 
2459	 0.110300338087173 
2460	 0.11000262096699 
2461	 0.109852617061804 
2462	 0.10965794360696 
2463	 0.109501906743839 
2464	 0.109376660553019 
2465	 0.109080258696653 
2466	 0.108896976038925 
2467	 0.108882924278116 
2468	 0.108792502955301 
2469	 0.108754571469637 
2470	 0.108581026186177 
2471	 0.108287379422348 
2472	 0.10809007509136 
2473	 0.107935328877541 
2474	 0.10778146983101 
2475	 0.107631077596184 
2476	 0.107555486571608 
2477	 0.107541494861942 
2478	 0.107552308089703 
2479	 0.107639635687265 
2480	 0.107842199174139 
2481	 0.107884403283313 
2482	 0.107962678571877 
2483	 0.107969317169064 
2484	 0.107830563508625 
2485	 0.107761194750217 
2486	 0.107839472034506 
2487	 0.107834647097913 
2488	 0.107717756869851 
2489	 0.107834660535212 
2490	 0.107908805660398 
2491	 0.107977318539607 
2492	 0.108252105362155 
2493	 0.108350684500895 
2494	 0.108583406768847 
2495	 0.108875325612968 
2496	 0.109092731144681 
2497	 0.109366682215434 
2498	 0.109509364200575 
2499	 0.109748754346479 
2500	 0.110081853631207 
