Wavelength	spectrum00009.asd
350	 5.94470915472496E-02 
351	 0.059225041023606 
352	 0.059010946564297 
353	 5.87239435412248E-02 
354	 5.94619298465996E-02 
355	 6.01577242654558E-02 
356	 5.99151299352586E-02 
357	 5.84595479507826E-02 
358	 5.67526394108715E-02 
359	 5.66939215232539E-02 
360	 5.79937075649908E-02 
361	 0.059086836410452 
362	 5.86162300745687E-02 
363	 5.79609161868707E-02 
364	 5.78329598789099E-02 
365	 5.76947071528227E-02 
366	 5.79034650682624E-02 
367	 5.79712242909051E-02 
368	 5.76380956982712E-02 
369	 5.80772820793191E-02 
370	 5.79141818765107E-02 
371	 5.75253951653621E-02 
372	 5.80604036805505E-02 
373	 5.78191501604747E-02 
374	 5.80522603125135E-02 
375	 5.91145760467897E-02 
376	 5.96989963867203E-02 
377	 5.91780836159355E-02 
378	 5.82439277699518E-02 
379	 5.78095224548372E-02 
380	 5.80605120490034E-02 
381	 5.89209900291772E-02 
382	 5.93595297589741E-02 
383	 5.82032179456082E-02 
384	 5.83940988668403E-02 
385	 5.86551740568276E-02 
386	 5.81276665351125E-02 
387	 5.73038991727458E-02 
388	 5.72329568617292E-02 
389	 5.75543760146469E-02 
390	 0.05768989804223 
391	 5.79522919497872E-02 
392	 5.82175375400345E-02 
393	 5.83329181468064E-02 
394	 5.81635998886834E-02 
395	 5.77338508926336E-02 
396	 5.79550347748777E-02 
397	 5.88980519012537E-02 
398	 5.91642388824533E-02 
399	 5.88728443098237E-02 
400	 5.82131413350383E-02 
401	 5.75278428635596E-02 
402	 5.74057360947555E-02 
403	 5.79270842125254E-02 
404	 5.84085173221528E-02 
405	 5.77951559444223E-02 
406	 5.75722733193974E-02 
407	 5.75250006145761E-02 
408	 5.74610553652654E-02 
409	 5.78133410764538E-02 
410	 5.77236117433031E-02 
411	 5.75302462729768E-02 
412	 0.0577847520233 
413	 5.80118302490382E-02 
414	 5.78537948471234E-02 
415	 5.76357901689754E-02 
416	 5.81900178557614E-02 
417	 5.79686074884959E-02 
418	 5.77567261698136E-02 
419	 5.80868852035724E-02 
420	 5.79049367674231E-02 
421	 5.78693890666356E-02 
422	 5.80431989083668E-02 
423	 5.82029728128237E-02 
424	 5.79610473971832E-02 
425	 5.78418600877223E-02 
426	 5.79916691560909E-02 
427	 5.80503919478145E-02 
428	 5.80733048637686E-02 
429	 5.81014105325823E-02 
430	 5.81121349751524E-02 
431	 5.78286433889154E-02 
432	 5.78842448327741E-02 
433	 5.80980721058855E-02 
434	 5.79159259328462E-02 
435	 5.79711040906531E-02 
436	 5.81059924162453E-02 
437	 5.81386849712295E-02 
438	 5.79700474746631E-02 
439	 5.81286998097526E-02 
440	 5.83368126679832E-02 
441	 5.82421055344588E-02 
442	 5.82512625805264E-02 
443	 0.058329212997972 
444	 5.83920373796379E-02 
445	 5.83383824949767E-02 
446	 5.82679264402568E-02 
447	 5.81828592064194E-02 
448	 0.058126551452174 
449	 5.82828538520572E-02 
450	 5.84659741577832E-02 
451	 5.85308988109851E-02 
452	 5.84086443495731E-02 
453	 5.83514252326223E-02 
454	 5.83963612384163E-02 
455	 5.84734018875688E-02 
456	 5.84201136413146E-02 
457	 5.84318145319408E-02 
458	 5.84746206557256E-02 
459	 5.84779883995078E-02 
460	 5.84145043487802E-02 
461	 5.83997848041458E-02 
462	 5.83795860014269E-02 
463	 5.82494409528881E-02 
464	 5.83730036534465E-02 
465	 5.85010141122237E-02 
466	 5.84836823634541E-02 
467	 0.058429391270078 
468	 5.84032389121916E-02 
469	 5.83457303920018E-02 
470	 5.82319345042305E-02 
471	 5.83728325179445E-02 
472	 5.83733730399106E-02 
473	 5.82806126482278E-02 
474	 5.84688638992783E-02 
475	 5.84011717243992E-02 
476	 5.83014317157731E-02 
477	 5.83735530527401E-02 
478	 0.058530621622151 
479	 5.84949938286789E-02 
480	 5.84004777599576E-02 
481	 5.84841132420706E-02 
482	 5.84452558006448E-02 
483	 5.84646857171903E-02 
484	 5.85614113068554E-02 
485	 5.85363289741097E-02 
486	 5.85629714027896E-02 
487	 5.86240654921695E-02 
488	 5.86628769155744E-02 
489	 5.86339855057332E-02 
490	 5.86465571100016E-02 
491	 0.05871571934779 
492	 5.87935971921347E-02 
493	 5.88370727300409E-02 
494	 5.88535508250769E-02 
495	 5.88445281958994E-02 
496	 5.87821198757531E-02 
497	 5.87794651600438E-02 
498	 5.88222650208088E-02 
499	 5.88626054901696E-02 
500	 5.89170032181991E-02 
501	 5.89383955033334E-02 
502	 5.89418096835389E-02 
503	 5.89940708833433E-02 
504	 5.90479658704484E-02 
505	 5.90452073945032E-02 
506	 5.89935767723727E-02 
507	 0.059070390312934 
508	 5.90921373869976E-02 
509	 5.90762451932258E-02 
510	 5.91128263638392E-02 
511	 5.91097528138852E-02 
512	 0.059167577481936 
513	 5.92787699184424E-02 
514	 5.92797847699898E-02 
515	 5.92100998827836E-02 
516	 5.92129604828404E-02 
517	 0.059355051568008 
518	 5.93357366018481E-02 
519	 0.059346877332143 
520	 5.94202748179881E-02 
521	 5.94726515201827E-02 
522	 0.059527261718164 
523	 5.95742926815017E-02 
524	 5.96109781721531E-02 
525	 5.96563840477557E-02 
526	 0.059692193992396 
527	 0.0597181723695 
528	 5.97431268291486E-02 
529	 5.97871900008681E-02 
530	 0.059819171018641 
531	 5.98554682539189E-02 
532	 0.059962568803132 
533	 0.06003102851913 
534	 0.060083890300748 
535	 6.01514715347728E-02 
536	 6.01927830614584E-02 
537	 6.02508000009665E-02 
538	 6.03106791823068E-02 
539	 6.03345102503122E-02 
540	 0.060386653765177 
541	 0.060477521260241 
542	 6.05892621926974E-02 
543	 0.060670327622397 
544	 6.07607883560656E-02 
545	 6.08356520157763E-02 
546	 6.08765886752252E-02 
547	 6.09853200636987E-02 
548	 6.10828978465419E-02 
549	 6.11492506968863E-02 
550	 6.12236797836827E-02 
551	 0.061318885898738 
552	 6.14300309682653E-02 
553	 6.15424482324391E-02 
554	 6.16259896912567E-02 
555	 6.17160552598714E-02 
556	 6.18175604965656E-02 
557	 6.19221175384626E-02 
558	 6.20401791636859E-02 
559	 6.21651963833787E-02 
560	 6.22862294411922E-02 
561	 6.23888321283443E-02 
562	 6.24800730400846E-02 
563	 6.26213787138567E-02 
564	 6.28409834111774E-02 
565	 6.29973238413612E-02 
566	 6.31064540310902E-02 
567	 6.32040212704306E-02 
568	 6.33341383556726E-02 
569	 6.34652791391276E-02 
570	 6.35664716714687E-02 
571	 6.36326739733884E-02 
572	 6.37085098412696E-02 
573	 6.38113032942878E-02 
574	 6.39317090757019E-02 
575	 6.40512557162082E-02 
576	 6.41846437424412E-02 
577	 6.43047769094113E-02 
578	 6.44188076688869E-02 
579	 6.45733681265323E-02 
580	 6.46993157186062E-02 
581	 6.47895540604843E-02 
582	 6.48700683998615E-02 
583	 6.50205986084627E-02 
584	 6.51627372237053E-02 
585	 6.52763920621959E-02 
586	 0.065380784068329 
587	 6.55039529857531E-02 
588	 0.065605692057391 
589	 6.56766007499614E-02 
590	 6.57698642763932E-02 
591	 6.58684616406689E-02 
592	 6.59776587903323E-02 
593	 6.61008194101547E-02 
594	 6.62065261754954E-02 
595	 6.63391031185581E-02 
596	 6.64869669185545E-02 
597	 6.65916566183694E-02 
598	 6.67142839271131E-02 
599	 6.68369901407143E-02 
600	 6.69402642706358E-02 
601	 6.70313975435042E-02 
602	 6.71341355410456E-02 
603	 6.72424532525031E-02 
604	 6.73359469035071E-02 
605	 6.74023129291514E-02 
606	 6.74699016917671E-02 
607	 6.75553253204842E-02 
608	 6.76558401223834E-02 
609	 6.77484445246553E-02 
610	 0.067831013609231 
611	 6.79112001868225E-02 
612	 6.80092884001281E-02 
613	 6.80898595020973E-02 
614	 0.068160696973145 
615	 6.82528678547412E-02 
616	 6.83174718726272E-02 
617	 0.068395690016272 
618	 6.85008171105391E-02 
619	 6.85765639717006E-02 
620	 6.86465536016264E-02 
621	 6.87261752419607E-02 
622	 6.88183788498296E-02 
623	 6.88740027965957E-02 
624	 6.89464437383985E-02 
625	 0.069037441266556 
626	 6.90995039568587E-02 
627	 6.91722894331922E-02 
628	 6.92561347795458E-02 
629	 6.93430726348138E-02 
630	 6.94264449190207E-02 
631	 6.94764685897221E-02 
632	 6.95322787418035E-02 
633	 0.069645013530104 
634	 6.97103965370221E-02 
635	 6.97930085364617E-02 
636	 6.99055194913057E-02 
637	 0.069979065684995 
638	 7.00320527638329E-02 
639	 7.00776018393451E-02 
640	 7.01325843271041E-02 
641	 7.02296657333729E-02 
642	 7.03041019115578E-02 
643	 7.03551582421327E-02 
644	 7.04226895686875E-02 
645	 7.05149546480217E-02 
646	 7.05919903977372E-02 
647	 7.06475154895305E-02 
648	 7.07420387507516E-02 
649	 7.08015346222613E-02 
650	 7.08477693367857E-02 
651	 7.09186267975904E-02 
652	 7.09873515000077E-02 
653	 7.10495205767525E-02 
654	 7.11138680808549E-02 
655	 7.11960269531992E-02 
656	 7.12575341337383E-02 
657	 7.13244824716791E-02 
658	 7.14083017753205E-02 
659	 7.14654162281043E-02 
660	 7.15363268618106E-02 
661	 7.16159081691136E-02 
662	 7.16867180271493E-02 
663	 7.17655754310822E-02 
664	 7.18238407368225E-02 
665	 7.18768467940473E-02 
666	 7.19815852046665E-02 
667	 7.20533851295147E-02 
668	 7.21159109054479E-02 
669	 7.21916915194936E-02 
670	 0.072238028491098 
671	 7.23151191026514E-02 
672	 7.23997775247517E-02 
673	 7.24463960844652E-02 
674	 7.25415249599409E-02 
675	 7.26249082875222E-02 
676	 7.26792747020132E-02 
677	 7.27530124559548E-02 
678	 7.27947981090937E-02 
679	 7.28544132011185E-02 
680	 7.29630705249301E-02 
681	 7.30248987584092E-02 
682	 7.30923906555318E-02 
683	 7.31712891409878E-02 
684	 7.32409170965747E-02 
685	 0.073287078721205 
686	 7.33447033146363E-02 
687	 7.34245672045106E-02 
688	 7.34970853329378E-02 
689	 7.35657997039081E-02 
690	 7.36241667730353E-02 
691	 0.073674037043994 
692	 7.37501945997652E-02 
693	 7.38346504343552E-02 
694	 7.39192912731567E-02 
695	 0.073998827038432 
696	 7.40269442831078E-02 
697	 0.074081098536502 
698	 7.41809637734887E-02 
699	 7.42334425118522E-02 
700	 7.42929620467156E-02 
701	 7.43668581090183E-02 
702	 7.44445461948742E-02 
703	 7.44977751642772E-02 
704	 7.45525247082022E-02 
705	 7.46187732122638E-02 
706	 7.46930606582093E-02 
707	 7.47656530949524E-02 
708	 7.48442417354714E-02 
709	 7.49221500761228E-02 
710	 7.49633225458515E-02 
711	 7.50275481678113E-02 
712	 7.51113185677753E-02 
713	 7.51940949968791E-02 
714	 7.52766685993982E-02 
715	 0.075327856126906 
716	 7.53713438610095E-02 
717	 7.54627807558847E-02 
718	 0.075550545732472 
719	 7.56259746143063E-02 
720	 7.56921987786752E-02 
721	 7.57616114933148E-02 
722	 7.58222792171743E-02 
723	 7.58876639977885E-02 
724	 7.59700482238575E-02 
725	 7.60476790010651E-02 
726	 7.61211086697948E-02 
727	 7.61980158708257E-02 
728	 7.62869745589645E-02 
729	 7.63540449829409E-02 
730	 7.64062872461948E-02 
731	 7.64636587173377E-02 
732	 7.65575856033125E-02 
733	 7.66447774792161E-02 
734	 7.67210623860711E-02 
735	 7.67959249379007E-02 
736	 0.076883021349317 
737	 7.69608572091452E-02 
738	 7.70210010833361E-02 
739	 7.70688971269152E-02 
740	 7.71423567342799E-02 
741	 7.72274135884716E-02 
742	 0.077309587633794 
743	 7.73845276318161E-02 
744	 7.74668055143078E-02 
745	 7.75376533836467E-02 
746	 7.75899907328721E-02 
747	 7.76878921097285E-02 
748	 0.077773582889435 
749	 7.78312908486278E-02 
750	 7.78790409911925E-02 
751	 7.79795995057365E-02 
752	 7.80903493191484E-02 
753	 7.81807468211852E-02 
754	 0.078251930717806 
755	 7.83233040998516E-02 
756	 7.84071030942589E-02 
757	 7.85001674157697E-02 
758	 7.85609287673244E-02 
759	 7.86368704860692E-02 
760	 0.078720650854626 
761	 7.87857806696352E-02 
762	 7.88634504485136E-02 
763	 0.078950305126652 
764	 7.90401937415293E-02 
765	 7.91270415691939E-02 
766	 7.92042405113174E-02 
767	 7.92709153911031E-02 
768	 0.079343342074241 
769	 7.94815193342023E-02 
770	 7.95660043920174E-02 
771	 7.96069830318835E-02 
772	 7.96613803134013E-02 
773	 7.97479266106356E-02 
774	 7.98327301830525E-02 
775	 7.99011924433964E-02 
776	 7.99606578787001E-02 
777	 8.00439240719781E-02 
778	 8.01529040616286E-02 
779	 8.02676254826176E-02 
780	 8.03421916034414E-02 
781	 8.03953885936831E-02 
782	 8.04395163475607E-02 
783	 8.04937363144572E-02 
784	 8.06041176566216E-02 
785	 8.07223746377942E-02 
786	 8.08112197510513E-02 
787	 8.08521978598826E-02 
788	 8.08928062525487E-02 
789	 8.09725161052161E-02 
790	 8.10785503547902E-02 
791	 0.081142694384832 
792	 8.12322197395656E-02 
793	 8.13181283100157E-02 
794	 8.13771637590174E-02 
795	 8.14461904565056E-02 
796	 0.081523088234633 
797	 8.16213061176167E-02 
798	 8.17347591571853E-02 
799	 8.17437738706386E-02 
800	 8.17884147631606E-02 
801	 8.18856129109988E-02 
802	 8.19538694188992E-02 
803	 8.20392272927117E-02 
804	 8.21289101561998E-02 
805	 8.22088597007571E-02 
806	 8.22744540953269E-02 
807	 8.23486517897513E-02 
808	 8.24174556077856E-02 
809	 0.082475074342554 
810	 8.25703834477827E-02 
811	 8.26558090897146E-02 
812	 8.27206414824999E-02 
813	 8.27775248518991E-02 
814	 8.28631611138607E-02 
815	 8.29412015170689E-02 
816	 8.30017097927331E-02 
817	 8.30634914853438E-02 
818	 8.31462993496737E-02 
819	 8.32096139678488E-02 
820	 8.32452137846838E-02 
821	 8.33115221279141E-02 
822	 8.33855520734101E-02 
823	 8.34630501717225E-02 
824	 8.35457483658762E-02 
825	 8.36477494660754E-02 
826	 8.36946799200771E-02 
827	 8.37178526201888E-02 
828	 0.083785517665521 
829	 0.083857329943709 
830	 8.39516409883252E-02 
831	 8.40375269805505E-02 
832	 0.084052378051765 
833	 8.40961594066085E-02 
834	 8.41639683690889E-02 
835	 8.42368207224319E-02 
836	 8.43002175741537E-02 
837	 8.43791048745689E-02 
838	 8.44589575345435E-02 
839	 8.45223893719365E-02 
840	 8.45716277948899E-02 
841	 0.084621057264237 
842	 8.46946911573056E-02 
843	 8.47987916333334E-02 
844	 8.48427593103841E-02 
845	 8.48908527789734E-02 
846	 8.49581701459911E-02 
847	 8.50194255594809E-02 
848	 8.50834024136532E-02 
849	 8.51352133103867E-02 
850	 8.51848671421266E-02 
851	 8.52722189523492E-02 
852	 8.53397140009997E-02 
853	 8.54043735505558E-02 
854	 8.54819720773163E-02 
855	 8.55524165033729E-02 
856	 8.56145220658251E-02 
857	 8.56692618825341E-02 
858	 0.085721031550662 
859	 8.57799609600263E-02 
860	 0.085844534179775 
861	 8.59083415568781E-02 
862	 8.59664863702164E-02 
863	 8.60387307611475E-02 
864	 8.61120354309109E-02 
865	 8.61782303238311E-02 
866	 8.62353707232559E-02 
867	 8.62712809796209E-02 
868	 0.086326453699863 
869	 8.64006437970145E-02 
870	 0.086432673109783 
871	 8.65163844126215E-02 
872	 8.66211255662904E-02 
873	 8.66982681710647E-02 
874	 8.67205209752674E-02 
875	 0.086779382563321 
876	 8.68510241766986E-02 
877	 0.086899074109241 
878	 8.69865174716118E-02 
879	 8.70653325895565E-02 
880	 8.71237448579201E-02 
881	 8.71708032687199E-02 
882	 8.72145648877821E-02 
883	 8.72674574415225E-02 
884	 8.73358763173402E-02 
885	 8.74170527326594E-02 
886	 8.74790441810202E-02 
887	 8.75387919845209E-02 
888	 8.76055512785754E-02 
889	 0.087673850690646 
890	 8.77754589600244E-02 
891	 8.78506222284606E-02 
892	 8.78816364621589E-02 
893	 8.79471143619146E-02 
894	 8.80474924912875E-02 
895	 8.81337022527635E-02 
896	 8.81833484857929E-02 
897	 8.82806851611071E-02 
898	 8.83560031977103E-02 
899	 8.84063275749632E-02 
900	 8.84544930727477E-02 
901	 8.85224452976213E-02 
902	 8.86155375391953E-02 
903	 8.87308375566194E-02 
904	 8.88455929105404E-02 
905	 8.88610584298595E-02 
906	 0.088917111815606 
907	 8.90467484665684E-02 
908	 8.91836268824123E-02 
909	 8.92372410941499E-02 
910	 8.92902962318234E-02 
911	 0.089374854947907 
912	 8.94535868716978E-02 
913	 8.95430503138191E-02 
914	 8.95968592157421E-02 
915	 8.96286719400712E-02 
916	 8.97363482100688E-02 
917	 8.98041447835813E-02 
918	 0.089883106312693 
919	 9.00087367156666E-02 
920	 9.01267510942557E-02 
921	 9.01783919643764E-02 
922	 9.02330334890793E-02 
923	 9.03423395309019E-02 
924	 9.04213061307687E-02 
925	 9.05106038532033E-02 
926	 9.05875561638479E-02 
927	 9.06361451821934E-02 
928	 9.07247602836234E-02 
929	 9.08360904442161E-02 
930	 9.09321245818961E-02 
931	 0.090992899483203 
932	 9.11130921455557E-02 
933	 9.12206085069232E-02 
934	 9.13052507778143E-02 
935	 9.13883060531922E-02 
936	 9.14367849930751E-02 
937	 0.091554480901798 
938	 9.16728766441474E-02 
939	 9.16598767734739E-02 
940	 9.18321270511406E-02 
941	 9.19830252265343E-02 
942	 9.20526452892127E-02 
943	 9.21479539513717E-02 
944	 9.23034421674374E-02 
945	 9.24115133730527E-02 
946	 9.24707673505394E-02 
947	 9.25933911097371E-02 
948	 9.26539359387108E-02 
949	 9.27427798538984E-02 
950	 9.28532921700519E-02 
951	 9.28427991586301E-02 
952	 9.29740836400935E-02 
953	 9.31441011561639E-02 
954	 9.32531293025771E-02 
955	 9.33148498373479E-02 
956	 9.34342257233317E-02 
957	 9.35536869430377E-02 
958	 9.36455915832629E-02 
959	 9.37919743324716E-02 
960	 9.39022111152695E-02 
961	 9.39903022136792E-02 
962	 0.09409858807017 
963	 0.094271837464228 
964	 9.43307034097734E-02 
965	 9.43953901991889E-02 
966	 9.45611362825502E-02 
967	 9.46842740812418E-02 
968	 9.47785318792836E-02 
969	 9.48877484992374E-02 
970	 9.50235756759062E-02 
971	 9.50879819822765E-02 
972	 9.51860025552908E-02 
973	 9.53135877830518E-02 
974	 9.54335434430148E-02 
975	 0.09552227749522 
976	 9.55495272945688E-02 
977	 9.56897463803003E-02 
978	 9.60085707058285E-02 
979	 9.60549940058274E-02 
980	 0.096146129718699 
981	 9.62622998104272E-02 
982	 9.63323268918692E-02 
983	 0.096492323628793 
984	 9.66711347456654E-02 
985	 9.68052032253251E-02 
986	 9.68917428998063E-02 
987	 9.71203858330593E-02 
988	 9.72230526967311E-02 
989	 9.72552025821848E-02 
990	 9.73515455377674E-02 
991	 9.74804941686931E-02 
992	 9.75301981825906E-02 
993	 9.75899837031171E-02 
994	 9.77636781920322E-02 
995	 9.79412945620873E-02 
996	 9.80749578267857E-02 
997	 9.81350679676334E-02 
998	 9.81616594921352E-02 
999	 9.83687145678975E-02 
1000	 9.85460804656801E-02 
1001	 9.86111231596713E-02 
1002	 9.87090916601364E-02 
1003	 9.88578424838244E-02 
1004	 9.89662017345473E-02 
1005	 9.90619213415287E-02 
1006	 9.91742522716525E-02 
1007	 9.92718377720738E-02 
1008	 9.93869880430982E-02 
1009	 9.95431553490571E-02 
1010	 9.96630267244746E-02 
1011	 9.97528583995381E-02 
1012	 9.98659451789209E-02 
1013	 9.99820151412665E-02 
1014	 0.100096492285765 
1015	 0.100222089686128 
1016	 0.100349761140193 
1017	 0.100457924323806 
1018	 0.100547255597809 
1019	 0.100674010474702 
1020	 0.10081591192418 
1021	 0.100949386615764 
1022	 0.101100979361954 
1023	 0.101241467389893 
1024	 0.101359264831731 
1025	 0.101500098146162 
1026	 0.101673865122576 
1027	 0.101811782942518 
1028	 0.101934930593624 
1029	 0.10206967978678 
1030	 0.102185094304805 
1031	 0.102284607874899 
1032	 0.102396176688842 
1033	 0.102514329850375 
1034	 0.102655439783262 
1035	 0.102792977021937 
1036	 0.102927291317667 
1037	 0.103084676749788 
1038	 0.103214736655195 
1039	 0.103322009914764 
1040	 0.103440204722679 
1041	 0.103546616233814 
1042	 0.103665658558464 
1043	 0.103800358281038 
1044	 0.103914044718234 
1045	 0.104017725329585 
1046	 0.104140013638359 
1047	 0.104251536792155 
1048	 0.104362892563453 
1049	 0.104479776547459 
1050	 0.104613298967957 
1051	 0.104756674536646 
1052	 0.104868605000433 
1053	 0.104989154534325 
1054	 0.105131598279682 
1055	 0.105239021918275 
1056	 0.105310308168071 
1057	 0.105420062857898 
1058	 0.105533245398752 
1059	 0.105640394344473 
1060	 0.1057886631302 
1061	 0.105924889343648 
1062	 0.106065461054371 
1063	 0.106205265760371 
1064	 0.106309710768465 
1065	 0.106431549830217 
1066	 0.106547134462537 
1067	 0.106657903844547 
1068	 0.106800365581667 
1069	 0.106909817375881 
1070	 0.107024571054034 
1071	 0.107137455440993 
1072	 0.10726075568748 
1073	 0.107348923732319 
1074	 0.107467886520241 
1075	 0.107595942750834 
1076	 0.107707811942858 
1077	 0.107849252653777 
1078	 0.107981155508458 
1079	 0.108100561430564 
1080	 0.108214220248595 
1081	 0.108304056075929 
1082	 0.108382119939776 
1083	 0.108467530097694 
1084	 0.10858614875686 
1085	 0.108710194056695 
1086	 0.108833403031642 
1087	 0.108973549446441 
1088	 0.109123598381681 
1089	 0.109248510519897 
1090	 0.109363871041551 
1091	 0.109485622932142 
1092	 0.109604234506737 
1093	 0.109717410630145 
1094	 0.109857298733982 
1095	 0.11000803656284 
1096	 0.110136075599934 
1097	 0.110266603111613 
1098	 0.110387138391756 
1099	 0.110478637050689 
1100	 0.11059702610782 
1101	 0.110741055150231 
1102	 0.110856631088695 
1103	 0.110979348855334 
1104	 0.111112460275565 
1105	 0.111254940909632 
1106	 0.111370915863673 
1107	 0.111498547327408 
1108	 0.11163204020295 
1109	 0.111724981675523 
1110	 0.111818811258678 
1111	 0.11194326589562 
1112	 0.112058433585698 
1113	 0.112180725547277 
1114	 0.11230977170044 
1115	 0.1124059984355 
1116	 0.112511283114339 
1117	 0.112638043514326 
1118	 0.112755407723759 
1119	 0.112875176309286 
1120	 0.112994966419018 
1121	 0.113115582461356 
1122	 0.113225759481074 
1123	 0.113332965224782 
1124	 0.113441788164567 
1125	 0.11356193531532 
1126	 0.113683545632665 
1127	 0.113813963468913 
1128	 0.113953015508877 
1129	 0.114071156796345 
1130	 0.114178314805582 
1131	 0.11429571344877 
1132	 0.11441112086071 
1133	 0.114521766155092 
1134	 0.114634497291427 
1135	 0.114743511089859 
1136	 0.114834715637627 
1137	 0.114949466548837 
1138	 0.115082898102906 
1139	 0.115199789152827 
1140	 0.115316473567889 
1141	 0.115441059826254 
1142	 0.115555243646047 
1143	 0.115672237767235 
1144	 0.11580024631772 
1145	 0.115915632258281 
1146	 0.116008232640498 
1147	 0.116112315687224 
1148	 0.116218882678075 
1149	 0.116316307200656 
1150	 0.116434487288019 
1151	 0.116545278649918 
1152	 0.116658128893397 
1153	 0.116773626166533 
1154	 0.116896946437836 
1155	 0.117025618959542 
1156	 0.117147378811379 
1157	 0.117267953127731 
1158	 0.117384595624382 
1159	 0.117492113929011 
1160	 0.11761513785495 
1161	 0.117720929845503 
1162	 0.117848156890448 
1163	 0.117971261721783 
1164	 0.118073842430989 
1165	 0.118182309689388 
1166	 0.118299246183581 
1167	 0.118420849197535 
1168	 0.118524546215166 
1169	 0.118635230009728 
1170	 0.118751249877295 
1171	 0.118864975816684 
1172	 0.118976831241502 
1173	 0.119088340494309 
1174	 0.119198488449369 
1175	 0.119305965492795 
1176	 0.119409136688973 
1177	 0.119518798988023 
1178	 0.119632268842419 
1179	 0.119746801007481 
1180	 0.119856766198603 
1181	 0.119961081575485 
1182	 0.120072876545301 
1183	 0.120177281959519 
1184	 0.120288739496858 
1185	 0.120404397165795 
1186	 0.12051225583516 
1187	 0.12061391046603 
1188	 0.120722283236285 
1189	 0.120826099166411 
1190	 0.120939192297627 
1191	 0.121062721147087 
1192	 0.121178075820469 
1193	 0.121299960697078 
1194	 0.121411874105931 
1195	 0.121512268687534 
1196	 0.121618324700174 
1197	 0.121724703565659 
1198	 0.121824671677069 
1199	 0.121935341838454 
1200	 0.122042926319524 
1201	 0.122153194130553 
1202	 0.122266545684734 
1203	 0.122371497950526 
1204	 0.122486640879574 
1205	 0.122603379826691 
1206	 0.122726531048185 
1207	 0.122839954634204 
1208	 0.122951980978758 
1209	 0.123064388881606 
1210	 0.12317053966834 
1211	 0.123279655384483 
1212	 0.123397096481975 
1213	 0.123507390107551 
1214	 0.12360393407385 
1215	 0.123712837774109 
1216	 0.123838268338674 
1217	 0.123945434919872 
1218	 0.124038934533917 
1219	 0.124151005626557 
1220	 0.124259838936287 
1221	 0.124350106310488 
1222	 0.124452699493574 
1223	 0.124553598729581 
1224	 0.124650732773928 
1225	 0.124728532453163 
1226	 0.124832539797051 
1227	 0.12495578148394 
1228	 0.1250639086556 
1229	 0.125180686279116 
1230	 0.125283081603328 
1231	 0.125365803359885 
1232	 0.125461989630045 
1233	 0.125559627722566 
1234	 0.125657341024406 
1235	 0.125760631343345 
1236	 0.125861508533564 
1237	 0.12594994888941 
1238	 0.126055753750375 
1239	 0.126169337718536 
1240	 0.126292003881333 
1241	 0.126421165666081 
1242	 0.126542893592396 
1243	 0.126653859763344 
1244	 0.12675232912281 
1245	 0.126855493710134 
1246	 0.126950433600587 
1247	 0.127056755124762 
1248	 0.127167554322189 
1249	 0.127280528244467 
1250	 0.127403079609748 
1251	 0.127515042720975 
1252	 0.127621578587483 
1253	 0.12773284332025 
1254	 0.127843542290183 
1255	 0.127952080243314 
1256	 0.128063426061127 
1257	 0.128174385280694 
1258	 0.128273992336823 
1259	 0.128386131227483 
1260	 0.12851319761549 
1261	 0.128632396958891 
1262	 0.128751677695454 
1263	 0.128875207851644 
1264	 0.128992317615592 
1265	 0.129105648531162 
1266	 0.129211163146847 
1267	 0.129311457711709 
1268	 0.129414525882811 
1269	 0.129506228607183 
1270	 0.129610762456887 
1271	 0.129733367581154 
1272	 0.129832637816653 
1273	 0.129921408943855 
1274	 0.130014780287209 
1275	 0.130090742209532 
1276	 0.130183180243125 
1277	 0.130290258986828 
1278	 0.130391766692083 
1279	 0.130493838775455 
1280	 0.130598435618111 
1281	 0.130709709761882 
1282	 0.130811202085787 
1283	 0.13091172138868 
1284	 0.131006813620104 
1285	 0.131096076729586 
1286	 0.131171568098222 
1287	 0.131262293570464 
1288	 0.131353026473194 
1289	 0.131453157673779 
1290	 0.131564685076095 
1291	 0.13166697750968 
1292	 0.131771905651264 
1293	 0.131872255160136 
1294	 0.131961775082535 
1295	 0.132064696869282 
1296	 0.132174503180428 
1297	 0.132280920385374 
1298	 0.132394543778492 
1299	 0.132501434740554 
1300	 0.132604078470574 
1301	 0.132704788803333 
1302	 0.132790277015233 
1303	 0.132897827027133 
1304	 0.133021118603513 
1305	 0.133134705874038 
1306	 0.133266514214812 
1307	 0.133381900991786 
1308	 0.133470901914615 
1309	 0.133569854411938 
1310	 0.133679854560863 
1311	 0.133796141467022 
1312	 0.13390465487721 
1313	 0.134021055632649 
1314	 0.134130826477554 
1315	 0.134227738092121 
1316	 0.134336272961608 
1317	 0.134456446563508 
1318	 0.134565053813085 
1319	 0.134670648526638 
1320	 0.134773573245341 
1321	 0.134868022118031 
1322	 0.134969662224679 
1323	 0.135072493564179 
1324	 0.135176338780973 
1325	 0.135288844304406 
1326	 0.135390433157814 
1327	 0.135484368958061 
1328	 0.135581664274876 
1329	 0.135674308521367 
1330	 0.135768820157478 
1331	 0.135869517736347 
1332	 0.135964790946344 
1333	 0.136051265401279 
1334	 0.136145057186555 
1335	 0.136240242760236 
1336	 0.13633377073171 
1337	 0.136435347979546 
1338	 0.136543556190832 
1339	 0.136649963965843 
1340	 0.136757771627013 
1341	 0.13687020466832 
1342	 0.13699304113259 
1343	 0.13709712809306 
1344	 0.137196704981499 
1345	 0.137294833444601 
1346	 0.137379040921703 
1347	 0.137469305211428 
1348	 0.137570939524708 
1349	 0.137657155185409 
1350	 0.137725340023869 
1351	 0.137810136047802 
1352	 0.137898587804296 
1353	 0.137984484979969 
1354	 0.138074945482177 
1355	 0.138168527091768 
1356	 0.138252272971344 
1357	 0.138350649849559 
1358	 0.138469683920095 
1359	 0.138580322634969 
1360	 0.138693406292664 
1361	 0.138807761997793 
1362	 0.13891276437761 
1363	 0.139004870295223 
1364	 0.139104171736439 
1365	 0.139197422965864 
1366	 0.13930220114996 
1367	 0.139414661214835 
1368	 0.139521166155897 
1369	 0.139630764049125 
1370	 0.139736748546126 
1371	 0.139838255909309 
1372	 0.139941112638401 
1373	 0.14004609205764 
1374	 0.140148483854088 
1375	 0.140249129515182 
1376	 0.14034904136416 
1377	 0.140452582827216 
1378	 0.140546898089355 
1379	 0.140632608765101 
1380	 0.140723892724143 
1381	 0.140810248125412 
1382	 0.140901658426147 
1383	 0.14100367631432 
1384	 0.141096478554525 
1385	 0.141184006513758 
1386	 0.141272310668603 
1387	 0.141358307345732 
1388	 0.141440366214528 
1389	 0.141520997274482 
1390	 0.141601550084129 
1391	 0.141676375221828 
1392	 0.141756181776435 
1393	 0.141837719290944 
1394	 0.141904567965499 
1395	 0.141974636392964 
1396	 0.142038233730358 
1397	 0.142109193672065 
1398	 0.142185861416528 
1399	 0.142250150592853 
1400	 0.142307560089873 
1401	 0.142374920760452 
1402	 0.142436308327534 
1403	 0.142506904093223 
1404	 0.142596871103394 
1405	 0.142666252340451 
1406	 0.142722422971057 
1407	 0.14278992088723 
1408	 0.142854581545114 
1409	 0.142922153092093 
1410	 0.14299762398281 
1411	 0.143071463099623 
1412	 0.143141315831855 
1413	 0.143214876959321 
1414	 0.143296456827111 
1415	 0.143370887306529 
1416	 0.143444434380952 
1417	 0.143514894419273 
1418	 0.143568998611433 
1419	 0.14364321803409 
1420	 0.143729939047121 
1421	 0.143812116692612 
1422	 0.143902872264474 
1423	 0.143995544893514 
1424	 0.144085679359794 
1425	 0.144178441877137 
1426	 0.144258436269894 
1427	 0.144352997388413 
1428	 0.144458992401932 
1429	 0.144544218518372 
1430	 0.144636688968818 
1431	 0.144741122981778 
1432	 0.144836190343784 
1433	 0.144914263995957 
1434	 0.145014908104839 
1435	 0.145131812184651 
1436	 0.145237325303347 
1437	 0.145345610098248 
1438	 0.145450011162756 
1439	 0.145546077892718 
1440	 0.145651026268378 
1441	 0.145759461181726 
1442	 0.145869239391838 
1443	 0.145989099766215 
1444	 0.146095383591545 
1445	 0.146191613604671 
1446	 0.14629795725339 
1447	 0.146401236222191 
1448	 0.146507886376675 
1449	 0.146625497166144 
1450	 0.146737046967748 
1451	 0.146849480542072 
1452	 0.146952131344373 
1453	 0.147045478481397 
1454	 0.147146310369658 
1455	 0.147242575711548 
1456	 0.147339820206074 
1457	 0.147445457694421 
1458	 0.147547070329849 
1459	 0.14764077013131 
1460	 0.147740193215754 
1461	 0.147846922704779 
1462	 0.147947507042654 
1463	 0.148046221782763 
1464	 0.14814410379171 
1465	 0.148231573704796 
1466	 0.148332582636313 
1467	 0.148431591439671 
1468	 0.148529171034501 
1469	 0.148627724062302 
1470	 0.14870977957743 
1471	 0.148804516941388 
1472	 0.148897285280589 
1473	 0.148996093402002 
1474	 0.149104459164627 
1475	 0.149204538717187 
1476	 0.14930388565956 
1477	 0.149398656851015 
1478	 0.149487257014827 
1479	 0.149583258439723 
1480	 0.149676127807116 
1481	 0.149776080335393 
1482	 0.149887590823366 
1483	 0.149987922821051 
1484	 0.150086237234798 
1485	 0.15018478901223 
1486	 0.150274394203861 
1487	 0.15037519726077 
1488	 0.150482348990577 
1489	 0.150587986601067 
1490	 0.150700977127175 
1491	 0.150806371662712 
1492	 0.150907868695815 
1493	 0.151010412523271 
1494	 0.151104636741859 
1495	 0.151211473905999 
1496	 0.151326358262685 
1497	 0.151438191665969 
1498	 0.151554623952282 
1499	 0.151672569497496 
1500	 0.151786261451496 
1501	 0.15190725184869 
1502	 0.152038959564872 
1503	 0.152165206220543 
1504	 0.152295938513208 
1505	 0.152418394521075 
1506	 0.152535643511122 
1507	 0.15265117662633 
1508	 0.152752780405647 
1509	 0.152867997166292 
1510	 0.152986696498625 
1511	 0.153110098676351 
1512	 0.153252033773053 
1513	 0.153381093179673 
1514	 0.153501597676056 
1515	 0.15362823710001 
1516	 0.15375228501908 
1517	 0.15387588808277 
1518	 0.154001394663286 
1519	 0.154130640632178 
1520	 0.154260105250322 
1521	 0.154392051729951 
1522	 0.154511467398585 
1523	 0.154643932839215 
1524	 0.154764482718162 
1525	 0.154870904949233 
1526	 0.154994513507234 
1527	 0.155125115809133 
1528	 0.155253139428005 
1529	 0.155389845329093 
1530	 0.155510613840779 
1531	 0.15562279901557 
1532	 0.155741784741105 
1533	 0.15585144224701 
1534	 0.155977011067253 
1535	 0.156118178095018 
1536	 0.15624270894525 
1537	 0.156360872681116 
1538	 0.156493152511697 
1539	 0.156626438592414 
1540	 0.156756146894076 
1541	 0.156896998896356 
1542	 0.157029969775133 
1543	 0.157154531548892 
1544	 0.157275976998528 
1545	 0.15739408339853 
1546	 0.157521827894912 
1547	 0.157646963542964 
1548	 0.157771483848857 
1549	 0.157908919128259 
1550	 0.15803566381063 
1551	 0.158149713187178 
1552	 0.158269351683959 
1553	 0.158390753320808 
1554	 0.158514084434933 
1555	 0.158637105969802 
1556	 0.158759141610835 
1557	 0.158883345888076 
1558	 0.159008716171874 
1559	 0.159136019420116 
1560	 0.159255470477417 
1561	 0.159371066951177 
1562	 0.159492302051545 
1563	 0.159609730602272 
1564	 0.159727862625205 
1565	 0.159853209974637 
1566	 0.159974934214688 
1567	 0.160086554245327 
1568	 0.160209208683881 
1569	 0.160336276836672 
1570	 0.160469764757499 
1571	 0.160620873320511 
1572	 0.160750897137551 
1573	 0.160875713884668 
1574	 0.160999353677891 
1575	 0.161101716871971 
1576	 0.161222116028566 
1577	 0.161354670629489 
1578	 0.16148493205403 
1579	 0.161623156873351 
1580	 0.161753757635645 
1581	 0.161876704826031 
1582	 0.162009113147865 
1583	 0.162144084199464 
1584	 0.162278084180088 
1585	 0.162421750116279 
1586	 0.162557375240512 
1587	 0.162686775624837 
1588	 0.162815073858098 
1589	 0.162933059071136 
1590	 0.163064942034389 
1591	 0.163211565543499 
1592	 0.163341373190561 
1593	 0.16347107173691 
1594	 0.163598342032429 
1595	 0.163706315815257 
1596	 0.163825664431082 
1597	 0.163955978320857 
1598	 0.164081920861941 
1599	 0.164207593213344 
1600	 0.164331518648038 
1601	 0.164454412297749 
1602	 0.164578567743349 
1603	 0.164698729303776 
1604	 0.164823951309154 
1605	 0.164949916734204 
1606	 0.165081541843086 
1607	 0.165225659143744 
1608	 0.165359552903709 
1609	 0.165492111854956 
1610	 0.165623672934239 
1611	 0.16574492416425 
1612	 0.165871337297963 
1613	 0.166006466863398 
1614	 0.166132341560986 
1615	 0.166253031928239 
1616	 0.166375810040377 
1617	 0.166486733946054 
1618	 0.166612672901352 
1619	 0.166751082364239 
1620	 0.166885271327255 
1621	 0.167033370975506 
1622	 0.167166682335452 
1623	 0.167282504595836 
1624	 0.167408711702493 
1625	 0.167531410539872 
1626	 0.167660872158557 
1627	 0.167806917484583 
1628	 0.167940092197878 
1629	 0.168061800868305 
1630	 0.168193044654435 
1631	 0.168327272367189 
1632	 0.168456136577257 
1633	 0.16858813159151 
1634	 0.168721475046854 
1635	 0.168857448979818 
1636	 0.168978733544709 
1637	 0.169089487120347 
1638	 0.169209033138071 
1639	 0.169320360113997 
1640	 0.169433412677734 
1641	 0.169553527485481 
1642	 0.169679095328589 
1643	 0.169803148626167 
1644	 0.169927093791549 
1645	 0.170065078192563 
1646	 0.170191670511861 
1647	 0.170302577771308 
1648	 0.170424808952656 
1649	 0.170553729165105 
1650	 0.170677842594465 
1651	 0.170799877594261 
1652	 0.17092613469782 
1653	 0.171047534777347 
1654	 0.171179955799876 
1655	 0.171339321592271 
1656	 0.171468387059451 
1657	 0.171583586910789 
1658	 0.17169918965906 
1659	 0.17179764539442 
1660	 0.171895925914379 
1661	 0.171993775469505 
1662	 0.172094451544446 
1663	 0.172186793107005 
1664	 0.172285743732112 
1665	 0.172392427197079 
1666	 0.172501344579316 
1667	 0.172617106510564 
1668	 0.172721760881527 
1669	 0.172826055690783 
1670	 0.172926729836537 
1671	 0.173020144914894 
1672	 0.173108225281992 
1673	 0.173199724045674 
1674	 0.173278914630866 
1675	 0.173332941806465 
1676	 0.17340179988301 
1677	 0.173480631168615 
1678	 0.173545149785591 
1679	 0.1736040011709 
1680	 0.173674841498638 
1681	 0.173733902259646 
1682	 0.173807940453474 
1683	 0.173905934576959 
1684	 0.173988164222402 
1685	 0.174060929965047 
1686	 0.174146821637371 
1687	 0.174232423021378 
1688	 0.174328531913755 
1689	 0.174440874769748 
1690	 0.174551704506434 
1691	 0.174667281238747 
1692	 0.174777628161405 
1693	 0.174882013433728 
1694	 0.174996894837409 
1695	 0.17511146239827 
1696	 0.175238083671368 
1697	 0.175380811857009 
1698	 0.175519683432495 
1699	 0.175671783107674 
1700	 0.175793954146047 
1701	 0.175903656623375 
1702	 0.176013554388314 
1703	 0.176094547631832 
1704	 0.176212672256941 
1705	 0.176355777652756 
1706	 0.17649326456558 
1707	 0.176615880196785 
1708	 0.176721820036211 
1709	 0.176827840841827 
1710	 0.176936623976857 
1711	 0.177055120431763 
1712	 0.177159016571757 
1713	 0.177242896208224 
1714	 0.177322929652787 
1715	 0.177380862466045 
1716	 0.177430851284914 
1717	 0.177494154962476 
1718	 0.177556853783883 
1719	 0.177623741301819 
1720	 0.177700234061729 
1721	 0.177790418456071 
1722	 0.177886506618679 
1723	 0.177970777169026 
1724	 0.178061325061047 
1725	 0.178148463089807 
1726	 0.178216878708665 
1727	 0.178300723278651 
1728	 0.178400716534912 
1729	 0.178508721703667 
1730	 0.178630122854824 
1731	 0.178748164025388 
1732	 0.178883405158654 
1733	 0.179016271097032 
1734	 0.179137223026215 
1735	 0.179289020929803 
1736	 0.179419331315435 
1737	 0.179526780800347 
1738	 0.179662392246349 
1739	 0.179776336501935 
1740	 0.179877080351037 
1741	 0.180006312184956 
1742	 0.180129255300357 
1743	 0.180254242852398 
1744	 0.180405034471032 
1745	 0.180546079791967 
1746	 0.180675566878402 
1747	 0.180819949150739 
1748	 0.180984199501133 
1749	 0.181118613974439 
1750	 0.181236781513577 
1751	 0.181372242134365 
1752	 0.181502529779532 
1753	 0.181635100038809 
1754	 0.181782489753361 
1755	 0.181908510339842 
1756	 0.182009521968412 
1757	 0.18214463822675 
1758	 0.182290120418483 
1759	 0.182433762840049 
1760	 0.182582140759655 
1761	 0.182721612182777 
1762	 0.182850555083353 
1763	 0.182971843344923 
1764	 0.18309508911017 
1765	 0.183226839064625 
1766	 0.183361091006959 
1767	 0.183499589409182 
1768	 0.183653017705756 
1769	 0.183806769528375 
1770	 0.183939175686533 
1771	 0.184085575142642 
1772	 0.184248402392674 
1773	 0.184391966337142 
1774	 0.184523424604289 
1775	 0.184644280047439 
1776	 0.184760685988979 
1777	 0.184895851051488 
1778	 0.185021145851461 
1779	 0.185141461489062 
1780	 0.185271085669685 
1781	 0.185392922552284 
1782	 0.185530009017401 
1783	 0.185683094862349 
1784	 0.185829251060462 
1785	 0.185932738061906 
1786	 0.186055122900582 
1787	 0.18616910714422 
1788	 0.186301377629954 
1789	 0.186474950401876 
1790	 0.186620285745009 
1791	 0.186756832570402 
1792	 0.18690311994877 
1793	 0.187025749498224 
1794	 0.187145370655965 
1795	 0.1872802204382 
1796	 0.187395206488463 
1797	 0.187516386732233 
1798	 0.187644684990775 
1799	 0.187791622718369 
1800	 0.18794102862714 
1801	 0.187715940660317 
1802	 0.187834258500651 
1803	 0.187969446190532 
1804	 0.18810505762109 
1805	 0.188247194044276 
1806	 0.188380491107566 
1807	 0.188517039528522 
1808	 0.188658887099633 
1809	 0.188794506151642 
1810	 0.188931499607545 
1811	 0.189086620995302 
1812	 0.189228312871073 
1813	 0.189363931100322 
1814	 0.189489563272288 
1815	 0.18961203360122 
1816	 0.189752323631715 
1817	 0.189889788988856 
1818	 0.190031766778026 
1819	 0.190169630112051 
1820	 0.190307120335685 
1821	 0.190444839876099 
1822	 0.190575023859237 
1823	 0.190719897713589 
1824	 0.190863835556941 
1825	 0.191009767961428 
1826	 0.19115337317638 
1827	 0.191298744261164 
1828	 0.19143940252118 
1829	 0.191575948845161 
1830	 0.191711474452693 
1831	 0.191840015590874 
1832	 0.191979158225886 
1833	 0.1921156141839 
1834	 0.192268957994493 
1835	 0.192428441909553 
1836	 0.192563886621354 
1837	 0.192711871841755 
1838	 0.192865084491134 
1839	 0.193009564115149 
1840	 0.193151394414655 
1841	 0.193299265221347 
1842	 0.193443948887128 
1843	 0.19358723965984 
1844	 0.193744811112333 
1845	 0.193880274860123 
1846	 0.194014289751376 
1847	 0.194149818726381 
1848	 0.194273150493617 
1849	 0.194386044609126 
1850	 0.194507517026843 
1851	 0.194628019254752 
1852	 0.194739879502031 
1853	 0.19485975093981 
1854	 0.194969454788328 
1855	 0.195068061464081 
1856	 0.195171495673672 
1857	 0.195279867840623 
1858	 0.195375179971186 
1859	 0.195471031258607 
1860	 0.195570751080253 
1861	 0.195662701358819 
1862	 0.195745816057547 
1863	 0.195834026238688 
1864	 0.195915121155664 
1865	 0.19597975300154 
1866	 0.196023901601966 
1867	 0.196060615883264 
1868	 0.19609098999169 
1869	 0.196098889490041 
1870	 0.196107097233296 
1871	 0.196110490291646 
1872	 0.196105136044888 
1873	 0.196094647213842 
1874	 0.196074174384298 
1875	 0.196045110378845 
1876	 0.196001263398856 
1877	 0.195944769304162 
1878	 0.195869931500254 
1879	 0.195767275556828 
1880	 0.195647484107004 
1881	 0.195504150424021 
1882	 0.195336844418539 
1883	 0.195151555187948 
1884	 0.194932525214241 
1885	 0.194667308424217 
1886	 0.194392348036234 
1887	 0.194080004056432 
1888	 0.193713959840473 
1889	 0.193343357595186 
1890	 0.192936668277399 
1891	 0.192509789885607 
1892	 0.19207224296393 
1893	 0.191606657313979 
1894	 0.191117221818623 
1895	 0.190612191822352 
1896	 0.190071551974484 
1897	 0.189521041032625 
1898	 0.188997146215073 
1899	 0.188447009081668 
1900	 0.187912500668727 
1901	 0.187396666947206 
1902	 0.18684442130085 
1903	 0.186317788328815 
1904	 0.185818282122015 
1905	 0.185322508967047 
1906	 0.18485931653818 
1907	 0.184463287086562 
1908	 0.184089321359517 
1909	 0.183747688242445 
1910	 0.183416876716382 
1911	 0.183095296240978 
1912	 0.182820137503322 
1913	 0.182543584029895 
1914	 0.182289309164476 
1915	 0.182066228013248 
1916	 0.181880639618757 
1917	 0.181682142549504 
1918	 0.1815011413456 
1919	 0.181347762449429 
1920	 0.181194791897537 
1921	 0.181057949080929 
1922	 0.180962325053369 
1923	 0.180893976089663 
1924	 0.180831221346553 
1925	 0.180790909537735 
1926	 0.18075390002215 
1927	 0.18072200216978 
1928	 0.180693160003925 
1929	 0.18066968327684 
1930	 0.180661086761433 
1931	 0.180661563667223 
1932	 0.180686262181043 
1933	 0.180735863016152 
1934	 0.180790067855814 
1935	 0.180848262052595 
1936	 0.180924411255551 
1937	 0.181008678916976 
1938	 0.181094862667411 
1939	 0.181205472422122 
1940	 0.181332971471483 
1941	 0.181476796870818 
1942	 0.181630313081984 
1943	 0.181794518003556 
1944	 0.181963961854093 
1945	 0.182144192086308 
1946	 0.182340439423201 
1947	 0.182554289557338 
1948	 0.182782535550474 
1949	 0.183011807732737 
1950	 0.183243546668784 
1951	 0.183479982886886 
1952	 0.183723887344032 
1953	 0.183967625882142 
1954	 0.184221978740813 
1955	 0.184508469584902 
1956	 0.184774282130969 
1957	 0.18506010229081 
1958	 0.185370695872879 
1959	 0.185633182355086 
1960	 0.18590572689299 
1961	 0.18618294548828 
1962	 0.186440313744462 
1963	 0.186717028275512 
1964	 0.187021945270798 
1965	 0.187313470827536 
1966	 0.187605513479228 
1967	 0.187903592287603 
1968	 0.188173727214555 
1969	 0.188443073839239 
1970	 0.188728093609922 
1971	 0.18902224652793 
1972	 0.189345332634633 
1973	 0.18963830836587 
1974	 0.189937115215854 
1975	 0.190239561125496 
1976	 0.190532232747898 
1977	 0.190815537074273 
1978	 0.191106096983318 
1979	 0.191397087204053 
1980	 0.191666180346862 
1981	 0.19196234821746 
1982	 0.192264107128037 
1983	 0.192576135403907 
1984	 0.192883210044539 
1985	 0.193174651601024 
1986	 0.193489184770359 
1987	 0.193795794448061 
1988	 0.194095723915253 
1989	 0.194405449356146 
1990	 0.194719734809484 
1991	 0.195033061056637 
1992	 0.195353948938889 
1993	 0.195685933619822 
1994	 0.195968793117384 
1995	 0.196250393981115 
1996	 0.196521166878046 
1997	 0.196780755358014 
1998	 0.197066885713523 
1999	 0.197381499016863 
2000	 0.197669568070077 
2001	 0.197964964830129 
2002	 0.198235052642339 
2003	 0.198477755959481 
2004	 0.198740439775837 
2005	 0.198998544109732 
2006	 0.199256506776489 
2007	 0.199531921649045 
2008	 0.199785756618753 
2009	 0.200024388412129 
2010	 0.200262853936619 
2011	 0.200484292348901 
2012	 0.200709886307974 
2013	 0.20092407872756 
2014	 0.201138542505503 
2015	 0.201328379555095 
2016	 0.201504470917365 
2017	 0.201665420463317 
2018	 0.201810151343305 
2019	 0.201937175562169 
2020	 0.202046357981628 
2021	 0.202149203497073 
2022	 0.202229900511161 
2023	 0.202301617220958 
2024	 0.202376834452057 
2025	 0.202440997369401 
2026	 0.202481624818984 
2027	 0.202509639471752 
2028	 0.202513740953858 
2029	 0.202473880531961 
2030	 0.202460453178325 
2031	 0.202437415107128 
2032	 0.202425691579417 
2033	 0.202421448594847 
2034	 0.202426350013419 
2035	 0.202437119416247 
2036	 0.202448742576165 
2037	 0.202460417683644 
2038	 0.202502782912151 
2039	 0.2025599171981 
2040	 0.202618514562311 
2041	 0.202712813130897 
2042	 0.202834652754642 
2043	 0.202981112788734 
2044	 0.203166333140263 
2045	 0.203346307510637 
2046	 0.203551640945272 
2047	 0.203755893545219 
2048	 0.203940335511096 
2049	 0.204163094139183 
2050	 0.204421307353214 
2051	 0.204674194306779 
2052	 0.204943324349585 
2053	 0.205239053459186 
2054	 0.205517847301321 
2055	 0.205792870970551 
2056	 0.206075287764046 
2057	 0.206352136560258 
2058	 0.206648541776673 
2059	 0.206966261828251 
2060	 0.207261857304356 
2061	 0.20756260839685 
2062	 0.207859393135318 
2063	 0.208121389037051 
2064	 0.208419588391433 
2065	 0.208750326580417 
2066	 0.209066351295043 
2067	 0.209381450587066 
2068	 0.209706112642677 
2069	 0.210014422761205 
2070	 0.210308249678254 
2071	 0.210602963395774 
2072	 0.210897955371643 
2073	 0.211181647893526 
2074	 0.211449735789501 
2075	 0.211724929358259 
2076	 0.212006279209691 
2077	 0.212270734502475 
2078	 0.212535118186159 
2079	 0.212786160988019 
2080	 0.213010610339338 
2081	 0.213243835689799 
2082	 0.2134748090805 
2083	 0.213703459344709 
2084	 0.213946303248354 
2085	 0.214168032204483 
2086	 0.214378903712164 
2087	 0.214580832766774 
2088	 0.214774182403632 
2089	 0.214947087004765 
2090	 0.215129761679527 
2091	 0.215313913855651 
2092	 0.215488363996698 
2093	 0.215654854333371 
2094	 0.215821533375844 
2095	 0.215985837069064 
2096	 0.216146186054275 
2097	 0.216297288344823 
2098	 0.216463245222357 
2099	 0.2166070816817 
2100	 0.216754699956578 
2101	 0.21691973867575 
2102	 0.217091443648375 
2103	 0.217262697513813 
2104	 0.21746162226503 
2105	 0.217623991544026 
2106	 0.217762070952812 
2107	 0.217918165206761 
2108	 0.218064105904798 
2109	 0.218216032082236 
2110	 0.218381700607958 
2111	 0.218541353790417 
2112	 0.218700725137685 
2113	 0.21885437475502 
2114	 0.219002207738248 
2115	 0.219154017006773 
2116	 0.219311955644695 
2117	 0.219450910124257 
2118	 0.219590110820101 
2119	 0.219730905273165 
2120	 0.219866620803665 
2121	 0.219996046145927 
2122	 0.220117870663532 
2123	 0.220242203498375 
2124	 0.220350935204976 
2125	 0.220452036236387 
2126	 0.220529289444615 
2127	 0.220591693556409 
2128	 0.220643696294511 
2129	 0.220677438717427 
2130	 0.220696078721953 
2131	 0.220698898354578 
2132	 0.22069662818484 
2133	 0.220693090006839 
2134	 0.220654604402125 
2135	 0.220596362863943 
2136	 0.220529529869809 
2137	 0.220439122217031 
2138	 0.220311700386015 
2139	 0.220187519479468 
2140	 0.220055989480414 
2141	 0.219912226464557 
2142	 0.219749558511533 
2143	 0.219585414794956 
2144	 0.219425813421559 
2145	 0.21923956877791 
2146	 0.219027005564578 
2147	 0.218819349546585 
2148	 0.218597871392896 
2149	 0.218372303455996 
2150	 0.218156703151636 
2151	 0.217919962396073 
2152	 0.217667952655014 
2153	 0.217403380697872 
2154	 0.217115505007479 
2155	 0.216832987866298 
2156	 0.216569733284378 
2157	 0.216314771578914 
2158	 0.216046691232215 
2159	 0.215794511795196 
2160	 0.215523577605844 
2161	 0.2152236355225 
2162	 0.214951149425695 
2163	 0.214677187207918 
2164	 0.214427064261576 
2165	 0.214193168785416 
2166	 0.21396798188503 
2167	 0.213761033705804 
2168	 0.213564064641315 
2169	 0.213380928399248 
2170	 0.213197046462598 
2171	 0.212998408008716 
2172	 0.212847350682612 
2173	 0.212714521612918 
2174	 0.212599287628868 
2175	 0.212535861268549 
2176	 0.212515753819673 
2177	 0.212503407082416 
2178	 0.212522606363708 
2179	 0.212530023084278 
2180	 0.21255812885496 
2181	 0.21257447777221 
2182	 0.212562742574165 
2183	 0.212613240970825 
2184	 0.212694591011795 
2185	 0.212777651174208 
2186	 0.212897636583511 
2187	 0.213012422945085 
2188	 0.213136645620082 
2189	 0.21325138855303 
2190	 0.213371219373754 
2191	 0.213492245767971 
2192	 0.213588981024561 
2193	 0.213712961550014 
2194	 0.213871065980007 
2195	 0.214013533413449 
2196	 0.214154380510366 
2197	 0.214305447391773 
2198	 0.214448351402426 
2199	 0.214596964522996 
2200	 0.214737676251982 
2201	 0.214877819016247 
2202	 0.215028655421428 
2203	 0.215174373276562 
2204	 0.21532534273989 
2205	 0.215498575420763 
2206	 0.21565136942981 
2207	 0.21579286769226 
2208	 0.215933625405063 
2209	 0.216061456151372 
2210	 0.216206694195844 
2211	 0.21635497365747 
2212	 0.216502913499666 
2213	 0.216665360988312 
2214	 0.216822048789244 
2215	 0.216962221379836 
2216	 0.21712328249166 
2217	 0.217306096219904 
2218	 0.217472453030661 
2219	 0.217667195986176 
2220	 0.217815772624698 
2221	 0.217924109028964 
2222	 0.218030850049346 
2223	 0.218145612852419 
2224	 0.218235969958925 
2225	 0.218335980699059 
2226	 0.218444506327681 
2227	 0.218521040253676 
2228	 0.218571463479634 
2229	 0.21861215690706 
2230	 0.218645179563803 
2231	 0.218652640588203 
2232	 0.218640197297289 
2233	 0.218603466483219 
2234	 0.218541972768577 
2235	 0.218467802339481 
2236	 0.218379829373059 
2237	 0.218259216052783 
2238	 0.218122200887451 
2239	 0.217950320150001 
2240	 0.217719435029658 
2241	 0.217505263856301 
2242	 0.217300457947059 
2243	 0.21704831267889 
2244	 0.216787835470157 
2245	 0.216486098697928 
2246	 0.216109384175881 
2247	 0.215748139497295 
2248	 0.215362952245009 
2249	 0.214988599298126 
2250	 0.214611011460435 
2251	 0.214255451592801 
2252	 0.213866202847341 
2253	 0.213466743250605 
2254	 0.213082676944222 
2255	 0.21267338470683 
2256	 0.21228981729833 
2257	 0.211935991806596 
2258	 0.211592919582319 
2259	 0.211246958998173 
2260	 0.210962983754843 
2261	 0.210728620740463 
2262	 0.210481462554616 
2263	 0.210254086120182 
2264	 0.210052334408403 
2265	 0.209847948928487 
2266	 0.209693242248916 
2267	 0.209604000468368 
2268	 0.209491524131079 
2269	 0.20939542552064 
2270	 0.209296704529886 
2271	 0.209194752953088 
2272	 0.209108854125643 
2273	 0.209032356675388 
2274	 0.208957621170011 
2275	 0.208890547989134 
2276	 0.208835248412297 
2277	 0.208782004527568 
2278	 0.208743135264049 
2279	 0.208719511618921 
2280	 0.20870010795335 
2281	 0.20867325147864 
2282	 0.208688517541504 
2283	 0.208735604320704 
2284	 0.208796013663537 
2285	 0.208847647634551 
2286	 0.208928757453016 
2287	 0.209010789390373 
2288	 0.209087113995899 
2289	 0.209240761771935 
2290	 0.209424391711047 
2291	 0.209592297643503 
2292	 0.209771088878924 
2293	 0.209956189265821 
2294	 0.210119793905746 
2295	 0.210300312620102 
2296	 0.210534967562178 
2297	 0.210764363768062 
2298	 0.211026808704264 
2299	 0.211232529686752 
2300	 0.21141641823247 
2301	 0.211614016957475 
2302	 0.211779315547536 
2303	 0.211969267508733 
2304	 0.21218972403058 
2305	 0.212402416912741 
2306	 0.212598678710331 
2307	 0.212823532592887 
2308	 0.213089125542417 
2309	 0.213303892570022 
2310	 0.21349674277503 
2311	 0.213699201993265 
2312	 0.213870699679356 
2313	 0.214086316678075 
2314	 0.214327956077447 
2315	 0.214577602457668 
2316	 0.214874010562684 
2317	 0.21510466008671 
2318	 0.215326719393027 
2319	 0.215525516104276 
2320	 0.215680346008527 
2321	 0.21581970510681 
2322	 0.215943682773949 
2323	 0.216050309434407 
2324	 0.216105753396714 
2325	 0.216182119850348 
2326	 0.216275367105378 
2327	 0.216346081948322 
2328	 0.216401368759278 
2329	 0.216467068290727 
2330	 0.21652982465841 
2331	 0.216573960531624 
2332	 0.216637676389304 
2333	 0.216647673088942 
2334	 0.216654516027467 
2335	 0.216670419978543 
2336	 0.216697200181633 
2337	 0.216732892137327 
2338	 0.216703313940865 
2339	 0.216683258201381 
2340	 0.216706101322901 
2341	 0.216725650179944 
2342	 0.216795313015635 
2343	 0.216871960824724 
2344	 0.216856293750911 
2345	 0.216820053631855 
2346	 0.216802619881978 
2347	 0.2167997991515 
2348	 0.216854670951701 
2349	 0.21696849486154 
2350	 0.217109963649767 
2351	 0.217251320276644 
2352	 0.217370206545443 
2353	 0.217482874234004 
2354	 0.21760759673482 
2355	 0.217724461842103 
2356	 0.217863029925084 
2357	 0.218010471491105 
2358	 0.21811274156034 
2359	 0.218191619236668 
2360	 0.218288303792212 
2361	 0.21837385270651 
2362	 0.218454008309357 
2363	 0.218537359696995 
2364	 0.218624410312771 
2365	 0.218731624722934 
2366	 0.21877580724882 
2367	 0.218807353425124 
2368	 0.218872458140689 
2369	 0.218909145848632 
2370	 0.218959045249723 
2371	 0.219030777680541 
2372	 0.219069284815821 
2373	 0.219041672567036 
2374	 0.219044748563115 
2375	 0.219111572071692 
2376	 0.219125221524334 
2377	 0.219156317427172 
2378	 0.219230475504191 
2379	 0.219223591103068 
2380	 0.219227316944232 
2381	 0.219344118443334 
2382	 0.21943252631166 
2383	 0.219538217113584 
2384	 0.219590195950403 
2385	 0.21962835463169 
2386	 0.219643702627558 
2387	 0.219628347117778 
2388	 0.219649413057681 
2389	 0.219643979446465 
2390	 0.219691896455264 
2391	 0.219754613323287 
2392	 0.219796047600936 
2393	 0.219924671476008 
2394	 0.219985029437915 
2395	 0.219971771486405 
2396	 0.219991750838842 
2397	 0.22002022485873 
2398	 0.220031252603576 
2399	 0.220011989221887 
2400	 0.220031325828569 
2401	 0.220066755675032 
2402	 0.220084933381085 
2403	 0.220111957427267 
2404	 0.220076534235602 
2405	 0.220018193441001 
2406	 0.219879732250103 
2407	 0.219769363565796 
2408	 0.219688843211501 
2409	 0.219527752136807 
2410	 0.219479735015169 
2411	 0.219476444101172 
2412	 0.219394783882398 
2413	 0.21937304244236 
2414	 0.21926330285365 
2415	 0.219095872043302 
2416	 0.219045347692624 
2417	 0.218901339769168 
2418	 0.218836999594137 
2419	 0.218858669617224 
2420	 0.218751213900927 
2421	 0.218710497134812 
2422	 0.21861824893179 
2423	 0.218449832670848 
2424	 0.218262998149656 
2425	 0.218132014896387 
2426	 0.218083253518637 
2427	 0.217899209433133 
2428	 0.217775805550322 
2429	 0.217605725495299 
2430	 0.217360836057524 
2431	 0.217269050007494 
2432	 0.217076585740635 
2433	 0.216887824913715 
2434	 0.21668777520398 
2435	 0.216354636714204 
2436	 0.216133210306114 
2437	 0.215863319040371 
2438	 0.215544421611942 
2439	 0.215294453909515 
2440	 0.214970469534981 
2441	 0.214621833556116 
2442	 0.214209447529249 
2443	 0.213851450210338 
2444	 0.213571291937887 
2445	 0.213171517480277 
2446	 0.212905826591827 
2447	 0.212587921468989 
2448	 0.212033056823419 
2449	 0.211668314143143 
2450	 0.211370837453575 
2451	 0.21096463257234 
2452	 0.210679872302617 
2453	 0.210437401570688 
2454	 0.210088829161221 
2455	 0.20983134087867 
2456	 0.209531152080015 
2457	 0.209176968595324 
2458	 0.208930602642888 
2459	 0.208552683210467 
2460	 0.208262069542412 
2461	 0.208111104395393 
2462	 0.207869693295637 
2463	 0.207669209857908 
2464	 0.207485475171432 
2465	 0.207098841885447 
2466	 0.20680094364525 
2467	 0.206707169355068 
2468	 0.206395434304137 
2469	 0.206219506957163 
2470	 0.206115427533188 
2471	 0.205782162354618 
2472	 0.205577870899929 
2473	 0.20530347200364 
2474	 0.204988127201363 
2475	 0.204755229140091 
2476	 0.204505835400004 
2477	 0.20446205021855 
2478	 0.204433949435894 
2479	 0.204307858550373 
2480	 0.204272169112119 
2481	 0.204238963321774 
2482	 0.204218403384683 
2483	 0.20395094979924 
2484	 0.203785620368409 
2485	 0.203614716964648 
2486	 0.203364483520133 
2487	 0.203298919091239 
2488	 0.203275931557927 
2489	 0.203374889662395 
2490	 0.20346730879053 
2491	 0.203461930204695 
2492	 0.203602362211869 
2493	 0.203400054938248 
2494	 0.203029732468627 
2495	 0.202979880671434 
2496	 0.202940384036766 
2497	 0.202808786405022 
2498	 0.202848397867529 
2499	 0.202930338242812 
2500	 0.202898250164044 
