Wavelength	spectrum00008.asd
350	 3.80451845079223E-02 
351	 0.035575255095458 
352	 3.29932444566815E-02 
353	 3.27338901536551E-02 
354	 3.53517406667226E-02 
355	 3.59552668225034E-02 
356	 0.035260997398853 
357	 3.46069408423097E-02 
358	 3.26781838926234E-02 
359	 3.17585587149731E-02 
360	 3.21360291461084E-02 
361	 3.29536909288638E-02 
362	 3.39484543532676E-02 
363	 0.033833657332715 
364	 3.27836217782222E-02 
365	 3.29008654868774E-02 
366	 3.26598103848014E-02 
367	 3.24436262095566E-02 
368	 3.26927697727896E-02 
369	 3.24876064807681E-02 
370	 3.31032667696631E-02 
371	 3.36757978917956E-02 
372	 3.25051771057808E-02 
373	 3.18911843057137E-02 
374	 0.032252769888441 
375	 3.31318114300935E-02 
376	 3.31958477965607E-02 
377	 3.35198414111572E-02 
378	 3.35585640834574E-02 
379	 3.28296955100553E-02 
380	 3.23066755286144E-02 
381	 3.30530445379499E-02 
382	 3.40588027979271E-02 
383	 3.34263162731516E-02 
384	 3.36459098495168E-02 
385	 3.40671886801042E-02 
386	 3.39279475323842E-02 
387	 0.032810933877297 
388	 3.27321669092574E-02 
389	 3.30610043652759E-02 
390	 3.28091276929384E-02 
391	 3.25703229024509E-02 
392	 3.28617337989464E-02 
393	 3.34488691701627E-02 
394	 3.36238874407034E-02 
395	 3.32486725690571E-02 
396	 3.31439359202024E-02 
397	 3.35796331875835E-02 
398	 3.37690449811882E-02 
399	 3.35473318409567E-02 
400	 3.32887102813233E-02 
401	 3.33490496134604E-02 
402	 3.31763012360407E-02 
403	 0.033448642337306 
404	 3.38124830730891E-02 
405	 0.033268743647299 
406	 3.33149736172024E-02 
407	 3.31753327391877E-02 
408	 0.0325971830266 
409	 3.30177894787456E-02 
410	 3.33150409109274E-02 
411	 3.33551227188739E-02 
412	 3.33507963363836E-02 
413	 0.03359384976497 
414	 0.033300320372249 
415	 3.28280963893979E-02 
416	 3.34832955116177E-02 
417	 3.36044545714914E-02 
418	 3.34514053566747E-02 
419	 3.34097972372171E-02 
420	 3.33022671545313E-02 
421	 3.32496532587764E-02 
422	 0.033307943713486 
423	 3.34682346833408E-02 
424	 3.35443253550027E-02 
425	 3.34665661909561E-02 
426	 0.03333517533611 
427	 3.34194013946901E-02 
428	 3.34195029188379E-02 
429	 3.34874642928881E-02 
430	 3.37009334120327E-02 
431	 3.35869821111024E-02 
432	 3.36158902780972E-02 
433	 3.37334337105895E-02 
434	 3.36436498883684E-02 
435	 3.38261717538206E-02 
436	 3.38422758875035E-02 
437	 3.35594884692477E-02 
438	 3.34524780938322E-02 
439	 3.37003862560709E-02 
440	 0.033974495807366 
441	 3.39470953443351E-02 
442	 3.40196719065704E-02 
443	 3.40877097085479E-02 
444	 3.40864278971988E-02 
445	 3.40098305644408E-02 
446	 3.40736408265555E-02 
447	 3.41041875955372E-02 
448	 3.40181605870347E-02 
449	 0.034060224938656 
450	 3.42680809197778E-02 
451	 3.44307893360915E-02 
452	 0.034317366568501 
453	 3.42455130899481E-02 
454	 3.42713435814575E-02 
455	 3.43540084105759E-02 
456	 0.034369881324661 
457	 3.43701140872453E-02 
458	 3.43627063115568E-02 
459	 3.43692562687539E-02 
460	 0.034478017270779 
461	 3.46141582660781E-02 
462	 3.46485635843137E-02 
463	 3.44835860909846E-02 
464	 3.45298956427896E-02 
465	 3.47032557998036E-02 
466	 3.48401053294134E-02 
467	 3.47456769982211E-02 
468	 3.47015082241551E-02 
469	 3.46867158623667E-02 
470	 3.46512214168571E-02 
471	 3.48427487276509E-02 
472	 0.034908666065399 
473	 3.48310266039568E-02 
474	 3.48688076078284E-02 
475	 3.50130901831278E-02 
476	 3.50670179762796E-02 
477	 3.49661380941573E-02 
478	 3.50133185078963E-02 
479	 3.49815960820142E-02 
480	 3.49535686990052E-02 
481	 3.50734129049382E-02 
482	 3.50860502311357E-02 
483	 3.51078029285436E-02 
484	 3.51846794895922E-02 
485	 3.52516784305236E-02 
486	 0.035314316708172 
487	 3.53261843833032E-02 
488	 3.52868084050634E-02 
489	 3.53644886820347E-02 
490	 3.54566571915427E-02 
491	 3.55072450982701E-02 
492	 3.55019728330376E-02 
493	 3.55259193617906E-02 
494	 3.55773995996046E-02 
495	 3.56481053177627E-02 
496	 3.57472523368338E-02 
497	 0.035730285537332 
498	 3.56831334712202E-02 
499	 0.035735399584574 
500	 3.58603105893293E-02 
501	 3.59036253068591E-02 
502	 3.58625067782379E-02 
503	 3.58687798756155E-02 
504	 3.58943694827438E-02 
505	 3.59207911389999E-02 
506	 3.59565521181509E-02 
507	 3.60911138066245E-02 
508	 3.61409901316724E-02 
509	 3.61490747472027E-02 
510	 3.62334068850563E-02 
511	 0.036245337140311 
512	 3.62715540444386E-02 
513	 3.63639594431163E-02 
514	 3.65074875113238E-02 
515	 3.64842420385777E-02 
516	 3.64322992637812E-02 
517	 3.65040668091011E-02 
518	 3.65458240536518E-02 
519	 3.66111317964491E-02 
520	 0.036691414478836 
521	 3.67389539122039E-02 
522	 3.68063631495185E-02 
523	 3.68566980556539E-02 
524	 3.68827286312424E-02 
525	 0.036963449162191 
526	 3.70295686051548E-02 
527	 3.70867516593321E-02 
528	 0.037159774574987 
529	 3.72250361188629E-02 
530	 3.72728864270295E-02 
531	 0.037324167837745 
532	 0.037427691774478 
533	 3.74732631462864E-02 
534	 3.75358069932188E-02 
535	 3.76624430082686E-02 
536	 3.76932810164724E-02 
537	 3.77704760953852E-02 
538	 3.78758933017524E-02 
539	 3.79176928502084E-02 
540	 3.80159028021599E-02 
541	 3.81347752563031E-02 
542	 3.82406923787721E-02 
543	 3.83322954761232E-02 
544	 3.84325850551898E-02 
545	 3.85159667756864E-02 
546	 0.0385666564908 
547	 3.86836586084949E-02 
548	 3.87946133400439E-02 
549	 3.88801232398096E-02 
550	 3.89740988426012E-02 
551	 3.90779891515213E-02 
552	 3.91919422555299E-02 
553	 3.93070464574474E-02 
554	 3.93899207820234E-02 
555	 3.94941329382261E-02 
556	 3.96234218815288E-02 
557	 3.97566111081208E-02 
558	 3.98828461243725E-02 
559	 4.00441993300557E-02 
560	 4.02241425202885E-02 
561	 4.03197102447774E-02 
562	 4.04104340487809E-02 
563	 4.05285774291705E-02 
564	 4.06770654097972E-02 
565	 4.08048594202945E-02 
566	 4.09012423682451E-02 
567	 4.09961233652483E-02 
568	 4.11425143966013E-02 
569	 4.12785484305567E-02 
570	 4.13770930279746E-02 
571	 0.041447217742071 
572	 4.15578029244949E-02 
573	 4.17102634501659E-02 
574	 4.18523172870376E-02 
575	 4.19340846096023E-02 
576	 4.20736192844066E-02 
577	 4.21863644896907E-02 
578	 4.22533241056932E-02 
579	 4.23444581138015E-02 
580	 4.24601896645266E-02 
581	 4.25911050759034E-02 
582	 4.27238077053676E-02 
583	 4.28483393117763E-02 
584	 4.29612222464717E-02 
585	 4.30585660369715E-02 
586	 0.043144370801526 
587	 4.32888111135186E-02 
588	 4.34271117615478E-02 
589	 4.35278357954955E-02 
590	 4.36419753924839E-02 
591	 4.37185125058252E-02 
592	 4.37984725518799E-02 
593	 4.39200363069192E-02 
594	 4.39787042120195E-02 
595	 4.40571543045017E-02 
596	 4.41544565131595E-02 
597	 4.41985614044822E-02 
598	 4.43074377190722E-02 
599	 4.44452361926259E-02 
600	 4.45595863309966E-02 
601	 4.46206481414115E-02 
602	 4.47156211922887E-02 
603	 0.044821237505202 
604	 4.48807446057191E-02 
605	 4.49732149380152E-02 
606	 4.50858447765624E-02 
607	 0.045192676349413 
608	 4.52619653479297E-02 
609	 4.53151815776436E-02 
610	 4.53924143699448E-02 
611	 4.55121116383326E-02 
612	 4.56138987892134E-02 
613	 4.56678753200398E-02 
614	 4.57085079625586E-02 
615	 4.58010617976286E-02 
616	 4.58490185485867E-02 
617	 4.59226124512765E-02 
618	 4.60432032633762E-02 
619	 4.61082537752861E-02 
620	 4.61568495132969E-02 
621	 4.62145027522167E-02 
622	 0.046291708208592 
623	 4.63352008789864E-02 
624	 4.64129575177683E-02 
625	 4.65126860443495E-02 
626	 4.65494493082585E-02 
627	 4.66147519687747E-02 
628	 4.66968258968869E-02 
629	 0.046772462944143 
630	 4.68415703010436E-02 
631	 4.68867057869697E-02 
632	 4.69509192379185E-02 
633	 4.70776583822073E-02 
634	 4.71133594021876E-02 
635	 4.71597021530251E-02 
636	 4.72518481130232E-02 
637	 4.73153591395695E-02 
638	 4.73645912097809E-02 
639	 4.74208425073431E-02 
640	 4.74908352712524E-02 
641	 0.047521078885395 
642	 4.75668637555214E-02 
643	 0.047642125122197 
644	 4.77309794010426E-02 
645	 4.78074373260668E-02 
646	 4.78808172886364E-02 
647	 4.79483051982325E-02 
648	 4.79767016435025E-02 
649	 4.80386203144529E-02 
650	 4.81220820066509E-02 
651	 4.81904350319409E-02 
652	 4.82257654275115E-02 
653	 4.82713931472101E-02 
654	 4.83312134406645E-02 
655	 0.048378475769502 
656	 4.84575250788788E-02 
657	 4.85300327875182E-02 
658	 4.85759428481588E-02 
659	 0.048639420577354 
660	 4.87254212861684E-02 
661	 4.88083645149382E-02 
662	 4.88595175037546E-02 
663	 4.89112737811315E-02 
664	 4.89508486482105E-02 
665	 4.89897832775513E-02 
666	 4.90640786180431E-02 
667	 4.91475843407153E-02 
668	 4.92276428083832E-02 
669	 0.049290947943101 
670	 4.93073186751474E-02 
671	 4.93683682299547E-02 
672	 0.049454929276774 
673	 4.95090001370085E-02 
674	 4.96026877460459E-02 
675	 4.96597274872943E-02 
676	 4.96817390419737E-02 
677	 4.97750934057931E-02 
678	 4.98110329625034E-02 
679	 4.98562083582561E-02 
680	 4.99650387420641E-02 
681	 5.00121668549096E-02 
682	 5.00735280915098E-02 
683	 5.01449281198587E-02 
684	 5.01855148148018E-02 
685	 5.02376875130488E-02 
686	 5.02968087858417E-02 
687	 5.03612586038118E-02 
688	 5.04412076678417E-02 
689	 5.05028695664438E-02 
690	 5.05505429136735E-02 
691	 5.06012187517251E-02 
692	 5.06754783222044E-02 
693	 5.07490863544392E-02 
694	 5.08135371979846E-02 
695	 5.08709890545019E-02 
696	 5.09161195771457E-02 
697	 5.09746296486136E-02 
698	 0.051049258437004 
699	 5.11019523985345E-02 
700	 5.11528641268381E-02 
701	 5.12061150282043E-02 
702	 5.12625221707267E-02 
703	 5.13239812318893E-02 
704	 5.14101796005066E-02 
705	 5.14937960375685E-02 
706	 5.15269191053087E-02 
707	 5.16065144363496E-02 
708	 5.16831462905649E-02 
709	 0.051728962590269 
710	 5.17842682277522E-02 
711	 5.18390941267764E-02 
712	 5.19078607568486E-02 
713	 5.19965773517948E-02 
714	 0.052054592825532 
715	 5.21112320045588E-02 
716	 5.21759038637652E-02 
717	 0.052243400193774 
718	 5.23350377225304E-02 
719	 5.24085464568258E-02 
720	 5.24510714552714E-02 
721	 5.25126351308033E-02 
722	 0.052570350747098 
723	 5.26378574127849E-02 
724	 0.052723724905579 
725	 5.27760744348986E-02 
726	 5.28343844987548E-02 
727	 5.29113872597992E-02 
728	 0.0529951799441 
729	 5.30454632708646E-02 
730	 0.053099783049015 
731	 5.31775309095093E-02 
732	 5.32514194354614E-02 
733	 5.33151820620196E-02 
734	 5.33791433934772E-02 
735	 0.053452926435724 
736	 5.35193309712053E-02 
737	 0.053595505938287 
738	 5.36726499547731E-02 
739	 0.05372991981547 
740	 5.38081432269793E-02 
741	 5.38889165018323E-02 
742	 5.39586481187059E-02 
743	 5.40221781578146E-02 
744	 5.40851596528357E-02 
745	 5.41566190557459E-02 
746	 0.054241493483896 
747	 5.43332692334904E-02 
748	 5.44050510916017E-02 
749	 5.44639502506385E-02 
750	 5.45351068908716E-02 
751	 5.46110977812387E-02 
752	 5.46804504421299E-02 
753	 5.47462262881205E-02 
754	 5.48300768489696E-02 
755	 5.49038900749808E-02 
756	 5.49750490529404E-02 
757	 5.50507186205366E-02 
758	 5.51121912647807E-02 
759	 5.51678230248224E-02 
760	 0.055227941891544 
761	 5.53006966473431E-02 
762	 5.53745985988305E-02 
763	 5.54449055423528E-02 
764	 5.55146376172041E-02 
765	 5.55939119569384E-02 
766	 5.56760660867688E-02 
767	 5.57469593121494E-02 
768	 5.58078689944427E-02 
769	 0.05590091330072 
770	 5.59730455040161E-02 
771	 5.60274474281798E-02 
772	 5.60882404085109E-02 
773	 5.61706058418018E-02 
774	 5.62413208318745E-02 
775	 5.63019609000751E-02 
776	 5.63811805640225E-02 
777	 5.64500877185399E-02 
778	 5.65251626621644E-02 
779	 5.66064670267114E-02 
780	 5.66554973573974E-02 
781	 5.67131224526813E-02 
782	 5.67796963167736E-02 
783	 5.68465248738255E-02 
784	 5.69151314959953E-02 
785	 5.70036438023513E-02 
786	 5.70865164354395E-02 
787	 5.71254572587272E-02 
788	 5.71842845938411E-02 
789	 5.72582392575429E-02 
790	 5.73346459210845E-02 
791	 5.74008519043215E-02 
792	 5.74784941943791E-02 
793	 5.75527964231366E-02 
794	 5.76123095742134E-02 
795	 5.76700958891798E-02 
796	 5.77394823266003E-02 
797	 0.057823054311042 
798	 5.79100697947058E-02 
799	 5.79551264985551E-02 
800	 5.80034820966902E-02 
801	 5.80677190759443E-02 
802	 5.81325983041449E-02 
803	 0.058212520538793 
804	 5.82765393101479E-02 
805	 5.83229088192132E-02 
806	 5.84006731532885E-02 
807	 5.84771372276889E-02 
808	 5.85403126033842E-02 
809	 5.85899162383863E-02 
810	 5.86409561880002E-02 
811	 5.87131662512367E-02 
812	 5.87902881070105E-02 
813	 5.88446361956602E-02 
814	 5.88876238214366E-02 
815	 5.89473703235836E-02 
816	 5.90201597876394E-02 
817	 5.90770979926863E-02 
818	 5.91619393647696E-02 
819	 5.92244997638506E-02 
820	 5.92506096595916E-02 
821	 5.93062905855809E-02 
822	 0.059358190165807 
823	 5.94204640238557E-02 
824	 5.95033214604917E-02 
825	 5.95717468704301E-02 
826	 5.96178223766501E-02 
827	 5.96584897730809E-02 
828	 5.97198700334694E-02 
829	 5.98034865233476E-02 
830	 5.98752667608979E-02 
831	 5.99232990570501E-02 
832	 5.99601215166304E-02 
833	 6.00125389777654E-02 
834	 6.00666363284242E-02 
835	 6.01217883635623E-02 
836	 6.02071751087992E-02 
837	 0.06028728927131 
838	 0.060352989561848 
839	 6.04025828189205E-02 
840	 6.04322933908805E-02 
841	 6.04642429627351E-02 
842	 6.05159928910109E-02 
843	 6.05916183460323E-02 
844	 6.06489617719809E-02 
845	 6.07008890924671E-02 
846	 6.07579190010837E-02 
847	 6.08239431995296E-02 
848	 6.08801728568674E-02 
849	 6.09203862106931E-02 
850	 6.09553003570358E-02 
851	 6.10122795128372E-02 
852	 6.10763400997341E-02 
853	 6.11309690164229E-02 
854	 6.11777491147225E-02 
855	 0.061258788358579 
856	 6.13088576456734E-02 
857	 6.13387706440199E-02 
858	 6.13802526105494E-02 
859	 6.14445612262408E-02 
860	 6.15030085620676E-02 
861	 6.15490124915047E-02 
862	 0.061594390862233 
863	 6.16801636586945E-02 
864	 6.17448217089395E-02 
865	 6.17786537167948E-02 
866	 6.18207381106494E-02 
867	 6.18515218542402E-02 
868	 6.19118252391497E-02 
869	 6.19938334988822E-02 
870	 6.20189277146113E-02 
871	 6.20937030488161E-02 
872	 6.21674208676047E-02 
873	 6.21976764195491E-02 
874	 6.22364715831676E-02 
875	 6.22826045529474E-02 
876	 6.23461227309015E-02 
877	 6.24297321131924E-02 
878	 6.25109453090748E-02 
879	 6.25494481057757E-02 
880	 6.25777458162724E-02 
881	 6.26477600332533E-02 
882	 6.27039092497562E-02 
883	 6.27470986748205E-02 
884	 6.28000867015073E-02 
885	 6.28894634443056E-02 
886	 6.29515478080141E-02 
887	 6.29876647757811E-02 
888	 0.063030943259149 
889	 6.31316413822292E-02 
890	 6.31791741777411E-02 
891	 6.32349439696573E-02 
892	 0.063321094550705 
893	 6.33412086044413E-02 
894	 6.34258167159407E-02 
895	 6.35223567642893E-02 
896	 6.35726342687702E-02 
897	 6.36258049451117E-02 
898	 6.37158961886456E-02 
899	 6.37941082144823E-02 
900	 6.38196692732889E-02 
901	 6.39007729091279E-02 
902	 6.39730705540898E-02 
903	 6.40431274287822E-02 
904	 0.064136932339553 
905	 6.41797450472487E-02 
906	 6.42119351025771E-02 
907	 0.064268710317677 
908	 6.43631285671037E-02 
909	 6.44191154208337E-02 
910	 6.44910486210029E-02 
911	 6.45726868232758E-02 
912	 6.45969202563204E-02 
913	 6.46743921548812E-02 
914	 6.47594803380579E-02 
915	 6.48299422587986E-02 
916	 6.49258913013301E-02 
917	 6.50012638776754E-02 
918	 6.50664973827169E-02 
919	 6.51446131589962E-02 
920	 6.52586479499608E-02 
921	 6.53264579056479E-02 
922	 0.065376450163137 
923	 6.54502113655555E-02 
924	 6.55456569636559E-02 
925	 6.55962032816777E-02 
926	 6.56511619420328E-02 
927	 6.57568437326818E-02 
928	 6.58081816696628E-02 
929	 6.59079088465003E-02 
930	 6.60063690363437E-02 
931	 6.60354876460323E-02 
932	 0.066142514601969 
933	 6.62223071044693E-02 
934	 0.066294122257162 
935	 6.64216615003448E-02 
936	 6.64928693849091E-02 
937	 6.66162634751045E-02 
938	 6.67502533063741E-02 
939	 6.67756907796696E-02 
940	 6.68373111485618E-02 
941	 6.69554398715976E-02 
942	 6.70806894995542E-02 
943	 6.71342203068941E-02 
944	 6.72320402862491E-02 
945	 6.73391696772921E-02 
946	 6.74312382148036E-02 
947	 6.75148324876553E-02 
948	 0.067590904116162 
949	 6.76838157077964E-02 
950	 6.77898669449087E-02 
951	 6.78703833670514E-02 
952	 6.79487749996387E-02 
953	 6.80456197501792E-02 
954	 6.81559032642063E-02 
955	 6.82409708100602E-02 
956	 6.83254426272921E-02 
957	 6.84459437252551E-02 
958	 6.85864341608289E-02 
959	 6.86446939771097E-02 
960	 6.87452611072936E-02 
961	 6.88577348051476E-02 
962	 0.06895960639394 
963	 6.91178538455258E-02 
964	 6.91818680556221E-02 
965	 6.92345011525833E-02 
966	 6.93535799922632E-02 
967	 6.94627098999987E-02 
968	 0.069505275896239 
969	 6.96028910983499E-02 
970	 6.98127894930486E-02 
971	 6.99043115557716E-02 
972	 0.069957460569988 
973	 7.00152308255777E-02 
974	 7.00975752697588E-02 
975	 7.01801018875218E-02 
976	 7.03014738092591E-02 
977	 7.04585130372687E-02 
978	 7.06147931929502E-02 
979	 0.07068721269518 
980	 7.07065872791037E-02 
981	 7.08224475896739E-02 
982	 7.10854242436118E-02 
983	 7.11146337268856E-02 
984	 7.12106238763509E-02 
985	 7.13502360848347E-02 
986	 7.14428678200826E-02 
987	 7.15747362871385E-02 
988	 7.17157280617962E-02 
989	 7.18312693473213E-02 
990	 7.19006719305655E-02 
991	 7.19497450336513E-02 
992	 7.20153555910577E-02 
993	 7.21535118016767E-02 
994	 7.23715348890164E-02 
995	 7.25244110518775E-02 
996	 7.25897855704895E-02 
997	 7.26244324593235E-02 
998	 7.27148974174517E-02 
999	 7.29217062997297E-02 
1000	 7.31987779596197E-02 
1001	 7.27276108282828E-02 
1002	 7.28116400805671E-02 
1003	 7.29026533345009E-02 
1004	 7.30044843867665E-02 
1005	 7.30798111022742E-02 
1006	 7.31937095528375E-02 
1007	 7.33589112875432E-02 
1008	 7.34703402593917E-02 
1009	 7.35486791171258E-02 
1010	 7.36578130577609E-02 
1011	 7.37660094775889E-02 
1012	 7.38868101016213E-02 
1013	 7.40347344880425E-02 
1014	 7.41632893689677E-02 
1015	 7.43030885682578E-02 
1016	 7.43970586112452E-02 
1017	 7.44869003615486E-02 
1018	 7.46121516851789E-02 
1019	 7.47334753731283E-02 
1020	 7.48559216921239E-02 
1021	 7.49621711764952E-02 
1022	 7.50503201124326E-02 
1023	 7.51696014765089E-02 
1024	 7.52846263402485E-02 
1025	 7.54070314607306E-02 
1026	 0.075570551217404 
1027	 7.56906923780947E-02 
1028	 7.57706505572765E-02 
1029	 7.59000805016367E-02 
1030	 7.60164079320032E-02 
1031	 7.61404345382206E-02 
1032	 7.62763814908192E-02 
1033	 0.076382738892295 
1034	 7.65133073525621E-02 
1035	 7.66229154315739E-02 
1036	 7.67271351015272E-02 
1037	 7.68440524921329E-02 
1038	 7.69482084122889E-02 
1039	 7.70182240873033E-02 
1040	 7.71270889517062E-02 
1041	 7.72548291636165E-02 
1042	 7.73723034987229E-02 
1043	 7.75036768516992E-02 
1044	 7.76150827664789E-02 
1045	 7.77285709367716E-02 
1046	 7.78619581539211E-02 
1047	 0.077977879170916 
1048	 7.81008318909869E-02 
1049	 7.82108768776868E-02 
1050	 0.078346811568659 
1051	 7.84992472034412E-02 
1052	 7.86147385270849E-02 
1053	 7.87359294407039E-02 
1054	 7.88429393267048E-02 
1055	 7.89601438461641E-02 
1056	 7.90768361050121E-02 
1057	 7.92126845836951E-02 
1058	 7.93638019258755E-02 
1059	 7.95244316398852E-02 
1060	 7.96579079209125E-02 
1061	 7.97802620445821E-02 
1062	 7.99206901597627E-02 
1063	 8.00527823450064E-02 
1064	 8.01870271019948E-02 
1065	 8.03339916033828E-02 
1066	 8.04614135517443E-02 
1067	 8.05904730528455E-02 
1068	 8.07402674198513E-02 
1069	 8.08525009000593E-02 
1070	 8.09765424780828E-02 
1071	 8.10995935811769E-02 
1072	 8.12345519024834E-02 
1073	 8.13485475321247E-02 
1074	 8.14924855853523E-02 
1075	 8.16361492588166E-02 
1076	 8.17342418868216E-02 
1077	 8.18521440244787E-02 
1078	 8.19897419479646E-02 
1079	 8.21343215300029E-02 
1080	 8.22967000499724E-02 
1081	 0.082426726385982 
1082	 8.25555664239935E-02 
1083	 8.26915526235863E-02 
1084	 8.28181536143405E-02 
1085	 8.29569342584497E-02 
1086	 8.30870013095412E-02 
1087	 0.083210742876711 
1088	 0.083335184074065 
1089	 8.34712763697834E-02 
1090	 0.083605970674578 
1091	 0.08374614616688 
1092	 0.08387145295041 
1093	 8.39841145478109E-02 
1094	 8.41070890191363E-02 
1095	 8.42390469857265E-02 
1096	 8.43786529821868E-02 
1097	 8.45116928995052E-02 
1098	 8.46450823949269E-02 
1099	 8.47805051326594E-02 
1100	 8.48972840893757E-02 
1101	 8.50240114727252E-02 
1102	 8.51534297502648E-02 
1103	 8.52778929433413E-02 
1104	 8.53963146054547E-02 
1105	 8.55303546785521E-02 
1106	 0.085660259444 
1107	 8.57711056922325E-02 
1108	 8.58949365372153E-02 
1109	 8.60302778103865E-02 
1110	 8.61478225588836E-02 
1111	 8.62765556787521E-02 
1112	 0.086401562063241 
1113	 8.65104451363791E-02 
1114	 8.66363808400326E-02 
1115	 8.67510618092687E-02 
1116	 8.68563026155058E-02 
1117	 8.69750068916981E-02 
1118	 0.087096954129405 
1119	 8.72249781755139E-02 
1120	 8.73484400498874E-02 
1121	 8.74831040738941E-02 
1122	 8.75956737647738E-02 
1123	 0.087702143472014 
1124	 8.77976120128051E-02 
1125	 8.78941214763868E-02 
1126	 8.80000146747694E-02 
1127	 8.81040077005249E-02 
1128	 8.82322479007371E-02 
1129	 8.83709218083947E-02 
1130	 8.85100008838416E-02 
1131	 0.088645148185371 
1132	 8.87426642818916E-02 
1133	 0.088839779838477 
1134	 8.89460042908542E-02 
1135	 8.90491641845177E-02 
1136	 0.089156802231367 
1137	 8.92649228604905E-02 
1138	 8.93667993158739E-02 
1139	 8.94789940179711E-02 
1140	 8.95973783057944E-02 
1141	 8.97140665398518E-02 
1142	 8.98435409611081E-02 
1143	 8.99542941224601E-02 
1144	 9.00532295195528E-02 
1145	 9.01665469066868E-02 
1146	 9.02835169073994E-02 
1147	 0.090395901610616 
1148	 9.05137260471312E-02 
1149	 9.06363607703295E-02 
1150	 9.07373972344412E-02 
1151	 9.08458692395393E-02 
1152	 9.09711456458082E-02 
1153	 9.11161271083494E-02 
1154	 9.12341377682451E-02 
1155	 9.13561928895861E-02 
1156	 9.14756429607378E-02 
1157	 9.15657318760258E-02 
1158	 9.16788407044576E-02 
1159	 9.18122901734717E-02 
1160	 9.19428620804229E-02 
1161	 0.092055296962826 
1162	 9.21735768275086E-02 
1163	 9.22850058705016E-02 
1164	 9.23881277893913E-02 
1165	 9.25021917180461E-02 
1166	 9.26189655680833E-02 
1167	 9.27403014057935E-02 
1168	 9.28495098066335E-02 
1169	 9.29643559825899E-02 
1170	 9.30830223240185E-02 
1171	 9.31988415617715E-02 
1172	 9.33142134923841E-02 
1173	 9.34305524875147E-02 
1174	 9.35437540414614E-02 
1175	 9.36545766686196E-02 
1176	 9.37584870662846E-02 
1177	 9.38747985851372E-02 
1178	 9.39945722854313E-02 
1179	 9.41225866249941E-02 
1180	 9.42474571799567E-02 
1181	 9.43760888300454E-02 
1182	 9.45026820114414E-02 
1183	 9.46183193032752E-02 
1184	 9.47291597600261E-02 
1185	 0.094838482701317 
1186	 9.49491566655372E-02 
1187	 9.50479645298656E-02 
1188	 9.51598161345383E-02 
1189	 9.52852380932721E-02 
1190	 9.54029978286681E-02 
1191	 9.55153377680864E-02 
1192	 9.56367812783207E-02 
1193	 9.57628151843418E-02 
1194	 9.58838154689427E-02 
1195	 9.60116335332276E-02 
1196	 9.61396934063401E-02 
1197	 9.62649264353524E-02 
1198	 9.63856966649895E-02 
1199	 9.65209522033232E-02 
1200	 9.66419047570531E-02 
1201	 0.096758031743827 
1202	 0.09687243069041 
1203	 9.70012824261144E-02 
1204	 9.71321146057831E-02 
1205	 9.72630032124134E-02 
1206	 9.74080949691745E-02 
1207	 9.75415288448716E-02 
1208	 9.76679962867471E-02 
1209	 9.77914025177407E-02 
1210	 9.79082540270179E-02 
1211	 9.80294124726777E-02 
1212	 0.098146442356528 
1213	 9.82720791679468E-02 
1214	 9.84046641727354E-02 
1215	 9.85379841615475E-02 
1216	 9.86724882355553E-02 
1217	 9.88068605468167E-02 
1218	 9.89466838590541E-02 
1219	 9.90846549162468E-02 
1220	 9.92024003620946E-02 
1221	 0.099345331143142 
1222	 9.94702130616617E-02 
1223	 9.95914366799316E-02 
1224	 9.97302277188556E-02 
1225	 9.98829383106833E-02 
1226	 0.100022204786317 
1227	 0.10017057458047 
1228	 0.100306063080953 
1229	 0.100420952683979 
1230	 0.100557998499789 
1231	 0.10070536084413 
1232	 0.10084515565791 
1233	 0.100991861709069 
1234	 0.101134691803234 
1235	 0.101271412548678 
1236	 0.101407203526596 
1237	 0.101548685860932 
1238	 0.10168146465183 
1239	 0.101799947527047 
1240	 0.101922894091562 
1241	 0.102063784623824 
1242	 0.102204621367783 
1243	 0.102344820020086 
1244	 0.102499071076086 
1245	 0.102637234478469 
1246	 0.1027653500111 
1247	 0.102894520686035 
1248	 0.103018453592004 
1249	 0.103150186227319 
1250	 0.103284028130959 
1251	 0.103411750264117 
1252	 0.103542273872649 
1253	 0.103670688370174 
1254	 0.103798048529458 
1255	 0.103916527857224 
1256	 0.104025842043106 
1257	 0.104145752742316 
1258	 0.104259486812967 
1259	 0.104378205177524 
1260	 0.104517098586175 
1261	 0.104642879524434 
1262	 0.104748788576867 
1263	 0.104873184626646 
1264	 0.104998763487995 
1265	 0.105124048172916 
1266	 0.105253908881355 
1267	 0.105395393954644 
1268	 0.105527534878566 
1269	 0.105657039062543 
1270	 0.105785464327949 
1271	 0.105907176841814 
1272	 0.10604146729573 
1273	 0.106184534214921 
1274	 0.106316629207333 
1275	 0.106446959711248 
1276	 0.106583454717879 
1277	 0.1067148950418 
1278	 0.106847893083541 
1279	 0.106985269634835 
1280	 0.10712852758991 
1281	 0.107262823025206 
1282	 0.107411807995651 
1283	 0.107589451367463 
1284	 0.107749364664015 
1285	 0.107904740044178 
1286	 0.108059421412071 
1287	 0.108208832294937 
1288	 0.108345104698016 
1289	 0.108491851603193 
1290	 0.108639162429181 
1291	 0.108793046797137 
1292	 0.108951804223814 
1293	 0.109107129034543 
1294	 0.109269511145645 
1295	 0.109422883677251 
1296	 0.109566645981313 
1297	 0.109717040108504 
1298	 0.109864305062877 
1299	 0.110018561939211 
1300	 0.110187138870531 
1301	 0.110339026370344 
1302	 0.110481023140371 
1303	 0.110630288241731 
1304	 0.110774362562211 
1305	 0.110918333401189 
1306	 0.111070208030303 
1307	 0.111218160602848 
1308	 0.111351441864557 
1309	 0.111499782703103 
1310	 0.111643357154494 
1311	 0.111784680283662 
1312	 0.111941062423337 
1313	 0.112107592599396 
1314	 0.112262736411245 
1315	 0.112431295782555 
1316	 0.112576027752462 
1317	 0.112701620496926 
1318	 0.112831841600539 
1319	 0.112952831127445 
1320	 0.113079843233003 
1321	 0.113207099898783 
1322	 0.113334001991577 
1323	 0.113460859377936 
1324	 0.113589600683838 
1325	 0.113716289615135 
1326	 0.113848111609777 
1327	 0.113989227143231 
1328	 0.11412206900781 
1329	 0.114256239883787 
1330	 0.114383742509669 
1331	 0.114501384556425 
1332	 0.114621300307268 
1333	 0.114736242771035 
1334	 0.114856114628826 
1335	 0.114976097160845 
1336	 0.115096803974503 
1337	 0.115218474688244 
1338	 0.11534289049213 
1339	 0.115462980291511 
1340	 0.11558487734349 
1341	 0.11569864798669 
1342	 0.11580563550541 
1343	 0.115917544757834 
1344	 0.116025776323861 
1345	 0.116137023472245 
1346	 0.116255735397126 
1347	 0.116364981512414 
1348	 0.116468396559075 
1349	 0.116574410117923 
1350	 0.116672537225076 
1351	 0.116781743511417 
1352	 0.116902081394795 
1353	 0.117014594016841 
1354	 0.117132341636497 
1355	 0.117242421974915 
1356	 0.117337403492824 
1357	 0.117444169677884 
1358	 0.117549662709438 
1359	 0.117664593626907 
1360	 0.117793705448163 
1361	 0.117919844236942 
1362	 0.118046288634857 
1363	 0.118170640982264 
1364	 0.118283967362704 
1365	 0.118384856824359 
1366	 0.11849613359451 
1367	 0.11860490614001 
1368	 0.118716944173705 
1369	 0.118832523428209 
1370	 0.118949791377604 
1371	 0.119070738446903 
1372	 0.119182014759334 
1373	 0.119294372008447 
1374	 0.119403729951459 
1375	 0.119501163649241 
1376	 0.119608422413599 
1377	 0.119725243901403 
1378	 0.119833152513377 
1379	 0.119940641517192 
1380	 0.120044930982925 
1381	 0.12014389692512 
1382	 0.120242383313863 
1383	 0.120333520409816 
1384	 0.120433844138348 
1385	 0.120537179682745 
1386	 0.120641021631982 
1387	 0.120751928737238 
1388	 0.120859973645384 
1389	 0.120964182915531 
1390	 0.121071047710828 
1391	 0.121172475121479 
1392	 0.121291427660013 
1393	 0.121408946501598 
1394	 0.121516811906993 
1395	 0.121615994804596 
1396	 0.121705709758659 
1397	 0.121803266730996 
1398	 0.1218940382956 
1399	 0.121990042653565 
1400	 0.122097354436557 
1401	 0.122192548671954 
1402	 0.122281996058809 
1403	 0.122368996058898 
1404	 0.122452055498661 
1405	 0.122532658574848 
1406	 0.122607860621819 
1407	 0.122684931675574 
1408	 0.122755360847269 
1409	 0.122838673181008 
1410	 0.122932861650544 
1411	 0.123016639859191 
1412	 0.123102307513379 
1413	 0.123187228055878 
1414	 0.123254893046212 
1415	 0.123343944552549 
1416	 0.12344696615674 
1417	 0.123551480903182 
1418	 0.123666968885653 
1419	 0.123782718426969 
1420	 0.123900438918369 
1421	 0.124020870292718 
1422	 0.124149586680913 
1423	 0.124273189749598 
1424	 0.124390761958264 
1425	 0.12451559625817 
1426	 0.124644259161369 
1427	 0.124778907081132 
1428	 0.124914838302142 
1429	 0.125045209406042 
1430	 0.125179005271319 
1431	 0.125304819683248 
1432	 0.125444886568294 
1433	 0.125598273685337 
1434	 0.125739927202312 
1435	 0.125878518537595 
1436	 0.126026050884899 
1437	 0.126172056204841 
1438	 0.126321688199416 
1439	 0.126486590312427 
1440	 0.126633393516228 
1441	 0.126769034255052 
1442	 0.126912795716738 
1443	 0.127048824725324 
1444	 0.127197033384177 
1445	 0.127358489931577 
1446	 0.127508480786027 
1447	 0.127655212338701 
1448	 0.127809215773418 
1449	 0.127964721937298 
1450	 0.12811679006265 
1451	 0.128273519599544 
1452	 0.128427834201594 
1453	 0.128573316285829 
1454	 0.128724073135314 
1455	 0.128880146014589 
1456	 0.129035954510047 
1457	 0.129195968414905 
1458	 0.129349872782075 
1459	 0.129499783432988 
1460	 0.129652306348898 
1461	 0.129802265805413 
1462	 0.129951451271423 
1463	 0.130102718281445 
1464	 0.130253986158256 
1465	 0.1304020231097 
1466	 0.130553389985703 
1467	 0.130698672727148 
1468	 0.130846245693761 
1469	 0.130993668926492 
1470	 0.131132501951666 
1471	 0.131276444659282 
1472	 0.131419692013931 
1473	 0.131572865137571 
1474	 0.131732905040091 
1475	 0.131882471959417 
1476	 0.132035678872925 
1477	 0.132187783562714 
1478	 0.13232800234314 
1479	 0.132479910019189 
1480	 0.132649168819099 
1481	 0.132793525131956 
1482	 0.132923828071148 
1483	 0.133065698741583 
1484	 0.133200983696442 
1485	 0.133341870446599 
1486	 0.133494517318311 
1487	 0.133637615383222 
1488	 0.133770433772762 
1489	 0.133911931003301 
1490	 0.134057407804015 
1491	 0.13420274717103 
1492	 0.134352631432715 
1493	 0.134499518399151 
1494	 0.134644088521232 
1495	 0.13478950301998 
1496	 0.134934198974589 
1497	 0.135079723002057 
1498	 0.135225024905771 
1499	 0.135373331564458 
1500	 0.135523179189963 
1501	 0.135673387401334 
1502	 0.135826076420821 
1503	 0.135977984146826 
1504	 0.136128994108328 
1505	 0.136281905468257 
1506	 0.136438050771125 
1507	 0.136591339602818 
1508	 0.136739257106006 
1509	 0.136895513932307 
1510	 0.137057172427563 
1511	 0.13721493884225 
1512	 0.137371712634956 
1513	 0.137536012092578 
1514	 0.137707970801218 
1515	 0.137870212617243 
1516	 0.138028543217433 
1517	 0.138195250354464 
1518	 0.138361588106021 
1519	 0.138522476722045 
1520	 0.138681791529081 
1521	 0.138854976365424 
1522	 0.13902254202717 
1523	 0.139182651990826 
1524	 0.139349767053064 
1525	 0.139527543460946 
1526	 0.139697774311914 
1527	 0.139862186081766 
1528	 0.140031191025593 
1529	 0.140206256610704 
1530	 0.140369456474212 
1531	 0.140524279610971 
1532	 0.14068973086153 
1533	 0.140854916479479 
1534	 0.141019449785095 
1535	 0.141187631042492 
1536	 0.141359638763372 
1537	 0.141530424531985 
1538	 0.14170222161003 
1539	 0.141878811479147 
1540	 0.14206024404236 
1541	 0.14224403007885 
1542	 0.142420726979321 
1543	 0.142606853827561 
1544	 0.142777595865275 
1545	 0.142923555849589 
1546	 0.14309786757079 
1547	 0.143286072741004 
1548	 0.143462222027896 
1549	 0.14365145245096 
1550	 0.143821023294537 
1551	 0.143964020232763 
1552	 0.144132239779616 
1553	 0.144312486784098 
1554	 0.144478346829365 
1555	 0.144649741569509 
1556	 0.144813091159999 
1557	 0.144951794355495 
1558	 0.145117407270528 
1559	 0.145297813489604 
1560	 0.145475219622084 
1561	 0.145670621772381 
1562	 0.145844770665482 
1563	 0.146008411305576 
1564	 0.146172271174 
1565	 0.146316831828202 
1566	 0.146483801530238 
1567	 0.146670835219087 
1568	 0.146837744866367 
1569	 0.147005633059735 
1570	 0.147169592325438 
1571	 0.147315040119117 
1572	 0.147471552539785 
1573	 0.147636064410472 
1574	 0.147798965726017 
1575	 0.147960227869422 
1576	 0.14812417260494 
1577	 0.148288576907399 
1578	 0.148459596023217 
1579	 0.148636368705517 
1580	 0.148810428828379 
1581	 0.148990777221194 
1582	 0.149166350074966 
1583	 0.14933198534124 
1584	 0.149508935144049 
1585	 0.149692131039812 
1586	 0.149874518589601 
1587	 0.150070771057992 
1588	 0.150249379704115 
1589	 0.150414948765586 
1590	 0.150585756167277 
1591	 0.150740945069117 
1592	 0.150914914928522 
1593	 0.151109233913587 
1594	 0.151290500688838 
1595	 0.151481182397745 
1596	 0.151655304118302 
1597	 0.151803451633194 
1598	 0.15197014852007 
1599	 0.152146789423246 
1600	 0.152310697983845 
1601	 0.152470898142377 
1602	 0.152639755837275 
1603	 0.152801748330493 
1604	 0.152966842104815 
1605	 0.153143843936451 
1606	 0.153320160828619 
1607	 0.153491760983728 
1608	 0.153665998894593 
1609	 0.153851430126422 
1610	 0.154028615428864 
1611	 0.154205822292096 
1612	 0.154370183518717 
1613	 0.154510877283575 
1614	 0.154676249409246 
1615	 0.154847470583448 
1616	 0.155017890230367 
1617	 0.155210731270708 
1618	 0.155390271920522 
1619	 0.155553261050081 
1620	 0.155723952139013 
1621	 0.155900484112071 
1622	 0.156072571874573 
1623	 0.156243747646709 
1624	 0.156413040437219 
1625	 0.15657994654158 
1626	 0.156744252167468 
1627	 0.156898705693812 
1628	 0.157066965404747 
1629	 0.157241494266429 
1630	 0.157414727408082 
1631	 0.157607218246012 
1632	 0.157781532146646 
1633	 0.157942645325994 
1634	 0.15810307284444 
1635	 0.158248451373496 
1636	 0.158402647223364 
1637	 0.158560228526212 
1638	 0.158720788168374 
1639	 0.158895723253412 
1640	 0.159052813969937 
1641	 0.159201223026672 
1642	 0.159345671176442 
1643	 0.159462976211775 
1644	 0.159607110936921 
1645	 0.159773518628957 
1646	 0.159926269646199 
1647	 0.160086528409998 
1648	 0.160244523749309 
1649	 0.160392352808019 
1650	 0.160538603015738 
1651	 0.160694642746225 
1652	 0.16083609194695 
1653	 0.160959736229399 
1654	 0.161089474320426 
1655	 0.161214501274041 
1656	 0.16134272203412 
1657	 0.16148642946401 
1658	 0.161606971652404 
1659	 0.161707231882683 
1660	 0.16181694854503 
1661	 0.161916351167558 
1662	 0.162019304534697 
1663	 0.16214318090335 
1664	 0.162245386656861 
1665	 0.162329305978033 
1666	 0.162418303220224 
1667	 0.16250383111187 
1668	 0.162578801704347 
1669	 0.16265207941826 
1670	 0.162712304676141 
1671	 0.162762864447835 
1672	 0.162804828560616 
1673	 0.162837836380411 
1674	 0.162863486793408 
1675	 0.162880163523446 
1676	 0.162876233241373 
1677	 0.162850025992505 
1678	 0.162840233489781 
1679	 0.162833521235681 
1680	 0.162805716401748 
1681	 0.162780213468221 
1682	 0.162735523285682 
1683	 0.162662761440426 
1684	 0.162588677539237 
1685	 0.16251560007159 
1686	 0.162428668960503 
1687	 0.162308444703737 
1688	 0.16221302623195 
1689	 0.162133929415636 
1690	 0.16203271464567 
1691	 0.161924159835051 
1692	 0.161831115520235 
1693	 0.161738955219745 
1694	 0.161627221611988 
1695	 0.161523110304953 
1696	 0.161405991939304 
1697	 0.161256671378832 
1698	 0.161125861100795 
1699	 0.161010277672295 
1700	 0.160876944622576 
1701	 0.160731495259585 
1702	 0.160597730006582 
1703	 0.160455375134341 
1704	 0.160342118315173 
1705	 0.160241589027776 
1706	 0.160155788968681 
1707	 0.160081799097253 
1708	 0.159989057730104 
1709	 0.15990464666798 
1710	 0.15983666739385 
1711	 0.159766603036113 
1712	 0.159709093371758 
1713	 0.159658499670818 
1714	 0.159592210131314 
1715	 0.159532436493607 
1716	 0.15948504935452 
1717	 0.159447357243164 
1718	 0.159409481408443 
1719	 0.159367535952252 
1720	 0.159337236890448 
1721	 0.159308969455745 
1722	 0.159293290751571 
1723	 0.15931451399704 
1724	 0.159362150118346 
1725	 0.159439348025489 
1726	 0.159564872381215 
1727	 0.159734465426331 
1728	 0.159938245408963 
1729	 0.160187598983477 
1730	 0.160477511910229 
1731	 0.160796045538769 
1732	 0.161160645817741 
1733	 0.161513526713471 
1734	 0.161873996488056 
1735	 0.162255468103132 
1736	 0.162597565566728 
1737	 0.16296725023941 
1738	 0.163335290247329 
1739	 0.163650062966681 
1740	 0.16394943561595 
1741	 0.164204540135212 
1742	 0.164403649401969 
1743	 0.164602719204208 
1744	 0.164771752058742 
1745	 0.164943869352108 
1746	 0.165111401913738 
1747	 0.165255375544602 
1748	 0.165378882554604 
1749	 0.165498680999726 
1750	 0.165594040687806 
1751	 0.165703449758891 
1752	 0.1658122531221 
1753	 0.1659474327951 
1754	 0.16609602920253 
1755	 0.166245996027326 
1756	 0.166394474319747 
1757	 0.166554455735854 
1758	 0.16676262558742 
1759	 0.167022542963458 
1760	 0.167333209730811 
1761	 0.167645459204034 
1762	 0.167940312377904 
1763	 0.168257147706456 
1764	 0.168583794331136 
1765	 0.168930781014716 
1766	 0.169326512434279 
1767	 0.169728555330869 
1768	 0.170128827356319 
1769	 0.170540259218822 
1770	 0.170945489559998 
1771	 0.171337988681337 
1772	 0.171718449023797 
1773	 0.172109527023558 
1774	 0.172500431207898 
1775	 0.172869142204046 
1776	 0.173221473268885 
1777	 0.17354706428601 
1778	 0.173825510597567 
1779	 0.174062948666408 
1780	 0.174313215216786 
1781	 0.174571842176114 
1782	 0.174819616951973 
1783	 0.175088044436525 
1784	 0.175336943991174 
1785	 0.17553013818463 
1786	 0.175738218752007 
1787	 0.17591970920751 
1788	 0.176109254516027 
1789	 0.176313229808613 
1790	 0.17649947012516 
1791	 0.176686006998901 
1792	 0.176882829807148 
1793	 0.177062223583632 
1794	 0.177243820158592 
1795	 0.177426094355365 
1796	 0.177571551865523 
1797	 0.17775233715584 
1798	 0.177951675057027 
1799	 0.178136668193332 
1800	 0.178302751894665 
1801	 0.176307214260784 
1802	 0.176530254380952 
1803	 0.17673041323668 
1804	 0.176916459859848 
1805	 0.177124569045747 
1806	 0.177324225736932 
1807	 0.177509961658102 
1808	 0.177708318091178 
1809	 0.177928604344971 
1810	 0.178125034415726 
1811	 0.178300645335389 
1812	 0.178498983448716 
1813	 0.178705947032601 
1814	 0.178909301617586 
1815	 0.179108016035298 
1816	 0.179304609802792 
1817	 0.179509341453211 
1818	 0.179707351159732 
1819	 0.179908211699833 
1820	 0.180123324883666 
1821	 0.180331623807385 
1822	 0.180530875212962 
1823	 0.180729383798592 
1824	 0.180936377911264 
1825	 0.181148526772576 
1826	 0.181361552806927 
1827	 0.181578450912236 
1828	 0.181790172205611 
1829	 0.182003049179662 
1830	 0.182214135178959 
1831	 0.182418991703128 
1832	 0.182630120093419 
1833	 0.182845278569759 
1834	 0.183069731758995 
1835	 0.183303985783649 
1836	 0.18352848156598 
1837	 0.183754233280482 
1838	 0.183979952734151 
1839	 0.184206052785188 
1840	 0.18443212709831 
1841	 0.184655627846052 
1842	 0.18487493907363 
1843	 0.185099659942134 
1844	 0.18532580813679 
1845	 0.185536886657256 
1846	 0.185759928023445 
1847	 0.185978638964534 
1848	 0.186189756453786 
1849	 0.186398459138168 
1850	 0.186608064473975 
1851	 0.186813874672527 
1852	 0.187014754680618 
1853	 0.187220811288105 
1854	 0.187400413676342 
1855	 0.187573572171081 
1856	 0.187742981217662 
1857	 0.187897502785072 
1858	 0.188063966767928 
1859	 0.188226902986752 
1860	 0.188398290600186 
1861	 0.188546319958881 
1862	 0.188686872779096 
1863	 0.188817688838703 
1864	 0.188946360863061 
1865	 0.189052085333656 
1866	 0.189158534354633 
1867	 0.189256259877653 
1868	 0.189312959571078 
1869	 0.189373746459321 
1870	 0.189421043521909 
1871	 0.189451549101081 
1872	 0.189472832335112 
1873	 0.189496429523809 
1874	 0.189482685821235 
1875	 0.189445130645518 
1876	 0.189414604918145 
1877	 0.189364398358847 
1878	 0.189293157011168 
1879	 0.189208340721066 
1880	 0.189080583240982 
1881	 0.188922900751238 
1882	 0.188728050180644 
1883	 0.188518185231769 
1884	 0.188269566928025 
1885	 0.187971832205832 
1886	 0.187653127658269 
1887	 0.187266302636957 
1888	 0.186819165245387 
1889	 0.186384727867608 
1890	 0.185884020085815 
1891	 0.185370826263602 
1892	 0.184855777785554 
1893	 0.184296988393567 
1894	 0.183688203377833 
1895	 0.183094293631161 
1896	 0.182477513019543 
1897	 0.18183345118947 
1898	 0.181228023185868 
1899	 0.180608689051236 
1900	 0.179996667900605 
1901	 0.179396311756823 
1902	 0.178771017157389 
1903	 0.178179187316331 
1904	 0.177622331118296 
1905	 0.177075548115618 
1906	 0.176579085743508 
1907	 0.176147299667083 
1908	 0.175728446823809 
1909	 0.175356794259862 
1910	 0.175009423214446 
1911	 0.174663068141899 
1912	 0.174377618053172 
1913	 0.174091001321592 
1914	 0.173813008624014 
1915	 0.173578726008528 
1916	 0.173388040940035 
1917	 0.173195838048622 
1918	 0.173035100539817 
1919	 0.172903918649483 
1920	 0.172787106596879 
1921	 0.172702488959537 
1922	 0.172633536508773 
1923	 0.172597045875264 
1924	 0.172583335018459 
1925	 0.172568130048143 
1926	 0.172563923461832 
1927	 0.172571248448841 
1928	 0.172592663268495 
1929	 0.172621554531399 
1930	 0.172663693811665 
1931	 0.172730226086188 
1932	 0.1727956959204 
1933	 0.172882121882371 
1934	 0.173005406443458 
1935	 0.173123293115587 
1936	 0.173255813399758 
1937	 0.173407671363629 
1938	 0.173571056896895 
1939	 0.173736392145559 
1940	 0.173915581246151 
1941	 0.174117914103247 
1942	 0.174303847347226 
1943	 0.174502233127552 
1944	 0.174706451394852 
1945	 0.174926473813235 
1946	 0.175175889691562 
1947	 0.175414689603484 
1948	 0.1756672256375 
1949	 0.17593434180064 
1950	 0.176189480150015 
1951	 0.176427110982499 
1952	 0.176687732906861 
1953	 0.176958219943067 
1954	 0.177229833253499 
1955	 0.177510703052727 
1956	 0.177781503416158 
1957	 0.178056252288919 
1958	 0.17832689141108 
1959	 0.17858220019822 
1960	 0.178877682617676 
1961	 0.179156523621288 
1962	 0.179433946245724 
1963	 0.1796972871863 
1964	 0.179951603909537 
1965	 0.180202368651691 
1966	 0.180434965650171 
1967	 0.180698826725706 
1968	 0.180942046666312 
1969	 0.1811846465014 
1970	 0.181440267020129 
1971	 0.181681880989347 
1972	 0.181937964825786 
1973	 0.182213879688546 
1974	 0.182485278561618 
1975	 0.18276698148729 
1976	 0.183032193549144 
1977	 0.183287847272059 
1978	 0.18355273464697 
1979	 0.183811091893602 
1980	 0.184069345634135 
1981	 0.184357731832226 
1982	 0.184638183886618 
1983	 0.184904013793766 
1984	 0.185187181795308 
1985	 0.185457590525601 
1986	 0.185722358741286 
1987	 0.185998522061565 
1988	 0.186277943596583 
1989	 0.186566421225949 
1990	 0.186870268232291 
1991	 0.187164634943899 
1992	 0.187470161989039 
1993	 0.187766230011382 
1994	 0.188024324883065 
1995	 0.188279984377198 
1996	 0.188537583370746 
1997	 0.188786934014267 
1998	 0.189048832538474 
1999	 0.189329455616321 
2000	 0.189590264248629 
2001	 0.18984991600705 
2002	 0.190097331429772 
2003	 0.190333231976147 
2004	 0.190570148857124 
2005	 0.190800228154518 
2006	 0.191025640863886 
2007	 0.191249332742814 
2008	 0.191463592721109 
2009	 0.191674630310361 
2010	 0.191887891097237 
2011	 0.19210122611084 
2012	 0.192318335744775 
2013	 0.192520080192657 
2014	 0.192717264859585 
2015	 0.19290047560505 
2016	 0.193075776117001 
2017	 0.193234404641452 
2018	 0.193390626074183 
2019	 0.193518139109592 
2020	 0.193626909297222 
2021	 0.19370621535724 
2022	 0.193767790777195 
2023	 0.193830866521918 
2024	 0.193899144959188 
2025	 0.193953375575431 
2026	 0.193976765411454 
2027	 0.19397928373822 
2028	 0.193972951782724 
2029	 0.193929921650211 
2030	 0.193894140163928 
2031	 0.193862881939256 
2032	 0.193820533498956 
2033	 0.193766919268979 
2034	 0.193708688852352 
2035	 0.193654638608708 
2036	 0.193565668996731 
2037	 0.193481677052524 
2038	 0.193398270282803 
2039	 0.193316546019874 
2040	 0.193236228945487 
2041	 0.193155514208588 
2042	 0.193065946276912 
2043	 0.192997787344325 
2044	 0.192930113532108 
2045	 0.192883641445635 
2046	 0.192860349599882 
2047	 0.192837104498583 
2048	 0.192807672157202 
2049	 0.192815264502856 
2050	 0.192844124515056 
2051	 0.192886540442431 
2052	 0.192944430047429 
2053	 0.193032761224279 
2054	 0.193141269324243 
2055	 0.193255516312232 
2056	 0.193413517932512 
2057	 0.193607334519265 
2058	 0.193827543958102 
2059	 0.194076464427436 
2060	 0.194349388673813 
2061	 0.194672491152101 
2062	 0.194987548999211 
2063	 0.195314436411856 
2064	 0.195657846287092 
2065	 0.196009510788367 
2066	 0.196369869346628 
2067	 0.196780087838706 
2068	 0.197186869573888 
2069	 0.197579212267586 
2070	 0.197984595268993 
2071	 0.198372763145774 
2072	 0.19874318618948 
2073	 0.199107799687144 
2074	 0.199470488939464 
2075	 0.199820984745944 
2076	 0.200155860447244 
2077	 0.20048690279889 
2078	 0.200821831819462 
2079	 0.201135193731664 
2080	 0.201428835501975 
2081	 0.201716463320794 
2082	 0.201989306733061 
2083	 0.202258562679325 
2084	 0.202521863266159 
2085	 0.202758850973917 
2086	 0.202987198591643 
2087	 0.203196126456774 
2088	 0.203404041328371 
2089	 0.203600693754628 
2090	 0.203795727387018 
2091	 0.203986066425501 
2092	 0.204168379110311 
2093	 0.204347554399875 
2094	 0.204511671751374 
2095	 0.204665568001949 
2096	 0.204812074675046 
2097	 0.204946274606397 
2098	 0.205072846909309 
2099	 0.205186930875236 
2100	 0.205305797855226 
2101	 0.20540831290786 
2102	 0.205502847465533 
2103	 0.205579020999964 
2104	 0.205635473164636 
2105	 0.205697763935924 
2106	 0.205752676347337 
2107	 0.205797960215572 
2108	 0.205849448799952 
2109	 0.205877462421236 
2110	 0.205878388271842 
2111	 0.205883022964758 
2112	 0.205878273524563 
2113	 0.205869782418314 
2114	 0.205851996017423 
2115	 0.20583783215586 
2116	 0.205819393566611 
2117	 0.205808182352755 
2118	 0.205782502973634 
2119	 0.205755637861973 
2120	 0.2057199094846 
2121	 0.205671240423281 
2122	 0.205623769679375 
2123	 0.205571152988527 
2124	 0.205522219068788 
2125	 0.205473089142983 
2126	 0.20541627061061 
2127	 0.20536488131022 
2128	 0.20530069260885 
2129	 0.205223835309949 
2130	 0.205146975712511 
2131	 0.205077529495181 
2132	 0.204978757045709 
2133	 0.204867914354123 
2134	 0.204738141725398 
2135	 0.204579729467535 
2136	 0.204442477637277 
2137	 0.204294451968164 
2138	 0.204143844445162 
2139	 0.203991805621476 
2140	 0.203836884445609 
2141	 0.203678943245261 
2142	 0.203508552650664 
2143	 0.203364330544758 
2144	 0.203239567854057 
2145	 0.203093146712927 
2146	 0.202950403852476 
2147	 0.20280898578614 
2148	 0.202656106386898 
2149	 0.202497331427168 
2150	 0.202343031212722 
2151	 0.202191852825647 
2152	 0.202034431205558 
2153	 0.201869932771972 
2154	 0.2017085152819 
2155	 0.201543032253764 
2156	 0.2013703392276 
2157	 0.201178216827203 
2158	 0.200997186356633 
2159	 0.20082911402072 
2160	 0.200636237557559 
2161	 0.200423525915934 
2162	 0.200226142499577 
2163	 0.200011030315222 
2164	 0.199825074277301 
2165	 0.199655891296234 
2166	 0.199498016637703 
2167	 0.199354905662755 
2168	 0.199220535010192 
2169	 0.199082600106615 
2170	 0.19898230711119 
2171	 0.198919048084065 
2172	 0.198851729999325 
2173	 0.19880450370266 
2174	 0.198766241076292 
2175	 0.198742564001738 
2176	 0.19871280734047 
2177	 0.198701514732853 
2178	 0.19871693099679 
2179	 0.198727893729328 
2180	 0.198734100956005 
2181	 0.198758113083508 
2182	 0.198806443034043 
2183	 0.198838324738314 
2184	 0.198872279292902 
2185	 0.198904442194892 
2186	 0.198924490660062 
2187	 0.198959898745837 
2188	 0.199012766684896 
2189	 0.199047634607504 
2190	 0.199070618089252 
2191	 0.199110594424821 
2192	 0.199146868231466 
2193	 0.199190210767064 
2194	 0.199266845968571 
2195	 0.199319381973597 
2196	 0.199362000959225 
2197	 0.199395060024921 
2198	 0.199415646772713 
2199	 0.199415633459894 
2200	 0.199432309170324 
2201	 0.199443990449811 
2202	 0.199462801243684 
2203	 0.199499134747538 
2204	 0.199506216735541 
2205	 0.199499024989183 
2206	 0.199497935267292 
2207	 0.199484260941599 
2208	 0.199478259100309 
2209	 0.199482900907339 
2210	 0.199472246580146 
2211	 0.199441435162022 
2212	 0.199434196956244 
2213	 0.199426914506459 
2214	 0.199434599537661 
2215	 0.199482504798984 
2216	 0.199492132353234 
2217	 0.199500071565435 
2218	 0.199487456542826 
2219	 0.199446028503214 
2220	 0.199400335554963 
2221	 0.199343600448427 
2222	 0.199272899953135 
2223	 0.199231790875361 
2224	 0.199145607151288 
2225	 0.199009404828734 
2226	 0.198856121722301 
2227	 0.198639861596655 
2228	 0.198347709274464 
2229	 0.198045270353715 
2230	 0.197709453613434 
2231	 0.197349314363324 
2232	 0.196958807987566 
2233	 0.196525455199292 
2234	 0.196075700970643 
2235	 0.195557466523011 
2236	 0.194977866797302 
2237	 0.19436699819035 
2238	 0.193687464417933 
2239	 0.193010570233369 
2240	 0.192307109906732 
2241	 0.191575159983883 
2242	 0.190835248712187 
2243	 0.190049716316656 
2244	 0.189217071786856 
2245	 0.188372602394545 
2246	 0.187464961258481 
2247	 0.186586978558528 
2248	 0.185723133295896 
2249	 0.184826408688564 
2250	 0.183903364953707 
2251	 0.18303405057832 
2252	 0.182077618688313 
2253	 0.181121751108842 
2254	 0.180173905943096 
2255	 0.179195040248705 
2256	 0.178308742639777 
2257	 0.177419644991827 
2258	 0.176514726384905 
2259	 0.175638149586037 
2260	 0.174737798616842 
2261	 0.173791440424426 
2262	 0.172899450363872 
2263	 0.172016180706572 
2264	 0.171174912602251 
2265	 0.170368425592719 
2266	 0.169555918339173 
2267	 0.168788823770857 
2268	 0.167993585704124 
2269	 0.167178503575264 
2270	 0.166394040147633 
2271	 0.16558863412184 
2272	 0.164846255521909 
2273	 0.164147709725239 
2274	 0.163452949275054 
2275	 0.16284531987654 
2276	 0.16215944685534 
2277	 0.161446941079412 
2278	 0.160729273718177 
2279	 0.159962667714438 
2280	 0.159197563212416 
2281	 0.158435548996788 
2282	 0.157656217995405 
2283	 0.156863684246016 
2284	 0.156069009223756 
2285	 0.155189394315119 
2286	 0.154323883566326 
2287	 0.153417003012404 
2288	 0.152459408413377 
2289	 0.15157615646409 
2290	 0.150658097070317 
2291	 0.149691380081051 
2292	 0.148704569091934 
2293	 0.147649624121451 
2294	 0.146609635391925 
2295	 0.14559569605892 
2296	 0.144628395702159 
2297	 0.143753885938271 
2298	 0.142963426233669 
2299	 0.142203508746115 
2300	 0.141490799318768 
2301	 0.140886948143818 
2302	 0.140304592920197 
2303	 0.139929943185359 
2304	 0.139684643545848 
2305	 0.13961153275971 
2306	 0.139690594746655 
2307	 0.139967423238542 
2308	 0.140416114747846 
2309	 0.141071682909304 
2310	 0.141976928614613 
2311	 0.142970989814458 
2312	 0.144257888475909 
2313	 0.145453248099442 
2314	 0.146757702131519 
2315	 0.148007348978006 
2316	 0.149264850578357 
2317	 0.150428835931597 
2318	 0.151637019366243 
2319	 0.152636376217408 
2320	 0.153531247996773 
2321	 0.154263326467137 
2322	 0.154786334815893 
2323	 0.15525445816107 
2324	 0.155582085186304 
2325	 0.155840419194658 
2326	 0.156032883299329 
2327	 0.156084683351985 
2328	 0.15598855135134 
2329	 0.15583509767834 
2330	 0.155549056567785 
2331	 0.155223326836596 
2332	 0.154863350667454 
2333	 0.154346590009413 
2334	 0.153734370106614 
2335	 0.153069818422367 
2336	 0.152249243025867 
2337	 0.151390944857111 
2338	 0.150577692113818 
2339	 0.149648917075008 
2340	 0.14874463804817 
2341	 0.14791704223873 
2342	 0.147033223033192 
2343	 0.146224588050718 
2344	 0.145610440941044 
2345	 0.145181600501472 
2346	 0.14496272505216 
2347	 0.145024880708148 
2348	 0.145272033868561 
2349	 0.145694343889507 
2350	 0.146311306976751 
2351	 0.147104968278627 
2352	 0.148035423089392 
2353	 0.149086613474531 
2354	 0.150113477991424 
2355	 0.151092272017475 
2356	 0.152022637157296 
2357	 0.152760521944533 
2358	 0.153405410182145 
2359	 0.153946662340437 
2360	 0.154344748951935 
2361	 0.154708590588948 
2362	 0.155019849801434 
2363	 0.155217362766408 
2364	 0.155356330014744 
2365	 0.155427907326746 
2366	 0.155487301165109 
2367	 0.155574822891579 
2368	 0.155667596029214 
2369	 0.155710671675849 
2370	 0.155694836723324 
2371	 0.155697538620294 
2372	 0.155692183885777 
2373	 0.155735761628818 
2374	 0.155817653348862 
2375	 0.155875773268634 
2376	 0.155945800004947 
2377	 0.156014455979874 
2378	 0.156066584617928 
2379	 0.156106400702947 
2380	 0.156139810163398 
2381	 0.156184008942679 
2382	 0.156242707645726 
2383	 0.156325861628161 
2384	 0.156388106383535 
2385	 0.156449251169032 
2386	 0.156515679667243 
2387	 0.156589225465508 
2388	 0.156646569066718 
2389	 0.156684084856943 
2390	 0.156746537852545 
2391	 0.156821888847395 
2392	 0.156871751999161 
2393	 0.156932965156971 
2394	 0.156980623473122 
2395	 0.156981051487423 
2396	 0.157006365838587 
2397	 0.157034743534548 
2398	 0.15713473081975 
2399	 0.157264321180633 
2400	 0.157359476979231 
2401	 0.157540204677728 
2402	 0.15756802087848 
2403	 0.15762164726328 
2404	 0.157752924836885 
2405	 0.157790232532267 
2406	 0.157919876032413 
2407	 0.158102732695063 
2408	 0.158211373723539 
2409	 0.158326446385809 
2410	 0.158348764031878 
2411	 0.158316564183469 
2412	 0.158417659785595 
2413	 0.158440363636049 
2414	 0.158371863541582 
2415	 0.158368616101702 
2416	 0.15829569387091 
2417	 0.158299757709449 
2418	 0.158384481328011 
2419	 0.158376271302493 
2420	 0.158334611102912 
2421	 0.158299140565021 
2422	 0.158270280836498 
2423	 0.158229759630553 
2424	 0.158227911582276 
2425	 0.158221062144167 
2426	 0.15820071561196 
2427	 0.158253338546369 
2428	 0.15826783944075 
2429	 0.158164718108288 
2430	 0.158006696274835 
2431	 0.157862303123358 
2432	 0.157754011251792 
2433	 0.157703975882042 
2434	 0.15775449576368 
2435	 0.157745847598762 
2436	 0.157577088109921 
2437	 0.157501941386304 
2438	 0.157367248963 
2439	 0.157108388280452 
2440	 0.156992822699856 
2441	 0.156752170230191 
2442	 0.156542102442642 
2443	 0.156443292274443 
2444	 0.156282397434026 
2445	 0.156229687933457 
2446	 0.156026553492411 
2447	 0.15572890773991 
2448	 0.155480237516543 
2449	 0.155116976274382 
2450	 0.154854451590525 
2451	 0.154694996439415 
2452	 0.154459645278802 
2453	 0.154234880120669 
2454	 0.153976128134883 
2455	 0.153677910673862 
2456	 0.153464464242361 
2457	 0.1532500090518 
2458	 0.15300027819776 
2459	 0.152726548996245 
2460	 0.152489168992586 
2461	 0.152316076998805 
2462	 0.152104075548901 
2463	 0.151964581049452 
2464	 0.151818355950776 
2465	 0.151610967287593 
2466	 0.15153249261092 
2467	 0.151591644382281 
2468	 0.151684265067158 
2469	 0.151737026024506 
2470	 0.151837559170141 
2471	 0.151841398835357 
2472	 0.151687285809864 
2473	 0.151602966864027 
2474	 0.151517930426979 
2475	 0.151344639617254 
2476	 0.15127020593952 
2477	 0.151465158355976 
2478	 0.151581457718486 
2479	 0.151659280104808 
2480	 0.151887277710219 
2481	 0.151938078214605 
2482	 0.151973078200159 
2483	 0.151913434160072 
2484	 0.15192877221489 
2485	 0.151957823408557 
2486	 0.152109182750374 
2487	 0.152383621726187 
2488	 0.152646966367422 
2489	 0.152914528133803 
2490	 0.153039263810878 
2491	 0.153073593400933 
2492	 0.152972154071187 
2493	 0.152734967697182 
2494	 0.15282762671712 
2495	 0.153077858573181 
2496	 0.153221794274822 
2497	 0.153518194618741 
2498	 0.153778364152794 
2499	 0.153948587887247 
2500	 0.154233381184686 
