Wavelength	spectrum00007.asd
350	 3.56527549353229E-02 
351	 3.31241861589679E-02 
352	 3.20235551584833E-02 
353	 3.31051168057287E-02 
354	 3.41207204381361E-02 
355	 3.53498109699651E-02 
356	 3.57086800249391E-02 
357	 3.46069600115214E-02 
358	 3.34400560171557E-02 
359	 0.031945872402325 
360	 3.14287878083836E-02 
361	 0.03323115814003 
362	 3.28913889761969E-02 
363	 3.12309864068228E-02 
364	 3.00099076327874E-02 
365	 3.14233653970084E-02 
366	 3.22292975743346E-02 
367	 3.27153450516746E-02 
368	 3.33970137807647E-02 
369	 3.24524310538792E-02 
370	 3.17231534187968E-02 
371	 3.16241756166642E-02 
372	 3.16979119304868E-02 
373	 0.031923443178703 
374	 3.23725981783329E-02 
375	 3.27579561082915E-02 
376	 3.22440725160277E-02 
377	 3.29820408740579E-02 
378	 3.35742093143673E-02 
379	 3.27113638830575E-02 
380	 3.27474046565212E-02 
381	 3.25864996323819E-02 
382	 3.20249930820744E-02 
383	 3.15217682102971E-02 
384	 3.21047928839733E-02 
385	 3.24293194623826E-02 
386	 3.20512432560878E-02 
387	 3.22776922737964E-02 
388	 3.24870921406908E-02 
389	 3.25074204066566E-02 
390	 3.23680036121566E-02 
391	 0.032370068335784 
392	 3.25388076713126E-02 
393	 3.26714446888135E-02 
394	 3.25101880068226E-02 
395	 3.28725021130147E-02 
396	 3.30749465892822E-02 
397	 3.28608672840536E-02 
398	 3.29908755055928E-02 
399	 3.30347697642225E-02 
400	 3.27341193182757E-02 
401	 3.21207797023704E-02 
402	 3.21004121425918E-02 
403	 3.25777639296031E-02 
404	 3.29483842857618E-02 
405	 0.03243536726501 
406	 3.28345238371424E-02 
407	 3.29508859794715E-02 
408	 3.22907087633877E-02 
409	 3.25939485391076E-02 
410	 3.24484971812356E-02 
411	 3.22376005532849E-02 
412	 3.26422004174287E-02 
413	 0.032865224900412 
414	 3.26084026770917E-02 
415	 3.22811311476061E-02 
416	 3.27955610833438E-02 
417	 3.25807736729136E-02 
418	 3.22819037913493E-02 
419	 3.24380858741407E-02 
420	 3.24118616820827E-02 
421	 3.23441830462131E-02 
422	 3.24287734795888E-02 
423	 0.032768313460966 
424	 3.27198850583776E-02 
425	 3.25770309241365E-02 
426	 3.25249048317758E-02 
427	 3.25326111388134E-02 
428	 3.26718910756887E-02 
429	 3.27743931844498E-02 
430	 3.26908569302153E-02 
431	 3.24277122330463E-02 
432	 3.25312769237399E-02 
433	 3.28070135082932E-02 
434	 3.27147314711038E-02 
435	 3.27726430020435E-02 
436	 3.28263227674576E-02 
437	 3.27864234014148E-02 
438	 3.27796018655256E-02 
439	 3.27763153332947E-02 
440	 3.27665477683429E-02 
441	 3.27616238397405E-02 
442	 3.28458248881808E-02 
443	 3.29681655650458E-02 
444	 0.033039861980046 
445	 3.29654286262209E-02 
446	 3.29420366967664E-02 
447	 3.29356555842596E-02 
448	 3.29099403671118E-02 
449	 3.28942375984055E-02 
450	 3.30882593456649E-02 
451	 3.31995233709965E-02 
452	 0.032898975386012 
453	 3.28777345937303E-02 
454	 3.29879639485697E-02 
455	 3.30802041111227E-02 
456	 3.30779259752741E-02 
457	 3.31778339058911E-02 
458	 3.32440653898486E-02 
459	 3.31797582547296E-02 
460	 3.32395091917239E-02 
461	 0.033209186386689 
462	 3.31380212233457E-02 
463	 3.31970167628861E-02 
464	 3.32286557752071E-02 
465	 3.32585572014822E-02 
466	 3.33019655756975E-02 
467	 3.33254134028537E-02 
468	 3.33953192509054E-02 
469	 3.33948482476178E-02 
470	 3.32586226661658E-02 
471	 3.33646458865467E-02 
472	 3.33861878494911E-02 
473	 3.33382278665873E-02 
474	 3.34950295557568E-02 
475	 3.34724368018806E-02 
476	 3.34384458552713E-02 
477	 3.35224412538906E-02 
478	 3.35819686301859E-02 
479	 3.35238383114739E-02 
480	 3.34726094919877E-02 
481	 3.35735238506496E-02 
482	 3.34642307614184E-02 
483	 3.34715874435389E-02 
484	 3.36496317531793E-02 
485	 0.033690716648132 
486	 3.37293596820064E-02 
487	 3.37279520538341E-02 
488	 3.36736415368072E-02 
489	 3.37389997043255E-02 
490	 3.38003673591334E-02 
491	 3.38271424485032E-02 
492	 3.38480149384725E-02 
493	 3.38804408936809E-02 
494	 3.39155551141775E-02 
495	 3.39541656643092E-02 
496	 3.40241880636024E-02 
497	 3.40349036637975E-02 
498	 0.033994844761063 
499	 3.39622671210914E-02 
500	 3.40582962476187E-02 
501	 3.41315668161127E-02 
502	 3.41201833503583E-02 
503	 3.40610155998264E-02 
504	 0.034123525054954 
505	 3.42022905345179E-02 
506	 3.42084735778269E-02 
507	 3.42180804286048E-02 
508	 3.42496391570701E-02 
509	 3.42864276058059E-02 
510	 3.42996167119603E-02 
511	 3.43117935045213E-02 
512	 3.43403253104482E-02 
513	 3.43922745773899E-02 
514	 0.034464492628041 
515	 3.44487954310901E-02 
516	 0.034425139130975 
517	 3.44767716915568E-02 
518	 3.45124019256893E-02 
519	 0.034562490494413 
520	 3.46278325919683E-02 
521	 3.46860978478646E-02 
522	 3.47095796319601E-02 
523	 3.47276567978954E-02 
524	 3.47636475736614E-02 
525	 3.48169318371728E-02 
526	 3.48351494845703E-02 
527	 3.48439535642908E-02 
528	 3.48935619705107E-02 
529	 3.50022509342189E-02 
530	 3.50441198678882E-02 
531	 3.50328065393899E-02 
532	 0.035132577012528 
533	 3.52048544949882E-02 
534	 3.52355131013937E-02 
535	 3.52544956774674E-02 
536	 0.03534190713665 
537	 3.53951977175382E-02 
538	 3.54348301018279E-02 
539	 3.55352894118684E-02 
540	 3.55786372491265E-02 
541	 0.035632219099241 
542	 3.57165242189138E-02 
543	 3.57403531103682E-02 
544	 0.035783846379516 
545	 3.58565560976991E-02 
546	 3.59424787870798E-02 
547	 0.036017142033759 
548	 3.60951883948456E-02 
549	 0.036177976898211 
550	 3.62529622652742E-02 
551	 3.62986202769613E-02 
552	 3.63610893855648E-02 
553	 3.64675993916562E-02 
554	 3.65688074981388E-02 
555	 3.66596154578711E-02 
556	 3.67447947080415E-02 
557	 3.68372379939803E-02 
558	 3.69546682193939E-02 
559	 3.70853596199607E-02 
560	 3.72135668859972E-02 
561	 3.73231199515293E-02 
562	 3.74149230754047E-02 
563	 3.75156295149839E-02 
564	 3.76387564976611E-02 
565	 3.77224979154343E-02 
566	 3.77866289418162E-02 
567	 3.78492145115128E-02 
568	 3.79257488318742E-02 
569	 3.80283111939955E-02 
570	 3.81308053215501E-02 
571	 3.82133138816595E-02 
572	 3.82776128234571E-02 
573	 3.83677979817765E-02 
574	 3.84710466159422E-02 
575	 3.85603002727936E-02 
576	 3.86778210195225E-02 
577	 0.038786346606053 
578	 3.88633171434504E-02 
579	 3.89098113237172E-02 
580	 3.89524247624551E-02 
581	 3.90397474535647E-02 
582	 3.91893824148426E-02 
583	 3.93197199649411E-02 
584	 3.94280317657367E-02 
585	 3.95181803466436E-02 
586	 3.96035802469011E-02 
587	 3.97229139654807E-02 
588	 3.98393012700571E-02 
589	 3.99311612558321E-02 
590	 4.00168888315611E-02 
591	 4.00990961432225E-02 
592	 4.01806626568226E-02 
593	 4.02600726868826E-02 
594	 4.03174485422192E-02 
595	 4.03931530968723E-02 
596	 4.04778009998717E-02 
597	 4.05217179408572E-02 
598	 4.05980528972275E-02 
599	 4.06987047735227E-02 
600	 4.07986413404964E-02 
601	 0.040868309388069 
602	 4.09323385339083E-02 
603	 0.041003916208821 
604	 4.10856799790909E-02 
605	 4.11428472492851E-02 
606	 4.12151822004831E-02 
607	 4.13157478676289E-02 
608	 4.14171686647105E-02 
609	 4.14901166561764E-02 
610	 4.15444516046873E-02 
611	 4.16031150589757E-02 
612	 4.16953035238223E-02 
613	 4.17607422275249E-02 
614	 0.041806143335315 
615	 4.18774907382195E-02 
616	 4.19309082364738E-02 
617	 4.19881216085437E-02 
618	 4.20590294845687E-02 
619	 4.21182699630559E-02 
620	 4.21711374358525E-02 
621	 4.22321635624334E-02 
622	 4.23037711518885E-02 
623	 4.23052350912786E-02 
624	 0.04236709551279 
625	 4.24811203623232E-02 
626	 0.042510493443034 
627	 4.25817946478133E-02 
628	 4.26534545404127E-02 
629	 0.042688483225325 
630	 4.27362497593256E-02 
631	 4.28054820058336E-02 
632	 4.28762448426369E-02 
633	 4.29230144528169E-02 
634	 4.29922912287348E-02 
635	 4.30597324558748E-02 
636	 4.31155054295319E-02 
637	 4.31747823866489E-02 
638	 4.32103817152914E-02 
639	 0.043254647157647 
640	 4.33315201105781E-02 
641	 4.33917215982767E-02 
642	 4.34320162022781E-02 
643	 4.34795914077895E-02 
644	 4.35709436941625E-02 
645	 4.36373634251615E-02 
646	 0.0436928275992 
647	 4.37501095514869E-02 
648	 4.38008620531269E-02 
649	 4.38850067951319E-02 
650	 4.39737372971897E-02 
651	 4.40269855459093E-02 
652	 4.40543961934178E-02 
653	 4.40855922379916E-02 
654	 4.41394927598147E-02 
655	 0.044220583763183 
656	 4.42776032388967E-02 
657	 0.04433924227306 
658	 4.44234230799579E-02 
659	 4.45000858609494E-02 
660	 4.45453972770779E-02 
661	 4.45869210158719E-02 
662	 4.46601553240461E-02 
663	 4.47237195964093E-02 
664	 4.47604665906021E-02 
665	 4.47976808796518E-02 
666	 4.49000841505736E-02 
667	 4.49770680126119E-02 
668	 4.50409809602724E-02 
669	 4.51111153189126E-02 
670	 4.51670965769664E-02 
671	 4.52312594725662E-02 
672	 4.53006028665209E-02 
673	 4.53620240730467E-02 
674	 4.54187799547027E-02 
675	 4.54839422645335E-02 
676	 4.55612896657534E-02 
677	 4.56424224245165E-02 
678	 4.56912051853588E-02 
679	 4.57431741844579E-02 
680	 4.58269957375085E-02 
681	 4.58950121467353E-02 
682	 4.59781291417312E-02 
683	 4.60631585006906E-02 
684	 4.61182957175956E-02 
685	 4.61700792538388E-02 
686	 4.62228443109964E-02 
687	 4.62841816614077E-02 
688	 4.63697448967066E-02 
689	 4.64420246574608E-02 
690	 0.046503826001665 
691	 4.65693423895029E-02 
692	 4.66502136406818E-02 
693	 4.67297279122585E-02 
694	 4.68040920536139E-02 
695	 0.046875562846647 
696	 4.69167874260614E-02 
697	 4.69660593745805E-02 
698	 0.047038943296656 
699	 0.047103791597235 
700	 4.71614248335767E-02 
701	 4.72278256300856E-02 
702	 4.73118519090581E-02 
703	 4.73762319252282E-02 
704	 4.74412903076135E-02 
705	 4.75078462234587E-02 
706	 4.75658607390745E-02 
707	 4.76498002529276E-02 
708	 4.77228621880389E-02 
709	 0.047771413122277 
710	 0.047835673599991 
711	 4.78939863498731E-02 
712	 4.79524760652223E-02 
713	 4.80233781998426E-02 
714	 4.81130366200748E-02 
715	 0.048194695919066 
716	 4.82603506662321E-02 
717	 4.83182830532578E-02 
718	 4.83868165609942E-02 
719	 4.84561557831458E-02 
720	 4.85196724935737E-02 
721	 4.85834864455917E-02 
722	 4.86367410782433E-02 
723	 4.86874044605608E-02 
724	 4.87472234775872E-02 
725	 4.88192427388741E-02 
726	 4.88869525350198E-02 
727	 4.89567499709029E-02 
728	 0.049045475181437 
729	 4.90929091319618E-02 
730	 4.91487202649496E-02 
731	 4.92305018570494E-02 
732	 4.92784030712489E-02 
733	 4.93578192596977E-02 
734	 4.94378713695723E-02 
735	 4.94835174711033E-02 
736	 4.95518940684573E-02 
737	 4.96284788690968E-02 
738	 4.97021791436711E-02 
739	 4.97660363033937E-02 
740	 4.98238880946284E-02 
741	 4.98914653094378E-02 
742	 4.99649727145113E-02 
743	 5.00097789596056E-02 
744	 5.00815860314253E-02 
745	 0.050155806704828 
746	 5.02070736528971E-02 
747	 5.02849199229139E-02 
748	 5.03554658053629E-02 
749	 5.04160060008633E-02 
750	 5.04804755303546E-02 
751	 5.05359608928592E-02 
752	 5.05963097483447E-02 
753	 5.06701897227428E-02 
754	 5.07557856475295E-02 
755	 5.08216220689813E-02 
756	 5.08914273679146E-02 
757	 5.09759466631523E-02 
758	 5.10055094840134E-02 
759	 5.10532905529871E-02 
760	 5.11184870525399E-02 
761	 0.051170409853267 
762	 0.051234856106454 
763	 5.12949549940852E-02 
764	 5.13516941053544E-02 
765	 5.14266288964982E-02 
766	 5.14970653425179E-02 
767	 5.15527227504866E-02 
768	 5.16031281640175E-02 
769	 5.17008142031068E-02 
770	 0.051771469899691 
771	 5.18171833980742E-02 
772	 5.18679520097375E-02 
773	 5.19356952193555E-02 
774	 5.20053206249711E-02 
775	 5.20652915299252E-02 
776	 5.21123475786227E-02 
777	 0.052184744033361 
778	 0.052263863553868 
779	 5.23317931338287E-02 
780	 5.23868640696885E-02 
781	 5.24410083515162E-02 
782	 5.24912482895531E-02 
783	 5.25360649336208E-02 
784	 5.25913325193111E-02 
785	 0.05267818041032 
786	 5.27712475235113E-02 
787	 5.28246436670303E-02 
788	 5.28545258792475E-02 
789	 5.29115292964373E-02 
790	 5.29968594800292E-02 
791	 0.053052142669392 
792	 0.053110218863572 
793	 5.31655944643539E-02 
794	 5.32144464136707E-02 
795	 5.32743448794892E-02 
796	 5.33389951063424E-02 
797	 5.34122820689173E-02 
798	 5.34882123923735E-02 
799	 5.34971588799932E-02 
800	 5.35281152054715E-02 
801	 5.35983339808342E-02 
802	 5.36636616837552E-02 
803	 5.37223891383202E-02 
804	 5.37661537683267E-02 
805	 5.38045238401208E-02 
806	 5.38723979279915E-02 
807	 5.39296357462134E-02 
808	 5.39777903073075E-02 
809	 5.40275540150896E-02 
810	 5.40824135903306E-02 
811	 5.41474418752944E-02 
812	 0.054199535545183 
813	 0.054217976664343 
814	 5.42666002795596E-02 
815	 5.43314488999298E-02 
816	 5.43898380812779E-02 
817	 5.44209504439228E-02 
818	 5.44670679322367E-02 
819	 5.45167299996975E-02 
820	 5.45598717179363E-02 
821	 5.46025165668036E-02 
822	 5.46592448853856E-02 
823	 5.47128560713957E-02 
824	 5.47527089422227E-02 
825	 5.48197955466215E-02 
826	 5.48561159041798E-02 
827	 5.48787051289451E-02 
828	 0.054931383566819 
829	 5.49892323409765E-02 
830	 5.50547859304841E-02 
831	 5.51090804581767E-02 
832	 5.51230824002997E-02 
833	 5.51780496680794E-02 
834	 5.52477301545808E-02 
835	 5.53060023926937E-02 
836	 0.055353556266713 
837	 5.54203497889716E-02 
838	 5.54679735469318E-02 
839	 5.54769199955129E-02 
840	 5.55302360518953E-02 
841	 5.55679505345753E-02 
842	 5.56077697750549E-02 
843	 5.56801891124436E-02 
844	 5.57168011097777E-02 
845	 5.57641966309102E-02 
846	 5.58302567672065E-02 
847	 5.58903375503552E-02 
848	 5.59400344963983E-02 
849	 5.59585616332319E-02 
850	 0.055958906649448 
851	 0.055994316121881 
852	 0.056048641692901 
853	 5.61114771811324E-02 
854	 5.61662711997132E-02 
855	 5.61819377684037E-02 
856	 5.62133834433543E-02 
857	 5.62533629337313E-02 
858	 5.62858812023144E-02 
859	 5.63447195860372E-02 
860	 5.63743802398794E-02 
861	 5.64022708695311E-02 
862	 5.64814543763721E-02 
863	 5.65421533819058E-02 
864	 5.65846809040182E-02 
865	 5.66209105204375E-02 
866	 0.056664570025039 
867	 5.66749112218994E-02 
868	 5.67094868932634E-02 
869	 0.056778149619062 
870	 5.68110042137776E-02 
871	 5.68788536090878E-02 
872	 5.69251218099098E-02 
873	 5.69289420178566E-02 
874	 5.70073970914925E-02 
875	 5.70828978029452E-02 
876	 5.71322026832214E-02 
877	 5.71601447652116E-02 
878	 5.72016789091081E-02 
879	 5.72720507933275E-02 
880	 5.73526075882908E-02 
881	 5.74080779897874E-02 
882	 5.74154166531119E-02 
883	 5.74375734470726E-02 
884	 5.74946981974252E-02 
885	 5.75648374404976E-02 
886	 5.76129176524703E-02 
887	 5.76636995812061E-02 
888	 5.77228223227238E-02 
889	 5.77670643959058E-02 
890	 5.78146872683468E-02 
891	 5.78604578695316E-02 
892	 5.79059685311516E-02 
893	 0.057970225676292 
894	 5.80617622135579E-02 
895	 5.81566756631676E-02 
896	 5.82244849469409E-02 
897	 5.82353636074056E-02 
898	 5.82987918622094E-02 
899	 5.83596870256447E-02 
900	 5.83558013634851E-02 
901	 5.84283272816672E-02 
902	 5.85077449560493E-02 
903	 5.85796343369204E-02 
904	 5.86478462713178E-02 
905	 5.86433895474136E-02 
906	 0.058700496343118 
907	 5.88147335074636E-02 
908	 0.05888249709447 
909	 5.89347702329439E-02 
910	 5.89853127331464E-02 
911	 5.90328462037287E-02 
912	 5.90656729228878E-02 
913	 5.91265564728772E-02 
914	 5.91964724948472E-02 
915	 5.92606799844746E-02 
916	 5.93248579382856E-02 
917	 5.94016908746906E-02 
918	 5.95136597465549E-02 
919	 5.96364238524858E-02 
920	 5.96633475389244E-02 
921	 5.96839347565365E-02 
922	 0.05972296665577 
923	 5.97842732986473E-02 
924	 5.98653056714173E-02 
925	 5.99487350478167E-02 
926	 6.00135908015346E-02 
927	 6.00648067073983E-02 
928	 0.060195435761839 
929	 6.02749171787519E-02 
930	 6.03354850703236E-02 
931	 6.04469755674712E-02 
932	 6.05150455522178E-02 
933	 6.05964658362104E-02 
934	 6.06816668999372E-02 
935	 6.07354927318613E-02 
936	 6.07953082654588E-02 
937	 6.09308028589422E-02 
938	 6.10479972162454E-02 
939	 6.10084564916503E-02 
940	 6.11670206852313E-02 
941	 6.13372372571906E-02 
942	 6.14148133038526E-02 
943	 6.14348368601811E-02 
944	 6.15921336000264E-02 
945	 6.16843895587883E-02 
946	 6.17112951608234E-02 
947	 0.061896224944903 
948	 0.061949861301086 
949	 6.19845411130372E-02 
950	 6.20730360303775E-02 
951	 6.21628503311735E-02 
952	 6.22591614565056E-02 
953	 6.23601111747649E-02 
954	 6.24651735505703E-02 
955	 6.25762142474828E-02 
956	 6.26855536283852E-02 
957	 6.28212470706161E-02 
958	 6.29558842855047E-02 
959	 6.29653675409267E-02 
960	 6.30569794287156E-02 
961	 6.31812569030397E-02 
962	 6.32789779957665E-02 
963	 6.34003720383846E-02 
964	 6.34319000851245E-02 
965	 6.34881755499526E-02 
966	 6.36279271873955E-02 
967	 6.36471905926183E-02 
968	 6.37957259542178E-02 
969	 6.39900801949197E-02 
970	 6.41056591137946E-02 
971	 6.41697130532869E-02 
972	 6.42465476391284E-02 
973	 6.43397657638606E-02 
974	 6.44283023114216E-02 
975	 0.064476736056734 
976	 6.46701821088602E-02 
977	 6.48765569907305E-02 
978	 6.49460632818223E-02 
979	 6.50050208644364E-02 
980	 6.51082997703978E-02 
981	 6.52328214566601E-02 
982	 6.53347253617529E-02 
983	 6.54054629362965E-02 
984	 6.55700823080383E-02 
985	 6.57827240304573E-02 
986	 6.59474449593159E-02 
987	 6.60320420634191E-02 
988	 6.61315017477405E-02 
989	 0.066255020218899 
990	 6.63639124706832E-02 
991	 6.63772614127092E-02 
992	 6.64710707595128E-02 
993	 6.66030554914432E-02 
994	 6.66962974115193E-02 
995	 0.066859267096611 
996	 6.70003040053451E-02 
997	 0.067118788104088 
998	 6.72475240534293E-02 
999	 6.74100498725274E-02 
1000	 6.75547708585163E-02 
1001	 6.87541203754728E-02 
1002	 6.89117996154154E-02 
1003	 0.069045828349644 
1004	 6.91865643980535E-02 
1005	 6.93398230013415E-02 
1006	 6.94788925230255E-02 
1007	 6.96059032590942E-02 
1008	 6.97532773996102E-02 
1009	 6.99141310664216E-02 
1010	 0.070052545046749 
1011	 7.01894526042314E-02 
1012	 7.03213468743281E-02 
1013	 7.04169665598026E-02 
1014	 7.05537201747897E-02 
1015	 7.07325580217436E-02 
1016	 7.08711441813914E-02 
1017	 0.071012183662968 
1018	 7.11715424144828E-02 
1019	 7.12963134130816E-02 
1020	 7.14265373823327E-02 
1021	 7.15697320252439E-02 
1022	 0.071734424757386 
1023	 7.18729369493453E-02 
1024	 7.20016401489134E-02 
1025	 7.21527205008218E-02 
1026	 7.22953089318772E-02 
1027	 7.24434619502967E-02 
1028	 7.26311880288014E-02 
1029	 7.27793285643253E-02 
1030	 7.28519442773749E-02 
1031	 7.29553251187433E-02 
1032	 7.30643122770278E-02 
1033	 0.073192764723422 
1034	 7.33573635387451E-02 
1035	 7.35357518210975E-02 
1036	 7.36847900972858E-02 
1037	 7.38029247321426E-02 
1038	 7.39310787238454E-02 
1039	 7.40590161409647E-02 
1040	 7.41875554464763E-02 
1041	 7.42937257245412E-02 
1042	 7.44420831251603E-02 
1043	 7.46209061807971E-02 
1044	 7.47793440208239E-02 
1045	 0.074945853731917 
1046	 7.51343490413861E-02 
1047	 7.52551203746133E-02 
1048	 7.53622904113726E-02 
1049	 7.55012269299007E-02 
1050	 7.56405377992979E-02 
1051	 7.57887774178818E-02 
1052	 0.075970045368965 
1053	 7.61439582033022E-02 
1054	 7.63247214731822E-02 
1055	 0.076474631831446 
1056	 0.076605418837452 
1057	 7.67694903223983E-02 
1058	 7.69279054638107E-02 
1059	 7.70962694178112E-02 
1060	 7.72945730934903E-02 
1061	 0.077489075901813 
1062	 7.76848568706632E-02 
1063	 7.78770002698146E-02 
1064	 7.80505745465023E-02 
1065	 7.82200190226224E-02 
1066	 7.83667816681963E-02 
1067	 0.078527119891013 
1068	 7.87201527982863E-02 
1069	 7.88950695138642E-02 
1070	 7.90692179477435E-02 
1071	 7.92386004592599E-02 
1072	 7.94063253387763E-02 
1073	 7.95749975386243E-02 
1074	 0.079767820058059 
1075	 7.99755645020995E-02 
1076	 8.01728314680341E-02 
1077	 8.03512701845316E-02 
1078	 8.05333969773603E-02 
1079	 8.06946096577549E-02 
1080	 8.08625140077742E-02 
1081	 8.10594414410692E-02 
1082	 8.12383875734451E-02 
1083	 8.14177566652962E-02 
1084	 8.15993356519438E-02 
1085	 8.17740054004462E-02 
1086	 8.19445934998323E-02 
1087	 8.21096438878012E-02 
1088	 8.22849546018792E-02 
1089	 8.24715322279866E-02 
1090	 8.26516049869016E-02 
1091	 8.28427136537518E-02 
1092	 8.30204345325262E-02 
1093	 8.31861089454884E-02 
1094	 8.33590127975022E-02 
1095	 8.35358538283203E-02 
1096	 8.37397256527316E-02 
1097	 8.39302499746701E-02 
1098	 0.084096273080851 
1099	 8.42815015548543E-02 
1100	 0.084445253346976 
1101	 8.45960438969818E-02 
1102	 8.47735493577428E-02 
1103	 8.49398656279241E-02 
1104	 8.50932261335786E-02 
1105	 8.52499666695365E-02 
1106	 8.54301071457362E-02 
1107	 8.55880035224632E-02 
1108	 8.57515149110971E-02 
1109	 8.59438447724134E-02 
1110	 8.61343755954366E-02 
1111	 8.63233804459396E-02 
1112	 8.64769381229889E-02 
1113	 8.66094864314194E-02 
1114	 0.086772490220033 
1115	 8.69356859216936E-02 
1116	 8.71128913439047E-02 
1117	 8.73088827871957E-02 
1118	 8.74875927108822E-02 
1119	 8.76415134085537E-02 
1120	 8.78027042698627E-02 
1121	 8.79677377992986E-02 
1122	 0.088130878416236 
1123	 8.82927502387296E-02 
1124	 8.84561909360498E-02 
1125	 8.86277897090233E-02 
1126	 8.87834059918302E-02 
1127	 8.89264252214959E-02 
1128	 8.90846936045591E-02 
1129	 8.92319694488058E-02 
1130	 8.94074363518842E-02 
1131	 0.08960545266045 
1132	 8.97680005078866E-02 
1133	 8.99348558348383E-02 
1134	 9.00875287583813E-02 
1135	 9.02415948630027E-02 
1136	 9.03869318979377E-02 
1137	 9.05383515144439E-02 
1138	 9.06898123973024E-02 
1139	 0.090849176749928 
1140	 9.10187070325089E-02 
1141	 9.11595151727629E-02 
1142	 0.091309001934625 
1143	 9.14570485765619E-02 
1144	 9.16092532943928E-02 
1145	 9.17874974527241E-02 
1146	 0.091947670283527 
1147	 9.21062057260131E-02 
1148	 9.22643341456467E-02 
1149	 9.23938581458961E-02 
1150	 9.25436280384137E-02 
1151	 9.27105315470918E-02 
1152	 9.28706743306069E-02 
1153	 9.30323190419768E-02 
1154	 9.31900146430964E-02 
1155	 9.33434590719821E-02 
1156	 9.35016009565535E-02 
1157	 9.36612615016892E-02 
1158	 9.38138521275152E-02 
1159	 9.39621126769405E-02 
1160	 9.41213221963935E-02 
1161	 9.42850310690413E-02 
1162	 9.44336900710259E-02 
1163	 9.45852244509163E-02 
1164	 9.47530619123439E-02 
1165	 9.49162747021286E-02 
1166	 9.50820846780525E-02 
1167	 9.52494442342954E-02 
1168	 0.095412472991129 
1169	 9.55798274691232E-02 
1170	 9.57419660316744E-02 
1171	 9.59059944928436E-02 
1172	 0.096085282298333 
1173	 9.62493169395474E-02 
1174	 0.096390817199397 
1175	 9.65505414766085E-02 
1176	 9.67160714887529E-02 
1177	 9.68747976670913E-02 
1178	 9.70316687212911E-02 
1179	 9.72100589745041E-02 
1180	 9.73630171671055E-02 
1181	 9.75263742001505E-02 
1182	 9.77000509474867E-02 
1183	 0.097874263409846 
1184	 9.80461354032926E-02 
1185	 9.82081192240123E-02 
1186	 9.83778963321613E-02 
1187	 9.85457371176073E-02 
1188	 9.87126197359023E-02 
1189	 9.88872691120296E-02 
1190	 9.90548916997075E-02 
1191	 9.92095102847225E-02 
1192	 9.93741496210881E-02 
1193	 9.95394684516447E-02 
1194	 9.97129238597805E-02 
1195	 9.98990998909784E-02 
1196	 0.100078203512614 
1197	 0.100250467069012 
1198	 0.100442586615002 
1199	 0.100630929077662 
1200	 0.100797603501469 
1201	 0.100979688905569 
1202	 0.101142442631865 
1203	 0.101302676018353 
1204	 0.101492600799686 
1205	 0.101676666395134 
1206	 0.101866160786212 
1207	 0.102062088709397 
1208	 0.102266988631912 
1209	 0.102464595011473 
1210	 0.102656549685637 
1211	 0.102867406104891 
1212	 0.103087804870644 
1213	 0.103303238692417 
1214	 0.103538046571937 
1215	 0.103760124638783 
1216	 0.103953980882532 
1217	 0.104172403612688 
1218	 0.104400315806393 
1219	 0.104639740963134 
1220	 0.104876341684387 
1221	 0.105130050072406 
1222	 0.10536240858451 
1223	 0.105587376938438 
1224	 0.105826027173488 
1225	 0.10607106075268 
1226	 0.106302029997443 
1227	 0.106534410365942 
1228	 0.106768572162497 
1229	 0.10699250629334 
1230	 0.107224854287768 
1231	 0.107471741239757 
1232	 0.107703619858025 
1233	 0.1079261703327 
1234	 0.108146774435343 
1235	 0.108356222503677 
1236	 0.108578352423252 
1237	 0.108807665055087 
1238	 0.109032933227252 
1239	 0.109269615508531 
1240	 0.109491874219071 
1241	 0.109714334167726 
1242	 0.109918896869959 
1243	 0.110133096920248 
1244	 0.110345641378744 
1245	 0.110563988668156 
1246	 0.110795236529483 
1247	 0.110999880493481 
1248	 0.111190172307937 
1249	 0.11139161374294 
1250	 0.111582109612659 
1251	 0.111775535797051 
1252	 0.111977923674584 
1253	 0.112181822635932 
1254	 0.112389838432442 
1255	 0.112580842096502 
1256	 0.112767813731123 
1257	 0.112958199061114 
1258	 0.11312959420356 
1259	 0.113309834491453 
1260	 0.1135100551098 
1261	 0.113700343590894 
1262	 0.113878854147188 
1263	 0.114062716473329 
1264	 0.114246589930218 
1265	 0.11442872759144 
1266	 0.114613495366911 
1267	 0.114793325377966 
1268	 0.114992638953182 
1269	 0.115207037368706 
1270	 0.115409506858073 
1271	 0.115618949372814 
1272	 0.115827443189748 
1273	 0.116017655136376 
1274	 0.116230579281559 
1275	 0.116466252904254 
1276	 0.116688409269 
1277	 0.116912626312711 
1278	 0.117135939609253 
1279	 0.117345390186513 
1280	 0.117570101537393 
1281	 0.117793112470583 
1282	 0.118035674238087 
1283	 0.118305893250029 
1284	 0.118563010626628 
1285	 0.118820871047143 
1286	 0.119090243235166 
1287	 0.119343372424982 
1288	 0.119583211847997 
1289	 0.119827527294667 
1290	 0.12006960975628 
1291	 0.120313521678054 
1292	 0.120548048139846 
1293	 0.120799137778072 
1294	 0.121064838744298 
1295	 0.121317141276354 
1296	 0.121572615059597 
1297	 0.121823306991936 
1298	 0.122059682516237 
1299	 0.122306835960639 
1300	 0.12256693548756 
1301	 0.122812580630175 
1302	 0.123053304788247 
1303	 0.123292491321537 
1304	 0.123518657895112 
1305	 0.123752070626011 
1306	 0.123990365209013 
1307	 0.124226539093327 
1308	 0.124453638175211 
1309	 0.124701681838492 
1310	 0.124931811860544 
1311	 0.125156601357031 
1312	 0.125384922470469 
1313	 0.125612833514781 
1314	 0.125832817731444 
1315	 0.126051243349245 
1316	 0.126267908172925 
1317	 0.126476646288242 
1318	 0.126687641038841 
1319	 0.126903055211764 
1320	 0.127110882296051 
1321	 0.127308378955701 
1322	 0.127513713754588 
1323	 0.127724496068095 
1324	 0.127926804827243 
1325	 0.12812941451955 
1326	 0.128328227312576 
1327	 0.128518485015022 
1328	 0.12870972952842 
1329	 0.128904274311027 
1330	 0.129091659076974 
1331	 0.129269760530906 
1332	 0.12945251045501 
1333	 0.129633237442568 
1334	 0.129818258884928 
1335	 0.129992391484211 
1336	 0.130166587679411 
1337	 0.130334207141741 
1338	 0.130485951920029 
1339	 0.130658432727568 
1340	 0.130841631409342 
1341	 0.131012617333166 
1342	 0.131191804353328 
1343	 0.131355714511185 
1344	 0.131504380183694 
1345	 0.131659327511882 
1346	 0.131808686105027 
1347	 0.131964039560412 
1348	 0.132125988776188 
1349	 0.132279748068016 
1350	 0.13243800432393 
1351	 0.132585110343995 
1352	 0.13271305754543 
1353	 0.132856447053664 
1354	 0.133005022714318 
1355	 0.133150141365239 
1356	 0.133299889678644 
1357	 0.133450566917773 
1358	 0.133599248079609 
1359	 0.13374670656611 
1360	 0.13389275999078 
1361	 0.134049702674012 
1362	 0.134197262473519 
1363	 0.13433543359369 
1364	 0.134475505108042 
1365	 0.134617109145152 
1366	 0.134746329985923 
1367	 0.134868380974794 
1368	 0.134990730964158 
1369	 0.135101920641039 
1370	 0.135225794265148 
1371	 0.135356142977318 
1372	 0.13548112599282 
1373	 0.135613737557838 
1374	 0.135731557387773 
1375	 0.135835768228112 
1376	 0.135950498069808 
1377	 0.136069366988853 
1378	 0.136178813797015 
1379	 0.136288884833198 
1380	 0.136396010785276 
1381	 0.13648953185259 
1382	 0.136591079918398 
1383	 0.1367032500239 
1384	 0.136805929946592 
1385	 0.136900395201377 
1386	 0.136998861490913 
1387	 0.137085262207219 
1388	 0.137188604359897 
1389	 0.137311454082757 
1390	 0.137424585794564 
1391	 0.13754108424827 
1392	 0.137659936875951 
1393	 0.137767701177428 
1394	 0.137873302359557 
1395	 0.137980162454281 
1396	 0.138093883995104 
1397	 0.138187776469039 
1398	 0.13827881938008 
1399	 0.138348449128065 
1400	 0.138397430621034 
1401	 0.138450740668476 
1402	 0.138497758143553 
1403	 0.138531638267966 
1404	 0.138561738029039 
1405	 0.138579013672 
1406	 0.138572906200122 
1407	 0.138578487725958 
1408	 0.138576815459615 
1409	 0.138588599820842 
1410	 0.138596216981563 
1411	 0.138628169464629 
1412	 0.138680161917924 
1413	 0.138731063405509 
1414	 0.138794234254168 
1415	 0.138864233359078 
1416	 0.138933109988994 
1417	 0.139017445049353 
1418	 0.139117975329185 
1419	 0.139222741375292 
1420	 0.13933488525802 
1421	 0.139455056406404 
1422	 0.139584180245787 
1423	 0.139718741870351 
1424	 0.13985744754698 
1425	 0.140010359861943 
1426	 0.140158857932685 
1427	 0.140324576086712 
1428	 0.140489441869558 
1429	 0.140642970895272 
1430	 0.140818691816323 
1431	 0.141001519452956 
1432	 0.141189977387569 
1433	 0.141395866209658 
1434	 0.141593717566658 
1435	 0.141792811469666 
1436	 0.141986905272013 
1437	 0.142179557739496 
1438	 0.142373200127924 
1439	 0.142554991815028 
1440	 0.142761243808962 
1441	 0.142983065663885 
1442	 0.14320057866532 
1443	 0.143427410145025 
1444	 0.143656009363659 
1445	 0.143884960077964 
1446	 0.144113336675423 
1447	 0.144347815698317 
1448	 0.144582469261441 
1449	 0.14481848353509 
1450	 0.145049174248851 
1451	 0.145280161379825 
1452	 0.145511822872445 
1453	 0.145728346264942 
1454	 0.145962229185127 
1455	 0.146213125674519 
1456	 0.146457625822478 
1457	 0.14671647114472 
1458	 0.146959075273702 
1459	 0.147185599289001 
1460	 0.147419069825496 
1461	 0.147644735636396 
1462	 0.147874633782533 
1463	 0.148107179015042 
1464	 0.148346306927448 
1465	 0.14858439381745 
1466	 0.148837018054518 
1467	 0.149093852176045 
1468	 0.149338708174902 
1469	 0.149565703420123 
1470	 0.149788408924228 
1471	 0.150019864296922 
1472	 0.150247289854579 
1473	 0.150474809863578 
1474	 0.15071019981768 
1475	 0.150939706682701 
1476	 0.151157747021483 
1477	 0.151388725601536 
1478	 0.151631071705274 
1479	 0.151862704251102 
1480	 0.15209215463054 
1481	 0.152321655967225 
1482	 0.152549169061824 
1483	 0.152774626672414 
1484	 0.152998061511733 
1485	 0.153224504302618 
1486	 0.153450112654267 
1487	 0.15367290653467 
1488	 0.153897891387141 
1489	 0.154120419435785 
1490	 0.154337070449361 
1491	 0.154557908698646 
1492	 0.154784423302232 
1493	 0.155004161972454 
1494	 0.155216132642772 
1495	 0.155436330034592 
1496	 0.155657014586905 
1497	 0.155879398056867 
1498	 0.156111208810345 
1499	 0.156336649199648 
1500	 0.156551561570641 
1501	 0.1567797268635 
1502	 0.157016051911902 
1503	 0.157247166175563 
1504	 0.157483687874624 
1505	 0.157718637717703 
1506	 0.157953276758569 
1507	 0.158182029085865 
1508	 0.158399875645961 
1509	 0.158633213745328 
1510	 0.158876161270982 
1511	 0.159107459134708 
1512	 0.159341866034117 
1513	 0.159578963528469 
1514	 0.159807122987189 
1515	 0.160035317011481 
1516	 0.160271902964111 
1517	 0.160507099465533 
1518	 0.160738045016057 
1519	 0.160963981391507 
1520	 0.161187465345143 
1521	 0.16141217383882 
1522	 0.161634410983259 
1523	 0.161876140730427 
1524	 0.162106377285098 
1525	 0.162344661217758 
1526	 0.162580405771989 
1527	 0.162807619266123 
1528	 0.163041801365976 
1529	 0.163289704429277 
1530	 0.163516374911396 
1531	 0.163729226058064 
1532	 0.163955504805615 
1533	 0.164175902151464 
1534	 0.16440971663957 
1535	 0.164659279773073 
1536	 0.164894298354051 
1537	 0.165125107192548 
1538	 0.165362751932496 
1539	 0.165601138310918 
1540	 0.165833912653455 
1541	 0.166071740810657 
1542	 0.166302319864923 
1543	 0.16652283906956 
1544	 0.166745746477741 
1545	 0.166970816280274 
1546	 0.167190781773857 
1547	 0.167403188953457 
1548	 0.167621512690641 
1549	 0.167844057442623 
1550	 0.168058894683176 
1551	 0.168268410591573 
1552	 0.168485167213722 
1553	 0.168705645170833 
1554	 0.168915084859803 
1555	 0.169127152196325 
1556	 0.169331542267716 
1557	 0.169509888072865 
1558	 0.169719300945612 
1559	 0.169949052928061 
1560	 0.170165202373191 
1561	 0.170388181774945 
1562	 0.170609840921739 
1563	 0.170821094332098 
1564	 0.171039884796964 
1565	 0.171265163519467 
1566	 0.171494803104906 
1567	 0.171728012971686 
1568	 0.171958267599112 
1569	 0.172196205685739 
1570	 0.172428489057149 
1571	 0.172646719167758 
1572	 0.172881146163858 
1573	 0.173130557408449 
1574	 0.173367394283722 
1575	 0.173609066858169 
1576	 0.173841443310023 
1577	 0.174051023264009 
1578	 0.174283055709597 
1579	 0.174530606981619 
1580	 0.174765422420233 
1581	 0.175000606487069 
1582	 0.17524111325942 
1583	 0.175479280493901 
1584	 0.17571350690777 
1585	 0.175951143790352 
1586	 0.176192014540701 
1587	 0.176432379048585 
1588	 0.176663200226962 
1589	 0.176894330847076 
1590	 0.177126901951726 
1591	 0.177350806523133 
1592	 0.177572572347535 
1593	 0.177798895362262 
1594	 0.178024009715991 
1595	 0.178234119963468 
1596	 0.178457866473601 
1597	 0.178694975893556 
1598	 0.178927360903102 
1599	 0.179173961033865 
1600	 0.179398456155087 
1601	 0.179597990707125 
1602	 0.179819288935037 
1603	 0.180036918547901 
1604	 0.180258299696935 
1605	 0.180499253835865 
1606	 0.180733816017181 
1607	 0.180965466429814 
1608	 0.181193237873373 
1609	 0.181428856973707 
1610	 0.181649868314219 
1611	 0.181849517851783 
1612	 0.182059062130154 
1613	 0.182265922415047 
1614	 0.182475110102758 
1615	 0.182699083658776 
1616	 0.182906850892378 
1617	 0.183092597949872 
1618	 0.183298594167681 
1619	 0.183509788818041 
1620	 0.183717217979812 
1621	 0.183943437576934 
1622	 0.184155232354573 
1623	 0.184352066417507 
1624	 0.18455028738824 
1625	 0.184747180889513 
1626	 0.184940016492678 
1627	 0.185126612052228 
1628	 0.185313438674294 
1629	 0.185493679757455 
1630	 0.185681171924757 
1631	 0.185880757905655 
1632	 0.186066032390227 
1633	 0.186242706373938 
1634	 0.186426319879879 
1635	 0.186607924104944 
1636	 0.186781061654972 
1637	 0.186955779431089 
1638	 0.187128962911605 
1639	 0.187283713898684 
1640	 0.187454802865605 
1641	 0.187645616556284 
1642	 0.187823470397143 
1643	 0.188002270886865 
1644	 0.188174417745709 
1645	 0.188334994213679 
1646	 0.188497558101243 
1647	 0.188662742251177 
1648	 0.188820843654167 
1649	 0.188978564400873 
1650	 0.189126817478592 
1651	 0.189262488833174 
1652	 0.189398274087682 
1653	 0.189531537722908 
1654	 0.189656765536944 
1655	 0.189783420969861 
1656	 0.189895838622507 
1657	 0.190005358568664 
1658	 0.19009135838054 
1659	 0.190157534346704 
1660	 0.190214738217957 
1661	 0.190253592770644 
1662	 0.190277231163151 
1663	 0.190283799224117 
1664	 0.1902897585074 
1665	 0.190291957172621 
1666	 0.19027160581092 
1667	 0.190250239308887 
1668	 0.190196818164025 
1669	 0.190106415570114 
1670	 0.190011305034569 
1671	 0.189911811901681 
1672	 0.18977375466104 
1673	 0.189614214010222 
1674	 0.189425449855505 
1675	 0.189189805047582 
1676	 0.18896060174105 
1677	 0.188725484977353 
1678	 0.188460369854135 
1679	 0.188185643866279 
1680	 0.187876664155162 
1681	 0.187525700550097 
1682	 0.187168760591168 
1683	 0.186797246537171 
1684	 0.186404914624148 
1685	 0.185994651330954 
1686	 0.185567601385113 
1687	 0.185114477205347 
1688	 0.184648238819695 
1689	 0.184164631185632 
1690	 0.183668698964893 
1691	 0.183155445494231 
1692	 0.182643796552813 
1693	 0.182137790050987 
1694	 0.181586749463602 
1695	 0.181012079415494 
1696	 0.180414217926845 
1697	 0.179774974832149 
1698	 0.179140217538555 
1699	 0.178482484893813 
1700	 0.177866850783835 
1701	 0.177245042127581 
1702	 0.176653514617959 
1703	 0.176090980552349 
1704	 0.175553615270241 
1705	 0.175011709370128 
1706	 0.174552339997072 
1707	 0.17417225650637 
1708	 0.173830740837005 
1709	 0.173508933933423 
1710	 0.173207261509875 
1711	 0.172906751018717 
1712	 0.172631434619506 
1713	 0.172377347833898 
1714	 0.172134646639875 
1715	 0.171910096876037 
1716	 0.171673915979708 
1717	 0.171466809152655 
1718	 0.171267289532851 
1719	 0.17107238212863 
1720	 0.17095132564745 
1721	 0.170864304986325 
1722	 0.170803962244077 
1723	 0.170800163673138 
1724	 0.170843556885118 
1725	 0.170949770773123 
1726	 0.171159649426974 
1727	 0.171467103000967 
1728	 0.171830823398504 
1729	 0.172258479782051 
1730	 0.172752483756026 
1731	 0.173267475509484 
1732	 0.173833216596596 
1733	 0.174403800559021 
1734	 0.174974470326985 
1735	 0.17557164861198 
1736	 0.176106438121784 
1737	 0.176613814260404 
1738	 0.177066709327569 
1739	 0.177445597341453 
1740	 0.177775923139976 
1741	 0.178046991828423 
1742	 0.17823936602213 
1743	 0.178402695166388 
1744	 0.178496459439402 
1745	 0.178597484479438 
1746	 0.178660219502775 
1747	 0.178729456608118 
1748	 0.178783003195146 
1749	 0.178861172618492 
1750	 0.178938903653191 
1751	 0.179029764691124 
1752	 0.179124379768057 
1753	 0.179269158245336 
1754	 0.179424154844236 
1755	 0.179635386803827 
1756	 0.179890633447787 
1757	 0.180207479923064 
1758	 0.180579748469343 
1759	 0.181012564918442 
1760	 0.181543950281873 
1761	 0.182114413996884 
1762	 0.182666476545147 
1763	 0.183264172940084 
1764	 0.18389019296863 
1765	 0.184548969011779 
1766	 0.185280338813418 
1767	 0.186009929838353 
1768	 0.186750499065042 
1769	 0.187475381522312 
1770	 0.18811819755885 
1771	 0.188770344055635 
1772	 0.189430301034234 
1773	 0.190049026281717 
1774	 0.190665731855912 
1775	 0.19124107868335 
1776	 0.191754505278844 
1777	 0.192222940242613 
1778	 0.192667206396836 
1779	 0.193114807993042 
1780	 0.193511540284246 
1781	 0.193880587197796 
1782	 0.194258554953249 
1783	 0.194585858728194 
1784	 0.194898298837314 
1785	 0.195168975360404 
1786	 0.195436936081371 
1787	 0.195681230596573 
1788	 0.195929018138823 
1789	 0.196190720874843 
1790	 0.1964205218712 
1791	 0.196627731961642 
1792	 0.196842970888486 
1793	 0.197033844700838 
1794	 0.19725324255397 
1795	 0.197465089125294 
1796	 0.197685222875027 
1797	 0.1979096061911 
1798	 0.198105392903844 
1799	 0.198294900812064 
1800	 0.198505354979483 
1801	 0.198176914610706 
1802	 0.198434460172056 
1803	 0.198682412490873 
1804	 0.1989153590901 
1805	 0.199173102171454 
1806	 0.199425901956855 
1807	 0.199679638136186 
1808	 0.199938533499393 
1809	 0.20020788357409 
1810	 0.200466851115587 
1811	 0.200728992167894 
1812	 0.200986607405897 
1813	 0.201233496126382 
1814	 0.201495760848668 
1815	 0.201746537540854 
1816	 0.202003039475979 
1817	 0.202270934540645 
1818	 0.202550061491446 
1819	 0.202818937491129 
1820	 0.203092989475374 
1821	 0.203368145964552 
1822	 0.20363431881008 
1823	 0.203912293253093 
1824	 0.204197184778973 
1825	 0.204484231517468 
1826	 0.204768997152551 
1827	 0.205056642011954 
1828	 0.205338366067682 
1829	 0.205614904115728 
1830	 0.205892989898392 
1831	 0.206169825425775 
1832	 0.206449021426465 
1833	 0.206711898942048 
1834	 0.206992120601165 
1835	 0.20726799219631 
1836	 0.207524935709046 
1837	 0.207789706531436 
1838	 0.20805114694166 
1839	 0.208324509916276 
1840	 0.208606562164593 
1841	 0.208882025662885 
1842	 0.209160939620724 
1843	 0.209442181908136 
1844	 0.209723986087364 
1845	 0.209984074118613 
1846	 0.21026000304097 
1847	 0.210538087568514 
1848	 0.2108024823136 
1849	 0.211064646499874 
1850	 0.211316978360215 
1851	 0.211562760665678 
1852	 0.211796221459579 
1853	 0.212021240691317 
1854	 0.212217674401395 
1855	 0.212408187639668 
1856	 0.212586822563602 
1857	 0.21274403088107 
1858	 0.212897606289934 
1859	 0.213043805643047 
1860	 0.213180958711439 
1861	 0.21330735129365 
1862	 0.213432786046214 
1863	 0.213535507963309 
1864	 0.213623353876414 
1865	 0.21369802704454 
1866	 0.213753846756222 
1867	 0.213790050523172 
1868	 0.213805048672721 
1869	 0.213792875406134 
1870	 0.213754117510445 
1871	 0.213687284597669 
1872	 0.213607173068533 
1873	 0.213514891573919 
1874	 0.213378386332104 
1875	 0.213221506903669 
1876	 0.213015738906609 
1877	 0.212771221235171 
1878	 0.212496516670503 
1879	 0.212174811276948 
1880	 0.21181681604948 
1881	 0.211402011584521 
1882	 0.210934947499131 
1883	 0.210427013575178 
1884	 0.209852952637999 
1885	 0.209183413993795 
1886	 0.208460345255683 
1887	 0.207618030123087 
1888	 0.206669667850388 
1889	 0.205728385522017 
1890	 0.204703378635915 
1891	 0.203671751626159 
1892	 0.202635300018197 
1893	 0.201544681241133 
1894	 0.200387827304147 
1895	 0.199263948399713 
1896	 0.198104987120657 
1897	 0.196944273097231 
1898	 0.195881789284492 
1899	 0.194807064897821 
1900	 0.193777327462916 
1901	 0.192800334486303 
1902	 0.19178224131434 
1903	 0.190829166592139 
1904	 0.189919059532486 
1905	 0.189030799977248 
1906	 0.188183842701325 
1907	 0.187461405210108 
1908	 0.186774917535519 
1909	 0.186137801591856 
1910	 0.185573533357994 
1911	 0.185012377554143 
1912	 0.184520160296668 
1913	 0.184082062016049 
1914	 0.183653729181516 
1915	 0.183269996020819 
1916	 0.182942357013081 
1917	 0.182618881532725 
1918	 0.182318581531773 
1919	 0.182067897514743 
1920	 0.181834552547985 
1921	 0.181641174557485 
1922	 0.181470744523768 
1923	 0.181319819356044 
1924	 0.181208362381119 
1925	 0.181113958318058 
1926	 0.181035048025037 
1927	 0.180977948895444 
1928	 0.180937985151852 
1929	 0.180916553574226 
1930	 0.180901959399454 
1931	 0.180920829841423 
1932	 0.180953069969017 
1933	 0.180998458648412 
1934	 0.181087578696598 
1935	 0.18118683438925 
1936	 0.181298522320404 
1937	 0.181436386382845 
1938	 0.181602579152133 
1939	 0.181771116700061 
1940	 0.181954158298684 
1941	 0.18216072130967 
1942	 0.182353485912219 
1943	 0.18257965755656 
1944	 0.182815123699425 
1945	 0.183044062527036 
1946	 0.183317750211152 
1947	 0.183585652066958 
1948	 0.183844092178287 
1949	 0.184127247518108 
1950	 0.184399025045433 
1951	 0.184657311350011 
1952	 0.184928431818255 
1953	 0.185203870159193 
1954	 0.185482947130162 
1955	 0.185782926029422 
1956	 0.186073334780423 
1957	 0.186368285692379 
1958	 0.186667497694345 
1959	 0.186939850983893 
1960	 0.187228877854606 
1961	 0.187499206378548 
1962	 0.187750323866298 
1963	 0.18801232162373 
1964	 0.188265350344019 
1965	 0.188522326617854 
1966	 0.188786920761325 
1967	 0.189063230629514 
1968	 0.18930559588732 
1969	 0.189552751976021 
1970	 0.189801869130715 
1971	 0.190050679262932 
1972	 0.19030491643587 
1973	 0.190562108534138 
1974	 0.190831531960301 
1975	 0.191112156970541 
1976	 0.191379493223684 
1977	 0.191651472994615 
1978	 0.191928321793102 
1979	 0.192197559476919 
1980	 0.192467432715605 
1981	 0.192757257295358 
1982	 0.193037043251832 
1983	 0.193323765402808 
1984	 0.193617543010117 
1985	 0.193900190211959 
1986	 0.194204742446432 
1987	 0.194498473957527 
1988	 0.194770183042713 
1989	 0.195073530966034 
1990	 0.195403890303724 
1991	 0.195711707682865 
1992	 0.196024384624945 
1993	 0.19634526374033 
1994	 0.196626546200689 
1995	 0.196901077675689 
1996	 0.197198362248261 
1997	 0.197483365570326 
1998	 0.197772150245682 
1999	 0.198072189795839 
2000	 0.198355005301619 
2001	 0.198633404906909 
2002	 0.198906182819349 
2003	 0.199170177861392 
2004	 0.199431654391749 
2005	 0.199687952487429 
2006	 0.199931892916616 
2007	 0.200172846660998 
2008	 0.200396589665304 
2009	 0.200615628784795 
2010	 0.200845879656792 
2011	 0.201043832134521 
2012	 0.201229231289934 
2013	 0.201397164381264 
2014	 0.201539305196465 
2015	 0.201672981471233 
2016	 0.201802784652324 
2017	 0.201906224152868 
2018	 0.201988740344939 
2019	 0.20205505468479 
2020	 0.20211126338788 
2021	 0.202128311587504 
2022	 0.202122163436628 
2023	 0.202102775299674 
2024	 0.202061497602691 
2025	 0.202019669374128 
2026	 0.201947533444759 
2027	 0.201860782991697 
2028	 0.201752886696586 
2029	 0.201601190389827 
2030	 0.201466243138692 
2031	 0.201321259207083 
2032	 0.201188125780095 
2033	 0.201055166266473 
2034	 0.200929439852334 
2035	 0.200804766343813 
2036	 0.200685368367385 
2037	 0.200598611784523 
2038	 0.200519556476023 
2039	 0.200468385091849 
2040	 0.200447935241485 
2041	 0.200443238640006 
2042	 0.200451262783289 
2043	 0.200486869899645 
2044	 0.200549230575686 
2045	 0.200631850099826 
2046	 0.200752489539537 
2047	 0.200866310563021 
2048	 0.200995198636038 
2049	 0.201128109584886 
2050	 0.201261402245753 
2051	 0.201402024240634 
2052	 0.201558133299853 
2053	 0.201731664099556 
2054	 0.201912872430014 
2055	 0.202109160688007 
2056	 0.202305986891119 
2057	 0.202510812344243 
2058	 0.20272307615577 
2059	 0.202935187605552 
2060	 0.203159304738276 
2061	 0.203414966338746 
2062	 0.203644926583872 
2063	 0.203866974054862 
2064	 0.204093691219225 
2065	 0.204315893298778 
2066	 0.204517878110327 
2067	 0.204758258294415 
2068	 0.204995931732784 
2069	 0.205224610787811 
2070	 0.205463658853694 
2071	 0.205678707577283 
2072	 0.20587647613009 
2073	 0.20607407761843 
2074	 0.206259554865053 
2075	 0.206441597734552 
2076	 0.206620807389517 
2077	 0.206791077414376 
2078	 0.206950715288633 
2079	 0.207112000138834 
2080	 0.207269076998399 
2081	 0.2074214427208 
2082	 0.207572200580159 
2083	 0.207722195958171 
2084	 0.207852441842791 
2085	 0.207978673200821 
2086	 0.208094311984516 
2087	 0.208195982678891 
2088	 0.208293538270768 
2089	 0.208382387775636 
2090	 0.208470353936757 
2091	 0.208552178310194 
2092	 0.208631026692871 
2093	 0.208711270302835 
2094	 0.208780132980003 
2095	 0.208841126806142 
2096	 0.208895760051263 
2097	 0.208952348552082 
2098	 0.208984771626408 
2099	 0.208994095662397 
2100	 0.209007300534549 
2101	 0.209017967087462 
2102	 0.209015576547958 
2103	 0.209014620996376 
2104	 0.209027145255021 
2105	 0.209009475389302 
2106	 0.208971755765492 
2107	 0.208929862136976 
2108	 0.208886543899505 
2109	 0.208812927045737 
2110	 0.208727171621263 
2111	 0.208617680708079 
2112	 0.208460246311155 
2113	 0.208319010013413 
2114	 0.208168590637906 
2115	 0.208016986925259 
2116	 0.207862454573747 
2117	 0.207720099829774 
2118	 0.207562034988849 
2119	 0.207394177799569 
2120	 0.207230979076169 
2121	 0.207055338095517 
2122	 0.206903785293867 
2123	 0.206765603684433 
2124	 0.206622121499363 
2125	 0.206497526382563 
2126	 0.206351873979081 
2127	 0.206180922998778 
2128	 0.206035821339511 
2129	 0.205901946201775 
2130	 0.205761360724849 
2131	 0.205619426721812 
2132	 0.205494093644322 
2133	 0.205367292414554 
2134	 0.205249868875438 
2135	 0.20515071560925 
2136	 0.205076898453 
2137	 0.204989647408645 
2138	 0.204900083295601 
2139	 0.204819373925893 
2140	 0.204744128255557 
2141	 0.204666437772001 
2142	 0.204586970460207 
2143	 0.204520117681511 
2144	 0.20446472416025 
2145	 0.204403534210995 
2146	 0.204333423767135 
2147	 0.204292916456711 
2148	 0.204255231855927 
2149	 0.204232495986594 
2150	 0.204251401611963 
2151	 0.204255602838201 
2152	 0.204262474320769 
2153	 0.204263183749844 
2154	 0.204256065360179 
2155	 0.204260059962508 
2156	 0.204256503454717 
2157	 0.204251616384912 
2158	 0.204235956095009 
2159	 0.204215119181776 
2160	 0.204192363780725 
2161	 0.204161585067208 
2162	 0.204128813267759 
2163	 0.204094851206877 
2164	 0.20405796914896 
2165	 0.204013521956143 
2166	 0.203970209621314 
2167	 0.203921463840884 
2168	 0.203882852118782 
2169	 0.203833794309659 
2170	 0.203807311146968 
2171	 0.203802218222807 
2172	 0.203800948345823 
2173	 0.203818240761701 
2174	 0.203824024556028 
2175	 0.203849889257565 
2176	 0.203893443984689 
2177	 0.203950383140002 
2178	 0.20403411548281 
2179	 0.204108339932557 
2180	 0.204192395049107 
2181	 0.204264912457434 
2182	 0.204329588884845 
2183	 0.204405262368486 
2184	 0.204478217384257 
2185	 0.204567692145944 
2186	 0.20466756804845 
2187	 0.204774411075092 
2188	 0.204909135222582 
2189	 0.205012183800449 
2190	 0.205106375963429 
2191	 0.205201914363645 
2192	 0.205285353775272 
2193	 0.205361126605005 
2194	 0.205428838107714 
2195	 0.205502891081133 
2196	 0.205574089198208 
2197	 0.205639198470846 
2198	 0.205682443564017 
2199	 0.205759558412669 
2200	 0.205830306829879 
2201	 0.205896157413546 
2202	 0.205949131578394 
2203	 0.206014161187757 
2204	 0.206059342728661 
2205	 0.206073625715099 
2206	 0.206103706448383 
2207	 0.206146195849838 
2208	 0.206174511591005 
2209	 0.206200493938548 
2210	 0.206202407195349 
2211	 0.206194852476468 
2212	 0.206173668419318 
2213	 0.206121799612759 
2214	 0.206081254537954 
2215	 0.206035483445035 
2216	 0.20598947597832 
2217	 0.205967787315647 
2218	 0.205899614790261 
2219	 0.20581923776787 
2220	 0.205708147744387 
2221	 0.205553912908851 
2222	 0.205384124218252 
2223	 0.205206986422037 
2224	 0.205005722185274 
2225	 0.204752794564832 
2226	 0.204494550879359 
2227	 0.204183039455622 
2228	 0.203834184669889 
2229	 0.203428393037678 
2230	 0.202977370889981 
2231	 0.202477691338511 
2232	 0.20193917838788 
2233	 0.20131458962964 
2234	 0.200646846298262 
2235	 0.199886562146512 
2236	 0.199018655098339 
2237	 0.198117188537214 
2238	 0.197136759445141 
2239	 0.196126685338309 
2240	 0.195092311599453 
2241	 0.193954725703122 
2242	 0.192778062614204 
2243	 0.191490207280769 
2244	 0.190071093750518 
2245	 0.188621127244155 
2246	 0.187033503586333 
2247	 0.185482929605382 
2248	 0.183901094370282 
2249	 0.182313933381233 
2250	 0.180743460125875 
2251	 0.179172042700851 
2252	 0.177463557310901 
2253	 0.17577972915085 
2254	 0.174027434275351 
2255	 0.172239920345602 
2256	 0.170591398588557 
2257	 0.168949572956124 
2258	 0.167349687539273 
2259	 0.165844770402746 
2260	 0.164262743897713 
2261	 0.162641606269195 
2262	 0.161103857900346 
2263	 0.159528441505662 
2264	 0.158083307653945 
2265	 0.156782971497346 
2266	 0.155402402762911 
2267	 0.154070054253907 
2268	 0.152709497859447 
2269	 0.151278765999284 
2270	 0.149938509676155 
2271	 0.148627373951564 
2272	 0.147349133830177 
2273	 0.146138346177692 
2274	 0.1449139759305 
2275	 0.143757871031064 
2276	 0.14251930143824 
2277	 0.141238089889258 
2278	 0.139963932140316 
2279	 0.138600951508793 
2280	 0.137308843236788 
2281	 0.136081727802663 
2282	 0.134823921030019 
2283	 0.133596710131303 
2284	 0.132354052850227 
2285	 0.130979539565954 
2286	 0.129642887373693 
2287	 0.128218756793216 
2288	 0.126753296430829 
2289	 0.125442123376619 
2290	 0.12406473424395 
2291	 0.122724635792904 
2292	 0.121448182905783 
2293	 0.120080352080072 
2294	 0.118766783147811 
2295	 0.117508728138022 
2296	 0.116328912394662 
2297	 0.115360789874078 
2298	 0.114540018637601 
2299	 0.11387255384532 
2300	 0.113393609222396 
2301	 0.113048275760973 
2302	 0.112830693700498 
2303	 0.112812723336562 
2304	 0.112985763740387 
2305	 0.113311965866328 
2306	 0.113833102647276 
2307	 0.114502198642542 
2308	 0.115333785498281 
2309	 0.11633784671997 
2310	 0.117585158424171 
2311	 0.11884268308408 
2312	 0.120341510543522 
2313	 0.121711631813762 
2314	 0.123122788591106 
2315	 0.12444543850851 
2316	 0.125743627492861 
2317	 0.126914842194868 
2318	 0.128044976477191 
2319	 0.129004037289807 
2320	 0.129851545617778 
2321	 0.130534148335997 
2322	 0.131059315335081 
2323	 0.131434145469446 
2324	 0.131599001615923 
2325	 0.131692924386891 
2326	 0.131648531629851 
2327	 0.131491737798063 
2328	 0.131220924946255 
2329	 0.130848796207889 
2330	 0.130331608054036 
2331	 0.129729165249218 
2332	 0.129089223100378 
2333	 0.128304519160578 
2334	 0.127376384965337 
2335	 0.126429570599991 
2336	 0.125423243334276 
2337	 0.124357267682384 
2338	 0.12332665089411 
2339	 0.122278527942933 
2340	 0.121226865053697 
2341	 0.120275653437215 
2342	 0.119439752291582 
2343	 0.118750253865541 
2344	 0.118227652431205 
2345	 0.11787913807206 
2346	 0.117736576435469 
2347	 0.117851209578387 
2348	 0.118165951303389 
2349	 0.118731503600457 
2350	 0.119499539289449 
2351	 0.120373459014521 
2352	 0.121364074257135 
2353	 0.122419819633055 
2354	 0.123410731913152 
2355	 0.124352062676073 
2356	 0.12523366925533 
2357	 0.12593945379551 
2358	 0.126537938335372 
2359	 0.12701952100521 
2360	 0.127330392495753 
2361	 0.127555684513071 
2362	 0.127712765533457 
2363	 0.127788834549408 
2364	 0.127901475656174 
2365	 0.127938985046859 
2366	 0.127914951190102 
2367	 0.127957909327861 
2368	 0.127953488459713 
2369	 0.127927654794551 
2370	 0.127917320004042 
2371	 0.127929662368749 
2372	 0.127967063174382 
2373	 0.128016586880227 
2374	 0.128130251041178 
2375	 0.128178898059319 
2376	 0.128174602557821 
2377	 0.128283563773626 
2378	 0.128393345745476 
2379	 0.128459689873899 
2380	 0.128578608411906 
2381	 0.128686834959888 
2382	 0.128803963398887 
2383	 0.128926934358048 
2384	 0.129085351040075 
2385	 0.12929542666797 
2386	 0.129383644183041 
2387	 0.129416967189384 
2388	 0.12948468468869 
2389	 0.129479613872971 
2390	 0.129574553875828 
2391	 0.129748395897401 
2392	 0.129878136136998 
2393	 0.130048063373375 
2394	 0.130121330328522 
2395	 0.130141123218643 
2396	 0.1301804309822 
2397	 0.130148941442125 
2398	 0.130168175871714 
2399	 0.130229631838921 
2400	 0.130285869185692 
2401	 0.130335488009897 
2402	 0.130466275870817 
2403	 0.13057007002308 
2404	 0.130647778513562 
2405	 0.130672967189473 
2406	 0.130623002373285 
2407	 0.130653823898709 
2408	 0.130742893844361 
2409	 0.130784033216925 
2410	 0.130810679820318 
2411	 0.130801423063733 
2412	 0.130864441137619 
2413	 0.130920786464542 
2414	 0.13098545166076 
2415	 0.131140108352338 
2416	 0.131148851728095 
2417	 0.131088162571529 
2418	 0.131073369982516 
2419	 0.131069822676675 
2420	 0.13107754423427 
2421	 0.1311836033854 
2422	 0.13132400728728 
2423	 0.131336686341406 
2424	 0.131337869781434 
2425	 0.131303348108703 
2426	 0.131228722230378 
2427	 0.131218529284823 
2428	 0.131210284615507 
2429	 0.131236200954042 
2430	 0.131261612420639 
2431	 0.131232114080602 
2432	 0.131279420495952 
2433	 0.13122367571677 
2434	 0.13108764286617 
2435	 0.13106687490922 
2436	 0.130955246047073 
2437	 0.130833789177451 
2438	 0.130798276119236 
2439	 0.130692542327672 
2440	 0.130523759175076 
2441	 0.13040972953154 
2442	 0.130288993988008 
2443	 0.130079781681545 
2444	 0.129901116838027 
2445	 0.12973157833585 
2446	 0.129476769819032 
2447	 0.1292140697323 
2448	 0.128956425925204 
2449	 0.128615593836444 
2450	 0.128305078093148 
2451	 0.128082885847492 
2452	 0.127849701441482 
2453	 0.127576832047068 
2454	 0.127384475749465 
2455	 0.127263005666745 
2456	 0.127050525582097 
2457	 0.126754487102652 
2458	 0.12636416291869 
2459	 0.125969065024066 
2460	 0.125666941545768 
2461	 0.125504535216773 
2462	 0.12533874804701 
2463	 0.125085737829453 
2464	 0.124874986053064 
2465	 0.124604481294901 
2466	 0.124466533843148 
2467	 0.124379563708298 
2468	 0.124147143048489 
2469	 0.123982390731024 
2470	 0.123823193931647 
2471	 0.123715433987618 
2472	 0.12356184460417 
2473	 0.123431848344961 
2474	 0.123393219346371 
2475	 0.123129321956288 
2476	 0.12300717664929 
2477	 0.122942860644708 
2478	 0.122627436046313 
2479	 0.122475975674997 
2480	 0.122225104402485 
2481	 0.122215143595397 
2482	 0.122521815284794 
2483	 0.122689398964645 
2484	 0.12287901302687 
2485	 0.122840280662918 
2486	 0.12283671986641 
2487	 0.122936150521937 
2488	 0.123048856224953 
2489	 0.123219654914745 
2490	 0.123216780541423 
2491	 0.123220494984967 
2492	 0.123291028445337 
2493	 0.123325035083828 
2494	 0.123570344462165 
2495	 0.124000368141456 
2496	 0.124243894849982 
2497	 0.124370734897798 
2498	 0.124742736286543 
2499	 0.124890211039161 
2500	 0.124910898732471 
