Wavelength	spectrum00025.asd
350	 7.37767484779935E-02 
351	 6.92910217037032E-02 
352	 6.63893581140417E-02 
353	 6.55890717359858E-02 
354	 6.19739938952111E-02 
355	 5.97279406227455E-02 
356	 5.82348171218433E-02 
357	 5.61094275308469E-02 
358	 5.26153386757819E-02 
359	 5.15520572189434E-02 
360	 5.18636644768969E-02 
361	 5.04026545734729E-02 
362	 4.95567711342491E-02 
363	 4.86480796032876E-02 
364	 4.73414623932552E-02 
365	 4.60853160632036E-02 
366	 4.65777867104306E-02 
367	 4.64409891723698E-02 
368	 4.41074267041098E-02 
369	 4.38256452783315E-02 
370	 4.36759698443654E-02 
371	 4.33394071758205E-02 
372	 4.33536689574208E-02 
373	 4.31661197921492E-02 
374	 4.23776147482441E-02 
375	 4.13800447964392E-02 
376	 4.16385363084522E-02 
377	 4.06931762433408E-02 
378	 3.98792543115186E-02 
379	 4.04910198097069E-02 
380	 4.01905860974643E-02 
381	 3.95935896180909E-02 
382	 3.88892902908062E-02 
383	 3.80348933013513E-02 
384	 3.73484044185312E-02 
385	 3.75200045986337E-02 
386	 3.81174450977905E-02 
387	 3.69977330893312E-02 
388	 3.65136962768747E-02 
389	 3.62663994695095E-02 
390	 3.54753400743735E-02 
391	 3.48430248587883E-02 
392	 0.034296259580989 
393	 0.0339620046609 
394	 3.40192158692056E-02 
395	 3.37853666857455E-02 
396	 3.31581200656823E-02 
397	 3.25293473991234E-02 
398	 3.30325353956231E-02 
399	 3.25376939159364E-02 
400	 3.16362139709667E-02 
401	 3.13187181053409E-02 
402	 0.030515309932604 
403	 3.06023267685552E-02 
404	 3.10270399011818E-02 
405	 2.99842394389564E-02 
406	 2.97237778329851E-02 
407	 2.95200509208784E-02 
408	 2.89272388613477E-02 
409	 2.89548372505791E-02 
410	 2.84918673291969E-02 
411	 2.80323456752755E-02 
412	 2.82776281266849E-02 
413	 2.82742052462109E-02 
414	 2.77576211447182E-02 
415	 2.71637422454923E-02 
416	 2.74279091014674E-02 
417	 2.73836126919678E-02 
418	 2.73038043628551E-02 
419	 2.73817804753901E-02 
420	 2.69548990676392E-02 
421	 2.67954293208456E-02 
422	 2.69607158353643E-02 
423	 2.71721790800432E-02 
424	 2.71432076549436E-02 
425	 2.71150443692287E-02 
426	 2.71644659756145E-02 
427	 2.71315252894573E-02 
428	 2.70456245972569E-02 
429	 2.71191785978211E-02 
430	 2.74345450740463E-02 
431	 2.75452803340442E-02 
432	 2.79595228373427E-02 
433	 2.84238936721875E-02 
434	 2.83796418395763E-02 
435	 2.86986567043076E-02 
436	 2.90530812095619E-02 
437	 2.92685179857731E-02 
438	 2.96174543353498E-02 
439	 3.00920624397498E-02 
440	 3.05589896926737E-02 
441	 3.09116192389729E-02 
442	 3.13208959712209E-02 
443	 3.18737809792101E-02 
444	 3.24910945052856E-02 
445	 3.29887493578589E-02 
446	 3.36746101179489E-02 
447	 3.43599979784538E-02 
448	 3.49427052095168E-02 
449	 3.56783994279434E-02 
450	 3.65000711491788E-02 
451	 3.74139926963033E-02 
452	 3.84132075635486E-02 
453	 3.93000103470728E-02 
454	 4.02462289533871E-02 
455	 4.12929017998349E-02 
456	 4.23160248073715E-02 
457	 0.043530774261908 
458	 0.044863638309032 
459	 4.61973157353332E-02 
460	 4.74658525304745E-02 
461	 4.88965175184627E-02 
462	 5.04599248964457E-02 
463	 5.20030584454182E-02 
464	 0.0536823119171 
465	 5.54838120305859E-02 
466	 5.73251980425267E-02 
467	 5.90453859038799E-02 
468	 6.09837071480483E-02 
469	 6.30922545230755E-02 
470	 0.06525756577142 
471	 6.76242069022518E-02 
472	 6.99141948593611E-02 
473	 7.22154499142343E-02 
474	 7.48767304454164E-02 
475	 7.74803196437477E-02 
476	 8.01221667256912E-02 
477	 8.29159759293809E-02 
478	 8.58286126390831E-02 
479	 8.88149239251256E-02 
480	 9.18676865432559E-02 
481	 9.50133057117371E-02 
482	 9.83757520305041E-02 
483	 0.10177476141683 
484	 0.10520946609068 
485	 0.108895711088176 
486	 0.112719098180829 
487	 0.116474827852342 
488	 0.120091684988809 
489	 0.123951865966024 
490	 0.127943330564806 
491	 0.132038309256619 
492	 0.136248753672232 
493	 0.140481490489858 
494	 0.144724659373462 
495	 0.149015711195979 
496	 0.153450738269896 
497	 0.157832080282855 
498	 0.162193539476978 
499	 0.166620495237632 
500	 0.171101129543916 
501	 0.175587161066228 
502	 0.180084910193735 
503	 0.184651051684849 
504	 0.189270828670238 
505	 0.19384630254304 
506	 0.198344173392428 
507	 0.202913604992022 
508	 0.20745461516605 
509	 0.211963914822596 
510	 0.216471708785254 
511	 0.220962418080103 
512	 0.225438494647991 
513	 0.229897197272764 
514	 0.234342799990245 
515	 0.238689744266469 
516	 0.242981949428132 
517	 0.247272126324593 
518	 0.25149919773654 
519	 0.255673712477804 
520	 0.259812741956011 
521	 0.263926400523043 
522	 0.267924528841216 
523	 0.271914060665534 
524	 0.275931842753356 
525	 0.279827919808735 
526	 0.283679652820301 
527	 0.287499454277922 
528	 0.291276351413677 
529	 0.294981993512802 
530	 0.298597453521914 
531	 0.302176913919138 
532	 0.305838389315231 
533	 0.309390055670807 
534	 0.312875734850385 
535	 0.316344655139471 
536	 0.3197054959756 
537	 0.323074854380079 
538	 0.326436632496883 
539	 0.329711906057333 
540	 0.332965495397297 
541	 0.336143789271987 
542	 0.339222340249162 
543	 0.34223673248423 
544	 0.345258271623865 
545	 0.348239964597019 
546	 0.35111857778591 
547	 0.353944598912982 
548	 0.356775997718621 
549	 0.359591431829516 
550	 0.36230396773113 
551	 0.365037472064844 
552	 0.367751201242631 
553	 0.370411207487702 
554	 0.373075632890222 
555	 0.375690307756687 
556	 0.378295678614436 
557	 0.380955846269843 
558	 0.383582658066807 
559	 0.38610185700234 
560	 0.388516004750702 
561	 0.39093353410534 
562	 0.393241840389892 
563	 0.395539628948482 
564	 0.397902261670045 
565	 0.400084284398945 
566	 0.402271525487408 
567	 0.404540068434617 
568	 0.406861093416152 
569	 0.409089720246814 
570	 0.411287959383286 
571	 0.413523232510678 
572	 0.415792811481407 
573	 0.418103415948092 
574	 0.420373553451325 
575	 0.422529507647876 
576	 0.424764517027887 
577	 0.426867622849153 
578	 0.428806155317968 
579	 0.430776169070591 
580	 0.432784610562135 
581	 0.434782111112709 
582	 0.436752390813691 
583	 0.438826601461854 
584	 0.440974840116959 
585	 0.443136145966566 
586	 0.445239642649039 
587	 0.447289474863555 
588	 0.449372353374956 
589	 0.451497880129089 
590	 0.453532472044544 
591	 0.455572083508323 
592	 0.457552427218105 
593	 0.459380576554638 
594	 0.461061229381309 
595	 0.462740863958967 
596	 0.464440723236318 
597	 0.466066626576915 
598	 0.467691974980365 
599	 0.469361708146948 
600	 0.471083183760791 
601	 0.472776368857954 
602	 0.474497257555271 
603	 0.476181797931562 
604	 0.477749217986976 
605	 0.479386842609428 
606	 0.48107496776019 
607	 0.482745069314436 
608	 0.484292794167159 
609	 0.485766433965777 
610	 0.48722044640179 
611	 0.488711358283935 
612	 0.490295003495415 
613	 0.491770703713334 
614	 0.493142334077789 
615	 0.494549519598814 
616	 0.495971094739847 
617	 0.497339524267908 
618	 0.498650463423991 
619	 0.500032241640157 
620	 0.501358821817937 
621	 0.502665742108924 
622	 0.504017970835155 
623	 0.505352383120003 
624	 0.506647873170145 
625	 0.507910923720332 
626	 0.509174897346803 
627	 0.510438249211648 
628	 0.511692572272508 
629	 0.512932216128726 
630	 0.514164561953122 
631	 0.515346141431246 
632	 0.516527203719678 
633	 0.517766882046064 
634	 0.518875595752424 
635	 0.520028761365957 
636	 0.521260275953884 
637	 0.522386764841551 
638	 0.523537018063676 
639	 0.52467639490408 
640	 0.525764027377061 
641	 0.526872381649684 
642	 0.527954741466435 
643	 0.529039671741421 
644	 0.530189445561778 
645	 0.531304135207216 
646	 0.532358316404613 
647	 0.533373691581398 
648	 0.534434915536439 
649	 0.535439052980203 
650	 0.536413588311297 
651	 0.537420321648076 
652	 0.53849673009377 
653	 0.539490746122866 
654	 0.540437493731567 
655	 0.541509903024665 
656	 0.542530119752793 
657	 0.543486519525977 
658	 0.544412970536899 
659	 0.545374463827304 
660	 0.546390002893218 
661	 0.547410151572203 
662	 0.548367048179378 
663	 0.549264230170421 
664	 0.550201645628828 
665	 0.551189544707873 
666	 0.552140177307927 
667	 0.552986976038225 
668	 0.55382109846372 
669	 0.554750560419355 
670	 0.55587332834515 
671	 0.556827379307291 
672	 0.557641303455716 
673	 0.55852085656034 
674	 0.559464196181812 
675	 0.560348009602727 
676	 0.561167087584763 
677	 0.56206897425945 
678	 0.562960448713267 
679	 0.563826320550697 
680	 0.564689315632677 
681	 0.565645702237336 
682	 0.566507303886508 
683	 0.567278250046856 
684	 0.56807547501196 
685	 0.568959218664016 
686	 0.569804384492637 
687	 0.570620340154326 
688	 0.571636048870133 
689	 0.572452519523461 
690	 0.573136964401001 
691	 0.573873397556699 
692	 0.574780607576274 
693	 0.575611208216355 
694	 0.576360278694321 
695	 0.577178282456364 
696	 0.578102980904731 
697	 0.578908560912749 
698	 0.579578530709834 
699	 0.580474024258205 
700	 0.581254662266571 
701	 0.581938957690717 
702	 0.582654889519948 
703	 0.583536047533689 
704	 0.584336458454503 
705	 0.58503520819809 
706	 0.585766840130713 
707	 0.586442107713861 
708	 0.587182189496676 
709	 0.588008959184 
710	 0.588739794312046 
711	 0.589443801595921 
712	 0.590130334752648 
713	 0.590817322970731 
714	 0.591616388623692 
715	 0.592407493775601 
716	 0.593078378133726 
717	 0.593572622726658 
718	 0.594292823365659 
719	 0.595073349934268 
720	 0.595760017452484 
721	 0.596351871621176 
722	 0.597043920202498 
723	 0.597775541259713 
724	 0.598432120241303 
725	 0.599035595163 
726	 0.599652867660005 
727	 0.600286952666947 
728	 0.600897280596859 
729	 0.601515877846022 
730	 0.602131537361354 
731	 0.60274344765044 
732	 0.603377289367507 
733	 0.60399946473338 
734	 0.604584657929644 
735	 0.605134222199673 
736	 0.605734971064206 
737	 0.606277613350192 
738	 0.606802590472672 
739	 0.607434782541495 
740	 0.608096169943702 
741	 0.608682011221253 
742	 0.609191987053336 
743	 0.609784091358257 
744	 0.610318796135207 
745	 0.61085381603614 
746	 0.611441630072563 
747	 0.611938190121052 
748	 0.612421641846979 
749	 0.612959070414058 
750	 0.613585866142471 
751	 0.614169965221088 
752	 0.614701086636829 
753	 0.615210490347793 
754	 0.615761228452475 
755	 0.616302349744089 
756	 0.616806132757095 
757	 0.617289532964086 
758	 0.617894266014638 
759	 0.618356742145517 
760	 0.618732013097479 
761	 0.619213252613026 
762	 0.619796487512359 
763	 0.620340281373686 
764	 0.620818088143688 
765	 0.621334935532147 
766	 0.621805532538081 
767	 0.622260412073088 
768	 0.622725215575824 
769	 0.623158849990967 
770	 0.623620808929741 
771	 0.624074098363289 
772	 0.624481183814208 
773	 0.62497734831481 
774	 0.625549795735885 
775	 0.626066208039788 
776	 0.626347787295431 
777	 0.62674523737147 
778	 0.627229282481803 
779	 0.627713034708789 
780	 0.628115823112277 
781	 0.628510577401657 
782	 0.628915069043173 
783	 0.629317828990956 
784	 0.62965291862564 
785	 0.630061038031765 
786	 0.630508305150314 
787	 0.630884357923387 
788	 0.631346537916809 
789	 0.631782806854035 
790	 0.632163245119393 
791	 0.632578574151876 
792	 0.632851137903574 
793	 0.633184336867488 
794	 0.633689238108462 
795	 0.634069888085478 
796	 0.634395148582467 
797	 0.634757895352655 
798	 0.63521663087109 
799	 0.635584270498663 
800	 0.635981326175591 
801	 0.636371565837485 
802	 0.636618034342232 
803	 0.636935409553786 
804	 0.637339970068671 
805	 0.637782586952062 
806	 0.638164284110633 
807	 0.638517545311248 
808	 0.638874107201277 
809	 0.639236634576036 
810	 0.639509462735105 
811	 0.639841017587356 
812	 0.640207016116043 
813	 0.640526681381906 
814	 0.640892301739058 
815	 0.641254613321298 
816	 0.641598806579831 
817	 0.641945647293423 
818	 0.64227230477736 
819	 0.642595513834007 
820	 0.642913961721198 
821	 0.643185663350532 
822	 0.643595229767006 
823	 0.644004989464272 
824	 0.644288715565565 
825	 0.644642522322165 
826	 0.644971772802681 
827	 0.645241394891 
828	 0.645468753000294 
829	 0.645789602943672 
830	 0.646122386175764 
831	 0.646422832361828 
832	 0.646697961155457 
833	 0.646987220660849 
834	 0.647332833323357 
835	 0.647700739720966 
836	 0.647948025347065 
837	 0.648241605606123 
838	 0.648540483786714 
839	 0.648814179098239 
840	 0.649223803986583 
841	 0.649562090281645 
842	 0.649826290148702 
843	 0.650099256326119 
844	 0.650420275204749 
845	 0.650708967821251 
846	 0.65098257331577 
847	 0.651315556660644 
848	 0.651582691117105 
849	 0.6518011592005 
850	 0.652037012697261 
851	 0.652381447303862 
852	 0.652631665305441 
853	 0.652843236036642 
854	 0.653104523611765 
855	 0.653456095775692 
856	 0.653749879117147 
857	 0.65402889931519 
858	 0.654337270622281 
859	 0.65447261485056 
860	 0.654709329639703 
861	 0.655018707334197 
862	 0.655241846132428 
863	 0.655506539807856 
864	 0.655739971841961 
865	 0.65594148642333 
866	 0.656179301284682 
867	 0.656444529840687 
868	 0.656712571910886 
869	 0.65694965018841 
870	 0.65712045822975 
871	 0.657375752027205 
872	 0.657629630650731 
873	 0.657834648806344 
874	 0.658155584281158 
875	 0.658362692540613 
876	 0.658506750768663 
877	 0.658709453542458 
878	 0.659001401788801 
879	 0.659249584224933 
880	 0.659435983179988 
881	 0.659604552169786 
882	 0.659767844522373 
883	 0.659960198300996 
884	 0.660147806224183 
885	 0.660263497142607 
886	 0.660409727100988 
887	 0.660618068840438 
888	 0.66083812588221 
889	 0.660950130616632 
890	 0.661080930327252 
891	 0.661171551382076 
892	 0.661237805836354 
893	 0.66146908523103 
894	 0.661769519140559 
895	 0.661984252425908 
896	 0.662043976005909 
897	 0.662128522084353 
898	 0.66219685217966 
899	 0.662302513261038 
900	 0.662471984056889 
901	 0.662526825026454 
902	 0.66262180808557 
903	 0.662791774072291 
904	 0.662985409284972 
905	 0.663082712685762 
906	 0.663157945791041 
907	 0.663250644362216 
908	 0.663371715675123 
909	 0.663585348864731 
910	 0.663840418992477 
911	 0.664111769085992 
912	 0.664404983111691 
913	 0.664604776431962 
914	 0.664785809960736 
915	 0.664974253362371 
916	 0.665094418491417 
917	 0.665237104888047 
918	 0.665418426644117 
919	 0.665625321072453 
920	 0.665822830344005 
921	 0.66607561492722 
922	 0.666350823424005 
923	 0.666615585214005 
924	 0.666902738562496 
925	 0.667240996622048 
926	 0.667540078214698 
927	 0.66774428723682 
928	 0.668043896811743 
929	 0.668340654182379 
930	 0.668593073684396 
931	 0.668816925375759 
932	 0.669149210209011 
933	 0.669505141594419 
934	 0.669858730707778 
935	 0.670199876146732 
936	 0.670403045218875 
937	 0.670568374661854 
938	 0.670752903068972 
939	 0.670971931396484 
940	 0.671255974119238 
941	 0.671576154791883 
942	 0.671864629902116 
943	 0.672044569687794 
944	 0.672163391641254 
945	 0.672386132364259 
946	 0.672725309467329 
947	 0.673014595010222 
948	 0.673090547930871 
949	 0.673248681317579 
950	 0.673571450574345 
951	 0.673794312252987 
952	 0.67393383798206 
953	 0.674033529515619 
954	 0.674111821512273 
955	 0.674137133904351 
956	 0.674133876230048 
957	 0.674220684060085 
958	 0.674411005717582 
959	 0.674517669193702 
960	 0.674495502024894 
961	 0.674493155403026 
962	 0.674610898653388 
963	 0.674752893179422 
964	 0.674830997569548 
965	 0.674915597493339 
966	 0.675063241207329 
967	 0.675196578231487 
968	 0.675299864127392 
969	 0.675361601110976 
970	 0.675390835539511 
971	 0.675433771821578 
972	 0.67544536790353 
973	 0.675485552976664 
974	 0.67562184568441 
975	 0.675868783005215 
976	 0.675933362025013 
977	 0.675991136091639 
978	 0.676231764135332 
979	 0.676392030914454 
980	 0.676517444116385 
981	 0.676609242728797 
982	 0.676683284987972 
983	 0.676824635672353 
984	 0.676970051874167 
985	 0.677069191449682 
986	 0.677136557008677 
987	 0.677363984115774 
988	 0.677670313260242 
989	 0.677930044393571 
990	 0.678046860819717 
991	 0.678063507703078 
992	 0.678146804878327 
993	 0.678328541552492 
994	 0.678570287320043 
995	 0.67883374761947 
996	 0.678958752096262 
997	 0.67900186301499 
998	 0.67910378811902 
999	 0.679378530462849 
1000	 0.67957136814731 
1001	 0.682536528794341 
1002	 0.682657419287843 
1003	 0.682799877481505 
1004	 0.682960814901021 
1005	 0.683160427800718 
1006	 0.683320862067028 
1007	 0.683454721582923 
1008	 0.683633199790163 
1009	 0.683814815731381 
1010	 0.683997789648932 
1011	 0.684231911774162 
1012	 0.684431332748258 
1013	 0.684586111955066 
1014	 0.684773863300161 
1015	 0.684992881003879 
1016	 0.685176112419474 
1017	 0.685336610231272 
1018	 0.685534587773139 
1019	 0.68574073941425 
1020	 0.685918054428713 
1021	 0.6860854128787 
1022	 0.68624861450864 
1023	 0.686428021996684 
1024	 0.6865889090123 
1025	 0.686762614191497 
1026	 0.686980142206483 
1027	 0.687160321825611 
1028	 0.687312456937489 
1029	 0.687466387299222 
1030	 0.687639059973683 
1031	 0.687788503401154 
1032	 0.687971614294453 
1033	 0.68817814284925 
1034	 0.688332837942642 
1035	 0.688490851792706 
1036	 0.688665916709276 
1037	 0.688834625780552 
1038	 0.688989984945656 
1039	 0.689159524329629 
1040	 0.689322753984454 
1041	 0.689449883733488 
1042	 0.689616235731628 
1043	 0.68979913785894 
1044	 0.690010755862627 
1045	 0.690242555062068 
1046	 0.690424244138461 
1047	 0.690584146834767 
1048	 0.690792303630561 
1049	 0.690989422846005 
1050	 0.691180791702428 
1051	 0.691395562172967 
1052	 0.691588979626873 
1053	 0.691806065419944 
1054	 0.692039535040403 
1055	 0.692250791525584 
1056	 0.692458366049532 
1057	 0.692690389346239 
1058	 0.692917967191555 
1059	 0.693133413625734 
1060	 0.693396764897986 
1061	 0.69364707494661 
1062	 0.693833655761393 
1063	 0.69402758311243 
1064	 0.694210235984133 
1065	 0.694401256003047 
1066	 0.694629078293451 
1067	 0.694857921283694 
1068	 0.695078263283495 
1069	 0.695280806898872 
1070	 0.695496033843465 
1071	 0.695710765835393 
1072	 0.695899561173153 
1073	 0.696103882464312 
1074	 0.696366200826765 
1075	 0.696567142765995 
1076	 0.696759575134005 
1077	 0.696989099133526 
1078	 0.697163908733476 
1079	 0.69737087435199 
1080	 0.697616815281405 
1081	 0.697831430152692 
1082	 0.698051612385051 
1083	 0.698254208798225 
1084	 0.698456150896731 
1085	 0.69865193620208 
1086	 0.698819350494481 
1087	 0.698965841096113 
1088	 0.699110809041401 
1089	 0.699231442961615 
1090	 0.699336633391996 
1091	 0.699490589945028 
1092	 0.69963417245869 
1093	 0.699754716503751 
1094	 0.699906282215207 
1095	 0.700021927908659 
1096	 0.700137030749436 
1097	 0.700281520599303 
1098	 0.700410222187778 
1099	 0.700536865270433 
1100	 0.700629961245201 
1101	 0.700709869806637 
1102	 0.700782101235664 
1103	 0.700844954859 
1104	 0.7008910255622 
1105	 0.700959678610986 
1106	 0.701029662030055 
1107	 0.701091765948685 
1108	 0.701162953373769 
1109	 0.701228368203254 
1110	 0.701249165476198 
1111	 0.701259515519669 
1112	 0.701264454350684 
1113	 0.701232516518156 
1114	 0.701209266972968 
1115	 0.701194272520757 
1116	 0.701156401997504 
1117	 0.701111953280232 
1118	 0.701052919967846 
1119	 0.70096491640777 
1120	 0.700885057389018 
1121	 0.700807696435108 
1122	 0.700721416977132 
1123	 0.70059017112713 
1124	 0.700459758970439 
1125	 0.700293796942371 
1126	 0.700089678781597 
1127	 0.699870445506714 
1128	 0.699603448979199 
1129	 0.699291566447709 
1130	 0.698952539285092 
1131	 0.69860968594512 
1132	 0.698241092441292 
1133	 0.697820626238489 
1134	 0.697386084909956 
1135	 0.696917125583411 
1136	 0.696382782084117 
1137	 0.695876514929952 
1138	 0.695382089180488 
1139	 0.694829323051025 
1140	 0.694238456090005 
1141	 0.693684843777679 
1142	 0.693068871490147 
1143	 0.692466757258853 
1144	 0.691893542715667 
1145	 0.691286342864269 
1146	 0.690700194874314 
1147	 0.690095004751579 
1148	 0.689491154668045 
1149	 0.688914575639923 
1150	 0.688292283555638 
1151	 0.687693564017157 
1152	 0.68706703832596 
1153	 0.686426079081267 
1154	 0.685751784381491 
1155	 0.685067786471472 
1156	 0.684336086992768 
1157	 0.683564960512919 
1158	 0.682804614260697 
1159	 0.682015628472802 
1160	 0.68122077126476 
1161	 0.68044806509603 
1162	 0.679594934051716 
1163	 0.678764148333744 
1164	 0.677913733982326 
1165	 0.677033021684643 
1166	 0.676190782343097 
1167	 0.675290081462057 
1168	 0.674423690584895 
1169	 0.673553754422133 
1170	 0.672676782617453 
1171	 0.671802630974805 
1172	 0.670952438829555 
1173	 0.670058048346533 
1174	 0.669121170415987 
1175	 0.668251562871486 
1176	 0.667377546323551 
1177	 0.666537387983505 
1178	 0.66575621623376 
1179	 0.664952039510004 
1180	 0.664177351940132 
1181	 0.663414714297818 
1182	 0.662675209252963 
1183	 0.662041265791764 
1184	 0.661463746580435 
1185	 0.6609480733357 
1186	 0.660532329251403 
1187	 0.660214049896442 
1188	 0.659956115054476 
1189	 0.659786825751389 
1190	 0.659655269045259 
1191	 0.659592937295072 
1192	 0.659581940777657 
1193	 0.659623080903563 
1194	 0.659710738982489 
1195	 0.659878237063865 
1196	 0.660045337356121 
1197	 0.660231356119685 
1198	 0.660472955423022 
1199	 0.660719190382131 
1200	 0.660978314464351 
1201	 0.661269160624804 
1202	 0.661562291108619 
1203	 0.661887636033528 
1204	 0.662270753517305 
1205	 0.662679593278182 
1206	 0.663125007590921 
1207	 0.663611390861671 
1208	 0.664107887592373 
1209	 0.664692964741741 
1210	 0.665311532539776 
1211	 0.666034062454354 
1212	 0.666868893071523 
1213	 0.667732977561895 
1214	 0.668684083275141 
1215	 0.669658176862177 
1216	 0.670687674555585 
1217	 0.67171229557188 
1218	 0.672768068152934 
1219	 0.673839948855049 
1220	 0.674921310145255 
1221	 0.676047953882669 
1222	 0.677128367342797 
1223	 0.678239665193126 
1224	 0.67929620248593 
1225	 0.680317776723152 
1226	 0.681292372657752 
1227	 0.682256674601127 
1228	 0.683151130154122 
1229	 0.683986996624991 
1230	 0.684794179510069 
1231	 0.685554790114571 
1232	 0.686282192399649 
1233	 0.686969295312422 
1234	 0.687611797293487 
1235	 0.688208736560188 
1236	 0.688781648344153 
1237	 0.689313938524288 
1238	 0.6898190130459 
1239	 0.690277802685863 
1240	 0.690738001463772 
1241	 0.691196203272475 
1242	 0.69161288872465 
1243	 0.692022846813625 
1244	 0.692430083098521 
1245	 0.692814440903947 
1246	 0.693171099221147 
1247	 0.693520518149945 
1248	 0.693870428816338 
1249	 0.694189545517857 
1250	 0.694487984800455 
1251	 0.694755042996894 
1252	 0.694988282359873 
1253	 0.69522329517025 
1254	 0.695430540117578 
1255	 0.695638355936022 
1256	 0.695842312563753 
1257	 0.696043904890532 
1258	 0.696252408325499 
1259	 0.696428931133546 
1260	 0.696591655515876 
1261	 0.696746192039497 
1262	 0.696884855120097 
1263	 0.696984811122184 
1264	 0.69710370829472 
1265	 0.697224980501297 
1266	 0.697338070944096 
1267	 0.697443289543768 
1268	 0.697549829757935 
1269	 0.697647048961543 
1270	 0.697759864965216 
1271	 0.697881974353355 
1272	 0.697993823646029 
1273	 0.698109895940015 
1274	 0.698225195871227 
1275	 0.698331061035111 
1276	 0.698441047665835 
1277	 0.698553411561744 
1278	 0.698670606659901 
1279	 0.698772185935231 
1280	 0.698902793685948 
1281	 0.699053173091198 
1282	 0.699210246976109 
1283	 0.699396296607331 
1284	 0.699569876031019 
1285	 0.699742002121673 
1286	 0.699915312643097 
1287	 0.700084844577854 
1288	 0.70025317202943 
1289	 0.700409541069666 
1290	 0.700558747101595 
1291	 0.700711108162161 
1292	 0.700853742279297 
1293	 0.701000557052782 
1294	 0.701153950772088 
1295	 0.701300789301341 
1296	 0.701455226396889 
1297	 0.701580749617917 
1298	 0.701695914990577 
1299	 0.701799437866341 
1300	 0.701879684385622 
1301	 0.701954914592435 
1302	 0.702030138385979 
1303	 0.702086720952946 
1304	 0.702142407085477 
1305	 0.702160467993725 
1306	 0.702136970512643 
1307	 0.702123187614174 
1308	 0.702093064987832 
1309	 0.702050020810846 
1310	 0.70200622927232 
1311	 0.701972219702891 
1312	 0.701917430745179 
1313	 0.701846722982519 
1314	 0.701766475051449 
1315	 0.70169880428981 
1316	 0.701571817281087 
1317	 0.701407584196556 
1318	 0.701236520680517 
1319	 0.701015108138812 
1320	 0.700825492203675 
1321	 0.700653610301607 
1322	 0.700453182316702 
1323	 0.700266225876253 
1324	 0.700033172111609 
1325	 0.699761280450157 
1326	 0.699483113815213 
1327	 0.699204789226596 
1328	 0.698873131432028 
1329	 0.698516419442805 
1330	 0.698129347584777 
1331	 0.697687647466752 
1332	 0.697235150983932 
1333	 0.696789271340203 
1334	 0.696283081007682 
1335	 0.695751057773747 
1336	 0.69519639692937 
1337	 0.694587359253811 
1338	 0.693930209883784 
1339	 0.693257989847224 
1340	 0.692553485993058 
1341	 0.691816999061945 
1342	 0.691066392085601 
1343	 0.690253807478077 
1344	 0.689407789371465 
1345	 0.688494420950103 
1346	 0.687500130121976 
1347	 0.686523259436463 
1348	 0.685501850802998 
1349	 0.68447906913701 
1350	 0.683434583463842 
1351	 0.682411643055594 
1352	 0.68136583049878 
1353	 0.680344261586984 
1354	 0.679350457541276 
1355	 0.678363842147998 
1356	 0.677385055241325 
1357	 0.676408022286116 
1358	 0.675444833609213 
1359	 0.674479688766573 
1360	 0.673531890839624 
1361	 0.672556211188331 
1362	 0.671556911330729 
1363	 0.670592580330739 
1364	 0.669576790956997 
1365	 0.668548778568526 
1366	 0.667465297051745 
1367	 0.666345252322238 
1368	 0.665212264042035 
1369	 0.664043888474194 
1370	 0.662849688139489 
1371	 0.661640546413609 
1372	 0.660415807677102 
1373	 0.659157696000945 
1374	 0.657877661771665 
1375	 0.656567592035372 
1376	 0.655262709179591 
1377	 0.653938651088888 
1378	 0.652580887904654 
1379	 0.651231543972257 
1380	 0.649831756725512 
1381	 0.648390241239935 
1382	 0.64690667223433 
1383	 0.645373838528936 
1384	 0.643838927911729 
1385	 0.642272253390373 
1386	 0.640693245143111 
1387	 0.639092187323026 
1388	 0.637523711924361 
1389	 0.635959048040107 
1390	 0.634380599303625 
1391	 0.632862496439819 
1392	 0.631248386545351 
1393	 0.62967243122559 
1394	 0.628006654303659 
1395	 0.626269079600303 
1396	 0.624511284832436 
1397	 0.622627146877202 
1398	 0.620660748250237 
1399	 0.618562149866422 
1400	 0.616363563795235 
1401	 0.614053187131473 
1402	 0.611606133429623 
1403	 0.609083835887348 
1404	 0.60644226006805 
1405	 0.603808851797534 
1406	 0.601072541670627 
1407	 0.598367843904353 
1408	 0.595601148788774 
1409	 0.592932629959163 
1410	 0.590227616811777 
1411	 0.587672039877503 
1412	 0.585194078292633 
1413	 0.582858725274097 
1414	 0.580633939615309 
1415	 0.578505379962609 
1416	 0.576493839925202 
1417	 0.574574043960132 
1418	 0.572781158731165 
1419	 0.571019524540701 
1420	 0.569330991624238 
1421	 0.567733046983829 
1422	 0.566168251299299 
1423	 0.564708877794913 
1424	 0.563393627609841 
1425	 0.562083552835899 
1426	 0.560888135570297 
1427	 0.55976539606026 
1428	 0.558688822049355 
1429	 0.557767171329893 
1430	 0.556892855262458 
1431	 0.556100493706061 
1432	 0.555368939510767 
1433	 0.554711594278907 
1434	 0.554128616277105 
1435	 0.553614300113139 
1436	 0.553164721283567 
1437	 0.552803132158187 
1438	 0.552485013878689 
1439	 0.552221153670888 
1440	 0.552014577761999 
1441	 0.551876679062009 
1442	 0.55177277527392 
1443	 0.551714504178292 
1444	 0.551709574484136 
1445	 0.551760809729507 
1446	 0.551843118466136 
1447	 0.551984308916243 
1448	 0.552140250461208 
1449	 0.552332152474119 
1450	 0.552538643704682 
1451	 0.552778598345462 
1452	 0.553023036364431 
1453	 0.553285870646863 
1454	 0.553552281595869 
1455	 0.553837455321485 
1456	 0.554114897820712 
1457	 0.554388422168853 
1458	 0.554675239999483 
1459	 0.554969244476141 
1460	 0.555261986127252 
1461	 0.555548103589376 
1462	 0.555860117038625 
1463	 0.556166026908738 
1464	 0.556507260193545 
1465	 0.556875758060835 
1466	 0.557288185495497 
1467	 0.557686787000718 
1468	 0.558096928769009 
1469	 0.558536533159254 
1470	 0.558964047405302 
1471	 0.559412457367244 
1472	 0.559888624572311 
1473	 0.560348819416298 
1474	 0.56081669923705 
1475	 0.561258333424117 
1476	 0.561693601168599 
1477	 0.562121157734293 
1478	 0.562529490327639 
1479	 0.562931098714862 
1480	 0.563332828928615 
1481	 0.563717099092848 
1482	 0.564077791835085 
1483	 0.564448005037746 
1484	 0.564820749728175 
1485	 0.565176581661948 
1486	 0.565524691773225 
1487	 0.565864645070863 
1488	 0.566181325208145 
1489	 0.566516716122876 
1490	 0.566852286523409 
1491	 0.5671969107427 
1492	 0.567544605343131 
1493	 0.567910691861745 
1494	 0.568292972329415 
1495	 0.568670635422788 
1496	 0.56905924180133 
1497	 0.569449503908869 
1498	 0.569836100252963 
1499	 0.570231615014654 
1500	 0.570623157823823 
1501	 0.571045052836073 
1502	 0.571487007140969 
1503	 0.571929053525074 
1504	 0.572401832665425 
1505	 0.572862254417483 
1506	 0.573320406054194 
1507	 0.573770702233625 
1508	 0.574207552598909 
1509	 0.574662147755847 
1510	 0.575133515670006 
1511	 0.575578176234121 
1512	 0.5760253988927 
1513	 0.576461861874422 
1514	 0.5768786738125 
1515	 0.577281575701033 
1516	 0.577672879287699 
1517	 0.578064974604767 
1518	 0.57844426806955 
1519	 0.578810274361148 
1520	 0.579171317917114 
1521	 0.579532654016033 
1522	 0.579855522239526 
1523	 0.580211933086153 
1524	 0.580567533166589 
1525	 0.580933411873474 
1526	 0.581298192220011 
1527	 0.581676518593378 
1528	 0.582025190029285 
1529	 0.582364667422624 
1530	 0.582702537970013 
1531	 0.583018660790586 
1532	 0.58335769944895 
1533	 0.583712507382798 
1534	 0.584047669885344 
1535	 0.584385137180334 
1536	 0.58470336849562 
1537	 0.585005209602321 
1538	 0.585306610544585 
1539	 0.585605850768941 
1540	 0.58588344491576 
1541	 0.586154796232208 
1542	 0.5864013955029 
1543	 0.586630039064979 
1544	 0.586833384838437 
1545	 0.587015921164906 
1546	 0.587179461592205 
1547	 0.587306613052566 
1548	 0.587446749809807 
1549	 0.587580134191773 
1550	 0.587704345107435 
1551	 0.587844037908773 
1552	 0.587929809422372 
1553	 0.58797788397769 
1554	 0.588027941629916 
1555	 0.588032369167378 
1556	 0.588073305398655 
1557	 0.588127254243732 
1558	 0.588182663807844 
1559	 0.588238740999961 
1560	 0.588315889151205 
1561	 0.588403359087605 
1562	 0.588501641933824 
1563	 0.588615697133062 
1564	 0.588742996362586 
1565	 0.5888784523444 
1566	 0.589028658592235 
1567	 0.589204735306778 
1568	 0.589375600864808 
1569	 0.589553488581356 
1570	 0.589732759860604 
1571	 0.589919607530179 
1572	 0.590099304795972 
1573	 0.590278912885772 
1574	 0.590456766080666 
1575	 0.59063161349903 
1576	 0.590803410684824 
1577	 0.590982062727466 
1578	 0.591142607327596 
1579	 0.591278175100105 
1580	 0.591435562248961 
1581	 0.591594003864167 
1582	 0.591753170890511 
1583	 0.591931321340107 
1584	 0.592096544884929 
1585	 0.5922525603973 
1586	 0.592406227866074 
1587	 0.59255862416156 
1588	 0.592705177942592 
1589	 0.592832779458305 
1590	 0.592980769123053 
1591	 0.593143762193827 
1592	 0.593295505126703 
1593	 0.593461110895459 
1594	 0.593607776956285 
1595	 0.593734631957665 
1596	 0.593862212519024 
1597	 0.59399094483531 
1598	 0.594104324696482 
1599	 0.594200258773625 
1600	 0.594302031464254 
1601	 0.594396828551448 
1602	 0.594488905219667 
1603	 0.594592680703045 
1604	 0.594677771099299 
1605	 0.594749005631944 
1606	 0.594813076628006 
1607	 0.594875734043576 
1608	 0.594912252212697 
1609	 0.594930082289416 
1610	 0.594938966897478 
1611	 0.594915322547159 
1612	 0.594902263025813 
1613	 0.594901685057554 
1614	 0.594875491755322 
1615	 0.594831933064189 
1616	 0.594791415946383 
1617	 0.594751411144478 
1618	 0.594680191148171 
1619	 0.594589086825007 
1620	 0.594503165065889 
1621	 0.594409185832172 
1622	 0.594284386647543 
1623	 0.59416791852005 
1624	 0.59400864805631 
1625	 0.593773858242868 
1626	 0.593570523436741 
1627	 0.593362923161873 
1628	 0.593159878353718 
1629	 0.592969103233824 
1630	 0.592772869058923 
1631	 0.592562231832137 
1632	 0.59236796067591 
1633	 0.592177779077442 
1634	 0.592003584124685 
1635	 0.5918574956311 
1636	 0.591695387734512 
1637	 0.591541106957657 
1638	 0.591372485149413 
1639	 0.591194851366854 
1640	 0.591003593898515 
1641	 0.590829800876028 
1642	 0.590593274374768 
1643	 0.590307087542383 
1644	 0.590018200104456 
1645	 0.589700032712346 
1646	 0.589355253924709 
1647	 0.589018255753875 
1648	 0.58861713699109 
1649	 0.588181001947805 
1650	 0.587672097036994 
1651	 0.587096593662775 
1652	 0.586491669893016 
1653	 0.58584844774575 
1654	 0.585120089828244 
1655	 0.584349490321738 
1656	 0.583489479184572 
1657	 0.582559316182838 
1658	 0.58151030189269 
1659	 0.580382079588182 
1660	 0.579147415617081 
1661	 0.577800193290336 
1662	 0.576337848137877 
1663	 0.574792390392158 
1664	 0.573076316979744 
1665	 0.571244283921613 
1666	 0.569199402435316 
1667	 0.566983356271509 
1668	 0.564623923008848 
1669	 0.562079245488384 
1670	 0.559379997878976 
1671	 0.556473839204789 
1672	 0.553487771956327 
1673	 0.550335051356805 
1674	 0.547109903179536 
1675	 0.54378785245447 
1676	 0.540461116716823 
1677	 0.537017200956 
1678	 0.533602858294776 
1679	 0.530131017562447 
1680	 0.526712629762096 
1681	 0.523292335916333 
1682	 0.519903361435628 
1683	 0.516541730091208 
1684	 0.513304059050384 
1685	 0.510108073163856 
1686	 0.506978534219124 
1687	 0.503907641942758 
1688	 0.50095001400417 
1689	 0.498041616086464 
1690	 0.49526105378789 
1691	 0.492633740206549 
1692	 0.490144970727999 
1693	 0.487755480002855 
1694	 0.485485951776559 
1695	 0.483378747098331 
1696	 0.481311995464264 
1697	 0.479353515510217 
1698	 0.477400814298353 
1699	 0.475540125817544 
1700	 0.473725150661734 
1701	 0.471919436221603 
1702	 0.470203285729987 
1703	 0.468550369323921 
1704	 0.466965521007618 
1705	 0.465427565510884 
1706	 0.463959520042752 
1707	 0.462692470180547 
1708	 0.461473320596485 
1709	 0.460314852843827 
1710	 0.459240421186247 
1711	 0.458128300660999 
1712	 0.457071284847824 
1713	 0.456052711526474 
1714	 0.455043501149423 
1715	 0.454108751218017 
1716	 0.453155669518485 
1717	 0.452229320988108 
1718	 0.451338774234169 
1719	 0.450463807226082 
1720	 0.449698455250628 
1721	 0.449016372497839 
1722	 0.448423133752898 
1723	 0.448014998181634 
1724	 0.447766357890645 
1725	 0.447649652547868 
1726	 0.447752067610621 
1727	 0.448057691726226 
1728	 0.448508789099173 
1729	 0.44917256546733 
1730	 0.450038097393978 
1731	 0.450953306835453 
1732	 0.451984796452986 
1733	 0.453071301600942 
1734	 0.454180156834776 
1735	 0.455341812295561 
1736	 0.456428574473393 
1737	 0.457458414837401 
1738	 0.458337615824927 
1739	 0.459138821474476 
1740	 0.459870478699848 
1741	 0.460503969522088 
1742	 0.461048607250545 
1743	 0.461509698922539 
1744	 0.46183074910321 
1745	 0.462166638505332 
1746	 0.462401937262441 
1747	 0.462701362353269 
1748	 0.462998881173469 
1749	 0.463335193116298 
1750	 0.463688850717015 
1751	 0.464107987570154 
1752	 0.464566261974473 
1753	 0.465101955214293 
1754	 0.4656772580241 
1755	 0.466348815181324 
1756	 0.467082501857284 
1757	 0.467902138342547 
1758	 0.468878758458331 
1759	 0.469894679055244 
1760	 0.471061801976209 
1761	 0.472419864316577 
1762	 0.47381727086598 
1763	 0.475401273841133 
1764	 0.477066697183418 
1765	 0.478741013205108 
1766	 0.480550727730291 
1767	 0.482304891884651 
1768	 0.484070157699449 
1769	 0.485845720860038 
1770	 0.487471195360698 
1771	 0.489122172440705 
1772	 0.490705633823185 
1773	 0.49214657100822 
1774	 0.493586516632069 
1775	 0.49488253406465 
1776	 0.496076951323322 
1777	 0.497186027551848 
1778	 0.498112854850578 
1779	 0.498997734658359 
1780	 0.499789864224298 
1781	 0.500499830508233 
1782	 0.501217699185666 
1783	 0.501788035173145 
1784	 0.502261537019802 
1785	 0.502655332376476 
1786	 0.503016171763581 
1787	 0.503321403086005 
1788	 0.503613184265928 
1789	 0.50385995068618 
1790	 0.504100664010893 
1791	 0.504330154498119 
1792	 0.504547784832978 
1793	 0.504720167855165 
1794	 0.504926735430205 
1795	 0.505118757637665 
1796	 0.505313577621005 
1797	 0.505527287960777 
1798	 0.505712098774281 
1799	 0.505899051558345 
1800	 0.506091132792501 
1801	 0.509825364805272 
1802	 0.510024355270272 
1803	 0.510235115362205 
1804	 0.510461521235662 
1805	 0.510702408854985 
1806	 0.510910995980092 
1807	 0.511101575324423 
1808	 0.51131458306545 
1809	 0.511518402101963 
1810	 0.511728155583773 
1811	 0.51196135953472 
1812	 0.512181213059332 
1813	 0.512375481984056 
1814	 0.512596051687777 
1815	 0.512829482550265 
1816	 0.513096543803594 
1817	 0.513370075093216 
1818	 0.513677453580616 
1819	 0.513965794115032 
1820	 0.514259407457026 
1821	 0.514546838000564 
1822	 0.5148221119007 
1823	 0.515121031019101 
1824	 0.515405121776056 
1825	 0.515688560483035 
1826	 0.515985415874927 
1827	 0.516289191954391 
1828	 0.516587824795633 
1829	 0.516878710302906 
1830	 0.517199567370505 
1831	 0.517537497814999 
1832	 0.517870178500253 
1833	 0.518205973198581 
1834	 0.518564439523371 
1835	 0.518882521913178 
1836	 0.519180334887698 
1837	 0.519505316044996 
1838	 0.519845190505539 
1839	 0.520165199465885 
1840	 0.520506910142984 
1841	 0.520818426651601 
1842	 0.521112294965933 
1843	 0.521381650188302 
1844	 0.521663585951334 
1845	 0.521909768243515 
1846	 0.522135438518756 
1847	 0.522349602510024 
1848	 0.522511485844556 
1849	 0.522633736695304 
1850	 0.52272179682778 
1851	 0.522771780545525 
1852	 0.522792507948763 
1853	 0.522783946758157 
1854	 0.522734942422271 
1855	 0.522647797245086 
1856	 0.522542210121756 
1857	 0.522387952590766 
1858	 0.522171722374673 
1859	 0.521909346429644 
1860	 0.521606829482437 
1861	 0.52122923359453 
1862	 0.520785240675828 
1863	 0.520311050548525 
1864	 0.519766812593057 
1865	 0.519189102555853 
1866	 0.518526332846833 
1867	 0.517748813121593 
1868	 0.516944671596089 
1869	 0.515992863326812 
1870	 0.514944786696516 
1871	 0.51383445787564 
1872	 0.512628110997573 
1873	 0.511314035661648 
1874	 0.509917993682484 
1875	 0.508436355686252 
1876	 0.506713466930229 
1877	 0.504937205034032 
1878	 0.502960761406233 
1879	 0.500750789546112 
1880	 0.498536713651029 
1881	 0.496076342464226 
1882	 0.493392852182577 
1883	 0.490560640029088 
1884	 0.487528931587699 
1885	 0.484069196403058 
1886	 0.480507604658075 
1887	 0.476619895936517 
1888	 0.472377501754635 
1889	 0.468247401989846 
1890	 0.463782398795226 
1891	 0.459229967793622 
1892	 0.454676698736172 
1893	 0.449907377235391 
1894	 0.44486621760466 
1895	 0.439962752638957 
1896	 0.434917209641566 
1897	 0.429794331599056 
1898	 0.425043718440997 
1899	 0.420160290944969 
1900	 0.41537070329712 
1901	 0.410776038846036 
1902	 0.405963841793097 
1903	 0.401391530185455 
1904	 0.396935666474332 
1905	 0.392531673399533 
1906	 0.388249044174116 
1907	 0.384432868296531 
1908	 0.380623957243844 
1909	 0.377012721697176 
1910	 0.373659688792811 
1911	 0.37022359998607 
1912	 0.367049720685015 
1913	 0.363997596171773 
1914	 0.361003469284917 
1915	 0.358275863340509 
1916	 0.355815342882072 
1917	 0.353391781009299 
1918	 0.351139070005634 
1919	 0.349076314032624 
1920	 0.346976702242385 
1921	 0.345073080720141 
1922	 0.343274067755695 
1923	 0.341561231973604 
1924	 0.340112055106061 
1925	 0.338722008044658 
1926	 0.337444844579737 
1927	 0.336319649147789 
1928	 0.335268380654764 
1929	 0.334285926491396 
1930	 0.333442960732356 
1931	 0.332715400448626 
1932	 0.332067856752096 
1933	 0.331572782288799 
1934	 0.331146485246295 
1935	 0.330799691282482 
1936	 0.330581418030524 
1937	 0.330442359986506 
1938	 0.33039857760697 
1939	 0.330438965163656 
1940	 0.330581387924156 
1941	 0.330785734912083 
1942	 0.331061851658048 
1943	 0.331413027038505 
1944	 0.331804822675361 
1945	 0.332262680233834 
1946	 0.332819396482343 
1947	 0.333391407582846 
1948	 0.334030560957308 
1949	 0.334739619384988 
1950	 0.335443176102116 
1951	 0.336144935455283 
1952	 0.336920879669629 
1953	 0.337744445062921 
1954	 0.338575269142245 
1955	 0.339496343482246 
1956	 0.340409809135427 
1957	 0.341340558343804 
1958	 0.342298945191145 
1959	 0.343204514341592 
1960	 0.344141901951882 
1961	 0.345069415231904 
1962	 0.345951573344003 
1963	 0.34690688450423 
1964	 0.347906082922919 
1965	 0.34888941643146 
1966	 0.349899856123091 
1967	 0.350946829851849 
1968	 0.351914638375748 
1969	 0.352910108842494 
1970	 0.353899561016192 
1971	 0.354878363837185 
1972	 0.355932424678183 
1973	 0.356954221943475 
1974	 0.357989865146911 
1975	 0.359085010526207 
1976	 0.360110746250385 
1977	 0.361078237309411 
1978	 0.362088899157538 
1979	 0.363091442263382 
1980	 0.364080511467385 
1981	 0.365149253840975 
1982	 0.366204325750801 
1983	 0.367272476092514 
1984	 0.368332582296226 
1985	 0.369306417868085 
1986	 0.370304961661624 
1987	 0.371267713523733 
1988	 0.372156072739256 
1989	 0.373103065817443 
1990	 0.374076275484783 
1991	 0.375021819586287 
1992	 0.375987230069275 
1993	 0.37694618410549 
1994	 0.377812566832335 
1995	 0.378665762314124 
1996	 0.379460048592446 
1997	 0.380236797800136 
1998	 0.381042419465436 
1999	 0.381866071858844 
2000	 0.382632029924184 
2001	 0.383418093365386 
2002	 0.384132918169187 
2003	 0.384776210663603 
2004	 0.385415696657122 
2005	 0.386032753062219 
2006	 0.38660844946265 
2007	 0.387157305516364 
2008	 0.387676407946975 
2009	 0.388143722792995 
2010	 0.388559648350358 
2011	 0.388891926034582 
2012	 0.38917341117386 
2013	 0.389406083322422 
2014	 0.389573619279188 
2015	 0.389697828921527 
2016	 0.389804686686195 
2017	 0.389804863592873 
2018	 0.38970795853467 
2019	 0.389582078476641 
2020	 0.389392612643128 
2021	 0.389140286804964 
2022	 0.388860927155414 
2023	 0.388504877040878 
2024	 0.388044243684857 
2025	 0.387530110393663 
2026	 0.386961495036316 
2027	 0.386294599115578 
2028	 0.38564255631176 
2029	 0.384944897187505 
2030	 0.384236325956958 
2031	 0.383519733934802 
2032	 0.382769604928793 
2033	 0.381936643464498 
2034	 0.381178261994375 
2035	 0.380407039173948 
2036	 0.379668196030756 
2037	 0.379027002290138 
2038	 0.378438312351916 
2039	 0.377907712023619 
2040	 0.377447622164512 
2041	 0.377011341069476 
2042	 0.376610159133691 
2043	 0.376293053401954 
2044	 0.376025787990953 
2045	 0.375819549395167 
2046	 0.375719016038629 
2047	 0.375618295174824 
2048	 0.375550711702744 
2049	 0.375519445812098 
2050	 0.375521598970127 
2051	 0.375553927269626 
2052	 0.375647496525492 
2053	 0.375774173258099 
2054	 0.37591620796596 
2055	 0.376101383099025 
2056	 0.376295667727793 
2057	 0.376501906842563 
2058	 0.376733728052937 
2059	 0.376989057727711 
2060	 0.377269465727328 
2061	 0.377595602044363 
2062	 0.377899663526791 
2063	 0.378215447084376 
2064	 0.378539888060584 
2065	 0.378860409725491 
2066	 0.3791775255596 
2067	 0.379533670307099 
2068	 0.379861707017808 
2069	 0.380191882330106 
2070	 0.380527781452418 
2071	 0.380831567926501 
2072	 0.381124533298257 
2073	 0.381402948532553 
2074	 0.381642458859018 
2075	 0.38189997215745 
2076	 0.382173529463667 
2077	 0.382412770776247 
2078	 0.382650491958877 
2079	 0.382856106385513 
2080	 0.383007402244229 
2081	 0.383178596248826 
2082	 0.383347033184108 
2083	 0.383513313678713 
2084	 0.383664757383091 
2085	 0.383797089408548 
2086	 0.383905560036649 
2087	 0.383976999712018 
2088	 0.384049527005893 
2089	 0.384117799277641 
2090	 0.384159151543348 
2091	 0.384180890088121 
2092	 0.384186393872571 
2093	 0.384166969490785 
2094	 0.384140577224668 
2095	 0.384100934651344 
2096	 0.38404787900746 
2097	 0.383998435755135 
2098	 0.383905956196858 
2099	 0.383783438699384 
2100	 0.383650050243376 
2101	 0.383487096713159 
2102	 0.383296844011295 
2103	 0.383073183607172 
2104	 0.382817139574451 
2105	 0.382552521681717 
2106	 0.382248960561162 
2107	 0.381942329738134 
2108	 0.381654753521903 
2109	 0.381301347009913 
2110	 0.380903379722411 
2111	 0.380493221167082 
2112	 0.380031243983355 
2113	 0.379567532006894 
2114	 0.379094371920043 
2115	 0.378602474841381 
2116	 0.378088614859768 
2117	 0.37757772816096 
2118	 0.377025838405106 
2119	 0.376444622411452 
2120	 0.375873277764479 
2121	 0.375265919692774 
2122	 0.374686369523161 
2123	 0.374132143332342 
2124	 0.37354631825925 
2125	 0.3729734282742 
2126	 0.372351130171954 
2127	 0.371690842317413 
2128	 0.371031318203135 
2129	 0.37031739433083 
2130	 0.369638624302748 
2131	 0.368986939060344 
2132	 0.368311991872877 
2133	 0.367638998583009 
2134	 0.366970845284904 
2135	 0.366240587898925 
2136	 0.365519917176381 
2137	 0.364763675305454 
2138	 0.36395383553571 
2139	 0.36319783531512 
2140	 0.362439399107009 
2141	 0.361696291316179 
2142	 0.360988696783481 
2143	 0.360267627629 
2144	 0.359516576282142 
2145	 0.358829660794394 
2146	 0.358170576798919 
2147	 0.357525914824343 
2148	 0.356932416296918 
2149	 0.356327820761926 
2150	 0.355728057817154 
2151	 0.355138662379885 
2152	 0.354553976772159 
2153	 0.353992482799431 
2154	 0.353416007840612 
2155	 0.352833704705341 
2156	 0.352313776232076 
2157	 0.351826471909275 
2158	 0.351329170316081 
2159	 0.350886790519251 
2160	 0.350396287566047 
2161	 0.349855191671474 
2162	 0.349377740848298 
2163	 0.348904353673452 
2164	 0.348470553674502 
2165	 0.348069130309729 
2166	 0.347697839461148 
2167	 0.347338864511692 
2168	 0.347042268750493 
2169	 0.3468057882032 
2170	 0.346585098926212 
2171	 0.346388644565483 
2172	 0.346250596736673 
2173	 0.34617851051469 
2174	 0.346098708697324 
2175	 0.346027740063091 
2176	 0.346017989063487 
2177	 0.345999840472105 
2178	 0.345948510619869 
2179	 0.345989408485343 
2180	 0.346098475285051 
2181	 0.346202455010732 
2182	 0.346350551635147 
2183	 0.34648711642468 
2184	 0.34661214119755 
2185	 0.346793316240271 
2186	 0.347014035682415 
2187	 0.34723019684806 
2188	 0.347504150311726 
2189	 0.347734651813348 
2190	 0.347918390891074 
2191	 0.348145195828354 
2192	 0.348372831198748 
2193	 0.348624321789621 
2194	 0.3489348451267 
2195	 0.349209958733369 
2196	 0.349480570592955 
2197	 0.349756886740045 
2198	 0.349989415251259 
2199	 0.350183665369127 
2200	 0.350381442882477 
2201	 0.350563038107914 
2202	 0.350723458147687 
2203	 0.35086280947055 
2204	 0.35101059998871 
2205	 0.35114850503163 
2206	 0.351269352982232 
2207	 0.351407214328897 
2208	 0.351491793061832 
2209	 0.351533167684768 
2210	 0.351563604752677 
2211	 0.351588300724262 
2212	 0.351551645154904 
2213	 0.351473447966982 
2214	 0.351369080669433 
2215	 0.351231587311335 
2216	 0.351041015550067 
2217	 0.35083508166653 
2218	 0.35055644647586 
2219	 0.3502260818049 
2220	 0.349813507360248 
2221	 0.349340798537339 
2222	 0.348776473761759 
2223	 0.348177823972255 
2224	 0.347467816963443 
2225	 0.346702898497716 
2226	 0.34584571141066 
2227	 0.344790371830949 
2228	 0.343573252948788 
2229	 0.342263545389417 
2230	 0.340778746221035 
2231	 0.339235198148783 
2232	 0.337632209827819 
2233	 0.335837814693617 
2234	 0.333962463805308 
2235	 0.331814443814661 
2236	 0.329433039374956 
2237	 0.326950885319909 
2238	 0.32419874972525 
2239	 0.32143275600796 
2240	 0.318627474183862 
2241	 0.31561252103928 
2242	 0.312496839319831 
2243	 0.309182098257594 
2244	 0.305591832743355 
2245	 0.302006906894101 
2246	 0.29816788137913 
2247	 0.294450451345529 
2248	 0.290779712263362 
2249	 0.28704280761395 
2250	 0.283286078618908 
2251	 0.27962081623007 
2252	 0.275678256265056 
2253	 0.271861839073537 
2254	 0.268054026627466 
2255	 0.264228240697409 
2256	 0.26075251692625 
2257	 0.257325089781528 
2258	 0.254079970521688 
2259	 0.25106322659826 
2260	 0.248059962533031 
2261	 0.245114719286573 
2262	 0.242391309620626 
2263	 0.239740562464023 
2264	 0.237356696578631 
2265	 0.235260070895735 
2266	 0.233186669028655 
2267	 0.23134063665473 
2268	 0.229471084646208 
2269	 0.227660911046543 
2270	 0.225925175703934 
2271	 0.224248129396288 
2272	 0.222618527765698 
2273	 0.221120269678282 
2274	 0.219548361391519 
2275	 0.218060268136486 
2276	 0.216435277536747 
2277	 0.214747714114226 
2278	 0.212994475436646 
2279	 0.211072520112169 
2280	 0.209220380788071 
2281	 0.207380860708363 
2282	 0.205485351948368 
2283	 0.203588709789404 
2284	 0.201693766019329 
2285	 0.199627864428445 
2286	 0.197589152050376 
2287	 0.195528503699473 
2288	 0.193436001129079 
2289	 0.191503113390271 
2290	 0.189549204651608 
2291	 0.187658495154375 
2292	 0.185900979412704 
2293	 0.184077025899895 
2294	 0.182378259066291 
2295	 0.180832972082852 
2296	 0.179383867443659 
2297	 0.178217563595653 
2298	 0.177274981653641 
2299	 0.176553565887793 
2300	 0.176051899785102 
2301	 0.175814763756909 
2302	 0.175829595064468 
2303	 0.176088535532746 
2304	 0.176632786428155 
2305	 0.177385469107633 
2306	 0.178407747281687 
2307	 0.179624877948633 
2308	 0.181090868251639 
2309	 0.182751166692907 
2310	 0.184727175216942 
2311	 0.186679907905792 
2312	 0.188916142552785 
2313	 0.190986667308461 
2314	 0.193088459653094 
2315	 0.195080593816315 
2316	 0.197032549001755 
2317	 0.198829471361645 
2318	 0.200599184709353 
2319	 0.202079065964026 
2320	 0.203411176340161 
2321	 0.204482533344277 
2322	 0.205229738866965 
2323	 0.205874756433515 
2324	 0.206281296644709 
2325	 0.206567708191208 
2326	 0.206698514984749 
2327	 0.206696985931851 
2328	 0.206543284296628 
2329	 0.206238033884427 
2330	 0.205782180366642 
2331	 0.205147621533147 
2332	 0.204390050701207 
2333	 0.203556193357357 
2334	 0.202619713967131 
2335	 0.20157740150933 
2336	 0.20041207451684 
2337	 0.199220896850253 
2338	 0.198081067641655 
2339	 0.196874768005441 
2340	 0.19572114179567 
2341	 0.19467870371859 
2342	 0.193704575545406 
2343	 0.192934971691275 
2344	 0.192368634814541 
2345	 0.192058128954252 
2346	 0.19195269963906 
2347	 0.192148075560984 
2348	 0.19267881565854 
2349	 0.193473573166976 
2350	 0.194536792737665 
2351	 0.195722621886879 
2352	 0.196987401013698 
2353	 0.198364901591267 
2354	 0.199704352630535 
2355	 0.20103079519016 
2356	 0.202203968877258 
2357	 0.20314192393674 
2358	 0.204030539408861 
2359	 0.204787885376647 
2360	 0.205444860715264 
2361	 0.205954707633033 
2362	 0.206245438279531 
2363	 0.206427783465915 
2364	 0.206580236829046 
2365	 0.206672928603214 
2366	 0.206723388722679 
2367	 0.206723195971427 
2368	 0.206722762123834 
2369	 0.206798874631136 
2370	 0.206845218768794 
2371	 0.206858617560097 
2372	 0.20682348082237 
2373	 0.206706019419188 
2374	 0.206594178193511 
2375	 0.206553643215367 
2376	 0.206545004263462 
2377	 0.206509227447016 
2378	 0.206441018435133 
2379	 0.206334929579013 
2380	 0.206215701108699 
2381	 0.20606639345781 
2382	 0.205932810602862 
2383	 0.20586682850391 
2384	 0.205696071737349 
2385	 0.205396827191624 
2386	 0.205242009668647 
2387	 0.205132530247979 
2388	 0.204971522054278 
2389	 0.204907854508476 
2390	 0.204749457925197 
2391	 0.20445542360681 
2392	 0.204247972483761 
2393	 0.204045127961556 
2394	 0.203890981353478 
2395	 0.203770464267796 
2396	 0.203647027148343 
2397	 0.203609012289843 
2398	 0.203470502519412 
2399	 0.203265271437506 
2400	 0.203087155909571 
2401	 0.202874981579655 
2402	 0.202689237708496 
2403	 0.202528026484411 
2404	 0.202440662086371 
2405	 0.202328995528873 
2406	 0.202163077942879 
2407	 0.202074371099233 
2408	 0.201899740897461 
2409	 0.201663773633847 
2410	 0.201623353466593 
2411	 0.201568742254365 
2412	 0.201561857099439 
2413	 0.201611324577094 
2414	 0.201453809784006 
2415	 0.201280648870112 
2416	 0.20114805632551 
2417	 0.200871357460593 
2418	 0.200646477472058 
2419	 0.200386157011752 
2420	 0.200063516577883 
2421	 0.199986408114612 
2422	 0.199832993173147 
2423	 0.199612036409614 
2424	 0.199379016179078 
2425	 0.198914598775126 
2426	 0.198490750194388 
2427	 0.198196675862482 
2428	 0.19799323589467 
2429	 0.197773724056002 
2430	 0.197491741296126 
2431	 0.197167414021397 
2432	 0.196718419513466 
2433	 0.196272953919765 
2434	 0.195838043352957 
2435	 0.19543205762821 
2436	 0.194970874591075 
2437	 0.194359810942247 
2438	 0.19392949798228 
2439	 0.19352069716858 
2440	 0.192901593630279 
2441	 0.19241243429563 
2442	 0.191879321926932 
2443	 0.191055731601243 
2444	 0.190390533664245 
2445	 0.189790555015533 
2446	 0.189053037202062 
2447	 0.188521933744 
2448	 0.187901983075054 
2449	 0.187095041536276 
2450	 0.186339423025068 
2451	 0.18547982915837 
2452	 0.184697210134825 
2453	 0.184090822653097 
2454	 0.183424760148268 
2455	 0.182679237143244 
2456	 0.181900433179211 
2457	 0.181199008291509 
2458	 0.180528062118957 
2459	 0.179876493453832 
2460	 0.179587706548627 
2461	 0.17921884565724 
2462	 0.178702831099425 
2463	 0.17832423385381 
2464	 0.177532120418406 
2465	 0.176693147479298 
2466	 0.176177670148835 
2467	 0.175748163994725 
2468	 0.175630723775691 
2469	 0.175744437406564 
2470	 0.175724054282836 
2471	 0.175599995984265 
2472	 0.175290291910363 
2473	 0.174805261863819 
2474	 0.17452451464119 
2475	 0.174324992318334 
2476	 0.174211066762502 
2477	 0.174193890609027 
2478	 0.17402560303381 
2479	 0.1739850376046 
2480	 0.173823838309361 
2481	 0.173741391249491 
2482	 0.173759865353703 
2483	 0.173545550244876 
2484	 0.173516115315062 
2485	 0.173483072907233 
2486	 0.173524897307885 
2487	 0.173651432174406 
2488	 0.173661391300368 
2489	 0.173853893127622 
2490	 0.17385403723843 
2491	 0.173693393571249 
2492	 0.174079021053393 
2493	 0.174025124241677 
2494	 0.173551952755654 
2495	 0.173651070581415 
2496	 0.173665109829852 
2497	 0.173537118486992 
2498	 0.173973749129496 
2499	 0.17448765349058 
2500	 0.174547335491803 
