Wavelength	spectrum00018.asd
350	 0.079313235555414 
351	 7.84879755017193E-02 
352	 7.64330450308847E-02 
353	 7.32710023366262E-02 
354	 7.28602309193748E-02 
355	 7.10356605241218E-02 
356	 6.82652702306588E-02 
357	 6.57273377984875E-02 
358	 6.33874911139182E-02 
359	 6.18644413154966E-02 
360	 6.14051726362493E-02 
361	 6.16699742809307E-02 
362	 5.96962253296454E-02 
363	 5.78455434909788E-02 
364	 5.74535520100596E-02 
365	 5.78425982363511E-02 
366	 5.71388077103246E-02 
367	 0.055844135253022 
368	 5.49738779570454E-02 
369	 5.50924094196318E-02 
370	 5.48297298152769E-02 
371	 5.44540552298547E-02 
372	 5.48430649807789E-02 
373	 5.30766121531786E-02 
374	 5.23827388754507E-02 
375	 5.34616238844944E-02 
376	 5.25513697994505E-02 
377	 5.14203068070099E-02 
378	 5.08274460432734E-02 
379	 0.050921613498337 
380	 5.06322063355749E-02 
381	 5.05683307572838E-02 
382	 5.03611234237738E-02 
383	 4.92876760395694E-02 
384	 4.93089873265597E-02 
385	 4.90614391306596E-02 
386	 4.79257471934892E-02 
387	 4.69396042287424E-02 
388	 4.65188373398729E-02 
389	 4.64034669579935E-02 
390	 4.61789788514256E-02 
391	 4.57161836197034E-02 
392	 4.57210298137551E-02 
393	 4.56594719760505E-02 
394	 4.44695960110824E-02 
395	 4.47828803715518E-02 
396	 4.49451270302712E-02 
397	 4.41708097244252E-02 
398	 4.40168767473451E-02 
399	 4.36333784838583E-02 
400	 4.30498232090293E-02 
401	 4.25034539724014E-02 
402	 4.20059016751816E-02 
403	 4.16527592893478E-02 
404	 4.14487190060836E-02 
405	 4.13101496017243E-02 
406	 4.09254678146318E-02 
407	 0.040551054874862 
408	 4.03511435047738E-02 
409	 4.01795837676182E-02 
410	 0.039811377937531 
411	 3.93505322234447E-02 
412	 3.90408420664994E-02 
413	 3.92441161630584E-02 
414	 3.89394687676877E-02 
415	 3.82150077239875E-02 
416	 3.81545825499904E-02 
417	 3.82012676773296E-02 
418	 3.82573532992083E-02 
419	 0.038273547925592 
420	 3.81068901046759E-02 
421	 3.80358951553417E-02 
422	 3.80057268044995E-02 
423	 3.78696338659473E-02 
424	 3.78766172905916E-02 
425	 0.037843377577949 
426	 0.037750099561899 
427	 3.77963136752854E-02 
428	 3.78095546275955E-02 
429	 3.78222431853872E-02 
430	 3.78539782971535E-02 
431	 3.77037873213986E-02 
432	 3.78472134223259E-02 
433	 3.80971616381716E-02 
434	 3.79811400389623E-02 
435	 3.81403817947472E-02 
436	 3.83673953812281E-02 
437	 3.84841400437465E-02 
438	 3.85031908058172E-02 
439	 3.85648484823615E-02 
440	 3.87687501035506E-02 
441	 3.91153157400813E-02 
442	 3.92768049020956E-02 
443	 3.95690601709271E-02 
444	 0.039928171196017 
445	 4.00121960139444E-02 
446	 4.03016651419436E-02 
447	 4.06141161604216E-02 
448	 4.08442247834233E-02 
449	 4.13235603137427E-02 
450	 4.16522498150452E-02 
451	 4.18905699042932E-02 
452	 0.042255535000043 
453	 4.27150315817801E-02 
454	 4.32445131538703E-02 
455	 4.37395327387567E-02 
456	 4.40248051861188E-02 
457	 4.45308340523108E-02 
458	 4.51323596810649E-02 
459	 4.56882644396028E-02 
460	 4.64242277765243E-02 
461	 4.71167028708629E-02 
462	 0.047701693618801 
463	 4.82429840790903E-02 
464	 4.90124158925637E-02 
465	 4.99073303858073E-02 
466	 5.07981616380219E-02 
467	 5.15843585193596E-02 
468	 5.25050093399061E-02 
469	 5.34646590178262E-02 
470	 5.43568604425431E-02 
471	 5.54727770455849E-02 
472	 5.65228462057357E-02 
473	 5.75225613312911E-02 
474	 0.058726887384642 
475	 5.99774783954651E-02 
476	 6.12409406877553E-02 
477	 6.25358290881621E-02 
478	 6.39614093971551E-02 
479	 6.53692985919572E-02 
480	 6.68240097264834E-02 
481	 6.84251929144533E-02 
482	 6.99039767074047E-02 
483	 7.15756316706424E-02 
484	 7.34691475611546E-02 
485	 0.075242894947051 
486	 7.71221406645947E-02 
487	 7.90116816670864E-02 
488	 8.08508219112821E-02 
489	 8.28973516677935E-02 
490	 8.50788572183317E-02 
491	 8.72497519267823E-02 
492	 8.92789256512017E-02 
493	 9.15852757725871E-02 
494	 9.39778079612623E-02 
495	 9.63305966609971E-02 
496	 9.87471221077334E-02 
497	 0.101149704254684 
498	 0.103603203192361 
499	 0.106181915400046 
500	 0.108838531881122 
501	 0.111454823385231 
502	 0.114078058647469 
503	 0.116888628423459 
504	 0.119683483760675 
505	 0.122495348420654 
506	 0.125370524449196 
507	 0.128286703070099 
508	 0.131155887040862 
509	 0.134021746545289 
510	 0.136972324865784 
511	 0.139952465619213 
512	 0.143002524155455 
513	 0.146121205414557 
514	 0.149259443433255 
515	 0.15229159232676 
516	 0.155309517074735 
517	 0.15842114851459 
518	 0.161573850095928 
519	 0.16472083604005 
520	 0.167841371565509 
521	 0.170940627073286 
522	 0.174092513919273 
523	 0.177255355216214 
524	 0.180399592485939 
525	 0.183564704752526 
526	 0.186705857662295 
527	 0.189824390834736 
528	 0.192940425700012 
529	 0.196065112199896 
530	 0.199111817488243 
531	 0.202144177531829 
532	 0.205375085539503 
533	 0.208454567728665 
534	 0.211496228465178 
535	 0.214620513444343 
536	 0.217668307234382 
537	 0.220720716029284 
538	 0.223762159409108 
539	 0.226735881437054 
540	 0.229684869051584 
541	 0.232645082437391 
542	 0.235606884813158 
543	 0.238486013941609 
544	 0.241354219846376 
545	 0.244179959921599 
546	 0.246926867617947 
547	 0.249695341492874 
548	 0.252430052475819 
549	 0.255112390806354 
550	 0.257763386593145 
551	 0.260399783295703 
552	 0.26304742918252 
553	 0.265712162250319 
554	 0.268340481861858 
555	 0.270953248590192 
556	 0.273532899749749 
557	 0.276056077025752 
558	 0.278607785491551 
559	 0.281163513595701 
560	 0.28367590345549 
561	 0.286086199328595 
562	 0.288449044052206 
563	 0.290748804008444 
564	 0.292975289987643 
565	 0.295200198681688 
566	 0.297439393498693 
567	 0.299681454070503 
568	 0.301895110563768 
569	 0.304085229407311 
570	 0.306241412412153 
571	 0.308373048653223 
572	 0.310530290215215 
573	 0.312690372509528 
574	 0.314796673988935 
575	 0.316806476769343 
576	 0.318837893472416 
577	 0.320781370411886 
578	 0.322645528875272 
579	 0.324581730288878 
580	 0.326456545761532 
581	 0.328309054927599 
582	 0.330200435103198 
583	 0.332132226662874 
584	 0.334043563698919 
585	 0.335929676069017 
586	 0.337820638389696 
587	 0.339678258684914 
588	 0.341528495636304 
589	 0.343400500759663 
590	 0.345319744443931 
591	 0.347210876826344 
592	 0.349032840529065 
593	 0.350767632313545 
594	 0.352444551481219 
595	 0.354082637909292 
596	 0.355713882737102 
597	 0.357372544635298 
598	 0.359043709024596 
599	 0.360731508429923 
600	 0.362430060215028 
601	 0.364088897422229 
602	 0.365781301608485 
603	 0.367514183571795 
604	 0.369250671928292 
605	 0.370900686188937 
606	 0.372576224282267 
607	 0.374305512981949 
608	 0.375988628917121 
609	 0.377626464789577 
610	 0.379263136486221 
611	 0.380928247203289 
612	 0.382538552688279 
613	 0.384157619558123 
614	 0.385785163245769 
615	 0.387384483213726 
616	 0.388972956377391 
617	 0.390545834811324 
618	 0.392116062015755 
619	 0.393744945030262 
620	 0.395264242681271 
621	 0.396777022190942 
622	 0.398405916442542 
623	 0.399891013409755 
624	 0.401348195604955 
625	 0.402818127822537 
626	 0.404258774303032 
627	 0.405687521251546 
628	 0.407121398846992 
629	 0.408554531105905 
630	 0.409927663543077 
631	 0.411210654576413 
632	 0.412465779723041 
633	 0.413780555007827 
634	 0.41510574455501 
635	 0.416361896225454 
636	 0.417527247506594 
637	 0.418649714626894 
638	 0.419693295497899 
639	 0.420727280052265 
640	 0.421785095428534 
641	 0.422698654174692 
642	 0.423596189469871 
643	 0.424512370757325 
644	 0.425416653217319 
645	 0.426258646898158 
646	 0.427044840149372 
647	 0.427800278472529 
648	 0.428564210775748 
649	 0.42936807308314 
650	 0.430171071621091 
651	 0.43092954382979 
652	 0.431694892587503 
653	 0.432482324683258 
654	 0.43329768311825 
655	 0.434139898182679 
656	 0.435039602228241 
657	 0.435976477993464 
658	 0.436938274150198 
659	 0.437948673857242 
660	 0.439012537168701 
661	 0.440109496510965 
662	 0.441211660743646 
663	 0.442319565086603 
664	 0.443504161682367 
665	 0.444765712279166 
666	 0.446029924202723 
667	 0.447339017700346 
668	 0.448676550119816 
669	 0.450027885141591 
670	 0.451413714509316 
671	 0.452835531896065 
672	 0.454275073648714 
673	 0.455719787798745 
674	 0.457250966654477 
675	 0.458767152027493 
676	 0.460247450172982 
677	 0.461783579230268 
678	 0.463304422589475 
679	 0.464806948683544 
680	 0.466303120403584 
681	 0.467793778977066 
682	 0.469350048665104 
683	 0.470917500019004 
684	 0.472395168290164 
685	 0.473921548627599 
686	 0.475427424679408 
687	 0.476908026694757 
688	 0.478481289342694 
689	 0.480010891092341 
690	 0.481469796425474 
691	 0.482900187506935 
692	 0.484474951202219 
693	 0.485953792177174 
694	 0.487370797515311 
695	 0.488912362629041 
696	 0.490416476226285 
697	 0.491859240039156 
698	 0.4932673746135 
699	 0.494720258047028 
700	 0.496215128649581 
701	 0.49768014509114 
702	 0.499054714364191 
703	 0.500380214235627 
704	 0.501818655414536 
705	 0.50326382544696 
706	 0.504471019095416 
707	 0.505831429333611 
708	 0.507255063227769 
709	 0.508639643442515 
710	 0.509974393809792 
711	 0.511260850097645 
712	 0.512562347356074 
713	 0.513928042191986 
714	 0.515289528655253 
715	 0.516534511099406 
716	 0.517711089223529 
717	 0.518970595895728 
718	 0.520262984268177 
719	 0.521516364889054 
720	 0.522731816373673 
721	 0.524044134403936 
722	 0.525213589076178 
723	 0.526361938548095 
724	 0.527627349789713 
725	 0.528757109139939 
726	 0.529839618031067 
727	 0.530994768323865 
728	 0.532316102227206 
729	 0.533448057771259 
730	 0.534556359606971 
731	 0.535741263110569 
732	 0.536879231962858 
733	 0.537939092692981 
734	 0.5389707955138 
735	 0.540046645242393 
736	 0.541214168431689 
737	 0.542339857937356 
738	 0.543352554127797 
739	 0.544260752567917 
740	 0.545345856638851 
741	 0.546439496087999 
742	 0.547429856163108 
743	 0.548376750201555 
744	 0.549419606062087 
745	 0.550438550146944 
746	 0.55132323479311 
747	 0.552240154654057 
748	 0.553260780451791 
749	 0.554274563432645 
750	 0.555119636117954 
751	 0.556143839108785 
752	 0.557117012777649 
753	 0.55792945227445 
754	 0.558704460110303 
755	 0.55956336764088 
756	 0.560464922935545 
757	 0.561348316212487 
758	 0.562235642637208 
759	 0.563040952098757 
760	 0.563862180504396 
761	 0.56482561006368 
762	 0.565642567942976 
763	 0.56644156582599 
764	 0.567251994162319 
765	 0.567978043612303 
766	 0.568872048005483 
767	 0.569730579301567 
768	 0.57040698083768 
769	 0.571066875250365 
770	 0.571914325878103 
771	 0.572789725064215 
772	 0.573475176872091 
773	 0.574234661925501 
774	 0.575001293453 
775	 0.575742798793846 
776	 0.576463511196108 
777	 0.577118763925072 
778	 0.577773709758916 
779	 0.578470223395298 
780	 0.579180036039193 
781	 0.579982493320931 
782	 0.580740258176661 
783	 0.581342096879104 
784	 0.581987513190822 
785	 0.582632072944325 
786	 0.583262558266939 
787	 0.583892036275158 
788	 0.58459325841031 
789	 0.585323346327315 
790	 0.586009222755471 
791	 0.586569877483327 
792	 0.587237059874626 
793	 0.587930844206297 
794	 0.588538605857572 
795	 0.589019271385228 
796	 0.589597700377147 
797	 0.590278529140635 
798	 0.590956779166329 
799	 0.591478514877911 
800	 0.592001521348914 
801	 0.59258430255897 
802	 0.593189471022493 
803	 0.593774904655325 
804	 0.594348289241796 
805	 0.59490806545135 
806	 0.595427933127487 
807	 0.595975646758507 
808	 0.596557125982053 
809	 0.597142303570661 
810	 0.597647602734293 
811	 0.598173300742867 
812	 0.598655687585303 
813	 0.599033133712475 
814	 0.599687418829638 
815	 0.600321696984441 
816	 0.600837397413468 
817	 0.601348929123829 
818	 0.601837045464216 
819	 0.602309284026219 
820	 0.602771711524715 
821	 0.603223187114657 
822	 0.603695058543517 
823	 0.604176840089755 
824	 0.604651293435117 
825	 0.605121449083664 
826	 0.605583618610978 
827	 0.606059665702378 
828	 0.606568788799537 
829	 0.607053407409652 
830	 0.607516078077333 
831	 0.607963898262788 
832	 0.608409075529818 
833	 0.608919389947503 
834	 0.6094070899178 
835	 0.609836755184188 
836	 0.610289404464789 
837	 0.610691554126399 
838	 0.611053833617301 
839	 0.611413943736068 
840	 0.611814276537921 
841	 0.612305933900349 
842	 0.612821416176002 
843	 0.613258629556001 
844	 0.613620188672095 
845	 0.613967451104477 
846	 0.614353342564661 
847	 0.614801879411641 
848	 0.615192928500681 
849	 0.615585376868052 
850	 0.615998650110141 
851	 0.616378271849489 
852	 0.61679912222973 
853	 0.617188844911784 
854	 0.617513366465664 
855	 0.617879324393422 
856	 0.618294231865342 
857	 0.618694013279709 
858	 0.619027362974637 
859	 0.619384274049773 
860	 0.619745946286585 
861	 0.620110329793904 
862	 0.620474872305913 
863	 0.62079160414627 
864	 0.621099576613506 
865	 0.621454954859097 
866	 0.621898846139349 
867	 0.622241578689632 
868	 0.622515093454943 
869	 0.622817018253906 
870	 0.623272809235028 
871	 0.623570559941463 
872	 0.623829847075759 
873	 0.624157873789541 
874	 0.624410144794086 
875	 0.624711335573554 
876	 0.625071530404292 
877	 0.62545958140619 
878	 0.625847451239492 
879	 0.626190805086918 
880	 0.626454953765388 
881	 0.626658015705497 
882	 0.627031554897993 
883	 0.627447582093134 
884	 0.627800725831519 
885	 0.628043769269742 
886	 0.628275472004573 
887	 0.628535959816554 
888	 0.628817302572237 
889	 0.629069710518155 
890	 0.629363813249418 
891	 0.62961417816236 
892	 0.629800152734379 
893	 0.630052142570896 
894	 0.630405380600625 
895	 0.630702353168397 
896	 0.630860693791624 
897	 0.631120541947509 
898	 0.631381285295171 
899	 0.63163418066748 
900	 0.631888944039422 
901	 0.63211589698574 
902	 0.632340889986094 
903	 0.632564767246345 
904	 0.632777380752055 
905	 0.632983408243923 
906	 0.633201538956106 
907	 0.63344638942486 
908	 0.633709036781241 
909	 0.633841064658128 
910	 0.633993751467997 
911	 0.63425963333591 
912	 0.634612592824409 
913	 0.634779600213601 
914	 0.634932310481206 
915	 0.635177920942198 
916	 0.635436039498574 
917	 0.635713687530055 
918	 0.635980155686671 
919	 0.636233197303806 
920	 0.636532249147642 
921	 0.636770122453633 
922	 0.636962793537591 
923	 0.637173933494335 
924	 0.637501455714696 
925	 0.637748882462106 
926	 0.637988535137589 
927	 0.638305666869823 
928	 0.638507004263473 
929	 0.638755218354768 
930	 0.639059275674296 
931	 0.63935809257306 
932	 0.639595431800058 
933	 0.639927720504493 
934	 0.640371275553952 
935	 0.640828402781345 
936	 0.641100984831609 
937	 0.641344514927699 
938	 0.641603649076138 
939	 0.641847715469081 
940	 0.642204711838143 
941	 0.642588466138744 
942	 0.642907472322968 
943	 0.643120707857832 
944	 0.643466681875965 
945	 0.643786439357849 
946	 0.644040338479669 
947	 0.644346641498141 
948	 0.644558348282119 
949	 0.644726247514417 
950	 0.64489421036565 
951	 0.645058916172468 
952	 0.64522698948713 
953	 0.64548291191045 
954	 0.645744915294988 
955	 0.645703623324588 
956	 0.645710377605851 
957	 0.645843481190945 
958	 0.646085591616574 
959	 0.646362503814678 
960	 0.64653763140982 
961	 0.646617637351478 
962	 0.646682670416756 
963	 0.646861889462145 
964	 0.647131531079229 
965	 0.647327733230922 
966	 0.647396231988862 
967	 0.647605292827697 
968	 0.647782191974685 
969	 0.647910262920566 
970	 0.648029428986791 
971	 0.648209282646167 
972	 0.648307660670358 
973	 0.648406031036858 
974	 0.648595337499207 
975	 0.648793728463863 
976	 0.648961120377446 
977	 0.64915018446007 
978	 0.649401870606016 
979	 0.649619830852571 
980	 0.649854796287069 
981	 0.650071807372359 
982	 0.650221772458618 
983	 0.650281530775624 
984	 0.650546153191999 
985	 0.650840267490486 
986	 0.650950702162809 
987	 0.651133653021892 
988	 0.651403042927161 
989	 0.651654951823737 
990	 0.651822756167105 
991	 0.652148925428564 
992	 0.652230109677915 
993	 0.652272054415844 
994	 0.652557239924665 
995	 0.652830350742123 
996	 0.652995708810141 
997	 0.65308256696713 
998	 0.653204470039423 
999	 0.653561550627062 
1000	 0.653714777872826 
1001	 0.65968997516568 
1002	 0.659904375755103 
1003	 0.660112358880873 
1004	 0.660324772212918 
1005	 0.660555495218959 
1006	 0.660744559820397 
1007	 0.660909578379139 
1008	 0.661091477705374 
1009	 0.661253195626941 
1010	 0.661436184745842 
1011	 0.66161994783747 
1012	 0.661825980682363 
1013	 0.662073051703801 
1014	 0.66227976030227 
1015	 0.662472860951203 
1016	 0.66269622360645 
1017	 0.662867589898023 
1018	 0.663004207853399 
1019	 0.663212154156481 
1020	 0.663412935483807 
1021	 0.663606653523267 
1022	 0.663829779853496 
1023	 0.664016249505265 
1024	 0.664162074843936 
1025	 0.664325483747405 
1026	 0.664482834594096 
1027	 0.664649603502281 
1028	 0.664818626471458 
1029	 0.665008884526618 
1030	 0.665184033074689 
1031	 0.665329601901359 
1032	 0.665486952532674 
1033	 0.66562175486422 
1034	 0.665714837264584 
1035	 0.665831598861153 
1036	 0.665971423263847 
1037	 0.66609054018797 
1038	 0.666260559643808 
1039	 0.666522230675457 
1040	 0.666696471123787 
1041	 0.666850535701263 
1042	 0.666999972893905 
1043	 0.667110723815947 
1044	 0.667215440301977 
1045	 0.667374007810625 
1046	 0.667543701420856 
1047	 0.667727320229782 
1048	 0.667929468055522 
1049	 0.668130458938465 
1050	 0.668313233643611 
1051	 0.668479690000476 
1052	 0.668653785391096 
1053	 0.668843582564869 
1054	 0.669036791583789 
1055	 0.669234378715665 
1056	 0.66945658134823 
1057	 0.66965936273295 
1058	 0.669853887674329 
1059	 0.670030815298029 
1060	 0.670212532072037 
1061	 0.670437661326226 
1062	 0.670654399341146 
1063	 0.670876522820045 
1064	 0.671095183460435 
1065	 0.671269432448054 
1066	 0.671468618884242 
1067	 0.67170620913544 
1068	 0.671958484006407 
1069	 0.67221171660442 
1070	 0.672461706467862 
1071	 0.672710290488473 
1072	 0.672946185122798 
1073	 0.673183608203455 
1074	 0.673424565306498 
1075	 0.673646440481384 
1076	 0.673856986858928 
1077	 0.674049599802006 
1078	 0.67422656465109 
1079	 0.674423129386054 
1080	 0.674606877704958 
1081	 0.674777755450274 
1082	 0.6750070793867 
1083	 0.675243296108081 
1084	 0.675459919062893 
1085	 0.675706462721395 
1086	 0.675936948653367 
1087	 0.676158437353872 
1088	 0.676353525776435 
1089	 0.676556272253205 
1090	 0.676744497113192 
1091	 0.676909586387278 
1092	 0.677068358323563 
1093	 0.677231746493033 
1094	 0.677419940323176 
1095	 0.677589126783123 
1096	 0.677728364157374 
1097	 0.677874556542804 
1098	 0.67798867996032 
1099	 0.678095818067295 
1100	 0.67820449079322 
1101	 0.678294085441267 
1102	 0.678382370696086 
1103	 0.678465155857313 
1104	 0.67853107873798 
1105	 0.678625221536462 
1106	 0.67871421259194 
1107	 0.678761962052772 
1108	 0.678831074504802 
1109	 0.678895808851963 
1110	 0.678951775819502 
1111	 0.679012994803943 
1112	 0.679036315878559 
1113	 0.679044158263105 
1114	 0.679070376272726 
1115	 0.679096189161461 
1116	 0.679119107667705 
1117	 0.679133840475416 
1118	 0.679129671700281 
1119	 0.679092840759556 
1120	 0.679072210313725 
1121	 0.679059261004844 
1122	 0.679021799587927 
1123	 0.678965510728326 
1124	 0.678868081886838 
1125	 0.678747185732003 
1126	 0.678629694067048 
1127	 0.678515694226039 
1128	 0.67836812330503 
1129	 0.678184422953307 
1130	 0.678001454317527 
1131	 0.677810898087393 
1132	 0.677615063824909 
1133	 0.677413527569531 
1134	 0.677186288485272 
1135	 0.676927701758881 
1136	 0.676613435073075 
1137	 0.676325464221489 
1138	 0.676039417844847 
1139	 0.675720675306044 
1140	 0.67539028013783 
1141	 0.675065282517516 
1142	 0.674679595315926 
1143	 0.674296317882466 
1144	 0.673906667664839 
1145	 0.673459814608747 
1146	 0.673013156915574 
1147	 0.672546654995484 
1148	 0.672092208035845 
1149	 0.671660615168822 
1150	 0.671220011151477 
1151	 0.670801300112785 
1152	 0.670332321505559 
1153	 0.669824864086648 
1154	 0.66931750096628 
1155	 0.668790144204302 
1156	 0.668239519527951 
1157	 0.667662900465273 
1158	 0.667113193937548 
1159	 0.666545942952597 
1160	 0.665996167925019 
1161	 0.665473285665386 
1162	 0.664933250094879 
1163	 0.664415391337945 
1164	 0.663885510082892 
1165	 0.663365899049875 
1166	 0.662888623977275 
1167	 0.662370252980355 
1168	 0.661857374753356 
1169	 0.661345066758164 
1170	 0.660824581920693 
1171	 0.660301400535885 
1172	 0.659800831617601 
1173	 0.659258128239196 
1174	 0.658690948267786 
1175	 0.658130667817125 
1176	 0.657560220268958 
1177	 0.656971434862405 
1178	 0.656386889306494 
1179	 0.655762494594742 
1180	 0.655132520362 
1181	 0.65448816583721 
1182	 0.653851098833536 
1183	 0.653260437727439 
1184	 0.652673730234544 
1185	 0.65211364702247 
1186	 0.651567232032256 
1187	 0.651025986469318 
1188	 0.650529798058657 
1189	 0.650053282630865 
1190	 0.64960872104617 
1191	 0.649205130035496 
1192	 0.648832529890943 
1193	 0.648492163343527 
1194	 0.648171302611843 
1195	 0.64787326423851 
1196	 0.64760508487031 
1197	 0.647363601236194 
1198	 0.647140589148654 
1199	 0.646943848113669 
1200	 0.646773767338523 
1201	 0.646615513917696 
1202	 0.646465084762478 
1203	 0.646318682596535 
1204	 0.646233932460823 
1205	 0.646215026455823 
1206	 0.646221003264706 
1207	 0.646324547519154 
1208	 0.646505853332752 
1209	 0.646759392474131 
1210	 0.647065241451582 
1211	 0.647478811606147 
1212	 0.647984349168733 
1213	 0.64857766878986 
1214	 0.649250629576152 
1215	 0.650032452849192 
1216	 0.650948420447084 
1217	 0.651885082424294 
1218	 0.652911815491782 
1219	 0.653991594022135 
1220	 0.655080704097601 
1221	 0.656221428519103 
1222	 0.657357899281685 
1223	 0.658537993126817 
1224	 0.659652382792382 
1225	 0.660763412428158 
1226	 0.661790402625165 
1227	 0.662771452034439 
1228	 0.663706005242709 
1229	 0.664585417592126 
1230	 0.66542598364962 
1231	 0.666237824333492 
1232	 0.666983516499946 
1233	 0.667656347308533 
1234	 0.668301846421215 
1235	 0.668888766347007 
1236	 0.669455868844056 
1237	 0.669988629852363 
1238	 0.670497482496885 
1239	 0.67098378784955 
1240	 0.671438570199687 
1241	 0.67184611192495 
1242	 0.672207005532053 
1243	 0.672550677171266 
1244	 0.672842135497271 
1245	 0.673146207239214 
1246	 0.673438770303768 
1247	 0.673720031203678 
1248	 0.673991251852893 
1249	 0.674243666327871 
1250	 0.674486682207654 
1251	 0.674706981540266 
1252	 0.674903436158128 
1253	 0.675094536794232 
1254	 0.675274671453994 
1255	 0.675435801955526 
1256	 0.675588171128985 
1257	 0.675717973594864 
1258	 0.675813506378015 
1259	 0.675912504842377 
1260	 0.675994878680759 
1261	 0.676079867392849 
1262	 0.676167206883131 
1263	 0.676248625743297 
1264	 0.676319629953046 
1265	 0.67639127400715 
1266	 0.676435178676042 
1267	 0.676451763364776 
1268	 0.676487925252531 
1269	 0.67650462908405 
1270	 0.676550484257144 
1271	 0.676614878770879 
1272	 0.67668274703235 
1273	 0.676767390320251 
1274	 0.676841635292359 
1275	 0.67692677467102 
1276	 0.676997104146799 
1277	 0.677041807895865 
1278	 0.677111690622278 
1279	 0.677196177745836 
1280	 0.677269271745931 
1281	 0.677351066336083 
1282	 0.677429477506468 
1283	 0.677491919520119 
1284	 0.677560320163161 
1285	 0.677632018965099 
1286	 0.677705336951475 
1287	 0.677796670758774 
1288	 0.677896895570632 
1289	 0.677992926440964 
1290	 0.678102344281127 
1291	 0.678207671659043 
1292	 0.678305603183879 
1293	 0.678408041385909 
1294	 0.678521530433842 
1295	 0.678625797523041 
1296	 0.678733339948728 
1297	 0.678819659670056 
1298	 0.67890208497704 
1299	 0.678967736186933 
1300	 0.679010579176303 
1301	 0.679050225498322 
1302	 0.679081074892255 
1303	 0.679105950431671 
1304	 0.679115464636707 
1305	 0.679129584019788 
1306	 0.679145438414782 
1307	 0.679153802472574 
1308	 0.679166386825668 
1309	 0.679166334600011 
1310	 0.679152645071874 
1311	 0.679132951685133 
1312	 0.679087752819689 
1313	 0.679032692031084 
1314	 0.678943360692604 
1315	 0.678824310730968 
1316	 0.678700059874697 
1317	 0.678546391707496 
1318	 0.678400655929901 
1319	 0.67824426458542 
1320	 0.678097012118746 
1321	 0.677955578624931 
1322	 0.677801813124228 
1323	 0.677668501214968 
1324	 0.677488927998339 
1325	 0.67728240358221 
1326	 0.677062817685848 
1327	 0.676805594385929 
1328	 0.676556557768449 
1329	 0.676316720391691 
1330	 0.676046561739945 
1331	 0.675779069597359 
1332	 0.675470734308076 
1333	 0.675124763749692 
1334	 0.674757581486559 
1335	 0.674383643252952 
1336	 0.673989654187128 
1337	 0.673575693864913 
1338	 0.673148353791423 
1339	 0.672712043696594 
1340	 0.672263530835546 
1341	 0.67177944827816 
1342	 0.671284252587813 
1343	 0.670758262776178 
1344	 0.670195933154129 
1345	 0.669612485310435 
1346	 0.66901701905831 
1347	 0.668390926363926 
1348	 0.667723505032136 
1349	 0.667050043384091 
1350	 0.666352839590001 
1351	 0.665649300142033 
1352	 0.664935375669689 
1353	 0.664201376249693 
1354	 0.6634369942156 
1355	 0.662692121439841 
1356	 0.66195758569379 
1357	 0.661191440386896 
1358	 0.660428798218621 
1359	 0.659640796204681 
1360	 0.658829236764214 
1361	 0.657986210586344 
1362	 0.657106250463635 
1363	 0.656267330495543 
1364	 0.655348693231419 
1365	 0.654406665480956 
1366	 0.653386051796441 
1367	 0.652318205917578 
1368	 0.651193376128559 
1369	 0.650012191455366 
1370	 0.648765812551744 
1371	 0.647468456841987 
1372	 0.64612273176728 
1373	 0.644720232179242 
1374	 0.643250153935885 
1375	 0.641726938084801 
1376	 0.640132262436162 
1377	 0.638455570004906 
1378	 0.63671588635535 
1379	 0.634902579816078 
1380	 0.633055645225874 
1381	 0.631140033402075 
1382	 0.629188875780254 
1383	 0.627177095881001 
1384	 0.62516699055184 
1385	 0.623132793580658 
1386	 0.621078672200466 
1387	 0.618988912831027 
1388	 0.616951496458148 
1389	 0.614903390376368 
1390	 0.612878159168161 
1391	 0.610935978555901 
1392	 0.608907008813493 
1393	 0.606964428875775 
1394	 0.604979311265233 
1395	 0.603017060828948 
1396	 0.601093284006668 
1397	 0.599135198848052 
1398	 0.597184561972417 
1399	 0.595157466088727 
1400	 0.593101827766771 
1401	 0.591002772517317 
1402	 0.588820849503886 
1403	 0.586665515949788 
1404	 0.584481132974407 
1405	 0.582353262808355 
1406	 0.580225383345522 
1407	 0.578131162932616 
1408	 0.576026912918872 
1409	 0.574033486496357 
1410	 0.572043537123042 
1411	 0.570201693110845 
1412	 0.568457050646474 
1413	 0.566854945957018 
1414	 0.565369426093195 
1415	 0.563986860270848 
1416	 0.562745748042561 
1417	 0.561577710182302 
1418	 0.560517828470485 
1419	 0.55951300316995 
1420	 0.5586064282249 
1421	 0.557750086696086 
1422	 0.556962542822204 
1423	 0.556210355267337 
1424	 0.555520625491499 
1425	 0.554855701042908 
1426	 0.554246846303038 
1427	 0.553684205421969 
1428	 0.553182404778787 
1429	 0.552765186223974 
1430	 0.55238034873684 
1431	 0.552045144527579 
1432	 0.551765047783993 
1433	 0.551534918710863 
1434	 0.551359544659778 
1435	 0.551244663621916 
1436	 0.55116586507746 
1437	 0.55114329757253 
1438	 0.551143334756762 
1439	 0.551179369744902 
1440	 0.551253771070404 
1441	 0.551366485439295 
1442	 0.551508082670259 
1443	 0.551691696819046 
1444	 0.551896487857882 
1445	 0.552139647968445 
1446	 0.552383679328039 
1447	 0.552649360302236 
1448	 0.552927024732776 
1449	 0.553224037666706 
1450	 0.553517403564186 
1451	 0.55382855580109 
1452	 0.554134380641855 
1453	 0.554440049759015 
1454	 0.554735218838347 
1455	 0.555027446675473 
1456	 0.555321059432103 
1457	 0.555604428786797 
1458	 0.555892885100963 
1459	 0.556184169678397 
1460	 0.556480988115792 
1461	 0.556765909167207 
1462	 0.557073492841043 
1463	 0.557390509533522 
1464	 0.557728142560783 
1465	 0.558086565690108 
1466	 0.55846384698486 
1467	 0.558831145314225 
1468	 0.559229323233513 
1469	 0.559624235551681 
1470	 0.559993814873547 
1471	 0.560382382095949 
1472	 0.560775764121888 
1473	 0.561172683946632 
1474	 0.561585660526526 
1475	 0.561967775588976 
1476	 0.562349263708158 
1477	 0.562706712777884 
1478	 0.56302475565445 
1479	 0.563372226643538 
1480	 0.563728007481657 
1481	 0.564065540117632 
1482	 0.564414835677419 
1483	 0.564731939899777 
1484	 0.565022560639016 
1485	 0.565308848627369 
1486	 0.565580309371187 
1487	 0.565847338150205 
1488	 0.566097187018964 
1489	 0.566354386682502 
1490	 0.56660315449601 
1491	 0.566864078166797 
1492	 0.567139404726977 
1493	 0.567400026667555 
1494	 0.56765438832467 
1495	 0.567915116636352 
1496	 0.568156646279022 
1497	 0.568428887263469 
1498	 0.56872112372571 
1499	 0.569021257896965 
1500	 0.5693428563195 
1501	 0.569660764353162 
1502	 0.569992051362141 
1503	 0.570310890870444 
1504	 0.5706276520489 
1505	 0.570939250349844 
1506	 0.571239637184196 
1507	 0.571546057135202 
1508	 0.571846816420733 
1509	 0.572157727367419 
1510	 0.572476552314256 
1511	 0.572793438363936 
1512	 0.573118518678259 
1513	 0.57343926896421 
1514	 0.573767198284614 
1515	 0.574078942502086 
1516	 0.574383066265149 
1517	 0.574679997561512 
1518	 0.574952846456478 
1519	 0.575234305388371 
1520	 0.575517117868308 
1521	 0.575796233902135 
1522	 0.576090752929407 
1523	 0.57639837191234 
1524	 0.576677146094669 
1525	 0.576952769558388 
1526	 0.577221968728051 
1527	 0.577467516016523 
1528	 0.577730046861591 
1529	 0.577999997848606 
1530	 0.57827016868607 
1531	 0.578540575255257 
1532	 0.578809942855442 
1533	 0.579087704350835 
1534	 0.579350985144147 
1535	 0.579606023635756 
1536	 0.579858601672343 
1537	 0.580104844224358 
1538	 0.580351363520617 
1539	 0.580595355017472 
1540	 0.580836148833978 
1541	 0.581071636832102 
1542	 0.58131345784728 
1543	 0.581560684568788 
1544	 0.581791956790129 
1545	 0.582027792399962 
1546	 0.582241119021359 
1547	 0.582434441792584 
1548	 0.582623981139459 
1549	 0.582803531369657 
1550	 0.582975433521746 
1551	 0.583144461878084 
1552	 0.583289419068767 
1553	 0.583416092207178 
1554	 0.583539391880656 
1555	 0.583633098710147 
1556	 0.58375149504161 
1557	 0.583882306320205 
1558	 0.58400206214663 
1559	 0.584130480886352 
1560	 0.584242808927608 
1561	 0.584338725143034 
1562	 0.584439816554478 
1563	 0.584537919372443 
1564	 0.584633449075551 
1565	 0.584727712398892 
1566	 0.584819740324185 
1567	 0.584902464869068 
1568	 0.584995938547323 
1569	 0.585087908547545 
1570	 0.585192560560575 
1571	 0.585311362237772 
1572	 0.585426134550453 
1573	 0.585548758652578 
1574	 0.585667357991121 
1575	 0.585775287762215 
1576	 0.585900682192266 
1577	 0.586044246472395 
1578	 0.586171268816491 
1579	 0.586305360539179 
1580	 0.586425538626255 
1581	 0.586525594685664 
1582	 0.586630662618168 
1583	 0.586727331425549 
1584	 0.586836203136015 
1585	 0.586943709946856 
1586	 0.587063323243969 
1587	 0.587196531472143 
1588	 0.587332550033892 
1589	 0.587478277696021 
1590	 0.587621149075427 
1591	 0.587768608882938 
1592	 0.587915242863165 
1593	 0.588054552573155 
1594	 0.588207148765492 
1595	 0.588378975916726 
1596	 0.588529937456202 
1597	 0.588681543801524 
1598	 0.588824071614552 
1599	 0.58894488077925 
1600	 0.589073090772384 
1601	 0.589211089229469 
1602	 0.589331765884554 
1603	 0.589449383119183 
1604	 0.589549503012164 
1605	 0.589623119023659 
1606	 0.589706143713383 
1607	 0.58978419838878 
1608	 0.589860492274791 
1609	 0.589948504936052 
1610	 0.590016274194757 
1611	 0.590073872347884 
1612	 0.590117368677925 
1613	 0.590141675267479 
1614	 0.590165010919971 
1615	 0.590171814823069 
1616	 0.590184710029776 
1617	 0.590208075297233 
1618	 0.590209701762541 
1619	 0.590206428204313 
1620	 0.590190529235774 
1621	 0.590169698974378 
1622	 0.590115663519272 
1623	 0.590032644691641 
1624	 0.589948917541161 
1625	 0.589827393812138 
1626	 0.589719866772557 
1627	 0.589624575220649 
1628	 0.589520281442628 
1629	 0.589413592527549 
1630	 0.589301978995159 
1631	 0.589183304173248 
1632	 0.589064400483245 
1633	 0.588956988476881 
1634	 0.588819914282767 
1635	 0.58867995549941 
1636	 0.588508235280293 
1637	 0.588293075175054 
1638	 0.588080846105558 
1639	 0.587859905012351 
1640	 0.587619690106516 
1641	 0.587372441200467 
1642	 0.587101682641081 
1643	 0.586792699269785 
1644	 0.586495754504869 
1645	 0.586209656279883 
1646	 0.585888766441955 
1647	 0.585564966859664 
1648	 0.585201122977678 
1649	 0.584777369803244 
1650	 0.584367029659747 
1651	 0.583962335611959 
1652	 0.583520750674006 
1653	 0.583074806237316 
1654	 0.582591100482625 
1655	 0.582048868707092 
1656	 0.581510227510954 
1657	 0.580984897445728 
1658	 0.580387419019629 
1659	 0.579750761147659 
1660	 0.579089415515276 
1661	 0.578372762511744 
1662	 0.577634633222438 
1663	 0.576896538797552 
1664	 0.576078351502689 
1665	 0.575190716961604 
1666	 0.574273542008872 
1667	 0.573319630136987 
1668	 0.572320372956585 
1669	 0.571296247457182 
1670	 0.570198011309623 
1671	 0.569026093712175 
1672	 0.567800175676219 
1673	 0.566523326613667 
1674	 0.56517599295397 
1675	 0.563775509298002 
1676	 0.562323628682932 
1677	 0.560811537679227 
1678	 0.559225776440067 
1679	 0.557570176684836 
1680	 0.555840376194852 
1681	 0.554024625791877 
1682	 0.552157952161683 
1683	 0.550214307554621 
1684	 0.548277446463785 
1685	 0.546305891429652 
1686	 0.544286721366703 
1687	 0.542210126501163 
1688	 0.540133500262199 
1689	 0.538010642735161 
1690	 0.535878569157458 
1691	 0.533756084951695 
1692	 0.531657122883491 
1693	 0.529541253128793 
1694	 0.527420500960168 
1695	 0.52532357495207 
1696	 0.523168178997386 
1697	 0.520968613140688 
1698	 0.518754893681718 
1699	 0.516521099664822 
1700	 0.514335632600204 
1701	 0.512119213382249 
1702	 0.509990444255932 
1703	 0.507869553636858 
1704	 0.505860915710901 
1705	 0.503912967031157 
1706	 0.502001665595207 
1707	 0.500332151263011 
1708	 0.498725045188908 
1709	 0.497193607368045 
1710	 0.495788229484591 
1711	 0.49436424267126 
1712	 0.493035407832392 
1713	 0.491735656714744 
1714	 0.490414701741398 
1715	 0.489225642077057 
1716	 0.488035279994489 
1717	 0.486875324674673 
1718	 0.485805828309863 
1719	 0.484740222260808 
1720	 0.483747872988187 
1721	 0.482843836540464 
1722	 0.482056880570367 
1723	 0.481463861990055 
1724	 0.481026534079061 
1725	 0.480769113582548 
1726	 0.480751526728955 
1727	 0.480971783578866 
1728	 0.481417299574248 
1729	 0.482107740259564 
1730	 0.483033862865115 
1731	 0.484097685247514 
1732	 0.485348021666197 
1733	 0.48664874829447 
1734	 0.487991150718575 
1735	 0.489377611745724 
1736	 0.490655379314663 
1737	 0.491871455885906 
1738	 0.492951182439751 
1739	 0.49381730285071 
1740	 0.494524831755085 
1741	 0.495063858114323 
1742	 0.495386383191204 
1743	 0.495602404775566 
1744	 0.495648965591206 
1745	 0.495607713420778 
1746	 0.495399000564733 
1747	 0.495204539484835 
1748	 0.494901821482824 
1749	 0.49464248834725 
1750	 0.494351407348756 
1751	 0.494098852149968 
1752	 0.493843496758665 
1753	 0.493665639810508 
1754	 0.493506043571396 
1755	 0.493475032255607 
1756	 0.49350696693003 
1757	 0.493650259813476 
1758	 0.493927324716475 
1759	 0.494335778216125 
1760	 0.494896401711528 
1761	 0.49564746613812 
1762	 0.496507376230546 
1763	 0.49747076257482 
1764	 0.498531550985074 
1765	 0.499704744012484 
1766	 0.501023708209614 
1767	 0.502370712254881 
1768	 0.503791572676452 
1769	 0.505222706783842 
1770	 0.506503498397342 
1771	 0.507797362011019 
1772	 0.509041402273185 
1773	 0.510151658895824 
1774	 0.511268115437979 
1775	 0.512271481654365 
1776	 0.513182240995338 
1777	 0.51405522081668 
1778	 0.514801773503216 
1779	 0.51546867250009 
1780	 0.516069336325927 
1781	 0.516583853439906 
1782	 0.517052362018391 
1783	 0.517490281253052 
1784	 0.517878895748412 
1785	 0.518153517637857 
1786	 0.518413968037635 
1787	 0.518611196134235 
1788	 0.518809282807607 
1789	 0.519007225365892 
1790	 0.519165598367644 
1791	 0.519294782423096 
1792	 0.519399622680553 
1793	 0.519445500047074 
1794	 0.519529645644639 
1795	 0.519591075282625 
1796	 0.519687693128441 
1797	 0.51979059650206 
1798	 0.51986088932618 
1799	 0.519991972045621 
1800	 0.520125984327752 
1801	 0.51812723527004 
1802	 0.518308527358276 
1803	 0.518466475940149 
1804	 0.51860403030104 
1805	 0.518742898480951 
1806	 0.518898669967721 
1807	 0.51906580838149 
1808	 0.519219429884219 
1809	 0.519378280340445 
1810	 0.519541370710096 
1811	 0.519684879447402 
1812	 0.519850505197801 
1813	 0.520029802229875 
1814	 0.520219949825836 
1815	 0.520416535774429 
1816	 0.520633804200817 
1817	 0.520854638923655 
1818	 0.521083202370796 
1819	 0.521328187339478 
1820	 0.521582313277732 
1821	 0.5218460227209 
1822	 0.522142886607375 
1823	 0.522421448133052 
1824	 0.522655997310146 
1825	 0.52294471849861 
1826	 0.523223593350091 
1827	 0.523497195095033 
1828	 0.523771580622851 
1829	 0.524065651120725 
1830	 0.524333465783812 
1831	 0.524578723225895 
1832	 0.524840075311679 
1833	 0.525083206994227 
1834	 0.525341878717341 
1835	 0.525625170650109 
1836	 0.525897585236678 
1837	 0.526176761021339 
1838	 0.526459342730327 
1839	 0.526767277112253 
1840	 0.527096111675776 
1841	 0.527405182846477 
1842	 0.527729861136764 
1843	 0.528057854625926 
1844	 0.528348919945438 
1845	 0.528583155636361 
1846	 0.528821379943386 
1847	 0.529037520933568 
1848	 0.529219041675089 
1849	 0.529375574031619 
1850	 0.529515681872185 
1851	 0.52963762811792 
1852	 0.529713646118573 
1853	 0.529776748252201 
1854	 0.529800553448525 
1855	 0.529793580632742 
1856	 0.529735431652473 
1857	 0.529637743503729 
1858	 0.529531001309603 
1859	 0.529381386512764 
1860	 0.529210500791853 
1861	 0.52897753293838 
1862	 0.528713563461644 
1863	 0.528380363947308 
1864	 0.527980527869412 
1865	 0.527557856393435 
1866	 0.527097501481434 
1867	 0.526530337840443 
1868	 0.525919117076579 
1869	 0.525232388653667 
1870	 0.524474525017767 
1871	 0.523653631100887 
1872	 0.522780950565775 
1873	 0.52185528416652 
1874	 0.520855171238052 
1875	 0.519787659865901 
1876	 0.51858280856499 
1877	 0.517337280155788 
1878	 0.515927095969363 
1879	 0.514360339544494 
1880	 0.512792248944208 
1881	 0.511004279477908 
1882	 0.509028475101033 
1883	 0.506942365151304 
1884	 0.504720751218699 
1885	 0.502165647452953 
1886	 0.499543289017003 
1887	 0.496706268190214 
1888	 0.493581810330899 
1889	 0.490495790367752 
1890	 0.487189579289431 
1891	 0.483818525011945 
1892	 0.480403757683586 
1893	 0.476814673407769 
1894	 0.473020918260697 
1895	 0.469275256297835 
1896	 0.465371365767478 
1897	 0.461423353271724 
1898	 0.457743496326302 
1899	 0.453919980471852 
1900	 0.450181704454432 
1901	 0.4465656991633 
1902	 0.44272419220592 
1903	 0.439081774043144 
1904	 0.43552607907936 
1905	 0.43200255607434 
1906	 0.428562147655266 
1907	 0.425506183148102 
1908	 0.42245589504355 
1909	 0.41956738476793 
1910	 0.416883671233454 
1911	 0.414132427023887 
1912	 0.41160401354912 
1913	 0.409194978801187 
1914	 0.406858033192472 
1915	 0.404738967762401 
1916	 0.402851908283569 
1917	 0.40099956755766 
1918	 0.39928213277502 
1919	 0.397743052487232 
1920	 0.396205090347618 
1921	 0.394827024756465 
1922	 0.393553821640605 
1923	 0.392358750065501 
1924	 0.391363483619731 
1925	 0.39042476087311 
1926	 0.389573148296103 
1927	 0.388831941181138 
1928	 0.388165537051003 
1929	 0.387557079743905 
1930	 0.387075043183219 
1931	 0.386695030252539 
1932	 0.38639617542525 
1933	 0.386203872287933 
1934	 0.386075396801127 
1935	 0.385995893361928 
1936	 0.385986360692224 
1937	 0.386030934741611 
1938	 0.386127709539782 
1939	 0.386282779566706 
1940	 0.386504125439971 
1941	 0.386776319610374 
1942	 0.387081424388162 
1943	 0.387458800757301 
1944	 0.38786095759405 
1945	 0.388281621284455 
1946	 0.388753078966276 
1947	 0.38922802990227 
1948	 0.38975107014398 
1949	 0.390318463444248 
1950	 0.390869974300839 
1951	 0.391433249908505 
1952	 0.392014839793926 
1953	 0.39259786657046 
1954	 0.393183526587097 
1955	 0.3938354776919 
1956	 0.39448820248184 
1957	 0.395149079107474 
1958	 0.395827499479304 
1959	 0.396474415175654 
1960	 0.397120684922415 
1961	 0.397743917655419 
1962	 0.398326957137963 
1963	 0.398945809322544 
1964	 0.399562912867474 
1965	 0.400179142965505 
1966	 0.400811518466111 
1967	 0.401460816903445 
1968	 0.402055329502346 
1969	 0.402679714778635 
1970	 0.403310082706129 
1971	 0.40393503627081 
1972	 0.404605252620672 
1973	 0.405255949599316 
1974	 0.405931108844784 
1975	 0.406646847610561 
1976	 0.407329223276313 
1977	 0.408003521128983 
1978	 0.408693489133657 
1979	 0.409371431772234 
1980	 0.410041637106561 
1981	 0.41079929754677 
1982	 0.411537852148448 
1983	 0.412297628009797 
1984	 0.413084728098342 
1985	 0.413803024168369 
1986	 0.414522705098076 
1987	 0.415243372578061 
1988	 0.415935386964252 
1989	 0.416665049393529 
1990	 0.417432557969243 
1991	 0.41815733289566 
1992	 0.418888776943872 
1993	 0.419610969192133 
1994	 0.420251440695298 
1995	 0.420915212019093 
1996	 0.421556170192168 
1997	 0.422135897408388 
1998	 0.422739211253659 
1999	 0.423340093516347 
2000	 0.423908156546006 
2001	 0.424486610020759 
2002	 0.425018125507821 
2003	 0.425496897515187 
2004	 0.425982868629292 
2005	 0.426451351639132 
2006	 0.426896627788939 
2007	 0.427334243435688 
2008	 0.427747019007184 
2009	 0.428132797267057 
2010	 0.428496611387812 
2011	 0.428809785539248 
2012	 0.429123150257262 
2013	 0.429397804554227 
2014	 0.429636608792414 
2015	 0.429847798198325 
2016	 0.430048841153294 
2017	 0.430187330250659 
2018	 0.430272421757036 
2019	 0.430337767077348 
2020	 0.430366214275637 
2021	 0.43035658876723 
2022	 0.430316581889916 
2023	 0.430247385688116 
2024	 0.430133357055393 
2025	 0.42996949097947 
2026	 0.429780680494707 
2027	 0.429555056376728 
2028	 0.429302112238312 
2029	 0.429011807337353 
2030	 0.428703351027225 
2031	 0.428375111361657 
2032	 0.42800564461011 
2033	 0.4275920215059 
2034	 0.427172307419278 
2035	 0.426718555981538 
2036	 0.426240708129663 
2037	 0.425788822698116 
2038	 0.425331206570669 
2039	 0.424870702015797 
2040	 0.424420214865995 
2041	 0.423940503610388 
2042	 0.42342921683303 
2043	 0.422948359137731 
2044	 0.422441364336725 
2045	 0.421986662884687 
2046	 0.421567751243476 
2047	 0.421163878566812 
2048	 0.420784259619442 
2049	 0.420419022636923 
2050	 0.420059514796703 
2051	 0.419734310346197 
2052	 0.419448078962417 
2053	 0.419224225373674 
2054	 0.419046525471678 
2055	 0.418921364052887 
2056	 0.418854893080248 
2057	 0.418850018615321 
2058	 0.418875111396019 
2059	 0.418971618880265 
2060	 0.419078767529431 
2061	 0.419215664935958 
2062	 0.419372056280149 
2063	 0.419560366105724 
2064	 0.419771045928092 
2065	 0.420009992413668 
2066	 0.420257299256649 
2067	 0.420541910178104 
2068	 0.420846802809891 
2069	 0.421127931341153 
2070	 0.421418995309006 
2071	 0.421692979311171 
2072	 0.421953302925666 
2073	 0.42220237644024 
2074	 0.422440793381551 
2075	 0.422680861844789 
2076	 0.422917734087353 
2077	 0.423135714128216 
2078	 0.423370839063916 
2079	 0.423555353959714 
2080	 0.423697931907979 
2081	 0.42382971859494 
2082	 0.423937666548099 
2083	 0.424021390902603 
2084	 0.42408818458204 
2085	 0.424136609933094 
2086	 0.424159520620359 
2087	 0.424152569384283 
2088	 0.424135962748317 
2089	 0.424101365328284 
2090	 0.424048843290491 
2091	 0.42397912345942 
2092	 0.423891199084643 
2093	 0.423783073799973 
2094	 0.423654917130777 
2095	 0.423508265311237 
2096	 0.423346243536587 
2097	 0.423154867645286 
2098	 0.42296492550287 
2099	 0.42277302836299 
2100	 0.422538553030142 
2101	 0.422303032237196 
2102	 0.422061647603199 
2103	 0.42179213506236 
2104	 0.421489770583757 
2105	 0.421201958498295 
2106	 0.420900768759528 
2107	 0.420594516162093 
2108	 0.420317284371978 
2109	 0.41997800627144 
2110	 0.419602267706678 
2111	 0.419216708501582 
2112	 0.418795881371696 
2113	 0.418359666903845 
2114	 0.417921797768215 
2115	 0.417441153679173 
2116	 0.416916381641415 
2117	 0.416393385216551 
2118	 0.415822675937178 
2119	 0.415202738200398 
2120	 0.414614857974066 
2121	 0.413999751017795 
2122	 0.413399301616755 
2123	 0.412825621104133 
2124	 0.412218053937658 
2125	 0.411605307821915 
2126	 0.41096785491136 
2127	 0.41031562571572 
2128	 0.409642610830892 
2129	 0.408922558257266 
2130	 0.408224939171715 
2131	 0.407531203351825 
2132	 0.406822448190496 
2133	 0.406135382230049 
2134	 0.405414294468769 
2135	 0.40462236693828 
2136	 0.403842189848495 
2137	 0.403040220944237 
2138	 0.402188961096526 
2139	 0.401374816806271 
2140	 0.400571981454101 
2141	 0.399763811979582 
2142	 0.398969131347613 
2143	 0.398151069998953 
2144	 0.39730639327974 
2145	 0.396495229553171 
2146	 0.395651473121453 
2147	 0.394879638443061 
2148	 0.394168664637315 
2149	 0.393456800421271 
2150	 0.392796699636979 
2151	 0.392117758235646 
2152	 0.3914169116065 
2153	 0.390761302916558 
2154	 0.390093378797526 
2155	 0.389449989846387 
2156	 0.388832389160347 
2157	 0.388244678022092 
2158	 0.387651953853102 
2159	 0.387080381720696 
2160	 0.38650545090891 
2161	 0.385930587035211 
2162	 0.385375946174087 
2163	 0.384820090337981 
2164	 0.384298400144845 
2165	 0.383790350115437 
2166	 0.383313361053294 
2167	 0.382876168761107 
2168	 0.382445428555496 
2169	 0.382037708913343 
2170	 0.381644037609521 
2171	 0.381255190810123 
2172	 0.380894544154037 
2173	 0.380551595578462 
2174	 0.380232237026746 
2175	 0.379984863265056 
2176	 0.379741749078093 
2177	 0.379476803336435 
2178	 0.379240223334077 
2179	 0.378976549608747 
2180	 0.378658697740706 
2181	 0.378406756314449 
2182	 0.378190003527565 
2183	 0.377964476082767 
2184	 0.377768346414276 
2185	 0.377546874871297 
2186	 0.377305326770796 
2187	 0.377084984344863 
2188	 0.376849679580305 
2189	 0.376649740656953 
2190	 0.376486556922349 
2191	 0.37631513418674 
2192	 0.376174584860079 
2193	 0.376010015708001 
2194	 0.375829059796418 
2195	 0.375650269702892 
2196	 0.375473710351251 
2197	 0.375264742958146 
2198	 0.37507308470602 
2199	 0.37492080823035 
2200	 0.374770039031434 
2201	 0.374644186459853 
2202	 0.374493359061038 
2203	 0.374345170285477 
2204	 0.374192175116068 
2205	 0.374018326330132 
2206	 0.373867599418541 
2207	 0.373732850075979 
2208	 0.373587380603454 
2209	 0.373443429984109 
2210	 0.373302949301001 
2211	 0.373151007131388 
2212	 0.373024295490344 
2213	 0.37291384861922 
2214	 0.37280235693655 
2215	 0.372709128906909 
2216	 0.372609457986566 
2217	 0.372522994328341 
2218	 0.372411203768107 
2219	 0.372299841536623 
2220	 0.372161503620285 
2221	 0.372004666289981 
2222	 0.371823537179213 
2223	 0.371620851034681 
2224	 0.371359929835683 
2225	 0.371030560461109 
2226	 0.370658820169894 
2227	 0.370219420601498 
2228	 0.369716444956587 
2229	 0.369156447347017 
2230	 0.368521898563344 
2231	 0.367862557376341 
2232	 0.367166165830763 
2233	 0.366386950106618 
2234	 0.365591287306659 
2235	 0.364651600525569 
2236	 0.363595036945962 
2237	 0.362476471238322 
2238	 0.361202026460951 
2239	 0.35996313127695 
2240	 0.358714151591167 
2241	 0.357372028502379 
2242	 0.356030967093147 
2243	 0.354562990422683 
2244	 0.352949815650527 
2245	 0.351320522601357 
2246	 0.349565034508541 
2247	 0.347844296151212 
2248	 0.346113851411289 
2249	 0.344354858969466 
2250	 0.342573873171545 
2251	 0.340837365361321 
2252	 0.338950385949959 
2253	 0.337115290727699 
2254	 0.335273165532683 
2255	 0.333374533338341 
2256	 0.331607186197422 
2257	 0.329806812269718 
2258	 0.328028825247843 
2259	 0.326277857299211 
2260	 0.324522679353742 
2261	 0.322754432217166 
2262	 0.321047172302684 
2263	 0.319333733786363 
2264	 0.317717888687762 
2265	 0.316191300667478 
2266	 0.314631720158733 
2267	 0.313136482722116 
2268	 0.311610843604988 
2269	 0.31004450383341 
2270	 0.308548774940388 
2271	 0.307050015793898 
2272	 0.305631428432974 
2273	 0.304306794594307 
2274	 0.302949314770226 
2275	 0.301684169253085 
2276	 0.300322562507608 
2277	 0.298922815096231 
2278	 0.297488700642365 
2279	 0.295975585697756 
2280	 0.29446954829985 
2281	 0.292958344274196 
2282	 0.291393354560788 
2283	 0.289798135276185 
2284	 0.288211411745657 
2285	 0.286458549350906 
2286	 0.284732025600411 
2287	 0.28290406552175 
2288	 0.280946768179093 
2289	 0.27909462690977 
2290	 0.277139996198173 
2291	 0.275186512039736 
2292	 0.273278530244613 
2293	 0.271182364665954 
2294	 0.269117761878135 
2295	 0.26707187599839 
2296	 0.265028127934769 
2297	 0.263251749968379 
2298	 0.26161882294166 
2299	 0.260174502726044 
2300	 0.258945150887556 
2301	 0.257885057825954 
2302	 0.25692731952783 
2303	 0.256339852533299 
2304	 0.256013426898168 
2305	 0.255931861256354 
2306	 0.256177737807794 
2307	 0.256662141495408 
2308	 0.257346778907686 
2309	 0.258390316024649 
2310	 0.259888221582719 
2311	 0.2613944615252 
2312	 0.263272124400706 
2313	 0.265043487504892 
2314	 0.266931085658131 
2315	 0.268706742959863 
2316	 0.270538848077109 
2317	 0.272178261131337 
2318	 0.273776832584197 
2319	 0.275092691895009 
2320	 0.276241704820271 
2321	 0.277167497934485 
2322	 0.277779548010861 
2323	 0.278323728817269 
2324	 0.278701668509293 
2325	 0.278931438617139 
2326	 0.279001477191946 
2327	 0.278936936963102 
2328	 0.278695004185132 
2329	 0.278348955675459 
2330	 0.27787256225104 
2331	 0.277257382906974 
2332	 0.276531734213476 
2333	 0.27559204022809 
2334	 0.274464134024075 
2335	 0.273321767128068 
2336	 0.272025816278938 
2337	 0.270607775640726 
2338	 0.269220259307223 
2339	 0.267676951166872 
2340	 0.266159772286992 
2341	 0.264717967215191 
2342	 0.263318534069267 
2343	 0.262145517759154 
2344	 0.261168758685945 
2345	 0.26050115321113 
2346	 0.260160519260443 
2347	 0.260115307011105 
2348	 0.260313452761051 
2349	 0.260857206427517 
2350	 0.261757724141923 
2351	 0.262861149371863 
2352	 0.26415998003102 
2353	 0.265623987636255 
2354	 0.266957097804936 
2355	 0.268237514480618 
2356	 0.269471990968147 
2357	 0.270453085759378 
2358	 0.271321285938092 
2359	 0.27199559974322 
2360	 0.272519216824937 
2361	 0.272940779817312 
2362	 0.273231508525549 
2363	 0.273418373553208 
2364	 0.27346415446754 
2365	 0.273361299653395 
2366	 0.273241611454327 
2367	 0.273180456247736 
2368	 0.273082078985679 
2369	 0.272987650662444 
2370	 0.272967622655299 
2371	 0.272896736063481 
2372	 0.272776384112289 
2373	 0.272784236410328 
2374	 0.272836146578648 
2375	 0.272809081833637 
2376	 0.272785031697226 
2377	 0.27280704387654 
2378	 0.272765863158523 
2379	 0.272692294430775 
2380	 0.272731800788308 
2381	 0.272738875830733 
2382	 0.272699628085912 
2383	 0.272629015121515 
2384	 0.272566248483262 
2385	 0.272442439980746 
2386	 0.27237643024098 
2387	 0.272350440305906 
2388	 0.272272426818714 
2389	 0.272194588880988 
2390	 0.272091824357978 
2391	 0.271948498322228 
2392	 0.271847476142675 
2393	 0.271746291764299 
2394	 0.271677719928212 
2395	 0.271631024007296 
2396	 0.271569243321993 
2397	 0.271543658283067 
2398	 0.271441239321777 
2399	 0.271299511874782 
2400	 0.271172546334639 
2401	 0.270953150349446 
2402	 0.270989081986072 
2403	 0.271059182697393 
2404	 0.271048979502111 
2405	 0.270984782797865 
2406	 0.270850881073287 
2407	 0.270654939512604 
2408	 0.270606943457348 
2409	 0.270650834687921 
2410	 0.270542895492767 
2411	 0.270286761251475 
2412	 0.270024147630014 
2413	 0.269775175370861 
2414	 0.269523551324753 
2415	 0.269385126083122 
2416	 0.269271239686664 
2417	 0.268901591965207 
2418	 0.268566067786412 
2419	 0.268388743793466 
2420	 0.268141392904252 
2421	 0.267982955773512 
2422	 0.267794325458615 
2423	 0.267468493909357 
2424	 0.267010115689843 
2425	 0.266606920109748 
2426	 0.266395908696387 
2427	 0.266159389753076 
2428	 0.266009237018428 
2429	 0.265749751375678 
2430	 0.265327410213232 
2431	 0.265041838664217 
2432	 0.264678107045543 
2433	 0.264249597101957 
2434	 0.263893143275164 
2435	 0.26336938743431 
2436	 0.26278013706359 
2437	 0.262380276879776 
2438	 0.26196251620999 
2439	 0.261484634254262 
2440	 0.26104931103134 
2441	 0.260556994285462 
2442	 0.260061630092036 
2443	 0.25954487579949 
2444	 0.259085422854362 
2445	 0.25862539380782 
2446	 0.257917688203405 
2447	 0.257238305055302 
2448	 0.256630068726086 
2449	 0.25600313838154 
2450	 0.255598213539736 
2451	 0.255099992944416 
2452	 0.254410183594148 
2453	 0.253785092963206 
2454	 0.253036987699527 
2455	 0.252308689763796 
2456	 0.251702556548585 
2457	 0.251059736110418 
2458	 0.250438317539132 
2459	 0.249892033723574 
2460	 0.249368876971241 
2461	 0.248791383838574 
2462	 0.248266219499761 
2463	 0.247772044496383 
2464	 0.247414953437116 
2465	 0.247202948161752 
2466	 0.246797419529571 
2467	 0.246363098677331 
2468	 0.245986508467843 
2469	 0.24548576333721 
2470	 0.245187219209355 
2471	 0.245133780644917 
2472	 0.244876507195833 
2473	 0.244471762986223 
2474	 0.244117617041464 
2475	 0.243882453791411 
2476	 0.243808420520483 
2477	 0.243668731483068 
2478	 0.243386841642236 
2479	 0.243092563756532 
2480	 0.242526534055232 
2481	 0.242453826110967 
2482	 0.242928157280704 
2483	 0.242981330548868 
2484	 0.243033984591005 
2485	 0.242827399083762 
2486	 0.242511092746179 
2487	 0.242297517257008 
2488	 0.242236676337877 
2489	 0.242336644927581 
2490	 0.242300014165089 
2491	 0.24225088688673 
2492	 0.242388214077471 
2493	 0.242382105009839 
2494	 0.242382444950248 
2495	 0.242580602153647 
2496	 0.242572355091422 
2497	 0.242583007979515 
2498	 0.242633279833884 
2499	 0.24269298996521 
2500	 0.242915145953113 
