Wavelength	spectrum00010.asd
350	 5.31093872551185E-02 
351	 5.06888965629635E-02 
352	 0.047435094091792 
353	 4.46225365617668E-02 
354	 4.22596667518828E-02 
355	 0.04212594902178 
356	 4.19665201433424E-02 
357	 3.99733319696451E-02 
358	 3.81974786709495E-02 
359	 3.68811070010153E-02 
360	 3.61033680291484E-02 
361	 3.57545115823375E-02 
362	 3.54392638448427E-02 
363	 3.43246565904289E-02 
364	 3.27934685183263E-02 
365	 3.27830283076753E-02 
366	 3.32893851492192E-02 
367	 3.27947450898036E-02 
368	 3.09024657003609E-02 
369	 3.11199085843671E-02 
370	 3.11177054480517E-02 
371	 3.07565413929604E-02 
372	 3.09731380062046E-02 
373	 3.00365604138447E-02 
374	 2.98547059714793E-02 
375	 3.06495034435349E-02 
376	 2.97450727421244E-02 
377	 2.87664131633371E-02 
378	 2.84492990782215E-02 
379	 2.89055913329674E-02 
380	 2.91028319841439E-02 
381	 2.85468521482989E-02 
382	 2.74879497127308E-02 
383	 2.66674969896429E-02 
384	 2.67328868359824E-02 
385	 2.69239526056284E-02 
386	 2.64806642229505E-02 
387	 2.48226878929164E-02 
388	 2.50887754292093E-02 
389	 0.02558187742366 
390	 2.44072384831019E-02 
391	 2.41398746272927E-02 
392	 0.024127958070939 
393	 2.42405686961258E-02 
394	 0.024621062853546 
395	 2.40957817826345E-02 
396	 2.37293175992197E-02 
397	 0.023841855510401 
398	 2.30485634638317E-02 
399	 2.21825758472547E-02 
400	 2.18620805469116E-02 
401	 2.22126927212575E-02 
402	 2.16420099470552E-02 
403	 2.15584652502294E-02 
404	 2.17714575204182E-02 
405	 2.09909122832297E-02 
406	 2.09883320332898E-02 
407	 2.08693447465407E-02 
408	 2.02073078264357E-02 
409	 2.02595132719544E-02 
410	 2.00474959377939E-02 
411	 1.96771834489267E-02 
412	 1.95488431296038E-02 
413	 1.97098489099487E-02 
414	 1.96028785463643E-02 
415	 1.92697119492908E-02 
416	 1.92752002582676E-02 
417	 1.90225538856604E-02 
418	 0.018687298674474 
419	 1.84970386229299E-02 
420	 1.85000700225695E-02 
421	 1.83975319880109E-02 
422	 1.83187677659105E-02 
423	 0.018464763476814 
424	 1.82489463388241E-02 
425	 1.80388687893496E-02 
426	 1.80273578908274E-02 
427	 1.81217455347776E-02 
428	 1.79085894357458E-02 
429	 1.77339863951008E-02 
430	 1.78654623603871E-02 
431	 1.77926523849479E-02 
432	 1.77266968148872E-02 
433	 1.76200791548406E-02 
434	 1.73469236209195E-02 
435	 1.74783904034773E-02 
436	 1.75981670947013E-02 
437	 1.74832638821657E-02 
438	 0.01737196287209 
439	 1.74509035560537E-02 
440	 0.017528569966831 
441	 1.74201075349495E-02 
442	 0.017491529136114 
443	 1.76048405352318E-02 
444	 1.76918716863316E-02 
445	 1.77520920238343E-02 
446	 1.77241146387081E-02 
447	 1.77041927773886E-02 
448	 0.017770198584716 
449	 1.79102729175768E-02 
450	 1.80831157376524E-02 
451	 1.82415939131256E-02 
452	 1.83435233381664E-02 
453	 0.018369506781769 
454	 1.84642102030468E-02 
455	 1.86470717675139E-02 
456	 1.87915806189235E-02 
457	 0.019136035389902 
458	 1.93535196332589E-02 
459	 1.92729006924543E-02 
460	 1.95455844839125E-02 
461	 1.99073413535952E-02 
462	 2.01633571535967E-02 
463	 2.02220774135819E-02 
464	 2.05339171946864E-02 
465	 2.09752964411482E-02 
466	 0.021373553622283 
467	 2.15837484024704E-02 
468	 2.19023689768682E-02 
469	 0.022292927607297 
470	 2.26671519762731E-02 
471	 2.31836314032522E-02 
472	 2.36098119624347E-02 
473	 2.40160118007421E-02 
474	 2.46864873121417E-02 
475	 2.51898940302299E-02 
476	 2.56885888153285E-02 
477	 2.63012060969066E-02 
478	 2.68184189593302E-02 
479	 2.74353935760948E-02 
480	 2.81619788421491E-02 
481	 2.89342097069088E-02 
482	 2.97382223113239E-02 
483	 3.04815974819438E-02 
484	 3.12274848511435E-02 
485	 3.22103461979905E-02 
486	 3.31848764580105E-02 
487	 3.40782989365324E-02 
488	 0.03492007269105 
489	 3.59031993642986E-02 
490	 3.69950037829341E-02 
491	 3.81160686031902E-02 
492	 3.91799692603806E-02 
493	 4.03213026057905E-02 
494	 4.14909621141986E-02 
495	 0.042672298330979 
496	 4.39418010327654E-02 
497	 4.51531069459409E-02 
498	 4.63978896482704E-02 
499	 4.77828935737079E-02 
500	 4.91410053807266E-02 
501	 5.05200315339141E-02 
502	 5.19062324173953E-02 
503	 5.32365300235225E-02 
504	 0.05471336101678 
505	 5.62679001986806E-02 
506	 5.78099154218487E-02 
507	 5.93201991428987E-02 
508	 6.08447526121635E-02 
509	 6.24279736011464E-02 
510	 6.40916239970968E-02 
511	 6.57304087802415E-02 
512	 6.74012054965425E-02 
513	 6.91005192212584E-02 
514	 7.07344083352531E-02 
515	 0.072412593319464 
516	 7.41500763119342E-02 
517	 7.59173592039868E-02 
518	 7.76138485603602E-02 
519	 0.079406977218543 
520	 8.12797559110922E-02 
521	 8.30939946088383E-02 
522	 8.49461209156101E-02 
523	 8.68008907020276E-02 
524	 8.86487496220785E-02 
525	 9.05789216078137E-02 
526	 0.092458446004081 
527	 9.43364641132665E-02 
528	 0.096294664021753 
529	 9.81824109316953E-02 
530	 0.100128287280141 
531	 0.102161052415966 
532	 0.104184518914758 
533	 0.106180715456091 
534	 0.10819862393508 
535	 0.11026976581909 
536	 0.112334192694318 
537	 0.114413838021616 
538	 0.116497240580696 
539	 0.118566132166721 
540	 0.120692105496604 
541	 0.122796163614082 
542	 0.124853588191696 
543	 0.126951883827571 
544	 0.129047401473305 
545	 0.131116849288897 
546	 0.13315870856141 
547	 0.1352583260827 
548	 0.137311599781 
549	 0.139314281900723 
550	 0.141354291700501 
551	 0.143370772446686 
552	 0.14542484608622 
553	 0.147552117310209 
554	 0.149661227113091 
555	 0.151813411143927 
556	 0.153974212208277 
557	 0.156083983006427 
558	 0.158267466262644 
559	 0.160475328901361 
560	 0.162661800581697 
561	 0.164813569097646 
562	 0.166934664713973 
563	 0.169037999786712 
564	 0.171130926972724 
565	 0.173189395388693 
566	 0.175204565686479 
567	 0.177190491773297 
568	 0.179175380315736 
569	 0.181138071791344 
570	 0.183062105378491 
571	 0.184959402462753 
572	 0.186893730624314 
573	 0.188842931259092 
574	 0.190835763525887 
575	 0.192894705347127 
576	 0.194897907981853 
577	 0.196842463512984 
578	 0.198742480753391 
579	 0.2006173338105 
580	 0.202474469575634 
581	 0.204345321771447 
582	 0.206253494726989 
583	 0.208179118083047 
584	 0.210123484508451 
585	 0.212065463786067 
586	 0.213986570658779 
587	 0.215980468213809 
588	 0.217963433670921 
589	 0.219896679138809 
590	 0.22184969134846 
591	 0.223789703352409 
592	 0.225689906112897 
593	 0.227542135260483 
594	 0.229416685127135 
595	 0.231325715332095 
596	 0.23324935607012 
597	 0.235138658901886 
598	 0.23704966289243 
599	 0.238966447649169 
600	 0.24086250752848 
601	 0.242702749045663 
602	 0.244549851247313 
603	 0.246422550098588 
604	 0.248306391763154 
605	 0.250137015693449 
606	 0.251966755412693 
607	 0.253807818666242 
608	 0.255606065375918 
609	 0.257350504615923 
610	 0.259086052429639 
611	 0.260851154295699 
612	 0.262589698264948 
613	 0.264341647720335 
614	 0.266093105783524 
615	 0.267802347342027 
616	 0.269485398605884 
617	 0.27118870847992 
618	 0.272911737406672 
619	 0.274568025868671 
620	 0.276216235295234 
621	 0.277885579531768 
622	 0.279583688690613 
623	 0.281264504055895 
624	 0.282885689708157 
625	 0.28446056772742 
626	 0.286053869002481 
627	 0.287662189691159 
628	 0.28927799700394 
629	 0.29088450938509 
630	 0.292444205278428 
631	 0.29397516921176 
632	 0.295521887210326 
633	 0.297119171132308 
634	 0.298671760250578 
635	 0.30018675349601 
636	 0.301690417861257 
637	 0.303213975141897 
638	 0.304682546534811 
639	 0.306138275786084 
640	 0.307619937040834 
641	 0.309049889104933 
642	 0.310508054732573 
643	 0.311987353517468 
644	 0.313433893183216 
645	 0.314896459152471 
646	 0.31630377068891 
647	 0.317657563010078 
648	 0.319105828647122 
649	 0.320474899474652 
650	 0.321805596294133 
651	 0.323175286207094 
652	 0.324518200497871 
653	 0.325874726448715 
654	 0.327223938828206 
655	 0.32850133641703 
656	 0.329815902677172 
657	 0.331160712996332 
658	 0.332494047104478 
659	 0.333731747495218 
660	 0.335083090727072 
661	 0.336435240105215 
662	 0.337618584284068 
663	 0.338889435052103 
664	 0.340162261792285 
665	 0.341392442003651 
666	 0.342595896152418 
667	 0.343787932428018 
668	 0.345004735065656 
669	 0.346248144272983 
670	 0.347432590235525 
671	 0.348571978447879 
672	 0.349723136452256 
673	 0.350943358877591 
674	 0.352131481738613 
675	 0.35325700213429 
676	 0.354339886922429 
677	 0.355450296834724 
678	 0.35662578440873 
679	 0.357820857812136 
680	 0.358967654457046 
681	 0.359992222747082 
682	 0.361056875661346 
683	 0.362161758120573 
684	 0.363222947067697 
685	 0.364283828260801 
686	 0.365342135747477 
687	 0.366401342266088 
688	 0.36748016763119 
689	 0.368605859187162 
690	 0.369639134000088 
691	 0.370520101652027 
692	 0.371614149885314 
693	 0.372622371950102 
694	 0.373554582744875 
695	 0.374603324118535 
696	 0.375680334173579 
697	 0.37666311414412 
698	 0.377546840772174 
699	 0.37851531229415 
700	 0.379474943997182 
701	 0.380453053329792 
702	 0.381467743767642 
703	 0.382373186865005 
704	 0.383315376268911 
705	 0.384265457564496 
706	 0.385092048069422 
707	 0.385964847742864 
708	 0.386927845965808 
709	 0.387919742070937 
710	 0.388733606159609 
711	 0.389596619413893 
712	 0.390483434266744 
713	 0.391326460590451 
714	 0.392213433443054 
715	 0.393056394270066 
716	 0.393852612497006 
717	 0.39466174908643 
718	 0.395487590893496 
719	 0.396359221891843 
720	 0.397240787917868 
721	 0.397982123914237 
722	 0.398722360549994 
723	 0.39949228135227 
724	 0.400272385312626 
725	 0.400987677579797 
726	 0.401682965551573 
727	 0.402437569689 
728	 0.40332109366849 
729	 0.404082276614547 
730	 0.404771152015465 
731	 0.40547067956499 
732	 0.40624523748918 
733	 0.407002265201529 
734	 0.407694145538901 
735	 0.408319351134713 
736	 0.408978520033961 
737	 0.409654144153076 
738	 0.410315182264205 
739	 0.410930915957181 
740	 0.411552884918782 
741	 0.412225139358779 
742	 0.412917530215202 
743	 0.413495163327983 
744	 0.414122850854213 
745	 0.414781304559094 
746	 0.415411480085841 
747	 0.416000286256644 
748	 0.416584550025232 
749	 0.417193194889683 
750	 0.417842309995846 
751	 0.418515156458831 
752	 0.419085322529613 
753	 0.419561147899536 
754	 0.420131407766388 
755	 0.42072638006347 
756	 0.421337294497922 
757	 0.421956891075284 
758	 0.422554779214429 
759	 0.423090569652952 
760	 0.423609102927741 
761	 0.424182666201014 
762	 0.424767255525336 
763	 0.425336940019173 
764	 0.42587262568552 
765	 0.426368816883556 
766	 0.426943975051281 
767	 0.42747716779565 
768	 0.427900313179444 
769	 0.428361060378896 
770	 0.428950245466661 
771	 0.42954184055779 
772	 0.429981391846598 
773	 0.430431181835147 
774	 0.43091723016453 
775	 0.431398843331286 
776	 0.43179797976067 
777	 0.432212817626048 
778	 0.432666298849542 
779	 0.433126208482378 
780	 0.43348393724243 
781	 0.433993734369928 
782	 0.43449458909998 
783	 0.434820648325342 
784	 0.435225576051507 
785	 0.435672168901569 
786	 0.436112325931825 
787	 0.436496863436155 
788	 0.436825699711558 
789	 0.437211003044255 
790	 0.437647494976745 
791	 0.437989432124078 
792	 0.438417805802186 
793	 0.438864938769322 
794	 0.439246364450393 
795	 0.439560144858605 
796	 0.439873421136271 
797	 0.440237783653334 
798	 0.440661740834276 
799	 0.440999911206441 
800	 0.44135187747608 
801	 0.441744930987143 
802	 0.44213689269212 
803	 0.442471162899227 
804	 0.442833792617805 
805	 0.443238971876415 
806	 0.443567395767294 
807	 0.443879303241021 
808	 0.444231198071919 
809	 0.444631701187115 
810	 0.44495619835639 
811	 0.445245640817255 
812	 0.44554174523412 
813	 0.445883893549432 
814	 0.446292353028212 
815	 0.446645110177908 
816	 0.446908331276747 
817	 0.447140547821301 
818	 0.44739846861773 
819	 0.447708171245028 
820	 0.448025657189975 
821	 0.448207334544925 
822	 0.44852894662128 
823	 0.448869915136884 
824	 0.449098069142245 
825	 0.449392049409246 
826	 0.449710815268087 
827	 0.450012419374267 
828	 0.450261164000946 
829	 0.450467588926697 
830	 0.450713875617172 
831	 0.451012834745883 
832	 0.451309282262626 
833	 0.451558861516111 
834	 0.451821301079605 
835	 0.452093044689715 
836	 0.452251982501979 
837	 0.452507097567201 
838	 0.452765099956037 
839	 0.452940120768793 
840	 0.453186307970953 
841	 0.453459005468306 
842	 0.453752568860209 
843	 0.454052342635255 
844	 0.45423846807583 
845	 0.454436136974434 
846	 0.454694455830129 
847	 0.454987460566911 
848	 0.455251245851882 
849	 0.455514693703978 
850	 0.455774131084466 
851	 0.45597627731921 
852	 0.456249520386231 
853	 0.456514857363799 
854	 0.456729353658687 
855	 0.457025383890832 
856	 0.457227798736841 
857	 0.457419234899409 
858	 0.45768626778739 
859	 0.457810083676844 
860	 0.458036663820698 
861	 0.4582995436117 
862	 0.458418646872915 
863	 0.458601631345746 
864	 0.458783793679137 
865	 0.458953746136978 
866	 0.459153849506203 
867	 0.459328575561228 
868	 0.459491886105643 
869	 0.459670662143119 
870	 0.459891818352461 
871	 0.460081354386168 
872	 0.46018523048935 
873	 0.460227037578885 
874	 0.460376825144531 
875	 0.460585565049797 
876	 0.460764170831781 
877	 0.460852756745299 
878	 0.46094030244425 
879	 0.461069494723618 
880	 0.461196189847659 
881	 0.461263798214694 
882	 0.461403047999192 
883	 0.461549975536108 
884	 0.461668695539771 
885	 0.461761369726421 
886	 0.461882189210176 
887	 0.461943858361579 
888	 0.461931715681364 
889	 0.461932562859766 
890	 0.461993099413687 
891	 0.462085345255199 
892	 0.46217190396942 
893	 0.462230754288041 
894	 0.462276009719192 
895	 0.462321558948911 
896	 0.462365966457616 
897	 0.462366519855271 
898	 0.462376289682257 
899	 0.462405245407184 
900	 0.462449684557875 
901	 0.462522882622689 
902	 0.462559022304273 
903	 0.46256996118245 
904	 0.462609420856318 
905	 0.462708377148242 
906	 0.462846638226979 
907	 0.462956269876434 
908	 0.462969689450542 
909	 0.463041180719462 
910	 0.463171101242796 
911	 0.46336368732268 
912	 0.463623577570214 
913	 0.463740258022491 
914	 0.463801369069918 
915	 0.463908922928651 
916	 0.464107469537918 
917	 0.464347820864953 
918	 0.4645091328017 
919	 0.464595956489475 
920	 0.464857086596872 
921	 0.465073006810416 
922	 0.465243005198966 
923	 0.465406058453823 
924	 0.465542344855286 
925	 0.465770064418461 
926	 0.46600873901159 
927	 0.466174296429309 
928	 0.466406548150228 
929	 0.466647656512941 
930	 0.466881828369441 
931	 0.467109609554918 
932	 0.467317100594673 
933	 0.467575080936755 
934	 0.467878422182115 
935	 0.468183766462465 
936	 0.46850700638732 
937	 0.468817782945342 
938	 0.469097443993313 
939	 0.469345723772474 
940	 0.469602156740996 
941	 0.469865677368967 
942	 0.470129490807593 
943	 0.470377707700453 
944	 0.4705209842453 
945	 0.470719519467642 
946	 0.470984458646136 
947	 0.471149818535241 
948	 0.471221057424187 
949	 0.471339428983415 
950	 0.47154932503406 
951	 0.471746326398633 
952	 0.471896530926287 
953	 0.472033914616795 
954	 0.472193783268799 
955	 0.472383140762656 
956	 0.472415823371093 
957	 0.472492943970936 
958	 0.472703360569654 
959	 0.472809482488895 
960	 0.472891953093463 
961	 0.473030188474109 
962	 0.473228473931902 
963	 0.473346268916232 
964	 0.473439300362145 
965	 0.473496297679048 
966	 0.473564778021997 
967	 0.473854254127952 
968	 0.473970792580446 
969	 0.474000732224711 
970	 0.474102920476848 
971	 0.474239136212087 
972	 0.474356579263216 
973	 0.474442994149003 
974	 0.474520436594706 
975	 0.474663812908465 
976	 0.474705553782848 
977	 0.474804875749769 
978	 0.475072966899758 
979	 0.475152380461956 
980	 0.475226954427594 
981	 0.475336070657701 
982	 0.475472039506908 
983	 0.475641153931237 
984	 0.47572048978338 
985	 0.47581361920263 
986	 0.476005092395191 
987	 0.476040618151754 
988	 0.476028056919726 
989	 0.476076655946552 
990	 0.476233821093541 
991	 0.476350853950479 
992	 0.476445469502102 
993	 0.476504196929393 
994	 0.476560510447012 
995	 0.476837120095375 
996	 0.476948865424042 
997	 0.476899417485531 
998	 0.476902231575609 
999	 0.477326614772994 
1000	 0.477560126199994 
1001	 0.472598926712904 
1002	 0.472631801322774 
1003	 0.472711326543618 
1004	 0.472744313227041 
1005	 0.472730598931823 
1006	 0.472761701048099 
1007	 0.472805157063272 
1008	 0.472836632720602 
1009	 0.472891022938533 
1010	 0.472921742725747 
1011	 0.472916154971253 
1012	 0.472942983607407 
1013	 0.472965141030733 
1014	 0.473002219354876 
1015	 0.473043252357283 
1016	 0.473144500941396 
1017	 0.473195463261957 
1018	 0.473266899464581 
1019	 0.473381833307388 
1020	 0.473442952136565 
1021	 0.47353657144925 
1022	 0.473664502296551 
1023	 0.473771080887267 
1024	 0.47385724607111 
1025	 0.473976239994225 
1026	 0.474094080770107 
1027	 0.474232092897678 
1028	 0.474407647882209 
1029	 0.474558359944018 
1030	 0.474708976908517 
1031	 0.47489726429677 
1032	 0.475053896783451 
1033	 0.475233885551302 
1034	 0.475418924043258 
1035	 0.475559168644134 
1036	 0.475728196870702 
1037	 0.475915449920372 
1038	 0.47607905338353 
1039	 0.476235496758953 
1040	 0.476401262749283 
1041	 0.476554661055282 
1042	 0.476714183778634 
1043	 0.476885223904829 
1044	 0.477061541902555 
1045	 0.477209027842477 
1046	 0.477362206126596 
1047	 0.477539771730554 
1048	 0.477698897641481 
1049	 0.477857201619235 
1050	 0.477967796550486 
1051	 0.478048999612624 
1052	 0.47816286683064 
1053	 0.478261656481893 
1054	 0.478361006326339 
1055	 0.478469614965186 
1056	 0.478574340490612 
1057	 0.478654576213248 
1058	 0.478730333619308 
1059	 0.478822101030625 
1060	 0.478867299909906 
1061	 0.478908531132396 
1062	 0.478990122492046 
1063	 0.479051831088593 
1064	 0.479062498512515 
1065	 0.4790886568338 
1066	 0.479131370052229 
1067	 0.479149082285129 
1068	 0.47918700564262 
1069	 0.479254256818511 
1070	 0.479299121102094 
1071	 0.479325752934359 
1072	 0.479344984243296 
1073	 0.479383301660685 
1074	 0.479427440060801 
1075	 0.479460558488515 
1076	 0.479493796572083 
1077	 0.479529334927592 
1078	 0.479535925726694 
1079	 0.479541893989664 
1080	 0.479538682316355 
1081	 0.479529447388625 
1082	 0.479532447891133 
1083	 0.479536689850811 
1084	 0.479565951875677 
1085	 0.479614717737332 
1086	 0.479632004129835 
1087	 0.479638428960133 
1088	 0.479634731973787 
1089	 0.479635134952676 
1090	 0.479626222441117 
1091	 0.479651142753586 
1092	 0.479700871405543 
1093	 0.479750749154471 
1094	 0.479771731472532 
1095	 0.47977595525703 
1096	 0.479833656387058 
1097	 0.479866529161683 
1098	 0.479873748710572 
1099	 0.479916181406975 
1100	 0.479918245932515 
1101	 0.479904406207485 
1102	 0.479907869692006 
1103	 0.479910478592785 
1104	 0.479905091618678 
1105	 0.479915106301786 
1106	 0.479926779050387 
1107	 0.479936144461989 
1108	 0.479961368143722 
1109	 0.479970463649671 
1110	 0.479963205571365 
1111	 0.479963785216593 
1112	 0.47997605319449 
1113	 0.479973774161383 
1114	 0.479975870126162 
1115	 0.480001216562963 
1116	 0.479986258638479 
1117	 0.479955641898213 
1118	 0.479930551570463 
1119	 0.479895138765263 
1120	 0.479856458696229 
1121	 0.479827598594106 
1122	 0.479782673574447 
1123	 0.479690195021597 
1124	 0.479581578688073 
1125	 0.479444369430654 
1126	 0.479279280643017 
1127	 0.479099465000721 
1128	 0.478878665977321 
1129	 0.47862787629184 
1130	 0.478341361837337 
1131	 0.478016100314074 
1132	 0.477679128018512 
1133	 0.477303603158329 
1134	 0.476894394742518 
1135	 0.476455181051256 
1136	 0.475985115686509 
1137	 0.475489579191004 
1138	 0.474949531064012 
1139	 0.474407068155152 
1140	 0.473841333914004 
1141	 0.473281309868056 
1142	 0.472707374125188 
1143	 0.472133783800816 
1144	 0.471542006137863 
1145	 0.470905674102426 
1146	 0.470279508864612 
1147	 0.46965121549593 
1148	 0.469032381688147 
1149	 0.46845391334047 
1150	 0.467848962410978 
1151	 0.467268794673624 
1152	 0.466662114362584 
1153	 0.466047456950245 
1154	 0.465395857130498 
1155	 0.464750520709026 
1156	 0.464028668670407 
1157	 0.463266234590612 
1158	 0.462480303469515 
1159	 0.461641867841127 
1160	 0.460775359587286 
1161	 0.45991390689327 
1162	 0.45896835265228 
1163	 0.458033474906345 
1164	 0.457050387189766 
1165	 0.456002371585738 
1166	 0.455023491243041 
1167	 0.454000025625314 
1168	 0.452956332156917 
1169	 0.451894198070645 
1170	 0.450817808895337 
1171	 0.449703937887134 
1172	 0.448564879289191 
1173	 0.447399801887271 
1174	 0.446200553265651 
1175	 0.445023145062479 
1176	 0.443816443754461 
1177	 0.442629382764579 
1178	 0.441469683568861 
1179	 0.440253673421965 
1180	 0.439113812719033 
1181	 0.437998175320296 
1182	 0.436902326678712 
1183	 0.43595537340805 
1184	 0.435052271573484 
1185	 0.434219602793834 
1186	 0.433510035715146 
1187	 0.43291201859408 
1188	 0.432391448459092 
1189	 0.431954534549593 
1190	 0.431626436640964 
1191	 0.431423311813167 
1192	 0.431262205857492 
1193	 0.431208563356806 
1194	 0.431176392524702 
1195	 0.431196595672771 
1196	 0.431247468680991 
1197	 0.431338586000947 
1198	 0.431483923400753 
1199	 0.43164008840161 
1200	 0.431809897204242 
1201	 0.432039567096168 
1202	 0.432285034033585 
1203	 0.432549639215011 
1204	 0.432880235824995 
1205	 0.433233232053217 
1206	 0.433577640511699 
1207	 0.43404515453766 
1208	 0.434556363195274 
1209	 0.435182472043294 
1210	 0.435904141105551 
1211	 0.436709470110987 
1212	 0.43761304973004 
1213	 0.438601051337936 
1214	 0.439680433054528 
1215	 0.440837363112414 
1216	 0.442107109928246 
1217	 0.443397876321298 
1218	 0.444760635060413 
1219	 0.446166483490554 
1220	 0.447594170101549 
1221	 0.449100222714568 
1222	 0.450563552731666 
1223	 0.452045839602891 
1224	 0.453470035926161 
1225	 0.454874236871429 
1226	 0.45619356399413 
1227	 0.457480906426613 
1228	 0.458690122304987 
1229	 0.459837580031162 
1230	 0.460911422661955 
1231	 0.461911805663866 
1232	 0.462867199289815 
1233	 0.463747816194872 
1234	 0.464568210569935 
1235	 0.465326421791236 
1236	 0.466052585336906 
1237	 0.466697705040882 
1238	 0.46733681179916 
1239	 0.467957860631904 
1240	 0.468550260358058 
1241	 0.469112604182651 
1242	 0.469610642532422 
1243	 0.470082873810735 
1244	 0.470501634767237 
1245	 0.47093032586805 
1246	 0.471327161552945 
1247	 0.471729354767546 
1248	 0.472139215618427 
1249	 0.472518116635212 
1250	 0.472877078006552 
1251	 0.473221341929761 
1252	 0.473541263365103 
1253	 0.473859224504117 
1254	 0.474168461219898 
1255	 0.474467784508805 
1256	 0.474750192071457 
1257	 0.475038255072176 
1258	 0.475316351010016 
1259	 0.475596747945399 
1260	 0.475886417033583 
1261	 0.476169684131662 
1262	 0.476458136775283 
1263	 0.476729859568538 
1264	 0.476986022074504 
1265	 0.477239443864443 
1266	 0.477461127027687 
1267	 0.47765016355175 
1268	 0.477846900651797 
1269	 0.478024566282615 
1270	 0.478208827797785 
1271	 0.478400144709697 
1272	 0.478572745196008 
1273	 0.478750507435449 
1274	 0.478890284932729 
1275	 0.479014475835729 
1276	 0.479105363386032 
1277	 0.479131841861509 
1278	 0.479196364722159 
1279	 0.479270156581119 
1280	 0.479319719811348 
1281	 0.479385516258027 
1282	 0.479423901015705 
1283	 0.479418461422247 
1284	 0.479415509775147 
1285	 0.479406386703964 
1286	 0.479393867261948 
1287	 0.479371982352988 
1288	 0.479342597484048 
1289	 0.479302719469973 
1290	 0.479249542391254 
1291	 0.479204301797168 
1292	 0.479156497171482 
1293	 0.479100728875658 
1294	 0.479043228647412 
1295	 0.478987142728382 
1296	 0.478920466359356 
1297	 0.478859779482094 
1298	 0.478804455107828 
1299	 0.478751389493426 
1300	 0.478701931405177 
1301	 0.478645368010714 
1302	 0.478580044658885 
1303	 0.4785322156832 
1304	 0.478496847959808 
1305	 0.478447129883896 
1306	 0.478410762809929 
1307	 0.478361275098455 
1308	 0.47829087615961 
1309	 0.478209786247571 
1310	 0.478161970208717 
1311	 0.478131875811139 
1312	 0.478083244225296 
1313	 0.478052082983733 
1314	 0.477991123011379 
1315	 0.477904222103138 
1316	 0.477827905736468 
1317	 0.477747158034543 
1318	 0.477666518371997 
1319	 0.477579102663246 
1320	 0.477502324105648 
1321	 0.477438693837693 
1322	 0.477355604305544 
1323	 0.477281070860615 
1324	 0.477181359948097 
1325	 0.47705412836808 
1326	 0.476930418944527 
1327	 0.476810509782311 
1328	 0.47666359234718 
1329	 0.476506610706634 
1330	 0.476333686780706 
1331	 0.47616018976878 
1332	 0.475938304367417 
1333	 0.475688956603054 
1334	 0.475414441279237 
1335	 0.475114657950583 
1336	 0.474776519742375 
1337	 0.474410351636436 
1338	 0.474036492551769 
1339	 0.473605247000519 
1340	 0.473139181511522 
1341	 0.472609293875539 
1342	 0.472036220089893 
1343	 0.471413033869457 
1344	 0.470734929494766 
1345	 0.470005073471716 
1346	 0.469229396716118 
1347	 0.468414550526116 
1348	 0.467539829361051 
1349	 0.466637285048932 
1350	 0.465672396110431 
1351	 0.464726127232833 
1352	 0.463736723225233 
1353	 0.462773117700895 
1354	 0.461819642543029 
1355	 0.460881013884806 
1356	 0.45994527556687 
1357	 0.459022861975119 
1358	 0.458110587132082 
1359	 0.457215128905088 
1360	 0.456357052728332 
1361	 0.455481827561373 
1362	 0.454550454364749 
1363	 0.453654083052197 
1364	 0.45269243418247 
1365	 0.451683059129533 
1366	 0.450653246727898 
1367	 0.449600444668741 
1368	 0.448532155797203 
1369	 0.447424736532439 
1370	 0.446315862982895 
1371	 0.445191815448242 
1372	 0.444085617275387 
1373	 0.442956065099666 
1374	 0.441857173502132 
1375	 0.440769671755286 
1376	 0.439698284035651 
1377	 0.438627973677635 
1378	 0.437578902465861 
1379	 0.436546622403893 
1380	 0.435536222941396 
1381	 0.434535690879815 
1382	 0.433564036881788 
1383	 0.432609473762836 
1384	 0.431693101463205 
1385	 0.430788299484804 
1386	 0.429949490242018 
1387	 0.429153771939025 
1388	 0.428417904596998 
1389	 0.427733557089772 
1390	 0.42710850276832 
1391	 0.42656687893908 
1392	 0.426029985890514 
1393	 0.425564528087656 
1394	 0.42509649232821 
1395	 0.424571638708653 
1396	 0.424066341570146 
1397	 0.423431782998323 
1398	 0.42276610102055 
1399	 0.421934978277137 
1400	 0.421006573478881 
1401	 0.419942238206569 
1402	 0.418731674114092 
1403	 0.417449267143786 
1404	 0.41602654768562 
1405	 0.414606196205093 
1406	 0.413091872979188 
1407	 0.411592449567768 
1408	 0.410028157862127 
1409	 0.408530531891894 
1410	 0.407016237181576 
1411	 0.405567053637962 
1412	 0.404143132696458 
1413	 0.402813171645194 
1414	 0.401530068781494 
1415	 0.400320666215052 
1416	 0.399206211049622 
1417	 0.398125833022157 
1418	 0.397126569433779 
1419	 0.396120545948011 
1420	 0.395140912422933 
1421	 0.394201814759109 
1422	 0.393267544446622 
1423	 0.392378403513309 
1424	 0.3915465537763 
1425	 0.390721462488818 
1426	 0.38996031080614 
1427	 0.389253636914901 
1428	 0.388611561867465 
1429	 0.388058152751648 
1430	 0.387554737652448 
1431	 0.387107211857141 
1432	 0.386733158063171 
1433	 0.386429311592178 
1434	 0.386180900529549 
1435	 0.386001705929573 
1436	 0.385865175252405 
1437	 0.385794726581587 
1438	 0.385750606946243 
1439	 0.385758561131864 
1440	 0.385786813209603 
1441	 0.385849236892111 
1442	 0.385937483834727 
1443	 0.386052162225888 
1444	 0.386203833011555 
1445	 0.386392561065016 
1446	 0.386600937999668 
1447	 0.386832295671092 
1448	 0.387104462371454 
1449	 0.387412497221035 
1450	 0.387740162714653 
1451	 0.388120000535766 
1452	 0.388494185254772 
1453	 0.38888967861898 
1454	 0.389272646875775 
1455	 0.389654874330052 
1456	 0.390044349531195 
1457	 0.390444469582139 
1458	 0.390827829437621 
1459	 0.39121004801081 
1460	 0.391590750215304 
1461	 0.39193794670891 
1462	 0.392311266056757 
1463	 0.392694155165842 
1464	 0.393095012087148 
1465	 0.393496325288029 
1466	 0.3939483694703 
1467	 0.394400217025128 
1468	 0.394861027411689 
1469	 0.395336184042284 
1470	 0.395795202602484 
1471	 0.396265762578826 
1472	 0.396739309103862 
1473	 0.397215655080645 
1474	 0.397705353420025 
1475	 0.398170941888373 
1476	 0.398632289599796 
1477	 0.399083086408483 
1478	 0.399519452417082 
1479	 0.399943345452842 
1480	 0.400362144964079 
1481	 0.400765302791921 
1482	 0.401152131845016 
1483	 0.401527845195147 
1484	 0.401885587050025 
1485	 0.402252138374085 
1486	 0.402607568281551 
1487	 0.402963984812014 
1488	 0.403329147131692 
1489	 0.403681580114202 
1490	 0.404026489566032 
1491	 0.404365673609321 
1492	 0.404692960809096 
1493	 0.405029484047064 
1494	 0.405363793967388 
1495	 0.405694479916665 
1496	 0.406025306391711 
1497	 0.406363758095362 
1498	 0.406706494728805 
1499	 0.407039984757053 
1500	 0.407380293738321 
1501	 0.407712309875803 
1502	 0.408036257283638 
1503	 0.40834752913367 
1504	 0.408657067512011 
1505	 0.408953638005597 
1506	 0.40923533442959 
1507	 0.409506057542961 
1508	 0.409766130404399 
1509	 0.41001968255609 
1510	 0.410251657012538 
1511	 0.410488561257294 
1512	 0.410730625430462 
1513	 0.410961295032572 
1514	 0.411199980450285 
1515	 0.411411765173676 
1516	 0.411598828922027 
1517	 0.41178098786766 
1518	 0.411931198431241 
1519	 0.41209566616698 
1520	 0.412268450847388 
1521	 0.412442131251868 
1522	 0.412593328693196 
1523	 0.41273258490434 
1524	 0.412845371599355 
1525	 0.412923845341975 
1526	 0.413009857955615 
1527	 0.413085357652179 
1528	 0.413155708122495 
1529	 0.413214787707191 
1530	 0.413280515045099 
1531	 0.413343096607708 
1532	 0.413405674721659 
1533	 0.413466079324265 
1534	 0.413536977381553 
1535	 0.413611271285151 
1536	 0.41368076008164 
1537	 0.413764573220585 
1538	 0.413823319754259 
1539	 0.413865804531141 
1540	 0.413909173098249 
1541	 0.413943268673208 
1542	 0.4139773500929 
1543	 0.414013554395492 
1544	 0.414032734994654 
1545	 0.414044534179534 
1546	 0.414046316401188 
1547	 0.414035102340628 
1548	 0.414017229483673 
1549	 0.413993868678878 
1550	 0.413957237013714 
1551	 0.413912093496752 
1552	 0.413849859032004 
1553	 0.413768223740483 
1554	 0.413689406158185 
1555	 0.413583693763062 
1556	 0.41351162482559 
1557	 0.413447223653737 
1558	 0.413400601099581 
1559	 0.413383627266052 
1560	 0.413353578773683 
1561	 0.413330268517688 
1562	 0.413304667737356 
1563	 0.413260508263982 
1564	 0.413252279452264 
1565	 0.413266643816172 
1566	 0.41327748838159 
1567	 0.41330978697421 
1568	 0.413335266425671 
1569	 0.413354345393821 
1570	 0.413379489865824 
1571	 0.413412849638434 
1572	 0.413444742983638 
1573	 0.413473265833775 
1574	 0.41350825690657 
1575	 0.413553484275478 
1576	 0.413589831064215 
1577	 0.413625784967602 
1578	 0.413659135411083 
1579	 0.413691312572455 
1580	 0.413713525369166 
1581	 0.413728338964662 
1582	 0.413745027916179 
1583	 0.413757200911263 
1584	 0.413763943766328 
1585	 0.413775205617231 
1586	 0.413773501371367 
1587	 0.41375250428344 
1588	 0.413740448553388 
1589	 0.41372271811422 
1590	 0.413713240002459 
1591	 0.413708319535337 
1592	 0.413708603417901 
1593	 0.413731736595788 
1594	 0.413724488800248 
1595	 0.413714351263458 
1596	 0.413684030288197 
1597	 0.413616075725983 
1598	 0.413560714789422 
1599	 0.413510311374925 
1600	 0.413441632401769 
1601	 0.413373497748778 
1602	 0.413283751770137 
1603	 0.413166033236688 
1604	 0.413049563632479 
1605	 0.412932975277161 
1606	 0.412792110287496 
1607	 0.412633311952402 
1608	 0.412470434542478 
1609	 0.41229129380431 
1610	 0.412101415569469 
1611	 0.411914891028856 
1612	 0.411702864002135 
1613	 0.411467591057663 
1614	 0.411217725265987 
1615	 0.410961373410947 
1616	 0.410670251051214 
1617	 0.4103588315545 
1618	 0.410014699361803 
1619	 0.409632067192912 
1620	 0.409233533615468 
1621	 0.408797382634765 
1622	 0.408362844943281 
1623	 0.407904876615442 
1624	 0.407452344997412 
1625	 0.407001860374545 
1626	 0.406541950669881 
1627	 0.406064155329003 
1628	 0.405608786124086 
1629	 0.405148838229759 
1630	 0.404712054595796 
1631	 0.404291468448599 
1632	 0.403891537309849 
1633	 0.403496759729119 
1634	 0.403141647016325 
1635	 0.402819534966316 
1636	 0.402525279153616 
1637	 0.402278193597789 
1638	 0.402027629722276 
1639	 0.401809390385743 
1640	 0.401575042942944 
1641	 0.401372590644908 
1642	 0.401106837247022 
1643	 0.400820553259969 
1644	 0.40048824265399 
1645	 0.400108190901101 
1646	 0.399686005932824 
1647	 0.399240317566795 
1648	 0.398724370475092 
1649	 0.398159680397852 
1650	 0.397517975556914 
1651	 0.396799126890058 
1652	 0.396041945518099 
1653	 0.395237384232076 
1654	 0.394346933923873 
1655	 0.393406603128634 
1656	 0.392366846061075 
1657	 0.391252055935724 
1658	 0.390016609291233 
1659	 0.388706101514658 
1660	 0.387258354513715 
1661	 0.385708493320238 
1662	 0.383983041332936 
1663	 0.382109382673394 
1664	 0.380068434480582 
1665	 0.377881424618724 
1666	 0.375472019122117 
1667	 0.372883654658319 
1668	 0.37014513167371 
1669	 0.367213101666743 
1670	 0.364097289032553 
1671	 0.360780753703307 
1672	 0.357316437220814 
1673	 0.353645889330789 
1674	 0.349850232325985 
1675	 0.345879848594844 
1676	 0.341931620230266 
1677	 0.337847339821573 
1678	 0.333767333184149 
1679	 0.329620971613744 
1680	 0.325507669264798 
1681	 0.321328501952271 
1682	 0.317230561258682 
1683	 0.313201525613443 
1684	 0.309258724507874 
1685	 0.305348007328721 
1686	 0.301521111399405 
1687	 0.297723500609135 
1688	 0.294067648793749 
1689	 0.290479746633212 
1690	 0.287041908228852 
1691	 0.283761307037533 
1692	 0.280670451889274 
1693	 0.277717676504314 
1694	 0.274921800781898 
1695	 0.272310629452953 
1696	 0.269802747816564 
1697	 0.267449200351839 
1698	 0.265148169378977 
1699	 0.262998956852119 
1700	 0.260920421843388 
1701	 0.258891710893242 
1702	 0.257002930144173 
1703	 0.255212696914463 
1704	 0.253550386678385 
1705	 0.25199597143623 
1706	 0.250554298309805 
1707	 0.249332281817127 
1708	 0.248189219547829 
1709	 0.247130189278888 
1710	 0.246167543215476 
1711	 0.24522906042378 
1712	 0.244394468964907 
1713	 0.243607493339397 
1714	 0.24282646842987 
1715	 0.242144787450869 
1716	 0.241447843410448 
1717	 0.240758203138653 
1718	 0.240117161433241 
1719	 0.239460818050106 
1720	 0.238857529481101 
1721	 0.23832560703176 
1722	 0.237874840866434 
1723	 0.237553360305853 
1724	 0.237317730827322 
1725	 0.237188972952509 
1726	 0.237209081143605 
1727	 0.237406547627397 
1728	 0.237801499038526 
1729	 0.238429684052967 
1730	 0.239299547367523 
1731	 0.240274296897553 
1732	 0.241420440665996 
1733	 0.242657010002346 
1734	 0.243950927364201 
1735	 0.245364732551636 
1736	 0.246727217025295 
1737	 0.248055636532268 
1738	 0.249307334756147 
1739	 0.250371154566259 
1740	 0.251323886596749 
1741	 0.252134354002654 
1742	 0.252763148763199 
1743	 0.25332806220002 
1744	 0.253731199172605 
1745	 0.254154557030681 
1746	 0.254464839177128 
1747	 0.254841936433101 
1748	 0.255209294208094 
1749	 0.255642864887162 
1750	 0.256114143232556 
1751	 0.256643101520069 
1752	 0.257215025507118 
1753	 0.257888581873137 
1754	 0.258609936953017 
1755	 0.2594054502968 
1756	 0.26027934688856 
1757	 0.261210857049847 
1758	 0.262317489304699 
1759	 0.263512396403146 
1760	 0.264863240148107 
1761	 0.266401078248295 
1762	 0.267963778309235 
1763	 0.2697141607125 
1764	 0.271580826067956 
1765	 0.273534354573752 
1766	 0.275736582101314 
1767	 0.27794316717335 
1768	 0.280221250336336 
1769	 0.282559513479324 
1770	 0.284714524438554 
1771	 0.286901374637835 
1772	 0.289019051939048 
1773	 0.290978214642678 
1774	 0.292940335724079 
1775	 0.294727127185274 
1776	 0.296397538123799 
1777	 0.297944034242315 
1778	 0.299264796534121 
1779	 0.300510026843621 
1780	 0.301621285917488 
1781	 0.302620062134325 
1782	 0.303554258918669 
1783	 0.304329174953877 
1784	 0.305036760770243 
1785	 0.30565533526564 
1786	 0.306222322088454 
1787	 0.306743125438539 
1788	 0.307196228252781 
1789	 0.307545014331349 
1790	 0.307900576555592 
1791	 0.308229438648014 
1792	 0.308525968335558 
1793	 0.308775970951659 
1794	 0.309024855780875 
1795	 0.309258003461403 
1796	 0.30950256159132 
1797	 0.309768069462405 
1798	 0.310006531133312 
1799	 0.310246509539218 
1800	 0.310489312016931 
1801	 0.314600883924529 
1802	 0.314866274990275 
1803	 0.315099669032257 
1804	 0.315320555262772 
1805	 0.31556262406771 
1806	 0.315758051391632 
1807	 0.31591147371428 
1808	 0.316087597435461 
1809	 0.316247557929971 
1810	 0.316420455093405 
1811	 0.316603376935581 
1812	 0.316786982601562 
1813	 0.316966410710781 
1814	 0.31715306703441 
1815	 0.3173589395812 
1816	 0.317577467764903 
1817	 0.317816839735844 
1818	 0.318078084692017 
1819	 0.318348614121951 
1820	 0.318640625405096 
1821	 0.318931730114808 
1822	 0.31923170467875 
1823	 0.319546800615472 
1824	 0.319839444048749 
1825	 0.320138526588951 
1826	 0.320446195800083 
1827	 0.320746711031263 
1828	 0.321064015393109 
1829	 0.321391331715802 
1830	 0.321730699348826 
1831	 0.32207513565776 
1832	 0.322444119378825 
1833	 0.322797321962529 
1834	 0.323180761958163 
1835	 0.323585924612527 
1836	 0.323967254014349 
1837	 0.324382863978601 
1838	 0.324831911851567 
1839	 0.325268764427497 
1840	 0.325707092524612 
1841	 0.326166100734456 
1842	 0.32663546455608 
1843	 0.327113328134164 
1844	 0.327607629776082 
1845	 0.328071552680896 
1846	 0.328522002155534 
1847	 0.328946376567859 
1848	 0.329357827225844 
1849	 0.329769405689706 
1850	 0.330140896866613 
1851	 0.33048615355496 
1852	 0.330808560413483 
1853	 0.331119058375051 
1854	 0.331380937130699 
1855	 0.331622676884252 
1856	 0.331845587514506 
1857	 0.332027776559353 
1858	 0.332169034425881 
1859	 0.332274675562535 
1860	 0.332347497712046 
1861	 0.332387919264802 
1862	 0.33239793643049 
1863	 0.332362397001894 
1864	 0.332277443724699 
1865	 0.332171953852338 
1866	 0.332016078228455 
1867	 0.331812058929485 
1868	 0.331599416463466 
1869	 0.33130434457068 
1870	 0.330950710557809 
1871	 0.330541815006126 
1872	 0.330084459635428 
1873	 0.329572274383137 
1874	 0.329017140992747 
1875	 0.328398379302493 
1876	 0.327649105892899 
1877	 0.326807416927815 
1878	 0.325816718545935 
1879	 0.324686272629129 
1880	 0.323497974586459 
1881	 0.322141249136027 
1882	 0.320637888640607 
1883	 0.319027997166699 
1884	 0.317237400938698 
1885	 0.315150171489318 
1886	 0.312959598207821 
1887	 0.310523282839645 
1888	 0.307805927031038 
1889	 0.305146665216824 
1890	 0.302257524121633 
1891	 0.299311808863044 
1892	 0.296379433415272 
1893	 0.293352974156668 
1894	 0.290164341275292 
1895	 0.287129988500262 
1896	 0.284071066049963 
1897	 0.281032480812667 
1898	 0.278291229619301 
1899	 0.275553369198358 
1900	 0.272945010845167 
1901	 0.270529728642712 
1902	 0.268047494376973 
1903	 0.265760321182131 
1904	 0.263582131487184 
1905	 0.261479955062966 
1906	 0.259495368659533 
1907	 0.257804540115775 
1908	 0.256141248263353 
1909	 0.254582548514778 
1910	 0.253150019243373 
1911	 0.251705350168965 
1912	 0.25040191397775 
1913	 0.249188552663068 
1914	 0.248035161332896 
1915	 0.246999638856956 
1916	 0.246101289797671 
1917	 0.245228461199769 
1918	 0.2444237568489 
1919	 0.243709446658906 
1920	 0.243011741416972 
1921	 0.242388054285556 
1922	 0.24181580773964 
1923	 0.241277596079834 
1924	 0.24084359135343 
1925	 0.240455451877054 
1926	 0.240113303902842 
1927	 0.239831547025096 
1928	 0.239606558370942 
1929	 0.239430122643478 
1930	 0.239296961593516 
1931	 0.239234624185409 
1932	 0.239223841359448 
1933	 0.239256944187406 
1934	 0.239347685296944 
1935	 0.23947572882622 
1936	 0.239664054892012 
1937	 0.239915448475434 
1938	 0.24023007396791 
1939	 0.240573922256539 
1940	 0.240972660708779 
1941	 0.241429499106318 
1942	 0.241883917709049 
1943	 0.242400406086486 
1944	 0.24294257429223 
1945	 0.243503940784878 
1946	 0.244133597201301 
1947	 0.244754210872402 
1948	 0.245421751254534 
1949	 0.246124472973504 
1950	 0.246804657890845 
1951	 0.247475824240019 
1952	 0.2481791470114 
1953	 0.248890756288593 
1954	 0.249598557561492 
1955	 0.250360891713818 
1956	 0.251118529143918 
1957	 0.251893290365934 
1958	 0.252663649633445 
1959	 0.25338624099056 
1960	 0.254111027617651 
1961	 0.25483342573523 
1962	 0.25551847718485 
1963	 0.256247046381583 
1964	 0.257004735627708 
1965	 0.257741217197069 
1966	 0.258485509337228 
1967	 0.259245518938974 
1968	 0.259940113512662 
1969	 0.260655707226172 
1970	 0.261355326761509 
1971	 0.262028095474371 
1972	 0.262754115546942 
1973	 0.263470965070611 
1974	 0.264188947569701 
1975	 0.26494235627833 
1976	 0.265646734092681 
1977	 0.266323294476756 
1978	 0.26700314177257 
1979	 0.26766510933589 
1980	 0.268316433232219 
1981	 0.268983588051164 
1982	 0.269629658404676 
1983	 0.270298904115217 
1984	 0.270953031987479 
1985	 0.271544026900036 
1986	 0.27214393230198 
1987	 0.272715614892093 
1988	 0.273232874097062 
1989	 0.273765184465428 
1990	 0.274315612870639 
1991	 0.274816312900627 
1992	 0.275293992193397 
1993	 0.275762205302069 
1994	 0.276153526098584 
1995	 0.276526924915754 
1996	 0.276875752831542 
1997	 0.277166594083732 
1998	 0.27745109956863 
1999	 0.27772205040738 
2000	 0.277959273317075 
2001	 0.278183568913205 
2002	 0.27834784360273 
2003	 0.278459982563451 
2004	 0.278558415315198 
2005	 0.278607224370192 
2006	 0.27864471292706 
2007	 0.278669931135437 
2008	 0.278677563622917 
2009	 0.278648496279015 
2010	 0.278557030604007 
2011	 0.278450820918104 
2012	 0.278334985286129 
2013	 0.278166650406946 
2014	 0.277977394565648 
2015	 0.277725550819775 
2016	 0.27742187254985 
2017	 0.27707455658082 
2018	 0.276653799988281 
2019	 0.276232090249815 
2020	 0.275793663708961 
2021	 0.275299457498781 
2022	 0.274789784685965 
2023	 0.274236701659876 
2024	 0.273603872199283 
2025	 0.272936459264733 
2026	 0.272223678737181 
2027	 0.271415971329135 
2028	 0.270674851689431 
2029	 0.269924555281323 
2030	 0.26916690603037 
2031	 0.268450345581348 
2032	 0.267681860738446 
2033	 0.26684542677896 
2034	 0.266056211753182 
2035	 0.265249846202415 
2036	 0.264466021845015 
2037	 0.26377876360113 
2038	 0.263092778277777 
2039	 0.262444395792379 
2040	 0.261862995475263 
2041	 0.26125825391358 
2042	 0.260637263194537 
2043	 0.260088115182163 
2044	 0.259550572525373 
2045	 0.25907842237458 
2046	 0.258682092965122 
2047	 0.258294343359826 
2048	 0.257945859675012 
2049	 0.257622436769114 
2050	 0.257326617547774 
2051	 0.25706296782529 
2052	 0.256810038738704 
2053	 0.256588392430809 
2054	 0.256389262324678 
2055	 0.256214237581002 
2056	 0.256047692586661 
2057	 0.25591608599894 
2058	 0.255777463986555 
2059	 0.255643336273751 
2060	 0.255520354022294 
2061	 0.255399791031851 
2062	 0.255298506803978 
2063	 0.255228050775515 
2064	 0.255136399975464 
2065	 0.255046058490425 
2066	 0.25496739803117 
2067	 0.254860072934369 
2068	 0.254748742652327 
2069	 0.254637534269234 
2070	 0.254524540370771 
2071	 0.254409220350084 
2072	 0.2542862755468 
2073	 0.254169819076932 
2074	 0.254068274857737 
2075	 0.253940698678325 
2076	 0.253809163231949 
2077	 0.253663682615988 
2078	 0.25349142211169 
2079	 0.253322901019023 
2080	 0.253151661071025 
2081	 0.252972900113401 
2082	 0.252786735339888 
2083	 0.252599389982549 
2084	 0.252405704640162 
2085	 0.252206153855891 
2086	 0.251986526044475 
2087	 0.251747062436522 
2088	 0.251514004469505 
2089	 0.251263109092886 
2090	 0.251022508376751 
2091	 0.250804022520763 
2092	 0.250551706735901 
2093	 0.250291846792528 
2094	 0.250016021397628 
2095	 0.249714621885345 
2096	 0.249405816179601 
2097	 0.249097633118409 
2098	 0.248755352271481 
2099	 0.248404329450269 
2100	 0.248046126441509 
2101	 0.247652835350281 
2102	 0.247244785810289 
2103	 0.246796967403402 
2104	 0.24630118402507 
2105	 0.245813288261767 
2106	 0.245307707621391 
2107	 0.244781969176107 
2108	 0.244266489896843 
2109	 0.243692142827253 
2110	 0.243069146538682 
2111	 0.242436270312273 
2112	 0.241745346909684 
2113	 0.241073017807404 
2114	 0.240398282104679 
2115	 0.239716071177309 
2116	 0.239039671052847 
2117	 0.23835185590204 
2118	 0.237639455025137 
2119	 0.236914213681717 
2120	 0.236174089429016 
2121	 0.235388859798136 
2122	 0.2346524809128 
2123	 0.233919652341087 
2124	 0.233194524470387 
2125	 0.232511477770588 
2126	 0.231795554796674 
2127	 0.231058168244457 
2128	 0.230340236547824 
2129	 0.229609115141278 
2130	 0.228896120056123 
2131	 0.228197841049521 
2132	 0.227507021801545 
2133	 0.226828392974255 
2134	 0.226162377749346 
2135	 0.225471979959348 
2136	 0.224809294721748 
2137	 0.224158220039215 
2138	 0.22348997517033 
2139	 0.222890582100055 
2140	 0.222333923688136 
2141	 0.221795137958617 
2142	 0.221299663856528 
2143	 0.220813879546465 
2144	 0.220337435868437 
2145	 0.219905246775146 
2146	 0.219493772135733 
2147	 0.219124818627507 
2148	 0.218797431599198 
2149	 0.218504083627525 
2150	 0.218274942776266 
2151	 0.218036021127324 
2152	 0.217814066792446 
2153	 0.217616848064864 
2154	 0.217434200013528 
2155	 0.217220583703229 
2156	 0.217034675384109 
2157	 0.216871389699407 
2158	 0.216697504439298 
2159	 0.216535278052514 
2160	 0.216345244465756 
2161	 0.216136266272941 
2162	 0.215948196734885 
2163	 0.21572109056135 
2164	 0.21556336842263 
2165	 0.215458058831327 
2166	 0.215347950487566 
2167	 0.21526951125018 
2168	 0.215190695426031 
2169	 0.215110697766665 
2170	 0.215048620352851 
2171	 0.214994821418925 
2172	 0.214965351139377 
2173	 0.214960681378684 
2174	 0.214964606775131 
2175	 0.214968202781937 
2176	 0.214973710391248 
2177	 0.215002479144058 
2178	 0.215034749969664 
2179	 0.215076077671186 
2180	 0.215154850512988 
2181	 0.215200966200625 
2182	 0.215219976379466 
2183	 0.215273045764255 
2184	 0.215329533431397 
2185	 0.215399083115066 
2186	 0.215501771971094 
2187	 0.215581241822348 
2188	 0.215663266432153 
2189	 0.215732501968866 
2190	 0.215788057489247 
2191	 0.21584300511523 
2192	 0.215896853123922 
2193	 0.215937896732703 
2194	 0.215982021841195 
2195	 0.216003396786163 
2196	 0.216014621853436 
2197	 0.215994425503342 
2198	 0.215972523077275 
2199	 0.215912412396896 
2200	 0.215837726886288 
2201	 0.215744300352464 
2202	 0.215627569305527 
2203	 0.215486432732281 
2204	 0.21532804287668 
2205	 0.215148537538804 
2206	 0.214948226221014 
2207	 0.214735755006424 
2208	 0.214478764206128 
2209	 0.214206822314482 
2210	 0.2138722942965 
2211	 0.213482046396264 
2212	 0.213068870091388 
2213	 0.212609747671255 
2214	 0.212119289594459 
2215	 0.211629240701424 
2216	 0.211046924182052 
2217	 0.210424705849534 
2218	 0.209712326408776 
2219	 0.208909916304616 
2220	 0.208045482016823 
2221	 0.207110671488939 
2222	 0.206085639550594 
2223	 0.205047147523098 
2224	 0.203894263489816 
2225	 0.202671316793072 
2226	 0.201365046127111 
2227	 0.199894280448392 
2228	 0.198291761402075 
2229	 0.196584186353259 
2230	 0.194692122919306 
2231	 0.192807795186993 
2232	 0.190873694961617 
2233	 0.188791782115365 
2234	 0.186696623449361 
2235	 0.184343378742703 
2236	 0.18176363151837 
2237	 0.179133793258687 
2238	 0.1762815742882 
2239	 0.17345008586645 
2240	 0.170583742676608 
2241	 0.167601342219551 
2242	 0.164617115844785 
2243	 0.161433661946494 
2244	 0.158030535184857 
2245	 0.154652664870073 
2246	 0.151045176759948 
2247	 0.147568000909189 
2248	 0.144170722304911 
2249	 0.140735430662793 
2250	 0.137308144494026 
2251	 0.133949340744541 
2252	 0.13038133936362 
2253	 0.12695460926503 
2254	 0.123580097789461 
2255	 0.120241311799368 
2256	 0.117242296655273 
2257	 0.114267784808677 
2258	 0.111423193426984 
2259	 0.10874642475567 
2260	 0.106098208724923 
2261	 0.103494265323512 
2262	 0.101086065395162 
2263	 9.87379600320601E-02 
2264	 9.66289363936026E-02 
2265	 9.47512244189335E-02 
2266	 9.29418133760635E-02 
2267	 9.13609546669488E-02 
2268	 8.97607513100475E-02 
2269	 8.82463370663181E-02 
2270	 8.67757531887239E-02 
2271	 8.53332286774134E-02 
2272	 8.39822768294852E-02 
2273	 8.27503046711541E-02 
2274	 8.14922239707651E-02 
2275	 8.03454291403136E-02 
2276	 7.91027642551341E-02 
2277	 7.78371927761421E-02 
2278	 7.65369992670734E-02 
2279	 7.51499630843417E-02 
2280	 7.37909986331604E-02 
2281	 7.24356449563119E-02 
2282	 7.10490050284288E-02 
2283	 0.069648945756991 
2284	 6.82576639753418E-02 
2285	 6.67928404648198E-02 
2286	 6.53813008755375E-02 
2287	 6.39649416713003E-02 
2288	 6.25574813590511E-02 
2289	 6.12855239433791E-02 
2290	 5.99631898691875E-02 
2291	 5.86678971664413E-02 
2292	 0.05748846242827 
2293	 5.62450489477113E-02 
2294	 5.50843590041072E-02 
2295	 5.40913983625274E-02 
2296	 5.31670856932274E-02 
2297	 5.23705943682677E-02 
2298	 5.17021929920719E-02 
2299	 5.11813134086422E-02 
2300	 5.07520352695567E-02 
2301	 5.05309597246479E-02 
2302	 5.05144868664884E-02 
2303	 5.06163541547665E-02 
2304	 5.08916864346939E-02 
2305	 5.12753587876703E-02 
2306	 5.18111286440707E-02 
2307	 5.24672978708089E-02 
2308	 5.32403768172278E-02 
2309	 5.41879125053172E-02 
2310	 5.53109464266123E-02 
2311	 5.65267400065161E-02 
2312	 5.79638020020846E-02 
2313	 5.93876719167933E-02 
2314	 6.09221475310438E-02 
2315	 6.24534222817716E-02 
2316	 6.40778682222275E-02 
2317	 6.56003519486696E-02 
2318	 6.71936375277125E-02 
2319	 6.85687311547791E-02 
2320	 6.98761580114971E-02 
2321	 7.09508663529509E-02 
2322	 7.18062510416202E-02 
2323	 7.25460476213529E-02 
2324	 7.30729511007167E-02 
2325	 7.35134481665058E-02 
2326	 7.38357555132568E-02 
2327	 7.40273401227756E-02 
2328	 7.40752531665272E-02 
2329	 0.074012509040651 
2330	 7.38178115615081E-02 
2331	 7.34754350566887E-02 
2332	 7.30398223945313E-02 
2333	 7.25380320318488E-02 
2334	 7.19765964504312E-02 
2335	 7.13418978852405E-02 
2336	 0.070632157330646 
2337	 6.99114387496938E-02 
2338	 6.91523885934836E-02 
2339	 6.83618626585419E-02 
2340	 6.76589722041268E-02 
2341	 6.69682672041053E-02 
2342	 6.63138261541527E-02 
2343	 6.58043340640887E-02 
2344	 6.53753435575467E-02 
2345	 0.065068943172124 
2346	 6.49348687587291E-02 
2347	 6.49857833792407E-02 
2348	 6.52291580470129E-02 
2349	 6.56993639216482E-02 
2350	 6.63451770080744E-02 
2351	 6.71515588523712E-02 
2352	 6.80768276486647E-02 
2353	 6.91008726714588E-02 
2354	 7.01558457697111E-02 
2355	 7.11916657774395E-02 
2356	 7.21805577720789E-02 
2357	 0.073073081004671 
2358	 7.38298644049273E-02 
2359	 7.44737378155487E-02 
2360	 7.50544373075359E-02 
2361	 7.54400439257475E-02 
2362	 7.57423859776362E-02 
2363	 7.59934881635833E-02 
2364	 7.61161775819505E-02 
2365	 7.62166147098978E-02 
2366	 7.63589762263972E-02 
2367	 7.64673738994778E-02 
2368	 7.65113004842934E-02 
2369	 7.65782399470574E-02 
2370	 7.66331201164698E-02 
2371	 0.076673803491853 
2372	 7.67608162594216E-02 
2373	 0.076830227757596 
2374	 7.68619208589149E-02 
2375	 7.68529746835461E-02 
2376	 0.07671920842526 
2377	 7.65371357692588E-02 
2378	 7.64425071561757E-02 
2379	 7.63799090959607E-02 
2380	 7.63574253367941E-02 
2381	 7.64163165467768E-02 
2382	 7.63933516511665E-02 
2383	 7.62692091710636E-02 
2384	 7.62005131948614E-02 
2385	 7.61331003200891E-02 
2386	 7.61034922141033E-02 
2387	 7.61067007425869E-02 
2388	 7.61165863347728E-02 
2389	 0.076178540138612 
2390	 7.61515378101211E-02 
2391	 7.60712660917625E-02 
2392	 7.60313929425969E-02 
2393	 7.59378049313679E-02 
2394	 0.075912814439032 
2395	 7.59654123242809E-02 
2396	 7.59977542996158E-02 
2397	 7.60431162941059E-02 
2398	 7.61333238145634E-02 
2399	 7.62369370500045E-02 
2400	 7.63232086309341E-02 
2401	 7.64487172448025E-02 
2402	 7.64942746118375E-02 
2403	 7.65310291140708E-02 
2404	 7.66432238755422E-02 
2405	 0.076780114629812 
2406	 7.69198697185073E-02 
2407	 7.71543545268199E-02 
2408	 7.74101062873077E-02 
2409	 7.75674341967164E-02 
2410	 7.76580076167184E-02 
2411	 7.77692597341037E-02 
2412	 7.78709787905074E-02 
2413	 7.79727686501302E-02 
2414	 7.81320420348355E-02 
2415	 7.83266074382155E-02 
2416	 7.84431471613563E-02 
2417	 7.85325358276704E-02 
2418	 7.85826024521719E-02 
2419	 0.078533733237177 
2420	 0.078553788843312 
2421	 7.86169934607784E-02 
2422	 7.87208958666455E-02 
2423	 7.88159854939737E-02 
2424	 7.88779997984559E-02 
2425	 7.89983657984785E-02 
2426	 7.91270580134796E-02 
2427	 7.92960580944312E-02 
2428	 7.94518358756834E-02 
2429	 7.95447054074035E-02 
2430	 0.079549752971401 
2431	 7.95126437225412E-02 
2432	 7.95695197089769E-02 
2433	 0.07956475223536 
2434	 7.94489281046639E-02 
2435	 7.94031239650373E-02 
2436	 7.93742620652658E-02 
2437	 7.92127457350183E-02 
2438	 7.90692488862141E-02 
2439	 0.078932084616299 
2440	 7.86262284139565E-02 
2441	 7.84173002697135E-02 
2442	 7.83127956351052E-02 
2443	 7.80980621841423E-02 
2444	 7.79182769612022E-02 
2445	 0.077796141827529 
2446	 7.75894463909868E-02 
2447	 0.077418061775275 
2448	 7.73068470428548E-02 
2449	 7.69753298945343E-02 
2450	 7.66560453810124E-02 
2451	 7.64868244574255E-02 
2452	 7.62130366834901E-02 
2453	 7.60811422434599E-02 
2454	 7.60682545621061E-02 
2455	 7.58244775469856E-02 
2456	 0.075521721829443 
2457	 7.51825127298392E-02 
2458	 7.47939646682848E-02 
2459	 7.46645945926585E-02 
2460	 0.074656421963607 
2461	 7.45977005070528E-02 
2462	 7.44522900521776E-02 
2463	 7.42676686300801E-02 
2464	 7.42040161015788E-02 
2465	 7.41731832182839E-02 
2466	 7.41785961374821E-02 
2467	 7.41567447237931E-02 
2468	 7.40494908262598E-02 
2469	 7.40931811524137E-02 
2470	 7.43274914077329E-02 
2471	 0.07453212952249 
2472	 7.46734076730739E-02 
2473	 0.07484553841158 
2474	 7.49277207688003E-02 
2475	 7.50610640792775E-02 
2476	 7.52136323393622E-02 
2477	 7.52463250625581E-02 
2478	 7.52867809157401E-02 
2479	 7.51736090470601E-02 
2480	 7.51946045001801E-02 
2481	 7.53198351015364E-02 
2482	 0.075554644858287 
2483	 0.07594829221543 
2484	 7.63383736720554E-02 
2485	 7.66964355635816E-02 
2486	 7.68878262405631E-02 
2487	 7.72076694807321E-02 
2488	 7.75818792993577E-02 
2489	 7.77910517642826E-02 
2490	 7.82715039580371E-02 
2491	 7.87130480092038E-02 
2492	 0.078737105425622 
2493	 7.89131086976425E-02 
2494	 7.91308297386605E-02 
2495	 7.93737780855861E-02 
2496	 7.99663672324451E-02 
2497	 8.04069637333045E-02 
2498	 8.03603756901531E-02 
2499	 0.080374953197025 
2500	 0.08053691547834 
