Wavelength	spectrum00011.asd
350	 8.16705126438669E-02 
351	 7.82230823059836E-02 
352	 7.44648215467389E-02 
353	 7.23692101888682E-02 
354	 7.24414486404979E-02 
355	 7.13741784262833E-02 
356	 6.90882910467735E-02 
357	 0.066348518420492 
358	 6.38624187082139E-02 
359	 6.11557325375667E-02 
360	 5.95176745259576E-02 
361	 6.04911856415285E-02 
362	 6.06861446279466E-02 
363	 5.93074124379579E-02 
364	 5.73073065357642E-02 
365	 5.74372548839846E-02 
366	 0.057498505932967 
367	 5.69837367404244E-02 
368	 5.61870617115251E-02 
369	 5.66645789851004E-02 
370	 5.64125942721862E-02 
371	 5.55738520656868E-02 
372	 5.53189021830129E-02 
373	 5.37735127891025E-02 
374	 5.31766115287242E-02 
375	 5.41720439824879E-02 
376	 5.45898136977733E-02 
377	 5.44913803613048E-02 
378	 0.054057582886575 
379	 5.35315733251375E-02 
380	 5.28824695158655E-02 
381	 5.32259090517238E-02 
382	 5.35374904334932E-02 
383	 5.20215709931713E-02 
384	 5.27037978030168E-02 
385	 5.35726655639786E-02 
386	 5.32077120575481E-02 
387	 5.21110447755847E-02 
388	 5.17689065878362E-02 
389	 5.18541660406645E-02 
390	 5.16827084387421E-02 
391	 5.13526826306289E-02 
392	 5.16571213504545E-02 
393	 5.20886174338047E-02 
394	 5.14730675047973E-02 
395	 5.12336930096648E-02 
396	 0.051323140806465 
397	 5.14366421773012E-02 
398	 5.11806612445367E-02 
399	 5.09234411206438E-02 
400	 5.06470366626608E-02 
401	 5.03998184083561E-02 
402	 5.10236667228356E-02 
403	 5.14834965238586E-02 
404	 5.13606888343419E-02 
405	 0.050833317100835 
406	 5.07788595583248E-02 
407	 5.08368682086608E-02 
408	 0.05084905804435 
409	 5.15067053089853E-02 
410	 0.051776787867542 
411	 5.17677372951864E-02 
412	 5.19827215385071E-02 
413	 5.29031207449388E-02 
414	 5.31544785656015E-02 
415	 0.052849089705362 
416	 5.34244754631739E-02 
417	 0.053853449156597 
418	 5.43431131274493E-02 
419	 5.50330172818377E-02 
420	 5.53889037143252E-02 
421	 5.59111723052507E-02 
422	 5.64830184823086E-02 
423	 5.68496622710725E-02 
424	 5.76294494900194E-02 
425	 5.83459299863178E-02 
426	 5.88563278818797E-02 
427	 5.94890818880742E-02 
428	 5.99158919913341E-02 
429	 6.06063761244935E-02 
430	 6.17678772276619E-02 
431	 6.22631833367036E-02 
432	 6.31874444313249E-02 
433	 6.43978712497574E-02 
434	 6.51394939739466E-02 
435	 6.59780113617225E-02 
436	 6.70063904687582E-02 
437	 6.81321000273097E-02 
438	 6.90505095458702E-02 
439	 7.01662776972157E-02 
440	 7.12968081415276E-02 
441	 7.22483683180884E-02 
442	 7.35217017279937E-02 
443	 7.49103577054403E-02 
444	 7.62569018884872E-02 
445	 7.74865776137308E-02 
446	 7.87977167212593E-02 
447	 8.01569613252882E-02 
448	 8.15340882748084E-02 
449	 8.29894706651312E-02 
450	 8.45144207365853E-02 
451	 8.60547674360947E-02 
452	 8.75680404606997E-02 
453	 8.91998098004568E-02 
454	 9.08802735236685E-02 
455	 9.25450152182842E-02 
456	 9.41673815242557E-02 
457	 9.59884083326055E-02 
458	 9.78121776696175E-02 
459	 0.099524378240551 
460	 0.101569490947218 
461	 0.103496629155546 
462	 0.105301784838222 
463	 0.107234455699189 
464	 0.109354005716475 
465	 0.111399357974802 
466	 0.113324187253804 
467	 0.115472275498995 
468	 0.117684934879766 
469	 0.119876409938164 
470	 0.122043829005383 
471	 0.124440495246893 
472	 0.126744540486704 
473	 0.128973186324657 
474	 0.131402112305446 
475	 0.133772565620824 
476	 0.136116631996134 
477	 0.138501927077554 
478	 0.140973061324572 
479	 0.143467556254495 
480	 0.145999028899304 
481	 0.148600290688397 
482	 0.151224756998655 
483	 0.153837674819106 
484	 0.156449304480487 
485	 0.159110974203731 
486	 0.161819567492537 
487	 0.164540858271825 
488	 0.167266758319115 
489	 0.170102216211121 
490	 0.172947311325477 
491	 0.175731384577664 
492	 0.178430452431347 
493	 0.181221244463364 
494	 0.184096011359027 
495	 0.186998631346973 
496	 0.189826084587541 
497	 0.192654590656314 
498	 0.195526151120902 
499	 0.198457440167995 
500	 0.201454359042461 
501	 0.20434888521854 
502	 0.207153369797976 
503	 0.210041659848006 
504	 0.213038702419349 
505	 0.215990665983747 
506	 0.218836027227846 
507	 0.221820478027887 
508	 0.224750505817771 
509	 0.22760765182859 
510	 0.230462507263129 
511	 0.233448712257839 
512	 0.236387409318466 
513	 0.239237167986577 
514	 0.242179924652185 
515	 0.24504908760403 
516	 0.247874652003018 
517	 0.250728406807143 
518	 0.253649202211017 
519	 0.256531549313129 
520	 0.259355596404881 
521	 0.262169106204124 
522	 0.265042541372955 
523	 0.267924295325514 
524	 0.27076781131072 
525	 0.273575733369735 
526	 0.276396987562136 
527	 0.279228782822289 
528	 0.282052463301075 
529	 0.284859869081634 
530	 0.28770142246372 
531	 0.290576679008487 
532	 0.293425293914051 
533	 0.296231646200269 
534	 0.299067450128029 
535	 0.301974596145888 
536	 0.304864523584755 
537	 0.307757502323317 
538	 0.310656970584991 
539	 0.313557080983619 
540	 0.316404831281864 
541	 0.319284512620704 
542	 0.322209157677805 
543	 0.325047321241926 
544	 0.327919743617203 
545	 0.330781998996007 
546	 0.333577206349776 
547	 0.33644199178513 
548	 0.339303297732009 
549	 0.342134452816713 
550	 0.344957771688689 
551	 0.347756138250991 
552	 0.350597051212504 
553	 0.353503623830158 
554	 0.356333866539693 
555	 0.359219562063118 
556	 0.36211390352516 
557	 0.36491638663926 
558	 0.367825267879049 
559	 0.370754800489024 
560	 0.373629022573084 
561	 0.376429201431749 
562	 0.379156559337384 
563	 0.381840718718241 
564	 0.384511147811191 
565	 0.387152818274571 
566	 0.389817197381155 
567	 0.392482320316101 
568	 0.395074003418025 
569	 0.397628222890576 
570	 0.400132917828781 
571	 0.402608088042275 
572	 0.405152360961526 
573	 0.407687765053404 
574	 0.410219983771489 
575	 0.412767222295489 
576	 0.41521993457133 
577	 0.417598317664925 
578	 0.419964530090186 
579	 0.422407956575262 
580	 0.42480741816222 
581	 0.427181775567544 
582	 0.429559844628287 
583	 0.43188070652346 
584	 0.434218232622367 
585	 0.436560264121537 
586	 0.438853557169922 
587	 0.441132708119128 
588	 0.443422944775154 
589	 0.445699794567036 
590	 0.447857591323708 
591	 0.450043293051907 
592	 0.452197021835873 
593	 0.454210904657739 
594	 0.45607817177584 
595	 0.457879132283898 
596	 0.459672472482137 
597	 0.46148695539395 
598	 0.463383353663007 
599	 0.46522648563272 
600	 0.466941943953126 
601	 0.468674977052362 
602	 0.470375968218787 
603	 0.4720651766819 
604	 0.473773617225375 
605	 0.475434932242998 
606	 0.477060697118597 
607	 0.478653970697239 
608	 0.480194650101219 
609	 0.48167307019535 
610	 0.483098415718313 
611	 0.484491769132136 
612	 0.485870908490515 
613	 0.487273126871392 
614	 0.488676051704258 
615	 0.490020493173879 
616	 0.491273446861892 
617	 0.492522902772618 
618	 0.493796185535123 
619	 0.494982261209437 
620	 0.496214617329244 
621	 0.49748989770242 
622	 0.498752612981128 
623	 0.499942388938212 
624	 0.501085110705123 
625	 0.502212789393748 
626	 0.503354775145888 
627	 0.504425972110006 
628	 0.505515489303289 
629	 0.50667053938643 
630	 0.507753711677245 
631	 0.508801233450682 
632	 0.509817998444896 
633	 0.510814119606266 
634	 0.511922986888277 
635	 0.512968557539052 
636	 0.513912771593867 
637	 0.514915609377701 
638	 0.515930129258048 
639	 0.516933889506499 
640	 0.517905517938541 
641	 0.518812771239887 
642	 0.51971012292645 
643	 0.520646104353647 
644	 0.521646594758667 
645	 0.522569119381339 
646	 0.523498774140733 
647	 0.524475047672516 
648	 0.525418438120236 
649	 0.526330818924456 
650	 0.527213963379334 
651	 0.528076749992781 
652	 0.528946778651006 
653	 0.529790371763687 
654	 0.530629243415023 
655	 0.531521022679745 
656	 0.532367828720432 
657	 0.533241821598358 
658	 0.534145714890181 
659	 0.534854525808207 
660	 0.535753813777798 
661	 0.536712082728352 
662	 0.537475582062538 
663	 0.538292527806038 
664	 0.539108463871359 
665	 0.539917491951471 
666	 0.540770847598463 
667	 0.541499366257023 
668	 0.542268071377702 
669	 0.543165990971718 
670	 0.543913598014003 
671	 0.544662396390743 
672	 0.545458641915267 
673	 0.546289135704468 
674	 0.547068122253934 
675	 0.54780689631584 
676	 0.548548631338051 
677	 0.549359993650789 
678	 0.55015320293113 
679	 0.55090380235115 
680	 0.551618305610641 
681	 0.552340018124062 
682	 0.553096680986857 
683	 0.553829223918072 
684	 0.554461435597307 
685	 0.555198895791384 
686	 0.555915197340502 
687	 0.556591928094759 
688	 0.557412236454973 
689	 0.558163947103397 
690	 0.558794626821281 
691	 0.559357625602138 
692	 0.560107650186917 
693	 0.560758240602117 
694	 0.561360914859769 
695	 0.562147048854012 
696	 0.562854844200656 
697	 0.563489492331447 
698	 0.564109653762871 
699	 0.564807543111658 
700	 0.565419468469526 
701	 0.566009991311946 
702	 0.566668683932246 
703	 0.567308078766561 
704	 0.567983139723967 
705	 0.568623035730354 
706	 0.569105962391341 
707	 0.569734015636075 
708	 0.570407121253486 
709	 0.571038452838009 
710	 0.571661237469566 
711	 0.572172029845436 
712	 0.572686690669916 
713	 0.573321334349964 
714	 0.573919660540992 
715	 0.574482913624232 
716	 0.575023509125816 
717	 0.575561898358458 
718	 0.576131054016201 
719	 0.576721757131656 
720	 0.577295550025706 
721	 0.57777257190871 
722	 0.578283826769056 
723	 0.578834795929364 
724	 0.579377830353631 
725	 0.579823122107185 
726	 0.580292266722672 
727	 0.580832828237386 
728	 0.58141865848741 
729	 0.581895340111291 
730	 0.582381030888285 
731	 0.582921002073066 
732	 0.583381999143325 
733	 0.583751100366543 
734	 0.584156964365609 
735	 0.584693452128969 
736	 0.58515010422893 
737	 0.585662667263435 
738	 0.586151051905492 
739	 0.586437328737798 
740	 0.586850406342404 
741	 0.587356852113598 
742	 0.587834968108485 
743	 0.588104186880992 
744	 0.588518514294503 
745	 0.588970901779649 
746	 0.589324108971215 
747	 0.589798798458594 
748	 0.590197987116069 
749	 0.590566168244927 
750	 0.591056053074992 
751	 0.591489081886133 
752	 0.591816992659213 
753	 0.592048536162274 
754	 0.592246931716597 
755	 0.592673364593645 
756	 0.593118589436828 
757	 0.593406005760056 
758	 0.593796901807502 
759	 0.594157952374099 
760	 0.59452556656732 
761	 0.594973632455098 
762	 0.595289820540231 
763	 0.595608673596027 
764	 0.595958146485159 
765	 0.596235108605854 
766	 0.596622842415443 
767	 0.597044483430103 
768	 0.597395528153596 
769	 0.597612557050176 
770	 0.59792496800705 
771	 0.59827862591559 
772	 0.598548064206087 
773	 0.598824016382574 
774	 0.599202139099188 
775	 0.599608573241388 
776	 0.599852497700103 
777	 0.600059447150976 
778	 0.600331047103906 
779	 0.600670983687532 
780	 0.600924007379283 
781	 0.601280289633131 
782	 0.601640083863193 
783	 0.601878667925382 
784	 0.602083577423958 
785	 0.602296757443064 
786	 0.602527921833826 
787	 0.602771113160122 
788	 0.603074477989018 
789	 0.603404812711626 
790	 0.603679120540152 
791	 0.603783832945686 
792	 0.604069524592723 
793	 0.604421477173371 
794	 0.604687828048947 
795	 0.604880397318398 
796	 0.605001670362254 
797	 0.60519318273692 
798	 0.605552425471243 
799	 0.605719064074766 
800	 0.605919998004442 
801	 0.606184768113312 
802	 0.606380833586312 
803	 0.606562982947688 
804	 0.606786371199808 
805	 0.607035436846983 
806	 0.607191688003414 
807	 0.607453773924287 
808	 0.607759528030734 
809	 0.608002232133461 
810	 0.60814989240413 
811	 0.608293673956065 
812	 0.608450293631447 
813	 0.608618628543509 
814	 0.608920430694944 
815	 0.60915272509327 
816	 0.609297565717779 
817	 0.609506842964607 
818	 0.609677501994139 
819	 0.609861914856012 
820	 0.61004796709991 
821	 0.61008500305309 
822	 0.610148377326737 
823	 0.610314429495177 
824	 0.610583163323541 
825	 0.610824584915687 
826	 0.611081124987641 
827	 0.611326149889341 
828	 0.611508797363388 
829	 0.611612953498187 
830	 0.611777106694544 
831	 0.612008009220115 
832	 0.612194670202397 
833	 0.612368921343029 
834	 0.612571202260365 
835	 0.612776444996314 
836	 0.612860727326643 
837	 0.612983875042473 
838	 0.613144352096276 
839	 0.613309071107675 
840	 0.613485205257238 
841	 0.613611869460654 
842	 0.613771930689256 
843	 0.614053599456265 
844	 0.614278893406265 
845	 0.614410508105297 
846	 0.614503441883391 
847	 0.614662340527553 
848	 0.614823802890961 
849	 0.614972225061573 
850	 0.615114800837007 
851	 0.615279853216512 
852	 0.615485900282114 
853	 0.615640498659923 
854	 0.615724870697047 
855	 0.615925320650557 
856	 0.61606148077819 
857	 0.616200005811205 
858	 0.616411644126239 
859	 0.616478953700408 
860	 0.616685737319666 
861	 0.61694173531623 
862	 0.617016717543349 
863	 0.617118553821653 
864	 0.617261066696789 
865	 0.617408350432939 
866	 0.617505235919405 
867	 0.617660597546482 
868	 0.617773740140327 
869	 0.617850045452104 
870	 0.618066455131552 
871	 0.618205766114657 
872	 0.618262725682643 
873	 0.618303764236772 
874	 0.618436309283085 
875	 0.618636505805296 
876	 0.618805645790802 
877	 0.618888489063243 
878	 0.619064776769284 
879	 0.619282452699173 
880	 0.619433980743203 
881	 0.619461730397902 
882	 0.6197122974139 
883	 0.619918781273463 
884	 0.620002382547681 
885	 0.620060307210715 
886	 0.620113451169477 
887	 0.620165653229937 
888	 0.620253207488961 
889	 0.620437253554093 
890	 0.620526339512442 
891	 0.620549341433319 
892	 0.620582144309616 
893	 0.620699448785369 
894	 0.62087773286892 
895	 0.621072668119905 
896	 0.621223182594785 
897	 0.621236315268751 
898	 0.621280647580487 
899	 0.621416404765697 
900	 0.621613435699537 
901	 0.621685472717613 
902	 0.621733829388483 
903	 0.621761690937157 
904	 0.621755616055448 
905	 0.621894714186439 
906	 0.622004425647198 
907	 0.622049149545418 
908	 0.622106674695922 
909	 0.62216465824542 
910	 0.622264519177756 
911	 0.622384181379051 
912	 0.622448138287064 
913	 0.622572833212047 
914	 0.62266324525623 
915	 0.62271281451242 
916	 0.622868499853289 
917	 0.623044981253092 
918	 0.623170705270801 
919	 0.623255060904123 
920	 0.623445333180284 
921	 0.623595672512779 
922	 0.623724142637695 
923	 0.623841530617436 
924	 0.623811082123731 
925	 0.623989249349727 
926	 0.624272948307366 
927	 0.624467294592669 
928	 0.62463422110195 
929	 0.624819607395713 
930	 0.625033185125899 
931	 0.625240238970113 
932	 0.62528592438055 
933	 0.625526023249633 
934	 0.625939774052029 
935	 0.626304503264396 
936	 0.626615577595125 
937	 0.626896622000027 
938	 0.627139351006994 
939	 0.627328776506038 
940	 0.627565587504001 
941	 0.627836597787294 
942	 0.6280913723453 
943	 0.628284978882826 
944	 0.628610163970448 
945	 0.628912360151635 
946	 0.629146092899806 
947	 0.629410260109436 
948	 0.629574040105955 
949	 0.62972738583421 
950	 0.629905310837509 
951	 0.630038552341613 
952	 0.630194698822607 
953	 0.63030996923256 
954	 0.63039236865276 
955	 0.630576512819557 
956	 0.63073195386583 
957	 0.630842443668573 
958	 0.63092432816018 
959	 0.631005518537324 
960	 0.631108168182482 
961	 0.631238645428576 
962	 0.631373985883442 
963	 0.631449517360792 
964	 0.631527899499089 
965	 0.63159527157432 
966	 0.631679267375658 
967	 0.631945215612723 
968	 0.632046841722645 
969	 0.632103741486921 
970	 0.632257427830358 
971	 0.632345031615488 
972	 0.632418394584116 
973	 0.632405331462212 
974	 0.632341332509894 
975	 0.632657001661113 
976	 0.632758865120468 
977	 0.632816476141619 
978	 0.633066356604545 
979	 0.63314516499435 
980	 0.63329504816044 
981	 0.633431650403487 
982	 0.633471949412124 
983	 0.633702976463652 
984	 0.633764425382961 
985	 0.633897203146794 
986	 0.634289956720186 
987	 0.634248350503957 
988	 0.634146998726112 
989	 0.634223060092552 
990	 0.634527434344505 
991	 0.634714744089834 
992	 0.634718910042549 
993	 0.63472299486345 
994	 0.634897813857919 
995	 0.635015414370746 
996	 0.63524773778147 
997	 0.635390572142975 
998	 0.635314988495007 
999	 0.63558671135035 
1000	 0.635719886294427 
1001	 0.640797897792964 
1002	 0.64089913269093 
1003	 0.641002783852455 
1004	 0.641128089451168 
1005	 0.641290977974867 
1006	 0.641421057197532 
1007	 0.641545158042781 
1008	 0.641665528092127 
1009	 0.641778486752282 
1010	 0.64188035665218 
1011	 0.641972889512738 
1012	 0.642065808139077 
1013	 0.642126081990383 
1014	 0.642231655185094 
1015	 0.642359098251377 
1016	 0.642502427690979 
1017	 0.642646037744083 
1018	 0.6427700359435 
1019	 0.642847647171868 
1020	 0.642960523228053 
1021	 0.643081104327667 
1022	 0.643197974505769 
1023	 0.643339353700595 
1024	 0.643540980366344 
1025	 0.643661647574548 
1026	 0.64375291702553 
1027	 0.643858182301038 
1028	 0.643945087719332 
1029	 0.64399693061209 
1030	 0.644077601089217 
1031	 0.644185269824175 
1032	 0.644283907309093 
1033	 0.644389541180832 
1034	 0.644456436041602 
1035	 0.644525650446065 
1036	 0.644617619771775 
1037	 0.644675652592978 
1038	 0.644775293781267 
1039	 0.644950875504688 
1040	 0.645070766116849 
1041	 0.645164101700508 
1042	 0.645283458421934 
1043	 0.645403453593052 
1044	 0.645516946596753 
1045	 0.645636461075245 
1046	 0.645748952027171 
1047	 0.645878167304634 
1048	 0.646005096503531 
1049	 0.646139898853818 
1050	 0.64629329598875 
1051	 0.646451297776813 
1052	 0.646594438597301 
1053	 0.64673034339766 
1054	 0.646858307415522 
1055	 0.647008501366158 
1056	 0.647162258821516 
1057	 0.647296855108484 
1058	 0.64744234675054 
1059	 0.647579955783053 
1060	 0.647669391446866 
1061	 0.647784917210809 
1062	 0.647935741371774 
1063	 0.648051380965934 
1064	 0.648171839230068 
1065	 0.648324461506212 
1066	 0.648454437236806 
1067	 0.648621426424642 
1068	 0.648822370111885 
1069	 0.648996352848309 
1070	 0.64916891074489 
1071	 0.649346676707118 
1072	 0.649503245654402 
1073	 0.649635217427837 
1074	 0.649756152636539 
1075	 0.649848788293152 
1076	 0.649954611082741 
1077	 0.650057088183663 
1078	 0.650196921448461 
1079	 0.650379598853448 
1080	 0.650517899179778 
1081	 0.650663622173086 
1082	 0.650772297954572 
1083	 0.650843657438481 
1084	 0.650963817503769 
1085	 0.651075857015723 
1086	 0.65118646512207 
1087	 0.651305155285104 
1088	 0.651436142682979 
1089	 0.651549069370761 
1090	 0.651647120507749 
1091	 0.651741342872881 
1092	 0.651844187705473 
1093	 0.651921916507615 
1094	 0.651996220393409 
1095	 0.652087064878536 
1096	 0.652154115764616 
1097	 0.652213602497575 
1098	 0.652288924431585 
1099	 0.65235184025771 
1100	 0.652395870660801 
1101	 0.652446865272847 
1102	 0.652487457025866 
1103	 0.652519089338446 
1104	 0.652541693545369 
1105	 0.65257869847165 
1106	 0.652591069593437 
1107	 0.65259588378312 
1108	 0.65262561339925 
1109	 0.652633127720854 
1110	 0.652650127306602 
1111	 0.652662467459215 
1112	 0.652637888110442 
1113	 0.65263232235573 
1114	 0.652619620664886 
1115	 0.652584362464072 
1116	 0.652552503795094 
1117	 0.652516838701249 
1118	 0.652465001577455 
1119	 0.652397165429799 
1120	 0.652328586231414 
1121	 0.652259723343291 
1122	 0.652166095396352 
1123	 0.652061708998082 
1124	 0.651934303750833 
1125	 0.651802308349932 
1126	 0.651654992848782 
1127	 0.651486894534913 
1128	 0.651313566253715 
1129	 0.651114889542228 
1130	 0.650905338815192 
1131	 0.65067046135999 
1132	 0.650416795579913 
1133	 0.65016325600153 
1134	 0.649885583526691 
1135	 0.649597651581494 
1136	 0.64931251174194 
1137	 0.64899538319884 
1138	 0.648651851360359 
1139	 0.648292956085154 
1140	 0.647911405690248 
1141	 0.647527206273195 
1142	 0.647108338567109 
1143	 0.646686851900274 
1144	 0.64625502502621 
1145	 0.645773018575157 
1146	 0.645289993866865 
1147	 0.644791272602938 
1148	 0.644263744888236 
1149	 0.643762600739258 
1150	 0.643261608383824 
1151	 0.642748577987251 
1152	 0.642213427789761 
1153	 0.641651099373172 
1154	 0.641096952101187 
1155	 0.640541735234892 
1156	 0.639961565050108 
1157	 0.63938050998957 
1158	 0.638798773612395 
1159	 0.638199309816556 
1160	 0.637574025374744 
1161	 0.63697632967495 
1162	 0.63633684537675 
1163	 0.635689748803511 
1164	 0.635062041961271 
1165	 0.634451255893386 
1166	 0.633867244013952 
1167	 0.633268339198 
1168	 0.632669524957608 
1169	 0.632051992811357 
1170	 0.631410877371518 
1171	 0.63077097935139 
1172	 0.630142510807522 
1173	 0.629465168487761 
1174	 0.628764046142269 
1175	 0.628060801999301 
1176	 0.627327830549606 
1177	 0.626593097658025 
1178	 0.625866054023506 
1179	 0.625089028719683 
1180	 0.624353726036157 
1181	 0.623599463434641 
1182	 0.622816089920314 
1183	 0.622098701014444 
1184	 0.621361312721715 
1185	 0.620621687976644 
1186	 0.619939023529406 
1187	 0.619298134811365 
1188	 0.618675743737207 
1189	 0.618084569615623 
1190	 0.617512891126853 
1191	 0.616953551896126 
1192	 0.6164538877001 
1193	 0.616003798981972 
1194	 0.615557899764279 
1195	 0.615149792096065 
1196	 0.614754403290224 
1197	 0.614359894284921 
1198	 0.613980983617734 
1199	 0.613678532371337 
1200	 0.613446536729231 
1201	 0.613223303273453 
1202	 0.613043807055655 
1203	 0.612913044038046 
1204	 0.612813419631182 
1205	 0.612780740218962 
1206	 0.612799140611647 
1207	 0.612909614992521 
1208	 0.613050676269047 
1209	 0.61333011818263 
1210	 0.61370735067851 
1211	 0.614191622878369 
1212	 0.614809778276135 
1213	 0.615480255435812 
1214	 0.616225737730482 
1215	 0.617086471263834 
1216	 0.618048995522077 
1217	 0.619060245816279 
1218	 0.620195855463209 
1219	 0.621367456376247 
1220	 0.622535368493766 
1221	 0.623784332548057 
1222	 0.625003181974095 
1223	 0.626242864363723 
1224	 0.627428085980557 
1225	 0.628604950053186 
1226	 0.629705631752163 
1227	 0.630778680640268 
1228	 0.631769772201956 
1229	 0.632700127063116 
1230	 0.633572267309145 
1231	 0.634367769192953 
1232	 0.635134373186535 
1233	 0.635842822901135 
1234	 0.636510918679264 
1235	 0.637132277169534 
1236	 0.637722239756283 
1237	 0.638269030344982 
1238	 0.638782695904875 
1239	 0.639266243493732 
1240	 0.639707873795546 
1241	 0.640114161468942 
1242	 0.640479042616767 
1243	 0.640838487636199 
1244	 0.641171827852279 
1245	 0.64149378186864 
1246	 0.641806142420043 
1247	 0.642088375242721 
1248	 0.642346558559394 
1249	 0.642589736037473 
1250	 0.642801002632245 
1251	 0.643013453339492 
1252	 0.64321506537466 
1253	 0.643407427054504 
1254	 0.643604342692774 
1255	 0.643767766282548 
1256	 0.64391439815433 
1257	 0.644039574283951 
1258	 0.644120426068447 
1259	 0.644212247905664 
1260	 0.644283274758939 
1261	 0.644368673183092 
1262	 0.64446789082041 
1263	 0.644561911788789 
1264	 0.644647535391048 
1265	 0.644739077300939 
1266	 0.644810132121602 
1267	 0.644864550618061 
1268	 0.644918581971123 
1269	 0.644963167735094 
1270	 0.645007281348518 
1271	 0.645031178459094 
1272	 0.645087677236406 
1273	 0.645159914474361 
1274	 0.64522628738901 
1275	 0.645322838430676 
1276	 0.645387674541328 
1277	 0.64541716336372 
1278	 0.645474240747859 
1279	 0.645535362596491 
1280	 0.645595573530601 
1281	 0.645676980491218 
1282	 0.645742735275809 
1283	 0.64578142749168 
1284	 0.645841741999236 
1285	 0.645909374151943 
1286	 0.645976483178562 
1287	 0.646063227739862 
1288	 0.64617668381655 
1289	 0.646263732115087 
1290	 0.646342307919613 
1291	 0.646439852415212 
1292	 0.64654049296232 
1293	 0.646633103493427 
1294	 0.646752000767767 
1295	 0.646830681259357 
1296	 0.64687844754725 
1297	 0.646929863482019 
1298	 0.646967237402539 
1299	 0.647005359030809 
1300	 0.647047368405538 
1301	 0.647070807647227 
1302	 0.647074430405422 
1303	 0.647088297022566 
1304	 0.647099053664633 
1305	 0.647103191233566 
1306	 0.647109895588218 
1307	 0.647114702025439 
1308	 0.647112863705269 
1309	 0.647102836196803 
1310	 0.64709929381942 
1311	 0.647113258489197 
1312	 0.647082332626124 
1313	 0.647041115696811 
1314	 0.646972734885781 
1315	 0.646869109607093 
1316	 0.646769463336501 
1317	 0.646660179846442 
1318	 0.646537489522009 
1319	 0.64639984073969 
1320	 0.646261997408603 
1321	 0.646105154417921 
1322	 0.645963334217218 
1323	 0.645848189819557 
1324	 0.645688851350637 
1325	 0.645516799227723 
1326	 0.645331953060247 
1327	 0.645111418568607 
1328	 0.644894965560924 
1329	 0.644688040996305 
1330	 0.644457237511819 
1331	 0.644213116668161 
1332	 0.643953481072277 
1333	 0.643690140228743 
1334	 0.643392395344212 
1335	 0.643073473237923 
1336	 0.642737901079563 
1337	 0.642369463712812 
1338	 0.641958121990536 
1339	 0.641571531317227 
1340	 0.641182028575895 
1341	 0.640766834397374 
1342	 0.640362493041755 
1343	 0.639905162155696 
1344	 0.639415161926571 
1345	 0.63889310280473 
1346	 0.638339808104108 
1347	 0.637764721390992 
1348	 0.637161715657265 
1349	 0.636526884981582 
1350	 0.635854247480731 
1351	 0.635176440937714 
1352	 0.634447432146681 
1353	 0.633748325791721 
1354	 0.633047871143181 
1355	 0.632365961317682 
1356	 0.63170394108731 
1357	 0.631036872704873 
1358	 0.630379631669723 
1359	 0.629717275827399 
1360	 0.62906486881008 
1361	 0.628398462103604 
1362	 0.627679735342361 
1363	 0.626990629448873 
1364	 0.626266457344922 
1365	 0.625520935104534 
1366	 0.62474476978592 
1367	 0.623962367275552 
1368	 0.623139783135931 
1369	 0.622284482934469 
1370	 0.621386787545713 
1371	 0.620458666081274 
1372	 0.61951344490199 
1373	 0.618521931280506 
1374	 0.617521233137123 
1375	 0.616509677112385 
1376	 0.615465478490109 
1377	 0.614390139606328 
1378	 0.613281141252204 
1379	 0.612126471922445 
1380	 0.610982353686013 
1381	 0.609813070124702 
1382	 0.608638863985566 
1383	 0.607433225040257 
1384	 0.606281214313584 
1385	 0.605117966555032 
1386	 0.604013151453878 
1387	 0.602945837480601 
1388	 0.601955471606604 
1389	 0.601003803403914 
1390	 0.600118612286215 
1391	 0.59934752220112 
1392	 0.598570079446055 
1393	 0.597839517392974 
1394	 0.597102091334292 
1395	 0.596320096817419 
1396	 0.595560632465984 
1397	 0.594662046162761 
1398	 0.593734429446541 
1399	 0.592644798867849 
1400	 0.591444234076523 
1401	 0.590127941310514 
1402	 0.58868951227376 
1403	 0.587154153210641 
1404	 0.585476931283662 
1405	 0.583794711634839 
1406	 0.582017493294187 
1407	 0.580229484098576 
1408	 0.578360360967246 
1409	 0.576551321234832 
1410	 0.574660210409321 
1411	 0.572923872852526 
1412	 0.571215648587006 
1413	 0.569685152607753 
1414	 0.568278949108607 
1415	 0.566972947918028 
1416	 0.565806850703075 
1417	 0.564720981521187 
1418	 0.563778568833923 
1419	 0.562834907641462 
1420	 0.561970336482346 
1421	 0.561141082693509 
1422	 0.560328631580777 
1423	 0.559558327250112 
1424	 0.558867088764497 
1425	 0.558160919085884 
1426	 0.557509070334677 
1427	 0.556888484289916 
1428	 0.556288743481301 
1429	 0.555784473312077 
1430	 0.555295113191386 
1431	 0.554827511607631 
1432	 0.554438285799772 
1433	 0.554100130904508 
1434	 0.553826180616915 
1435	 0.553619993634024 
1436	 0.553454016374438 
1437	 0.553352738135351 
1438	 0.553273878720846 
1439	 0.553229961425451 
1440	 0.55323842920959 
1441	 0.55329484070292 
1442	 0.553376374274311 
1443	 0.553512090425454 
1444	 0.553659179734187 
1445	 0.553828958668893 
1446	 0.554021236600985 
1447	 0.554235144542822 
1448	 0.554481346831949 
1449	 0.554754417409759 
1450	 0.555050898739663 
1451	 0.555395110768471 
1452	 0.555732339156986 
1453	 0.556095579532842 
1454	 0.556440126880259 
1455	 0.55677845568935 
1456	 0.557120691345875 
1457	 0.557455584029446 
1458	 0.557798056564501 
1459	 0.55815020235798 
1460	 0.55849883415503 
1461	 0.558846607088469 
1462	 0.559193355970241 
1463	 0.559531839890687 
1464	 0.559884246193911 
1465	 0.560239063942252 
1466	 0.560605223002844 
1467	 0.560975383000046 
1468	 0.561367687178945 
1469	 0.56177084515027 
1470	 0.562166580897498 
1471	 0.562562107334853 
1472	 0.562972897306766 
1473	 0.56334328865416 
1474	 0.563697598542623 
1475	 0.564042195786758 
1476	 0.564361612257545 
1477	 0.56468918631938 
1478	 0.56501712672182 
1479	 0.565322241440897 
1480	 0.565623215398226 
1481	 0.56589590518493 
1482	 0.566143651154516 
1483	 0.566387865226676 
1484	 0.566618185128875 
1485	 0.566832476503116 
1486	 0.567027127676298 
1487	 0.567225476874203 
1488	 0.5674077310423 
1489	 0.567595301516387 
1490	 0.567788063927235 
1491	 0.567974994430997 
1492	 0.568157501350878 
1493	 0.568334721876654 
1494	 0.568500903449532 
1495	 0.568681346573297 
1496	 0.568854994442112 
1497	 0.569046854313031 
1498	 0.569259013904094 
1499	 0.569469985794064 
1500	 0.569683429329012 
1501	 0.569908816725342 
1502	 0.570143613540735 
1503	 0.570381215862589 
1504	 0.570642221790939 
1505	 0.570880888919761 
1506	 0.571115438016355 
1507	 0.571339973125417 
1508	 0.571531287830304 
1509	 0.57174990979833 
1510	 0.571976271522502 
1511	 0.572205535217613 
1512	 0.572465887380774 
1513	 0.572701546923703 
1514	 0.572939890453513 
1515	 0.573148703624365 
1516	 0.573318890904821 
1517	 0.573500880608951 
1518	 0.573671192195015 
1519	 0.573835193467158 
1520	 0.574005022335935 
1521	 0.574166019034551 
1522	 0.574310420545568 
1523	 0.5744664897732 
1524	 0.574621784237249 
1525	 0.574788078625858 
1526	 0.574929969095739 
1527	 0.575062425030364 
1528	 0.575194240849889 
1529	 0.575308389379168 
1530	 0.575443164045713 
1531	 0.575583985931674 
1532	 0.575732097784726 
1533	 0.575886685929535 
1534	 0.576050070962364 
1535	 0.576226851789443 
1536	 0.576391282638529 
1537	 0.576562613732978 
1538	 0.576718932947028 
1539	 0.576865421393967 
1540	 0.577007989207093 
1541	 0.577148908590087 
1542	 0.577273209750785 
1543	 0.577385815889146 
1544	 0.577492051807688 
1545	 0.577591985631214 
1546	 0.577671602982815 
1547	 0.577747137616787 
1548	 0.577791354878996 
1549	 0.577795412272057 
1550	 0.577820574417055 
1551	 0.577836684299883 
1552	 0.577850901671336 
1553	 0.577879693978146 
1554	 0.577881132227609 
1555	 0.577852094343294 
1556	 0.577844742826187 
1557	 0.577821160354045 
1558	 0.577833937389587 
1559	 0.57786568710689 
1560	 0.577913171979082 
1561	 0.577993962973907 
1562	 0.57806109593588 
1563	 0.578132086121358 
1564	 0.578211341883188 
1565	 0.578283692684504 
1566	 0.578378829731389 
1567	 0.578499428271251 
1568	 0.578611063109493 
1569	 0.578731184011679 
1570	 0.578849186048121 
1571	 0.578963485187203 
1572	 0.579082555691802 
1573	 0.579212347709209 
1574	 0.579329420615475 
1575	 0.579444685162382 
1576	 0.57955227047802 
1577	 0.579645750682699 
1578	 0.579746819678947 
1579	 0.579852006583945 
1580	 0.57994700500015 
1581	 0.580032161775921 
1582	 0.580128746033614 
1583	 0.580225459261457 
1584	 0.580320360180539 
1585	 0.580425926424576 
1586	 0.580525248242555 
1587	 0.580610998010199 
1588	 0.580707080955967 
1589	 0.580814658516665 
1590	 0.580912205183653 
1591	 0.581001324921822 
1592	 0.581102530765545 
1593	 0.581196349865583 
1594	 0.581307830686323 
1595	 0.581458828312036 
1596	 0.581571336184929 
1597	 0.581663306813224 
1598	 0.5817686310446 
1599	 0.581865708351954 
1600	 0.58195383992526 
1601	 0.582053873903561 
1602	 0.582141032968534 
1603	 0.582201938130613 
1604	 0.582269298101762 
1605	 0.582339047546792 
1606	 0.582407551081953 
1607	 0.582474365540561 
1608	 0.582538059731944 
1609	 0.582623830155848 
1610	 0.582667667582761 
1611	 0.582682216668859 
1612	 0.582692342442739 
1613	 0.582669165261294 
1614	 0.582652449658582 
1615	 0.582625502217225 
1616	 0.58261681276904 
1617	 0.582627615489285 
1618	 0.582612881842738 
1619	 0.582614052342909 
1620	 0.582582368372039 
1621	 0.582511187987431 
1622	 0.582438326095361 
1623	 0.582352801869782 
1624	 0.58225773781077 
1625	 0.582144944881098 
1626	 0.582032648669448 
1627	 0.581915688076164 
1628	 0.581791812723078 
1629	 0.581657218717795 
1630	 0.581530014725743 
1631	 0.581384577206886 
1632	 0.581266005200587 
1633	 0.581178190560952 
1634	 0.581076435960595 
1635	 0.580986234540174 
1636	 0.580887426184224 
1637	 0.580790919928259 
1638	 0.580663057974 
1639	 0.580532518415974 
1640	 0.580369852045981 
1641	 0.580161706354445 
1642	 0.579958648060954 
1643	 0.579742050977802 
1644	 0.579513777035269 
1645	 0.579289515483071 
1646	 0.579030828391927 
1647	 0.578751880702489 
1648	 0.578449418622623 
1649	 0.578116284363194 
1650	 0.577763944905572 
1651	 0.577396685903551 
1652	 0.576999962100242 
1653	 0.576591316430911 
1654	 0.57613171431432 
1655	 0.575643079775857 
1656	 0.575092805444642 
1657	 0.574497909612633 
1658	 0.57384051039997 
1659	 0.573118487853198 
1660	 0.572359696575956 
1661	 0.571570708680173 
1662	 0.570687278833407 
1663	 0.569756290671664 
1664	 0.568709690826668 
1665	 0.567559284779504 
1666	 0.566319520553252 
1667	 0.564980910733261 
1668	 0.563580338977402 
1669	 0.562116407836304 
1670	 0.56052862593091 
1671	 0.558831733357822 
1672	 0.557054884551081 
1673	 0.555162623029408 
1674	 0.553191259642804 
1675	 0.551144078987951 
1676	 0.549051257679704 
1677	 0.546887941763114 
1678	 0.544629119141594 
1679	 0.542271768840736 
1680	 0.539872789688951 
1681	 0.537384692511275 
1682	 0.534832592687589 
1683	 0.532247312084119 
1684	 0.529621643256552 
1685	 0.52691662414576 
1686	 0.52416339987208 
1687	 0.52135383165457 
1688	 0.518490817802171 
1689	 0.515561896561599 
1690	 0.512564690090333 
1691	 0.509527273907169 
1692	 0.506490676990253 
1693	 0.503412979580822 
1694	 0.500264456357969 
1695	 0.497082059499779 
1696	 0.493810859717916 
1697	 0.490424696452884 
1698	 0.487010475102251 
1699	 0.483547885762853 
1700	 0.480160555891834 
1701	 0.47670770781712 
1702	 0.473393110164337 
1703	 0.470083062693034 
1704	 0.466977934639765 
1705	 0.463959548390798 
1706	 0.461057361360607 
1707	 0.458528603841706 
1708	 0.456094640333599 
1709	 0.453806960905059 
1710	 0.451750256915564 
1711	 0.449702796172795 
1712	 0.447798053262042 
1713	 0.445968505498705 
1714	 0.444153026844064 
1715	 0.442515102636462 
1716	 0.440891525841351 
1717	 0.439346172095719 
1718	 0.437938345141361 
1719	 0.436580458113857 
1720	 0.435367499179099 
1721	 0.43431674717296 
1722	 0.433451072791636 
1723	 0.432866109701427 
1724	 0.432542092416784 
1725	 0.432459017704917 
1726	 0.432719110865768 
1727	 0.433313847898431 
1728	 0.434184528830809 
1729	 0.435416551020996 
1730	 0.436965832439345 
1731	 0.438627766780733 
1732	 0.440513450126801 
1733	 0.442481561720494 
1734	 0.444471989778435 
1735	 0.446508949288608 
1736	 0.448376694623999 
1737	 0.45008685594519 
1738	 0.451536798234133 
1739	 0.452683693245803 
1740	 0.453573108683624 
1741	 0.454232803525629 
1742	 0.454568404386944 
1743	 0.454782208317158 
1744	 0.454748091759564 
1745	 0.454634333813032 
1746	 0.454311808824947 
1747	 0.454016259157883 
1748	 0.453598143920638 
1749	 0.453252731734772 
1750	 0.452860149922571 
1751	 0.452591598835428 
1752	 0.452345621916297 
1753	 0.452263327073203 
1754	 0.452278817319717 
1755	 0.452464325625577 
1756	 0.452759242670266 
1757	 0.453264405103635 
1758	 0.453989574148812 
1759	 0.454885749089622 
1760	 0.456026261691694 
1761	 0.457391555708398 
1762	 0.458876138059522 
1763	 0.460584144216818 
1764	 0.462432165261557 
1765	 0.464403594268297 
1766	 0.466563022379377 
1767	 0.468695878993312 
1768	 0.470889273896707 
1769	 0.473124444926438 
1770	 0.475179769537197 
1771	 0.477214527981509 
1772	 0.479123712963337 
1773	 0.480859160319195 
1774	 0.482583667523174 
1775	 0.484137902390178 
1776	 0.485640810430448 
1777	 0.487047010361768 
1778	 0.488213529576229 
1779	 0.489327751504559 
1780	 0.490321938891878 
1781	 0.491194586176442 
1782	 0.492028287767067 
1783	 0.492777055450339 
1784	 0.493447700973391 
1785	 0.493936913706986 
1786	 0.494421900188648 
1787	 0.494817925977297 
1788	 0.495180351862923 
1789	 0.495524299220212 
1790	 0.495793499730068 
1791	 0.495978798649815 
1792	 0.49619363342487 
1793	 0.496353250291591 
1794	 0.496590365462086 
1795	 0.496774603917641 
1796	 0.496958776596935 
1797	 0.497208484188042 
1798	 0.497443752131956 
1799	 0.497706121434882 
1800	 0.497989199032102 
1801	 0.500298581867787 
1802	 0.500588395896424 
1803	 0.500869367813362 
1804	 0.501157613342875 
1805	 0.501423507691986 
1806	 0.501694870434177 
1807	 0.501957353438178 
1808	 0.502235317208799 
1809	 0.502508953091297 
1810	 0.502799806230219 
1811	 0.503102488665807 
1812	 0.503411953730541 
1813	 0.503718861524018 
1814	 0.504068544051688 
1815	 0.50439909132979 
1816	 0.504748132859772 
1817	 0.505121191387445 
1818	 0.505503683755389 
1819	 0.505903674745112 
1820	 0.506350265564079 
1821	 0.506774991074083 
1822	 0.507200976058212 
1823	 0.50762963135621 
1824	 0.508062042673152 
1825	 0.508479529464575 
1826	 0.508888301508538 
1827	 0.50928885097181 
1828	 0.509699361357261 
1829	 0.510100758262908 
1830	 0.510505073472773 
1831	 0.510915622619112 
1832	 0.511329521815736 
1833	 0.511727740976436 
1834	 0.512141378866628 
1835	 0.512571608406717 
1836	 0.512989220967625 
1837	 0.51342790258125 
1838	 0.513882593188249 
1839	 0.514330700479285 
1840	 0.51478569651442 
1841	 0.515248918413285 
1842	 0.515721750989558 
1843	 0.516189897207216 
1844	 0.516634986157932 
1845	 0.517057544931251 
1846	 0.5174940067768 
1847	 0.51789263952213 
1848	 0.518280330692683 
1849	 0.518687441778514 
1850	 0.519053482598604 
1851	 0.519388743607103 
1852	 0.519696422816159 
1853	 0.519987886315452 
1854	 0.520211052067788 
1855	 0.520384918794354 
1856	 0.520522697706615 
1857	 0.520621835715244 
1858	 0.520708751746943 
1859	 0.520773831713664 
1860	 0.520830376625459 
1861	 0.52082817806589 
1862	 0.520809348479933 
1863	 0.520724988538885 
1864	 0.520569823201742 
1865	 0.520396871867851 
1866	 0.5201672651495 
1867	 0.519872858044539 
1868	 0.519545051207814 
1869	 0.519125545766544 
1870	 0.518643069496145 
1871	 0.51811825848839 
1872	 0.517504679457075 
1873	 0.516810250615882 
1874	 0.51606160430005 
1875	 0.515259745200906 
1876	 0.514310228607531 
1877	 0.513318285805433 
1878	 0.512192527238383 
1879	 0.510893488217273 
1880	 0.509546304568382 
1881	 0.508022637894412 
1882	 0.506349073781754 
1883	 0.504544890919868 
1884	 0.502572134246744 
1885	 0.50030507399737 
1886	 0.497927218297205 
1887	 0.495322563625658 
1888	 0.49244058784866 
1889	 0.489629185887924 
1890	 0.486619332242975 
1891	 0.483538908796876 
1892	 0.480469682615286 
1893	 0.477287381300777 
1894	 0.473934025333899 
1895	 0.470680231032936 
1896	 0.467403047388909 
1897	 0.464184101266058 
1898	 0.461259755645517 
1899	 0.458316603289209 
1900	 0.455508553978874 
1901	 0.45286245275967 
1902	 0.450129531941459 
1903	 0.44763494037829 
1904	 0.445263707297198 
1905	 0.442994717136098 
1906	 0.440846018038765 
1907	 0.438995503362693 
1908	 0.437179669622636 
1909	 0.435496127760898 
1910	 0.433957428202422 
1911	 0.432421212586716 
1912	 0.431033849054094 
1913	 0.429706264299352 
1914	 0.428418998182677 
1915	 0.427258586964085 
1916	 0.426228709685621 
1917	 0.425224978491908 
1918	 0.424288424551303 
1919	 0.423429437460797 
1920	 0.422572515900229 
1921	 0.421775989259201 
1922	 0.421037602362868 
1923	 0.420361207673283 
1924	 0.419772867187185 
1925	 0.419192912496746 
1926	 0.418674731108626 
1927	 0.418217051045009 
1928	 0.417801330720069 
1929	 0.417418675365392 
1930	 0.417110438702326 
1931	 0.416860547823216 
1932	 0.416660061563259 
1933	 0.416555437288086 
1934	 0.416520152488034 
1935	 0.416530487382223 
1936	 0.416598309363721 
1937	 0.416734844475784 
1938	 0.416945252647188 
1939	 0.417182473297418 
1940	 0.417471719642969 
1941	 0.417826299102609 
1942	 0.418206314379493 
1943	 0.418615903104095 
1944	 0.419083765740799 
1945	 0.419609575478868 
1946	 0.420203262631968 
1947	 0.420810842134328 
1948	 0.421449706590487 
1949	 0.422118088784217 
1950	 0.422760788941421 
1951	 0.423369737805365 
1952	 0.424023302248154 
1953	 0.424689378833322 
1954	 0.425362781985482 
1955	 0.426098455836818 
1956	 0.426807918195275 
1957	 0.427537680628491 
1958	 0.428288079372756 
1959	 0.428959714833035 
1960	 0.429662675912394 
1961	 0.430364079069901 
1962	 0.431036832250637 
1963	 0.431739851074087 
1964	 0.43246873266229 
1965	 0.43318733747776 
1966	 0.43391689824327 
1967	 0.434656639972178 
1968	 0.435341148149593 
1969	 0.436075863362989 
1970	 0.436791297820498 
1971	 0.4374791342941 
1972	 0.438228677225669 
1973	 0.438954956206491 
1974	 0.439676396957275 
1975	 0.440420929229428 
1976	 0.441126209557031 
1977	 0.441812369794503 
1978	 0.442475365263107 
1979	 0.443108810311819 
1980	 0.443724835033029 
1981	 0.444363206201315 
1982	 0.444962103799135 
1983	 0.445575369448169 
1984	 0.446189586316984 
1985	 0.446740421207436 
1986	 0.447307303412203 
1987	 0.447853232314326 
1988	 0.448378209778868 
1989	 0.44889359958651 
1990	 0.449409231754643 
1991	 0.449889381695782 
1992	 0.450346462003612 
1993	 0.450798472192672 
1994	 0.451199338736406 
1995	 0.451577803623541 
1996	 0.451941065842028 
1997	 0.452238294993187 
1998	 0.452522045565624 
1999	 0.452774435757757 
2000	 0.453014901507268 
2001	 0.453229404977496 
2002	 0.453418754284118 
2003	 0.453603998907815 
2004	 0.453743360276763 
2005	 0.45383253663489 
2006	 0.453914706240379 
2007	 0.453990085987577 
2008	 0.453998011193455 
2009	 0.453977644388484 
2010	 0.453965359972092 
2011	 0.453945880606068 
2012	 0.453896154109819 
2013	 0.453803969509811 
2014	 0.453717662412556 
2015	 0.453547333025026 
2016	 0.453313325853505 
2017	 0.45302921400896 
2018	 0.452679849140438 
2019	 0.452303491108162 
2020	 0.451880271308261 
2021	 0.451408699425076 
2022	 0.450931797185317 
2023	 0.450388348561321 
2024	 0.449744211344002 
2025	 0.449097190892825 
2026	 0.448409380183738 
2027	 0.44762700218172 
2028	 0.44690817975824 
2029	 0.446194091883858 
2030	 0.445467007454833 
2031	 0.444762337142177 
2032	 0.44403052672256 
2033	 0.443236744898862 
2034	 0.44251478702688 
2035	 0.441811192689066 
2036	 0.441110465059978 
2037	 0.44047853932836 
2038	 0.439886363229155 
2039	 0.439334000383257 
2040	 0.438820558468255 
2041	 0.438333711129349 
2042	 0.437884446261268 
2043	 0.43748492625679 
2044	 0.437111682203246 
2045	 0.436789341643907 
2046	 0.436543006118341 
2047	 0.436295606915935 
2048	 0.436071706862204 
2049	 0.435880561739966 
2050	 0.435718294606021 
2051	 0.435576629414711 
2052	 0.43547720372428 
2053	 0.435395338793456 
2054	 0.435346746723623 
2055	 0.435335547035268 
2056	 0.435333711005529 
2057	 0.4353679527665 
2058	 0.43539762649941 
2059	 0.435442648421853 
2060	 0.435487128271478 
2061	 0.435544491152596 
2062	 0.435591683693059 
2063	 0.435637064950686 
2064	 0.43568005850652 
2065	 0.435713196552436 
2066	 0.435757814228895 
2067	 0.435807228355246 
2068	 0.435851717065665 
2069	 0.435898468072692 
2070	 0.435954132194963 
2071	 0.435993721030597 
2072	 0.436043541551003 
2073	 0.436051062062493 
2074	 0.43602205972424 
2075	 0.436011388852116 
2076	 0.435977761464953 
2077	 0.435952450342093 
2078	 0.435953936150778 
2079	 0.435925799983573 
2080	 0.43588052579279 
2081	 0.435827475192557 
2082	 0.435765093389918 
2083	 0.435689259534317 
2084	 0.435600980703268 
2085	 0.435499001985461 
2086	 0.435387444040973 
2087	 0.435245733931903 
2088	 0.435137557487133 
2089	 0.435042617275721 
2090	 0.434930098258664 
2091	 0.434838668709939 
2092	 0.434717027137989 
2093	 0.434583134482332 
2094	 0.434418200546927 
2095	 0.434218258052406 
2096	 0.434025842234149 
2097	 0.433826592096662 
2098	 0.433590070679006 
2099	 0.433363871625558 
2100	 0.433137078838697 
2101	 0.432876079654409 
2102	 0.432591595426563 
2103	 0.432280368751528 
2104	 0.431948080154712 
2105	 0.431591363415099 
2106	 0.431188958215803 
2107	 0.430800389215445 
2108	 0.430426656483985 
2109	 0.429993029866674 
2110	 0.429533033306904 
2111	 0.429054092907902 
2112	 0.428512445511011 
2113	 0.427982333584444 
2114	 0.427459106142055 
2115	 0.42691126811015 
2116	 0.426343548839289 
2117	 0.425770798671276 
2118	 0.425173965686085 
2119	 0.424535729296413 
2120	 0.423954267319815 
2121	 0.423343023589154 
2122	 0.422830816223576 
2123	 0.422375119302953 
2124	 0.42195671453263 
2125	 0.421610229542291 
2126	 0.421264411816749 
2127	 0.420937209822479 
2128	 0.420661105274339 
2129	 0.420420473882608 
2130	 0.420205387915523 
2131	 0.420059708730299 
2132	 0.4199006182982 
2133	 0.419752599458409 
2134	 0.419613996689636 
2135	 0.41947897180477 
2136	 0.419346796815698 
2137	 0.419218401786501 
2138	 0.419087119570752 
2139	 0.418976482138201 
2140	 0.418874699688902 
2141	 0.418787499723473 
2142	 0.418719924885352 
2143	 0.418654512939377 
2144	 0.418588497023564 
2145	 0.418547596772389 
2146	 0.418512857309732 
2147	 0.418507864007837 
2148	 0.418541332644134 
2149	 0.418569150801226 
2150	 0.418609600518484 
2151	 0.418663472587913 
2152	 0.41872110922797 
2153	 0.418804830046633 
2154	 0.418879070536729 
2155	 0.418933993064965 
2156	 0.418977131375605 
2157	 0.41900361336321 
2158	 0.419004629497248 
2159	 0.419012263964727 
2160	 0.418956764743566 
2161	 0.418839241975295 
2162	 0.418738393972538 
2163	 0.418604142493579 
2164	 0.418470984726908 
2165	 0.418331763077142 
2166	 0.418202619835311 
2167	 0.418049413816599 
2168	 0.417926863845501 
2169	 0.417817924122744 
2170	 0.417729437123439 
2171	 0.417647779820536 
2172	 0.417600953717037 
2173	 0.417590784007397 
2174	 0.417587443957121 
2175	 0.417607157228162 
2176	 0.417668373136589 
2177	 0.417727063777219 
2178	 0.417804636833992 
2179	 0.417886538280802 
2180	 0.417980013793453 
2181	 0.418072531816188 
2182	 0.418169442450368 
2183	 0.418282590208468 
2184	 0.418407909450355 
2185	 0.418531726599292 
2186	 0.418691925426423 
2187	 0.418799942667545 
2188	 0.418882280257427 
2189	 0.418960219157493 
2190	 0.419003922553596 
2191	 0.419060906253104 
2192	 0.419128260035352 
2193	 0.41917616987286 
2194	 0.419221760271364 
2195	 0.419245345948705 
2196	 0.419234348113293 
2197	 0.419249964764191 
2198	 0.419235646682776 
2199	 0.419176040765015 
2200	 0.419104132550938 
2201	 0.419010614881818 
2202	 0.418887138121654 
2203	 0.418728463527819 
2204	 0.418580220225387 
2205	 0.418417097487182 
2206	 0.418223632279599 
2207	 0.418028203221516 
2208	 0.417801246519393 
2209	 0.417525504908712 
2210	 0.417265592632082 
2211	 0.417027004434715 
2212	 0.416718929458904 
2213	 0.416364444884627 
2214	 0.416008945902937 
2215	 0.415632168022825 
2216	 0.415210550999863 
2217	 0.41480381186104 
2218	 0.414318079284479 
2219	 0.413759509819601 
2220	 0.413158975515358 
2221	 0.412507050863656 
2222	 0.411806115291946 
2223	 0.411087355513235 
2224	 0.410241825314009 
2225	 0.409391361005285 
2226	 0.40845934441451 
2227	 0.407403655433695 
2228	 0.406260897421758 
2229	 0.405032199694017 
2230	 0.403679629192607 
2231	 0.402254787996274 
2232	 0.400774805489016 
2233	 0.399132188127262 
2234	 0.397419714999814 
2235	 0.395472151558395 
2236	 0.393358613242024 
2237	 0.39108900925539 
2238	 0.38855703411554 
2239	 0.385989285698419 
2240	 0.383323488793964 
2241	 0.380499669889014 
2242	 0.377632690632891 
2243	 0.3744949268282 
2244	 0.371094843110836 
2245	 0.367629153258613 
2246	 0.36382130451678 
2247	 0.360141273237603 
2248	 0.356495192133835 
2249	 0.352743444536615 
2250	 0.348955961241056 
2251	 0.345205660547552 
2252	 0.341155135338842 
2253	 0.33720940988901 
2254	 0.333206896191606 
2255	 0.32917310554985 
2256	 0.325482928632586 
2257	 0.321773537369099 
2258	 0.318230474448942 
2259	 0.314929492072043 
2260	 0.311531785906744 
2261	 0.308131721667413 
2262	 0.30488878368317 
2263	 0.301631672449356 
2264	 0.298611435266446 
2265	 0.29581871713935 
2266	 0.293000527668958 
2267	 0.290378700816262 
2268	 0.287643170719705 
2269	 0.284858981057029 
2270	 0.282175737198715 
2271	 0.279425146087601 
2272	 0.276858562002603 
2273	 0.274489893927309 
2274	 0.272050221519975 
2275	 0.269775281051102 
2276	 0.267333381748023 
2277	 0.264794393246124 
2278	 0.262255121925312 
2279	 0.259589344718122 
2280	 0.256981452822869 
2281	 0.254454983283758 
2282	 0.251807147664176 
2283	 0.249123688384652 
2284	 0.246425903161114 
2285	 0.243496239030246 
2286	 0.240628576332076 
2287	 0.237632535130023 
2288	 0.234513378246099 
2289	 0.231572595298158 
2290	 0.228442576471565 
2291	 0.225356059516083 
2292	 0.222366791063827 
2293	 0.219109774708224 
2294	 0.215944432967197 
2295	 0.212928825603475 
2296	 0.210020043412625 
2297	 0.207529824738459 
2298	 0.205374738515505 
2299	 0.203455994218885 
2300	 0.201806955341372 
2301	 0.200540091732057 
2302	 0.199527036702384 
2303	 0.199036391257726 
2304	 0.198999632130485 
2305	 0.199342894557115 
2306	 0.200191145496109 
2307	 0.201320746162849 
2308	 0.202823845314782 
2309	 0.204712248474259 
2310	 0.207109719874754 
2311	 0.209588692260701 
2312	 0.212637194381819 
2313	 0.215393374852086 
2314	 0.218231594329634 
2315	 0.220969899975217 
2316	 0.223678134822108 
2317	 0.226196552643884 
2318	 0.22877991086742 
2319	 0.230892830093481 
2320	 0.23275198949715 
2321	 0.234265362863937 
2322	 0.235316553772201 
2323	 0.236248026221882 
2324	 0.236914311531056 
2325	 0.237346955792598 
2326	 0.23755961679235 
2327	 0.237528676791959 
2328	 0.237171333816646 
2329	 0.236655152861456 
2330	 0.23594551631208 
2331	 0.234962486025257 
2332	 0.233810195421202 
2333	 0.2324332533626 
2334	 0.230755704669983 
2335	 0.228941963476713 
2336	 0.226869902532575 
2337	 0.224638725390806 
2338	 0.222567922976074 
2339	 0.22043783026533 
2340	 0.218381256926095 
2341	 0.216503278664702 
2342	 0.214626421611153 
2343	 0.212982733487596 
2344	 0.211795733824986 
2345	 0.211033932251894 
2346	 0.210669468197446 
2347	 0.210878235245987 
2348	 0.211423498094603 
2349	 0.212433295420592 
2350	 0.213967224085337 
2351	 0.21578552288857 
2352	 0.217859974925198 
2353	 0.220057509414742 
2354	 0.222141346035221 
2355	 0.224159460065299 
2356	 0.225992552527285 
2357	 0.227558675114393 
2358	 0.228986210163683 
2359	 0.230067458267209 
2360	 0.230973304502951 
2361	 0.231687658619889 
2362	 0.232081204156307 
2363	 0.232365174771017 
2364	 0.232539697952544 
2365	 0.232587628711355 
2366	 0.232725007714784 
2367	 0.232820321496776 
2368	 0.232850632390534 
2369	 0.232930579867183 
2370	 0.232923955020004 
2371	 0.232939917718763 
2372	 0.233058792168495 
2373	 0.233213048917428 
2374	 0.233341571740543 
2375	 0.233562973699482 
2376	 0.233776345026666 
2377	 0.23383375598097 
2378	 0.23405398376455 
2379	 0.234337421360883 
2380	 0.234545884171564 
2381	 0.234880673290622 
2382	 0.2351543453869 
2383	 0.235355465929427 
2384	 0.235623847225437 
2385	 0.235924750281004 
2386	 0.236233250117364 
2387	 0.236603248007178 
2388	 0.236917255118178 
2389	 0.237154705446988 
2390	 0.23752512267752 
2391	 0.237968917584792 
2392	 0.238342331903475 
2393	 0.238836479453222 
2394	 0.239138413766719 
2395	 0.239231215796089 
2396	 0.239433243235716 
2397	 0.239586049455823 
2398	 0.239833655073823 
2399	 0.240203245519699 
2400	 0.240497119180371 
2401	 0.240788899695779 
2402	 0.241075483095861 
2403	 0.241306319033861 
2404	 0.241616235609543 
2405	 0.241849177399756 
2406	 0.242074458201527 
2407	 0.242360618652326 
2408	 0.242564658385175 
2409	 0.242686213146899 
2410	 0.242843543385538 
2411	 0.243089575100999 
2412	 0.243248636353946 
2413	 0.243478875314385 
2414	 0.243854683402135 
2415	 0.244083124861716 
2416	 0.24427751635887 
2417	 0.244522290334525 
2418	 0.244667725124488 
2419	 0.244774886260121 
2420	 0.244959394961112 
2421	 0.245196158652501 
2422	 0.245395753410154 
2423	 0.245563596651263 
2424	 0.245747223511178 
2425	 0.245868862318808 
2426	 0.245933676890051 
2427	 0.245994398824307 
2428	 0.245935146390757 
2429	 0.246004579364416 
2430	 0.246261991596778 
2431	 0.246346461221121 
2432	 0.246406559558012 
2433	 0.246425145923351 
2434	 0.246320878698479 
2435	 0.246339673836968 
2436	 0.246434875184442 
2437	 0.246424337070878 
2438	 0.246241195665035 
2439	 0.246173851292999 
2440	 0.246102539858066 
2441	 0.245782192081746 
2442	 0.245677015045724 
2443	 0.245477093455566 
2444	 0.245091773401725 
2445	 0.245020161341362 
2446	 0.244808069149371 
2447	 0.244377802883318 
2448	 0.244003728143311 
2449	 0.243620575371728 
2450	 0.243255025284825 
2451	 0.242894660545634 
2452	 0.242573778358812 
2453	 0.24204188255075 
2454	 0.241351672203112 
2455	 0.240758758704093 
2456	 0.239942348729339 
2457	 0.239273863635859 
2458	 0.238974321173893 
2459	 0.23860888930696 
2460	 0.238351009380584 
2461	 0.238133561412938 
2462	 0.237773761530131 
2463	 0.237307552108447 
2464	 0.236887108433377 
2465	 0.236685564607901 
2466	 0.236571486558478 
2467	 0.236552110314765 
2468	 0.236388698348268 
2469	 0.236154081467255 
2470	 0.236017106744979 
2471	 0.235803604575855 
2472	 0.235921909810623 
2473	 0.236169195076247 
2474	 0.235944228335335 
2475	 0.235689055459045 
2476	 0.235630803102178 
2477	 0.235552038182402 
2478	 0.235646428575075 
2479	 0.235848528604227 
2480	 0.235967847637561 
2481	 0.23587455535259 
2482	 0.235630104249099 
2483	 0.23541893221696 
2484	 0.235212147462717 
2485	 0.235514036278653 
2486	 0.235998879747414 
2487	 0.23651772617931 
2488	 0.237111665560562 
2489	 0.23745667102345 
2490	 0.237637364773624 
2491	 0.237921962209981 
2492	 0.238400498632751 
2493	 0.239069803178072 
2494	 0.239618405941344 
2495	 0.240175060341293 
2496	 0.240947585021987 
2497	 0.24139203660727 
2498	 0.241964509264551 
2499	 0.242784401864131 
2500	 0.243177613072352 
