Wavelength	spectrum00000.asd
350	 0.388915023222002 
351	 0.389357719205703 
352	 0.391468033639482 
353	 0.395255721153099 
354	 0.397397762825218 
355	 0.397519791552308 
356	 0.397803260994481 
357	 0.400088268809927 
358	 0.403667504597134 
359	 0.406499965644783 
360	 0.408321172904995 
361	 0.410101451570829 
362	 0.414149007915328 
363	 0.417310228686383 
364	 0.419084809696427 
365	 0.423079704440626 
366	 0.426914477572954 
367	 0.430493213366897 
368	 0.434125927191337 
369	 0.437566726128581 
370	 0.441097318476972 
371	 0.444390010491249 
372	 0.447053569428887 
373	 0.451478044987981 
374	 0.455867996369677 
375	 0.458966424563874 
376	 0.460939207024543 
377	 0.463718640878675 
378	 0.467556091591641 
379	 0.471912328692622 
380	 0.475496333589561 
381	 0.478979496210164 
382	 0.482318639909636 
383	 0.485203946352397 
384	 0.488958707631406 
385	 0.492514000982851 
386	 0.49540489341922 
387	 0.498458413364889 
388	 0.501791318265302 
389	 0.505335533308324 
390	 0.508894872361677 
391	 0.512114133609311 
392	 0.515278581732698 
393	 0.51838470469472 
394	 0.521229353963284 
395	 0.523676135937745 
396	 0.52638539299215 
397	 0.529664901319065 
398	 0.533184265579879 
399	 0.535745394436056 
400	 0.537890597662019 
401	 0.540472195950377 
402	 0.543125533197771 
403	 0.546200002087501 
404	 0.549415865592944 
405	 0.552090324167059 
406	 0.554705373842005 
407	 0.55729522541292 
408	 0.559865753184154 
409	 0.56249970929582 
410	 0.565005486014201 
411	 0.567394762373969 
412	 0.569749060343669 
413	 0.572137922244939 
414	 0.574705861579671 
415	 0.577359083198396 
416	 0.579784569581793 
417	 0.581674761358325 
418	 0.583769682566331 
419	 0.586450819389282 
420	 0.588921393757278 
421	 0.591239658322114 
422	 0.593388956850264 
423	 0.595399375526153 
424	 0.597597412974485 
425	 0.599849274105085 
426	 0.602105681982107 
427	 0.604456736318873 
428	 0.606653940828443 
429	 0.608831639093094 
430	 0.611112496942644 
431	 0.613361970306866 
432	 0.615343318892929 
433	 0.61725819110646 
434	 0.619502925050237 
435	 0.621744890181069 
436	 0.623814656370023 
437	 0.625734078481195 
438	 0.627770932065289 
439	 0.629859779724978 
440	 0.631852037603461 
441	 0.6336808189782 
442	 0.635734899493403 
443	 0.637812952863703 
444	 0.63977381066118 
445	 0.641580087035042 
446	 0.643670937115225 
447	 0.645715511412417 
448	 0.647526233322828 
449	 0.649514395267648 
450	 0.651414278315664 
451	 0.653205013732423 
452	 0.654969553855366 
453	 0.656807661966792 
454	 0.658711394235601 
455	 0.660599786701903 
456	 0.662340434462447 
457	 0.664216889136826 
458	 0.666037975829215 
459	 0.667692979405129 
460	 0.669642611567164 
461	 0.671458332156312 
462	 0.673102741758582 
463	 0.674763936613264 
464	 0.676475898351104 
465	 0.678209279571157 
466	 0.67989759760054 
467	 0.681429523467922 
468	 0.683101794807925 
469	 0.68483565303125 
470	 0.6865002168833 
471	 0.688269631877742 
472	 0.689848479229696 
473	 0.691247980633661 
474	 0.69272867749703 
475	 0.694295724859102 
476	 0.695910726477452 
477	 0.697511330911758 
478	 0.699008216017582 
479	 0.700477890751499 
480	 0.701983095028447 
481	 0.703546868639338 
482	 0.704985296008425 
483	 0.706386102792301 
484	 0.707836786143036 
485	 0.709392065448122 
486	 0.710871172654101 
487	 0.712302688678538 
488	 0.713715373176744 
489	 0.714968067118437 
490	 0.716168869268797 
491	 0.717455155515102 
492	 0.718935776191717 
493	 0.720301725376566 
494	 0.721653472633717 
495	 0.723034678162824 
496	 0.724298841527358 
497	 0.725607390911465 
498	 0.726887133957575 
499	 0.728044577065783 
500	 0.729250806347255 
501	 0.730467015759056 
502	 0.731680203423004 
503	 0.732904016409388 
504	 0.734050175477674 
505	 0.735256233818758 
506	 0.736555853583532 
507	 0.737622757274575 
508	 0.738726503584165 
509	 0.739878424835752 
510	 0.740983174609923 
511	 0.742085650757834 
512	 0.743095637161514 
513	 0.744061001246765 
514	 0.745221234132996 
515	 0.746382319760397 
516	 0.747447578510903 
517	 0.748396617768669 
518	 0.749365481246214 
519	 0.750367098912019 
520	 0.751350128960784 
521	 0.752240299710662 
522	 0.753256254247746 
523	 0.754271389125388 
524	 0.755213739517015 
525	 0.756227428336752 
526	 0.757190228490387 
527	 0.758108904094878 
528	 0.759029077148399 
529	 0.759940632304336 
530	 0.760768045641345 
531	 0.761590915303163 
532	 0.762642581886454 
533	 0.763548982266129 
534	 0.764344283798785 
535	 0.765146289592898 
536	 0.766039115051356 
537	 0.766905436014792 
538	 0.767759364972709 
539	 0.768672341328433 
540	 0.769503968944076 
541	 0.770285566401656 
542	 0.771061280940738 
543	 0.771856707576924 
544	 0.77273875784029 
545	 0.773561135601461 
546	 0.774207022227547 
547	 0.774997348825066 
548	 0.775848657621737 
549	 0.77668985324227 
550	 0.777481922295237 
551	 0.778308091361681 
552	 0.77920029318368 
553	 0.780129511350364 
554	 0.780940695170169 
555	 0.781713175169774 
556	 0.782480826467065 
557	 0.783260139110179 
558	 0.784083631250415 
559	 0.784947248829069 
560	 0.785801576866326 
561	 0.786543923007946 
562	 0.787236759469499 
563	 0.787876996963362 
564	 0.788477745645597 
565	 0.78916865557939 
566	 0.789876945558681 
567	 0.790607202564191 
568	 0.791415384051253 
569	 0.792201691088902 
570	 0.792930191333628 
571	 0.793683574682923 
572	 0.794799535580129 
573	 0.795816600416005 
574	 0.796719965686204 
575	 0.797634558857867 
576	 0.798394526458405 
577	 0.799051441315387 
578	 0.799693795431815 
579	 0.80042824651561 
580	 0.801153511303058 
581	 0.801833399505031 
582	 0.802494249863585 
583	 0.803306980976561 
584	 0.804109972030301 
585	 0.804879996500184 
586	 0.805677956784959 
587	 0.806499806588467 
588	 0.807276503888541 
589	 0.808011850426134 
590	 0.808839583593199 
591	 0.809685362304235 
592	 0.810485676258539 
593	 0.811197428951486 
594	 0.811876021125595 
595	 0.812400204438668 
596	 0.812841215687233 
597	 0.81343138355021 
598	 0.814129403258006 
599	 0.814804536547508 
600	 0.815397408289204 
601	 0.816070374766237 
602	 0.816645037581476 
603	 0.817237272776802 
604	 0.818016625012863 
605	 0.818594576191998 
606	 0.819187223637075 
607	 0.81986303186824 
608	 0.820445513997638 
609	 0.820955603482251 
610	 0.821544501411019 
611	 0.822270872155411 
612	 0.822767311238664 
613	 0.823237237597608 
614	 0.823786490685507 
615	 0.824427864885155 
616	 0.82493764084597 
617	 0.82540160566176 
618	 0.825914102836093 
619	 0.826511984325966 
620	 0.827110756765717 
621	 0.827642606552759 
622	 0.828085760426762 
623	 0.828582112954347 
624	 0.829123297862428 
625	 0.829653611679197 
626	 0.830092863993784 
627	 0.830637024980371 
628	 0.83120556626111 
629	 0.831701294328527 
630	 0.832110480206667 
631	 0.832551108183126 
632	 0.833012910432959 
633	 0.833447755363305 
634	 0.834005862155643 
635	 0.83453485131409 
636	 0.834982229045593 
637	 0.835448671518447 
638	 0.835905913609724 
639	 0.836341746395516 
640	 0.83674797943086 
641	 0.837111644333675 
642	 0.837524432986526 
643	 0.837984837221033 
644	 0.838435433217741 
645	 0.838902978478365 
646	 0.839345170114545 
647	 0.83975011999077 
648	 0.840169447089521 
649	 0.840534545475029 
650	 0.840883454450294 
651	 0.841266828727842 
652	 0.841630114172 
653	 0.842081835026062 
654	 0.842567064999055 
655	 0.842913493042242 
656	 0.84330255051926 
657	 0.843717284351721 
658	 0.844106025116078 
659	 0.844399418087779 
660	 0.844795146333679 
661	 0.845212608039334 
662	 0.845513667276092 
663	 0.845874283177355 
664	 0.846272194929764 
665	 0.846698169068937 
666	 0.847159187263946 
667	 0.847446532029855 
668	 0.847693120289006 
669	 0.848021774926772 
670	 0.848344185249728 
671	 0.848665038954374 
672	 0.848978236609023 
673	 0.849293278070689 
674	 0.849746700799753 
675	 0.850129086594626 
676	 0.850382792578499 
677	 0.850665895656923 
678	 0.85106125081256 
679	 0.851452702256227 
680	 0.851725814765075 
681	 0.851912632741206 
682	 0.85221823005048 
683	 0.852584643550321 
684	 0.852829979113793 
685	 0.85308931982836 
686	 0.85334006719788 
687	 0.853620815392207 
688	 0.85407875438044 
689	 0.854439461706478 
690	 0.854563616027862 
691	 0.854529495205718 
692	 0.855021570109149 
693	 0.855244033341645 
694	 0.85529114374309 
695	 0.85576448746896 
696	 0.856264846617358 
697	 0.856480971204969 
698	 0.856497809043895 
699	 0.856999334484436 
700	 0.857250114984415 
701	 0.857383312386297 
702	 0.8576701561691 
703	 0.85789917230364 
704	 0.858174061147918 
705	 0.858459556079094 
706	 0.85863923887931 
707	 0.858825924709656 
708	 0.859099260081341 
709	 0.859438508208727 
710	 0.859667223059412 
711	 0.85991991459972 
712	 0.860180453957486 
713	 0.860405764117455 
714	 0.860617177631805 
715	 0.860909397051308 
716	 0.861196053739698 
717	 0.86129508019997 
718	 0.861479974108736 
719	 0.861736826034211 
720	 0.86199659926838 
721	 0.862167305509703 
722	 0.862348685303144 
723	 0.862598436194125 
724	 0.86290218148506 
725	 0.863035925820765 
726	 0.863066070210617 
727	 0.863210941892391 
728	 0.863711762246736 
729	 0.863987409363876 
730	 0.864091884253673 
731	 0.864167928693446 
732	 0.864346905568004 
733	 0.864557254926886 
734	 0.86476081876001 
735	 0.864940102896563 
736	 0.865126439973325 
737	 0.865305801937051 
738	 0.865427998061207 
739	 0.865457331899468 
740	 0.865700551446919 
741	 0.866005998791819 
742	 0.866205448680823 
743	 0.866193274605359 
744	 0.866436977870105 
745	 0.866704328249993 
746	 0.866731830616207 
747	 0.866821032526855 
748	 0.867016511242386 
749	 0.867217394584109 
750	 0.867280914547357 
751	 0.867470951386655 
752	 0.867696032208277 
753	 0.867875254854442 
754	 0.867992758525442 
755	 0.868071261516564 
756	 0.868201042154194 
757	 0.868422922817874 
758	 0.868611729352955 
759	 0.868697212208985 
760	 0.868755422309407 
761	 0.868904195182818 
762	 0.869006204473483 
763	 0.869159682261059 
764	 0.8693482542069 
765	 0.869433011840432 
766	 0.869722491112349 
767	 0.869951892037117 
768	 0.869954874130862 
769	 0.870036183394436 
770	 0.870193369078802 
771	 0.870328431669326 
772	 0.870355803373345 
773	 0.87048197991557 
774	 0.870619644590226 
775	 0.87073791751131 
776	 0.870863720350336 
777	 0.871017302898405 
778	 0.87114793795875 
779	 0.871223075684344 
780	 0.871252477037661 
781	 0.871420160125552 
782	 0.871634409915678 
783	 0.87175790969834 
784	 0.871799324742639 
785	 0.871896871335117 
786	 0.872021501878901 
787	 0.872062814903179 
788	 0.872098077623907 
789	 0.872191751295046 
790	 0.872321522545402 
791	 0.872372932009898 
792	 0.872484778173806 
793	 0.872660855215785 
794	 0.872845838475696 
795	 0.872912375877091 
796	 0.872963907280419 
797	 0.873089530482632 
798	 0.873316555946944 
799	 0.873423195120882 
800	 0.873474962316518 
801	 0.87351180369177 
802	 0.87354433603717 
803	 0.873577986977432 
804	 0.873663167664748 
805	 0.873798047168829 
806	 0.873898920427855 
807	 0.873928706707187 
808	 0.874060715540937 
809	 0.874347814397422 
810	 0.874328794318793 
811	 0.874338776296179 
812	 0.874398153198688 
813	 0.874418315677047 
814	 0.874549435968104 
815	 0.874691236437183 
816	 0.874790468868126 
817	 0.874854881684247 
818	 0.874922054648052 
819	 0.874962630243931 
820	 0.874991313712151 
821	 0.875109221662211 
822	 0.875234344166556 
823	 0.875262098059614 
824	 0.875192486389702 
825	 0.875349835719668 
826	 0.875556392074191 
827	 0.875692899348676 
828	 0.875704344844958 
829	 0.875721125691353 
830	 0.875758517191275 
831	 0.875827839258444 
832	 0.875940769336125 
833	 0.876111900684398 
834	 0.876277587014763 
835	 0.876367741878666 
836	 0.876324922101585 
837	 0.876279005890845 
838	 0.876297728745998 
839	 0.876377131442556 
840	 0.876363831513827 
841	 0.876434205285367 
842	 0.876610920051163 
843	 0.876833245866777 
844	 0.877006548705652 
845	 0.877065251470409 
846	 0.877051237551995 
847	 0.8770828681307 
848	 0.877208087714719 
849	 0.877337977844355 
850	 0.877405646950191 
851	 0.877401458573317 
852	 0.877406168786745 
853	 0.877426826624334 
854	 0.877480532877197 
855	 0.877650233096572 
856	 0.877727581285944 
857	 0.877768110550152 
858	 0.877846217868297 
859	 0.877752196007193 
860	 0.877817299818821 
861	 0.878003545180024 
862	 0.878088317358675 
863	 0.878053451143512 
864	 0.878007071296725 
865	 0.878028487353736 
866	 0.878136578431249 
867	 0.878131854734346 
868	 0.878167972641049 
869	 0.878304558629203 
870	 0.878406566295576 
871	 0.878471902109073 
872	 0.878516104623925 
873	 0.878534729106326 
874	 0.878452499871164 
875	 0.878501603976243 
876	 0.878613181029552 
877	 0.878671840785819 
878	 0.878780321452655 
879	 0.878863382195826 
880	 0.878849301693479 
881	 0.878732513461679 
882	 0.878803797776032 
883	 0.878929366939344 
884	 0.879019317172357 
885	 0.879044289964173 
886	 0.878993111110937 
887	 0.878969712994899 
888	 0.878991847117057 
889	 0.878973917984954 
890	 0.879087418213314 
891	 0.879144710723888 
892	 0.879037684113466 
893	 0.878899070208531 
894	 0.879019926056858 
895	 0.879208907240319 
896	 0.87924110254552 
897	 0.879151891249834 
898	 0.879117811559934 
899	 0.879118991806508 
900	 0.879095888303505 
901	 0.87914303200602 
902	 0.879161050256357 
903	 0.879151631570283 
904	 0.879177580601249 
905	 0.879332141385479 
906	 0.879344726797986 
907	 0.879203443612233 
908	 0.879108618838158 
909	 0.879187792488656 
910	 0.87931402247923 
911	 0.879427650688321 
912	 0.879560641987612 
913	 0.879616110248088 
914	 0.87962674694082 
915	 0.879617950868194 
916	 0.879578970744945 
917	 0.879600647453477 
918	 0.879686844492957 
919	 0.879817998565106 
920	 0.879974412818202 
921	 0.880045886279508 
922	 0.880074099345255 
923	 0.880098714209309 
924	 0.880027700477742 
925	 0.880082819580606 
926	 0.880210718813282 
927	 0.880296244444221 
928	 0.880369524691206 
929	 0.880339224766332 
930	 0.880294489865461 
931	 0.880352417501667 
932	 0.880381835105967 
933	 0.880537165299776 
934	 0.880787312854999 
935	 0.880978761329885 
936	 0.880923945767855 
937	 0.880983302101516 
938	 0.881126267660867 
939	 0.881092679154877 
940	 0.881209249022862 
941	 0.881241909616304 
942	 0.881182016952351 
943	 0.88123248008458 
944	 0.881294977189945 
945	 0.88140739879606 
946	 0.881558910099403 
947	 0.881664485574398 
948	 0.88152642342725 
949	 0.881437168095041 
950	 0.881522373615845 
951	 0.881598588874147 
952	 0.881549813695717 
953	 0.881485821608185 
954	 0.881498298731856 
955	 0.881572418319547 
956	 0.881513228121226 
957	 0.88133881484525 
958	 0.881153398357843 
959	 0.881105651486258 
960	 0.881176935729078 
961	 0.881230076371847 
962	 0.881201549258897 
963	 0.881229584812054 
964	 0.881297937130089 
965	 0.881323466830268 
966	 0.881239619375886 
967	 0.881055693263859 
968	 0.881016405186996 
969	 0.881101919571279 
970	 0.881188872755627 
971	 0.881130271268353 
972	 0.881035751711728 
973	 0.881028039904128 
974	 0.881145479749602 
975	 0.881212214660676 
976	 0.881047672860997 
977	 0.880915640010197 
978	 0.881041959870555 
979	 0.881058181595443 
980	 0.881216983145051 
981	 0.881341174699126 
982	 0.881268341058575 
983	 0.881352222897607 
984	 0.881315491355818 
985	 0.881290495467892 
986	 0.881423580054245 
987	 0.881422497612655 
988	 0.881398056289143 
989	 0.881467198295276 
990	 0.88166451578928 
991	 0.881777882568063 
992	 0.881642302491511 
993	 0.881483651145583 
994	 0.881570282793047 
995	 0.881793984160243 
996	 0.881864049765939 
997	 0.881765309407595 
998	 0.88165386748154 
999	 0.881828874880239 
1000	 0.88187226498614 
1001	 0.885062580695719 
1002	 0.885154313816415 
1003	 0.885170800162017 
1004	 0.885236628004063 
1005	 0.885407647733007 
1006	 0.88546187761651 
1007	 0.885449296529009 
1008	 0.885456110348136 
1009	 0.885422742563285 
1010	 0.885436775299867 
1011	 0.88543235356105 
1012	 0.885483567709666 
1013	 0.885633816722817 
1014	 0.885698438581728 
1015	 0.885744827616951 
1016	 0.885792090246176 
1017	 0.885806733010001 
1018	 0.885801918341182 
1019	 0.88582314622367 
1020	 0.885850334639152 
1021	 0.885873980246655 
1022	 0.885868720851176 
1023	 0.885917542784922 
1024	 0.886021922700487 
1025	 0.886073933378202 
1026	 0.886128595884132 
1027	 0.886165721771285 
1028	 0.886178789899933 
1029	 0.886156857992009 
1030	 0.886189873792845 
1031	 0.886280839006749 
1032	 0.886294397320146 
1033	 0.886283418064854 
1034	 0.886281550794454 
1035	 0.886270332128951 
1036	 0.886308335619404 
1037	 0.886420057913042 
1038	 0.886491694687858 
1039	 0.886568048959593 
1040	 0.88661343854826 
1041	 0.8866430622788 
1042	 0.886672072684176 
1043	 0.886664365231301 
1044	 0.8867097287514 
1045	 0.886776107183098 
1046	 0.886824634750266 
1047	 0.886955284227419 
1048	 0.887030936927416 
1049	 0.887032357815099 
1050	 0.88710151786977 
1051	 0.887191736953438 
1052	 0.887260745914548 
1053	 0.887341766140905 
1054	 0.887484776174963 
1055	 0.887577009936306 
1056	 0.887624232033656 
1057	 0.887690848808137 
1058	 0.88776819208405 
1059	 0.887823702699712 
1060	 0.8878920870776 
1061	 0.887972911169344 
1062	 0.888079798856045 
1063	 0.88819372818913 
1064	 0.888286596601361 
1065	 0.888404437243085 
1066	 0.888558839331165 
1067	 0.888697921771265 
1068	 0.888811073037177 
1069	 0.88892949941957 
1070	 0.889035103574833 
1071	 0.889112082356165 
1072	 0.889195819777612 
1073	 0.889299676399981 
1074	 0.889369876107383 
1075	 0.889434585867505 
1076	 0.889528619954785 
1077	 0.889653149739507 
1078	 0.889779678450789 
1079	 0.88987288794979 
1080	 0.889932574309031 
1081	 0.889972118842068 
1082	 0.89001282901076 
1083	 0.890085994692954 
1084	 0.890190967389239 
1085	 0.890271087219173 
1086	 0.890354034033119 
1087	 0.890440488017216 
1088	 0.890535360059517 
1089	 0.890582325208048 
1090	 0.890646776266055 
1091	 0.890708509428848 
1092	 0.890738100835338 
1093	 0.890809451996274 
1094	 0.890868350631639 
1095	 0.89090673928964 
1096	 0.890966671536783 
1097	 0.890993920554364 
1098	 0.891029106159922 
1099	 0.891068549176973 
1100	 0.891053413402209 
1101	 0.891058158945774 
1102	 0.891066355608319 
1103	 0.891057470973331 
1104	 0.89103079401762 
1105	 0.891028944607993 
1106	 0.891028263929061 
1107	 0.891024805682624 
1108	 0.891014399649233 
1109	 0.89101205296955 
1110	 0.890998288232344 
1111	 0.890942202394625 
1112	 0.890881271864198 
1113	 0.890837305500631 
1114	 0.890782913502666 
1115	 0.890732396972731 
1116	 0.890715899348899 
1117	 0.890679699174656 
1118	 0.890633505980211 
1119	 0.890594862200979 
1120	 0.890538041246559 
1121	 0.890468139577725 
1122	 0.890373096455274 
1123	 0.89027329842411 
1124	 0.890129300986532 
1125	 0.889971329989436 
1126	 0.889804199674749 
1127	 0.889605107863465 
1128	 0.889414700986297 
1129	 0.889229734593488 
1130	 0.889026860633244 
1131	 0.888834768346727 
1132	 0.888631580595456 
1133	 0.888371706357005 
1134	 0.888111156848606 
1135	 0.887835243090864 
1136	 0.88752954270242 
1137	 0.887229784057843 
1138	 0.886914937921534 
1139	 0.886609881350581 
1140	 0.886311697104956 
1141	 0.886016655384179 
1142	 0.885681467983177 
1143	 0.885345126175118 
1144	 0.885018405237963 
1145	 0.884686310987134 
1146	 0.88437567433528 
1147	 0.884079997595056 
1148	 0.883732679916294 
1149	 0.883354299571048 
1150	 0.882985925799064 
1151	 0.882611795271189 
1152	 0.882219158526163 
1153	 0.88181690129672 
1154	 0.881413552452409 
1155	 0.880993183310009 
1156	 0.880566795828146 
1157	 0.880145990550403 
1158	 0.879712535441881 
1159	 0.879253169511457 
1160	 0.878808173172239 
1161	 0.878372573743934 
1162	 0.877934591828882 
1163	 0.877507963701433 
1164	 0.877050562148756 
1165	 0.876567547260715 
1166	 0.876118214941019 
1167	 0.875691691246415 
1168	 0.875282853298502 
1169	 0.874880599982533 
1170	 0.8745041127659 
1171	 0.874122463384509 
1172	 0.873727549405137 
1173	 0.873367479293983 
1174	 0.873040390484853 
1175	 0.872715037122247 
1176	 0.872415947084914 
1177	 0.872098840946633 
1178	 0.871783702436715 
1179	 0.87143621002743 
1180	 0.871141697368542 
1181	 0.87086732872437 
1182	 0.870586801048108 
1183	 0.870365991733183 
1184	 0.870150625483259 
1185	 0.869930274631088 
1186	 0.869757053300323 
1187	 0.869626105261842 
1188	 0.869519903196572 
1189	 0.869437118997586 
1190	 0.869377122966533 
1191	 0.869367729716818 
1192	 0.869342667794489 
1193	 0.869316336548635 
1194	 0.86931758386423 
1195	 0.869331752779328 
1196	 0.869359567762214 
1197	 0.869415405366355 
1198	 0.869464930688532 
1199	 0.869526328017814 
1200	 0.869607648061247 
1201	 0.869697401889978 
1202	 0.869805160223989 
1203	 0.869914575957437 
1204	 0.870017793462188 
1205	 0.870139930217681 
1206	 0.87025495954226 
1207	 0.870419297430593 
1208	 0.870611560294831 
1209	 0.87081901059658 
1210	 0.87105295561596 
1211	 0.871305944693888 
1212	 0.871572212832881 
1213	 0.871870487705196 
1214	 0.872211291475955 
1215	 0.872551421779911 
1216	 0.872918556086402 
1217	 0.87327854046039 
1218	 0.873637303455714 
1219	 0.874007537859007 
1220	 0.874387589035342 
1221	 0.874767625148574 
1222	 0.875150371043614 
1223	 0.875560374412392 
1224	 0.875942125644793 
1225	 0.87632858555175 
1226	 0.876674928571264 
1227	 0.876999806841096 
1228	 0.877304924883472 
1229	 0.877581131525913 
1230	 0.877850267199686 
1231	 0.878089102320264 
1232	 0.878349708479522 
1233	 0.878607539058771 
1234	 0.878860011030351 
1235	 0.879124769135385 
1236	 0.879377561406973 
1237	 0.879618220289221 
1238	 0.879854261805538 
1239	 0.880107007448662 
1240	 0.880324406927538 
1241	 0.880507477078595 
1242	 0.880677679468252 
1243	 0.880830886690205 
1244	 0.880939053046827 
1245	 0.881089977570994 
1246	 0.881258997019577 
1247	 0.881399036935349 
1248	 0.881550218803653 
1249	 0.881667237658845 
1250	 0.881742252396938 
1251	 0.881836336154455 
1252	 0.881946171467215 
1253	 0.88201171420825 
1254	 0.882062290238394 
1255	 0.882097819220744 
1256	 0.882086999268356 
1257	 0.882089503423995 
1258	 0.882088501682004 
1259	 0.882087937081454 
1260	 0.882083728318352 
1261	 0.88208005367539 
1262	 0.882076948686177 
1263	 0.882075813726972 
1264	 0.882074774601167 
1265	 0.882074249914767 
1266	 0.882067554672787 
1267	 0.882062530828602 
1268	 0.882048497927301 
1269	 0.882012696291707 
1270	 0.882009597079995 
1271	 0.882016434597814 
1272	 0.882028030574734 
1273	 0.882058752748529 
1274	 0.882086987376167 
1275	 0.882116784752132 
1276	 0.882147666023815 
1277	 0.882183606008807 
1278	 0.882222982819899 
1279	 0.882259832498821 
1280	 0.882303132164134 
1281	 0.882365400431525 
1282	 0.88241156211269 
1283	 0.882454700463288 
1284	 0.882490388893111 
1285	 0.882518574999227 
1286	 0.882525196911438 
1287	 0.882569520169312 
1288	 0.882620772189716 
1289	 0.882680615615343 
1290	 0.88276500363124 
1291	 0.882837610062159 
1292	 0.882910105898189 
1293	 0.882979252860281 
1294	 0.883051677216343 
1295	 0.883118614148616 
1296	 0.883177581722686 
1297	 0.883239850278522 
1298	 0.883314959031049 
1299	 0.883364741715844 
1300	 0.883404577428552 
1301	 0.883436152254977 
1302	 0.883441144100916 
1303	 0.883458204857554 
1304	 0.883502486879904 
1305	 0.883502053962786 
1306	 0.883473255235381 
1307	 0.883448738609381 
1308	 0.883404472447983 
1309	 0.883337567682935 
1310	 0.883301906048012 
1311	 0.883301337235111 
1312	 0.883235100376273 
1313	 0.88315431988663 
1314	 0.883055630070521 
1315	 0.882920956193019 
1316	 0.882782420575322 
1317	 0.882627848584505 
1318	 0.882484490404129 
1319	 0.882325212323256 
1320	 0.88217318451366 
1321	 0.882033456100737 
1322	 0.881891451080717 
1323	 0.881759066829606 
1324	 0.881595970293165 
1325	 0.88143950124785 
1326	 0.881249043053328 
1327	 0.881008252941126 
1328	 0.880782110504578 
1329	 0.880573756869254 
1330	 0.880319706800574 
1331	 0.880055802960613 
1332	 0.879760159421393 
1333	 0.879426808787848 
1334	 0.879055648779901 
1335	 0.878704181378841 
1336	 0.878346078029861 
1337	 0.877971453090173 
1338	 0.8775857222907 
1339	 0.877213146063359 
1340	 0.876838915709503 
1341	 0.876444382626324 
1342	 0.876066725711513 
1343	 0.875641646164718 
1344	 0.875185792919391 
1345	 0.87470556563843 
1346	 0.874190702113227 
1347	 0.873683674756229 
1348	 0.873157849039528 
1349	 0.87262125347412 
1350	 0.872063905666585 
1351	 0.871531234125283 
1352	 0.870984580269724 
1353	 0.870457354940456 
1354	 0.869949552945591 
1355	 0.86945959073704 
1356	 0.868976324787616 
1357	 0.868504749259023 
1358	 0.868064721834488 
1359	 0.867618779439907 
1360	 0.867177291841311 
1361	 0.86674140828722 
1362	 0.866264615021771 
1363	 0.865808652810796 
1364	 0.865334011334603 
1365	 0.864839742017789 
1366	 0.864345311828694 
1367	 0.863856979465215 
1368	 0.863349668329372 
1369	 0.862822822407297 
1370	 0.862300539624179 
1371	 0.86177777069321 
1372	 0.861246781409973 
1373	 0.860719472082929 
1374	 0.860162353045945 
1375	 0.859606622710973 
1376	 0.858994132137383 
1377	 0.858347639733147 
1378	 0.857663938996809 
1379	 0.856938587170944 
1380	 0.856181363791182 
1381	 0.85540434134749 
1382	 0.854568769776591 
1383	 0.853679471985221 
1384	 0.852764128290287 
1385	 0.851818454377603 
1386	 0.850822822335663 
1387	 0.849789766048748 
1388	 0.848732962519692 
1389	 0.847626061666368 
1390	 0.846497451962306 
1391	 0.845372926046056 
1392	 0.844157134605633 
1393	 0.842959287525536 
1394	 0.841717206249801 
1395	 0.840479872964398 
1396	 0.839252262918414 
1397	 0.837955055656221 
1398	 0.836652288312149 
1399	 0.835247816167487 
1400	 0.833770169361362 
1401	 0.832245465848338 
1402	 0.830663617266821 
1403	 0.829008211511739 
1404	 0.827275747955652 
1405	 0.825543344144364 
1406	 0.823726323265454 
1407	 0.821947505757433 
1408	 0.820129608910089 
1409	 0.818391005619329 
1410	 0.816632063311564 
1411	 0.814994950298131 
1412	 0.813393636241489 
1413	 0.811959994094043 
1414	 0.810653573078927 
1415	 0.809417779387379 
1416	 0.808332226922801 
1417	 0.807275656387548 
1418	 0.806305836441407 
1419	 0.805338484160042 
1420	 0.804424849081846 
1421	 0.803536185498409 
1422	 0.8026495304381 
1423	 0.801806473325708 
1424	 0.801023425479177 
1425	 0.800231123243752 
1426	 0.799512614611781 
1427	 0.798816014061157 
1428	 0.798134910178603 
1429	 0.797530471131855 
1430	 0.796916334760658 
1431	 0.796306998014196 
1432	 0.795747757917177 
1433	 0.795213040580082 
1434	 0.794725409303157 
1435	 0.794280981345208 
1436	 0.793859753969816 
1437	 0.793483025415463 
1438	 0.793118627457523 
1439	 0.792781036056537 
1440	 0.792454918592163 
1441	 0.792148255729328 
1442	 0.791855584862989 
1443	 0.7915822926904 
1444	 0.791315339195144 
1445	 0.791069333080053 
1446	 0.790822055398375 
1447	 0.790572773062791 
1448	 0.790341952825071 
1449	 0.790123669823328 
1450	 0.789909966746417 
1451	 0.789714283163671 
1452	 0.789514328748883 
1453	 0.789311989811979 
1454	 0.789120407389716 
1455	 0.788924329948382 
1456	 0.788751023801826 
1457	 0.788608407766558 
1458	 0.788448236501141 
1459	 0.78830002583775 
1460	 0.78814099899335 
1461	 0.787950464583789 
1462	 0.787786837856652 
1463	 0.787614839592035 
1464	 0.787479990396962 
1465	 0.787383297049407 
1466	 0.787283596151126 
1467	 0.787220041358466 
1468	 0.787189536955399 
1469	 0.78713750162645 
1470	 0.787086109909763 
1471	 0.787018528038721 
1472	 0.786949383822421 
1473	 0.786831880745767 
1474	 0.786699343607713 
1475	 0.786530763980225 
1476	 0.786309585876222 
1477	 0.786100719548341 
1478	 0.785884730934844 
1479	 0.785639999754009 
1480	 0.78538124658164 
1481	 0.785098851979223 
1482	 0.784780417804865 
1483	 0.78446768721471 
1484	 0.784149536026928 
1485	 0.783808779538487 
1486	 0.783442697988581 
1487	 0.783095774573675 
1488	 0.782725802243436 
1489	 0.782389460155118 
1490	 0.782051966496724 
1491	 0.781774092387001 
1492	 0.781521536833419 
1493	 0.781311047689494 
1494	 0.7811518596714 
1495	 0.781027361315468 
1496	 0.78092857104101 
1497	 0.780877709152575 
1498	 0.780890308345444 
1499	 0.780912531123399 
1500	 0.780952873240066 
1501	 0.781043832310809 
1502	 0.781176819150096 
1503	 0.781328039092511 
1504	 0.781525544049185 
1505	 0.781737979010201 
1506	 0.781969045880587 
1507	 0.782217916362034 
1508	 0.782508945082502 
1509	 0.782790231567344 
1510	 0.783071757013328 
1511	 0.783365047248758 
1512	 0.783675487367803 
1513	 0.783974208248979 
1514	 0.784273644723111 
1515	 0.784577591921267 
1516	 0.784849136049831 
1517	 0.785164997915858 
1518	 0.785514697818942 
1519	 0.785867598555583 
1520	 0.786249865466241 
1521	 0.786641526397402 
1522	 0.786992213468316 
1523	 0.787377560581162 
1524	 0.78776299976368 
1525	 0.788145436066787 
1526	 0.788553008420008 
1527	 0.788975128292471 
1528	 0.789422936651221 
1529	 0.789880389714377 
1530	 0.790379950972718 
1531	 0.790922851680656 
1532	 0.791455597585356 
1533	 0.792015469445759 
1534	 0.792562777256679 
1535	 0.793117077961242 
1536	 0.793644733970464 
1537	 0.794171981239338 
1538	 0.79467456560696 
1539	 0.795152289516997 
1540	 0.795622377595864 
1541	 0.79609722788672 
1542	 0.796514853425611 
1543	 0.796899069727687 
1544	 0.797261836355859 
1545	 0.797587855545839 
1546	 0.797890867313446 
1547	 0.798188098449326 
1548	 0.798421275073117 
1549	 0.798600545744407 
1550	 0.798763699464911 
1551	 0.798882106422621 
1552	 0.79898741483211 
1553	 0.799070593467091 
1554	 0.799134615484945 
1555	 0.799151225020968 
1556	 0.799201801909484 
1557	 0.799237319247177 
1558	 0.799308417220959 
1559	 0.799406153679148 
1560	 0.799509670708474 
1561	 0.799622660136807 
1562	 0.799760827269851 
1563	 0.799922704457592 
1564	 0.800085719777511 
1565	 0.800261931824221 
1566	 0.800456746307166 
1567	 0.800657678888935 
1568	 0.800876568018213 
1569	 0.801135128090476 
1570	 0.801372529022217 
1571	 0.801599900624248 
1572	 0.801845802880226 
1573	 0.802106999668521 
1574	 0.802350192337343 
1575	 0.802601400579954 
1576	 0.802841362931526 
1577	 0.803066108480947 
1578	 0.803282980124932 
1579	 0.803501401141293 
1580	 0.803703192625632 
1581	 0.803859563372883 
1582	 0.804062874022819 
1583	 0.80429195115587 
1584	 0.804507260729729 
1585	 0.80473484238841 
1586	 0.804968616323557 
1587	 0.805197965097587 
1588	 0.805424503856377 
1589	 0.805654223826713 
1590	 0.805901247329562 
1591	 0.806144482171806 
1592	 0.806397912651049 
1593	 0.806679269277703 
1594	 0.806957289472804 
1595	 0.807234137954771 
1596	 0.807509002236976 
1597	 0.807793878955522 
1598	 0.808071229972722 
1599	 0.808336771272433 
1600	 0.80860941420729 
1601	 0.808886575440996 
1602	 0.809162901950223 
1603	 0.809444405627576 
1604	 0.809714553269048 
1605	 0.80998138025859 
1606	 0.810241529325428 
1607	 0.810486676333164 
1608	 0.810743391567392 
1609	 0.811011257099558 
1610	 0.811260868772083 
1611	 0.811499896507465 
1612	 0.811742905293057 
1613	 0.81198535125667 
1614	 0.812213175432786 
1615	 0.812449392008548 
1616	 0.81266114658974 
1617	 0.81283951032132 
1618	 0.81302251978836 
1619	 0.813202358053829 
1620	 0.813368614794807 
1621	 0.813525129477162 
1622	 0.813674058911003 
1623	 0.813810796814498 
1624	 0.813943257538407 
1625	 0.814068447397879 
1626	 0.814192946639438 
1627	 0.814308812561544 
1628	 0.814422290429743 
1629	 0.814552136628872 
1630	 0.814646285607305 
1631	 0.814687970945045 
1632	 0.814778990010277 
1633	 0.814881590836247 
1634	 0.814977390364832 
1635	 0.815118164818213 
1636	 0.815224192795315 
1637	 0.815299099430058 
1638	 0.815368042169629 
1639	 0.81544173709726 
1640	 0.815482786282471 
1641	 0.815480935184607 
1642	 0.815496699807008 
1643	 0.815500881255464 
1644	 0.815506099743391 
1645	 0.815538162117906 
1646	 0.815531014752603 
1647	 0.815514373010733 
1648	 0.815456434092743 
1649	 0.815357497055394 
1650	 0.815248648582915 
1651	 0.815124225189979 
1652	 0.814958831951943 
1653	 0.814772429010101 
1654	 0.814550319776698 
1655	 0.814276397736368 
1656	 0.813982556921657 
1657	 0.813673735510134 
1658	 0.813320993142864 
1659	 0.812930884682329 
1660	 0.81251664344547 
1661	 0.812085238609443 
1662	 0.811587034296844 
1663	 0.811075592058609 
1664	 0.810443204509232 
1665	 0.809728958945693 
1666	 0.808925933070427 
1667	 0.80802611235351 
1668	 0.807061002784191 
1669	 0.806009591032041 
1670	 0.804892652725139 
1671	 0.803688667221847 
1672	 0.802421060417458 
1673	 0.801081313706172 
1674	 0.799679988918891 
1675	 0.798186677231662 
1676	 0.796711070582941 
1677	 0.795195553916671 
1678	 0.793661123080705 
1679	 0.792077480752557 
1680	 0.790526223484596 
1681	 0.788946505529653 
1682	 0.787405840070667 
1683	 0.785879370520119 
1684	 0.784453304550803 
1685	 0.783045298126281 
1686	 0.781738659521406 
1687	 0.780526953811165 
1688	 0.779374575477476 
1689	 0.778297401348 
1690	 0.777268334770168 
1691	 0.776330691653251 
1692	 0.775429705359054 
1693	 0.77458177618431 
1694	 0.773758376284088 
1695	 0.773019246424605 
1696	 0.77221019728571 
1697	 0.771408054928593 
1698	 0.770555072466178 
1699	 0.769657129624803 
1700	 0.768778415554433 
1701	 0.767885829813053 
1702	 0.76698468140186 
1703	 0.766056852701397 
1704	 0.76516680864939 
1705	 0.764265239217703 
1706	 0.76341407635725 
1707	 0.76264411568983 
1708	 0.761831609608181 
1709	 0.761028134748453 
1710	 0.760199572289949 
1711	 0.759252002510606 
1712	 0.758302363624329 
1713	 0.757257785354701 
1714	 0.756106254131112 
1715	 0.755006572840204 
1716	 0.753837943690193 
1717	 0.752661120365731 
1718	 0.751497531142465 
1719	 0.750241610501522 
1720	 0.749022135936401 
1721	 0.747844820322438 
1722	 0.746763124530482 
1723	 0.745873153640776 
1724	 0.745077729429916 
1725	 0.744434763697018 
1726	 0.743976078163863 
1727	 0.743672408690422 
1728	 0.743592552320819 
1729	 0.743682275366425 
1730	 0.743934331926453 
1731	 0.744304687287593 
1732	 0.744780975262209 
1733	 0.745353241923511 
1734	 0.745972072143952 
1735	 0.746617474815105 
1736	 0.74725018518056 
1737	 0.747848442808914 
1738	 0.748398371192072 
1739	 0.748880428849737 
1740	 0.74930155557138 
1741	 0.749687327996237 
1742	 0.749996668350406 
1743	 0.750318892989018 
1744	 0.750616112050253 
1745	 0.750913224114217 
1746	 0.751200131390644 
1747	 0.751469504611866 
1748	 0.751725237171016 
1749	 0.751978669982992 
1750	 0.752229251761283 
1751	 0.752483339590659 
1752	 0.752735232873721 
1753	 0.75295834551478 
1754	 0.753144126810645 
1755	 0.753360382371585 
1756	 0.753558686558739 
1757	 0.753846548770778 
1758	 0.754163357326753 
1759	 0.754510670598383 
1760	 0.754920364012915 
1761	 0.755411168731921 
1762	 0.755966968787036 
1763	 0.756619126187608 
1764	 0.757314354706213 
1765	 0.758058332271917 
1766	 0.758848416542706 
1767	 0.759587842619441 
1768	 0.760354497393112 
1769	 0.761091104869749 
1770	 0.761747209080924 
1771	 0.762452133484937 
1772	 0.763115783316628 
1773	 0.763706365689751 
1774	 0.764286497738576 
1775	 0.764783088056373 
1776	 0.765244074695912 
1777	 0.765677171462847 
1778	 0.766038884746337 
1779	 0.766393004115959 
1780	 0.766693921469645 
1781	 0.766936138961072 
1782	 0.767187396081558 
1783	 0.767384291942874 
1784	 0.767533838660899 
1785	 0.767648947318139 
1786	 0.767755953214 
1787	 0.767829097389695 
1788	 0.7679165244327 
1789	 0.768007624672659 
1790	 0.768081192541115 
1791	 0.7681409149405 
1792	 0.76822902763176 
1793	 0.768316258302559 
1794	 0.768441587723337 
1795	 0.768551143434806 
1796	 0.768657998498649 
1797	 0.76876363895478 
1798	 0.768853063250384 
1799	 0.76896073161212 
1800	 0.769067149787667 
1801	 0.77344683270531 
1802	 0.773590085179302 
1803	 0.773731935883799 
1804	 0.773873557148327 
1805	 0.774001774339403 
1806	 0.774156542644744 
1807	 0.774323345766285 
1808	 0.774499227736863 
1809	 0.774711577174675 
1810	 0.774884099071228 
1811	 0.77503860050651 
1812	 0.775204443051466 
1813	 0.775347213023435 
1814	 0.775513619678409 
1815	 0.775692946720065 
1816	 0.775878329864865 
1817	 0.776054145491013 
1818	 0.776224128520433 
1819	 0.776391930364331 
1820	 0.776572922860409 
1821	 0.776725010050024 
1822	 0.776854939685561 
1823	 0.776994785102488 
1824	 0.777124524795573 
1825	 0.777241695613754 
1826	 0.777369790027738 
1827	 0.777505431623459 
1828	 0.777641335283393 
1829	 0.777768068757561 
1830	 0.77791545898766 
1831	 0.778087096405926 
1832	 0.778239772781123 
1833	 0.77837493826413 
1834	 0.778529015134821 
1835	 0.778699381012415 
1836	 0.778856698362514 
1837	 0.779013209025931 
1838	 0.779200726692977 
1839	 0.779348419930808 
1840	 0.779468375351825 
1841	 0.779587885937973 
1842	 0.779707172229519 
1843	 0.779804272245049 
1844	 0.77987260996854 
1845	 0.779920505034484 
1846	 0.77999404478209 
1847	 0.780048338405557 
1848	 0.780046645071129 
1849	 0.780039987203766 
1850	 0.779970872390509 
1851	 0.7798471424749 
1852	 0.779672706444098 
1853	 0.779463435685605 
1854	 0.779255352556956 
1855	 0.779004717548369 
1856	 0.77867901374466 
1857	 0.778317399187718 
1858	 0.777909988585897 
1859	 0.777456180725327 
1860	 0.776944263246242 
1861	 0.776394027278482 
1862	 0.775809511178865 
1863	 0.775182459173871 
1864	 0.774468304351525 
1865	 0.773739335987075 
1866	 0.772933516909823 
1867	 0.771973231848431 
1868	 0.770989075206471 
1869	 0.769872610755451 
1870	 0.768671225194628 
1871	 0.767395193758964 
1872	 0.766064824657796 
1873	 0.764654995984859 
1874	 0.763179697382484 
1875	 0.761630983434432 
1876	 0.759874769064021 
1877	 0.758049953020992 
1878	 0.756043889182507 
1879	 0.753870014496124 
1880	 0.751700883118096 
1881	 0.749326444562232 
1882	 0.746772724267434 
1883	 0.74411453160268 
1884	 0.741287155774601 
1885	 0.738083128109072 
1886	 0.734788257243835 
1887	 0.731212709310518 
1888	 0.727339618904714 
1889	 0.723565421413737 
1890	 0.719521086889261 
1891	 0.715412165480951 
1892	 0.71125894790207 
1893	 0.706899361170874 
1894	 0.702282740676656 
1895	 0.697775674452325 
1896	 0.69307972585077 
1897	 0.688320788888304 
1898	 0.683886369072556 
1899	 0.67924658733759 
1900	 0.674715170715041 
1901	 0.670323305215794 
1902	 0.665627958935018 
1903	 0.6611645673491 
1904	 0.656778387695734 
1905	 0.652409321507527 
1906	 0.648092517902034 
1907	 0.644212619153324 
1908	 0.640301373742365 
1909	 0.636511639525336 
1910	 0.632918355013517 
1911	 0.629200997099883 
1912	 0.625691227984683 
1913	 0.6222690694986 
1914	 0.618880910514478 
1915	 0.61575387709056 
1916	 0.612886150631646 
1917	 0.610025207526825 
1918	 0.607291789426352 
1919	 0.604753633023331 
1920	 0.602135404359865 
1921	 0.59967189010146 
1922	 0.597275068453007 
1923	 0.594913036874314 
1924	 0.592838755920305 
1925	 0.590813372702188 
1926	 0.588901070209541 
1927	 0.587175333034243 
1928	 0.585491888953747 
1929	 0.583833513652649 
1930	 0.582346255856141 
1931	 0.580991277348286 
1932	 0.579743952316947 
1933	 0.578719385496965 
1934	 0.577792458195343 
1935	 0.576987794840771 
1936	 0.576317572297189 
1937	 0.57570774351525 
1938	 0.575166823861191 
1939	 0.574763797214456 
1940	 0.57445415688303 
1941	 0.574259494772767 
1942	 0.57421855914261 
1943	 0.574293793791947 
1944	 0.574461206317114 
1945	 0.574752818869278 
1946	 0.575157127961998 
1947	 0.575626901509146 
1948	 0.576184127335295 
1949	 0.576805240963108 
1950	 0.577466664331412 
1951	 0.578190618096731 
1952	 0.578951242930791 
1953	 0.579746740606656 
1954	 0.58060289863105 
1955	 0.581559674362261 
1956	 0.582512587487699 
1957	 0.583534957239932 
1958	 0.584598100743338 
1959	 0.58557565607449 
1960	 0.586574650904115 
1961	 0.587581646138103 
1962	 0.588558538385059 
1963	 0.589589668318391 
1964	 0.590667012705794 
1965	 0.591716817914332 
1966	 0.592781627384525 
1967	 0.593873135861831 
1968	 0.594872040280859 
1969	 0.595926093993778 
1970	 0.596975232098968 
1971	 0.597971871030722 
1972	 0.599056571438887 
1973	 0.600117100788895 
1974	 0.601185566627213 
1975	 0.602296926490796 
1976	 0.603362877871233 
1977	 0.604403270794089 
1978	 0.605448326137871 
1979	 0.606465816822963 
1980	 0.607494746588049 
1981	 0.608579836793 
1982	 0.609613446620386 
1983	 0.610695099171918 
1984	 0.611774600695075 
1985	 0.612742023884499 
1986	 0.613729878371581 
1987	 0.614722219148989 
1988	 0.615671264760265 
1989	 0.616661896617487 
1990	 0.617703702938471 
1991	 0.61870515191655 
1992	 0.619700288338623 
1993	 0.620702665705165 
1994	 0.621646799189033 
1995	 0.62261817169515 
1996	 0.623568911727556 
1997	 0.624451661848157 
1998	 0.62536967246495 
1999	 0.626293283460316 
2000	 0.627182344000895 
2001	 0.628094644332496 
2002	 0.628945112307861 
2003	 0.629744962880533 
2004	 0.630531410916551 
2005	 0.631270356618648 
2006	 0.632014767469852 
2007	 0.632783916790783 
2008	 0.633468131545834 
2009	 0.634119163447221 
2010	 0.634746529098685 
2011	 0.63524090598181 
2012	 0.635706799894689 
2013	 0.636092138846088 
2014	 0.636410746670012 
2015	 0.636650033099902 
2016	 0.636848488470979 
2017	 0.636906811218006 
2018	 0.636878067749332 
2019	 0.636748218802117 
2020	 0.636501335128764 
2021	 0.636134320072586 
2022	 0.635742803911888 
2023	 0.635220189454874 
2024	 0.634528373985422 
2025	 0.633797339335776 
2026	 0.632940566994221 
2027	 0.631882734998079 
2028	 0.63088283294963 
2029	 0.629810477665619 
2030	 0.628739920609697 
2031	 0.627656319687154 
2032	 0.626563372366244 
2033	 0.625358809412506 
2034	 0.624308252872077 
2035	 0.623274443839077 
2036	 0.622308615038891 
2037	 0.621556378934896 
2038	 0.620935724716359 
2039	 0.620436211466226 
2040	 0.620098347854919 
2041	 0.619846111633143 
2042	 0.619680920919861 
2043	 0.619684676209624 
2044	 0.619858893585059 
2045	 0.620092589500749 
2046	 0.620478740804069 
2047	 0.620914090622956 
2048	 0.621405909437479 
2049	 0.621994739912153 
2050	 0.622691867807656 
2051	 0.623475140849985 
2052	 0.624290020553299 
2053	 0.625153160100515 
2054	 0.626057648550448 
2055	 0.626999748467298 
2056	 0.627986723324112 
2057	 0.629020618887814 
2058	 0.63011614711955 
2059	 0.631293816177136 
2060	 0.632432225604257 
2061	 0.633648693702567 
2062	 0.634801871255921 
2063	 0.635891601076969 
2064	 0.637016928287005 
2065	 0.638154333584557 
2066	 0.63925874921449 
2067	 0.640438068226384 
2068	 0.641568566179495 
2069	 0.64267870802058 
2070	 0.643810018461856 
2071	 0.644856536167179 
2072	 0.645836970011197 
2073	 0.646818373256616 
2074	 0.647761628058055 
2075	 0.648685350748259 
2076	 0.649607621525524 
2077	 0.650463039209998 
2078	 0.651307570390437 
2079	 0.652061500629302 
2080	 0.652731212459016 
2081	 0.653372123938024 
2082	 0.653938710535241 
2083	 0.654455580259538 
2084	 0.655002188543313 
2085	 0.655535238183402 
2086	 0.656011269977028 
2087	 0.656483172392065 
2088	 0.656878634505772 
2089	 0.657192738832807 
2090	 0.657496992957718 
2091	 0.657764598137324 
2092	 0.658002477109487 
2093	 0.658195655641925 
2094	 0.658378837054666 
2095	 0.658531603992498 
2096	 0.658670084565353 
2097	 0.658786329479404 
2098	 0.658897514191868 
2099	 0.658969059713236 
2100	 0.659029276480075 
2101	 0.659079465798051 
2102	 0.659114388483328 
2103	 0.659119343185622 
2104	 0.659107056049102 
2105	 0.659080762391631 
2106	 0.659005649075743 
2107	 0.658971909660427 
2108	 0.658958496699263 
2109	 0.658921086812284 
2110	 0.658908208467213 
2111	 0.658843857283998 
2112	 0.658739816155025 
2113	 0.658629809988279 
2114	 0.658493882078916 
2115	 0.658344323727092 
2116	 0.658195604763775 
2117	 0.658016027509699 
2118	 0.657794362595283 
2119	 0.657535371288147 
2120	 0.657276523186565 
2121	 0.656979886885248 
2122	 0.656681755959484 
2123	 0.656403491075322 
2124	 0.656055026037633 
2125	 0.655691153442099 
2126	 0.655249545372791 
2127	 0.654729425357218 
2128	 0.654204100565841 
2129	 0.653647575723055 
2130	 0.65302761808733 
2131	 0.652406398148597 
2132	 0.651682868465956 
2133	 0.650878988677392 
2134	 0.650003121360883 
2135	 0.649016526384944 
2136	 0.647992576023645 
2137	 0.646888885190114 
2138	 0.645663564836361 
2139	 0.644478217118572 
2140	 0.6432576757733 
2141	 0.64201925405359 
2142	 0.640817648034526 
2143	 0.639476459801028 
2144	 0.638026175692425 
2145	 0.636605771548434 
2146	 0.635080873783633 
2147	 0.633618136005657 
2148	 0.632236974731318 
2149	 0.630762576398949 
2150	 0.629290093201796 
2151	 0.627740454630484 
2152	 0.626077323928422 
2153	 0.624441316712084 
2154	 0.622795688844295 
2155	 0.621108364607647 
2156	 0.619497390623297 
2157	 0.617927873058874 
2158	 0.61636540021644 
2159	 0.614844299027931 
2160	 0.613288455967327 
2161	 0.611701784992169 
2162	 0.610213007535075 
2163	 0.608681882708829 
2164	 0.607323190269649 
2165	 0.606102202826965 
2166	 0.604903581189203 
2167	 0.603781817771201 
2168	 0.602737566884492 
2169	 0.601716588069921 
2170	 0.600841343596391 
2171	 0.60008772035282 
2172	 0.599410547064708 
2173	 0.598865608323828 
2174	 0.598362714065167 
2175	 0.59791957535901 
2176	 0.597594156923992 
2177	 0.597328791724929 
2178	 0.597141557653185 
2179	 0.597023798811593 
2180	 0.596994455562728 
2181	 0.597013363811115 
2182	 0.597089842455365 
2183	 0.597251264505465 
2184	 0.597493854799229 
2185	 0.597788940665202 
2186	 0.598178394283088 
2187	 0.598588661796468 
2188	 0.599073847028747 
2189	 0.599547454755285 
2190	 0.600047692421677 
2191	 0.600571962062111 
2192	 0.601127907554023 
2193	 0.601672520083942 
2194	 0.602240890711968 
2195	 0.602803697015945 
2196	 0.603371886615805 
2197	 0.603906132441401 
2198	 0.604444797737511 
2199	 0.605045215157479 
2200	 0.605599546933252 
2201	 0.606149922823199 
2202	 0.606680006017859 
2203	 0.607199078002658 
2204	 0.607685167393772 
2205	 0.608146459681016 
2206	 0.608593672467279 
2207	 0.609022254930832 
2208	 0.609425745015065 
2209	 0.609786326912503 
2210	 0.610181622870038 
2211	 0.610569091968704 
2212	 0.610951957362687 
2213	 0.611373974428547 
2214	 0.61174607997877 
2215	 0.612090968449492 
2216	 0.612411504290274 
2217	 0.612714784971064 
2218	 0.612985495423815 
2219	 0.613225812827096 
2220	 0.613432816437709 
2221	 0.613622954797426 
2222	 0.613755645608142 
2223	 0.613880636518258 
2224	 0.613929669593301 
2225	 0.61386906471212 
2226	 0.613766632554334 
2227	 0.613588548195895 
2228	 0.613313960329626 
2229	 0.612996550870685 
2230	 0.612663583713172 
2231	 0.612164986268649 
2232	 0.611576844173957 
2233	 0.610834324996478 
2234	 0.609966391201055 
2235	 0.608957925072905 
2236	 0.607795750617818 
2237	 0.606539838628966 
2238	 0.605124999482403 
2239	 0.603636396960999 
2240	 0.602057131367988 
2241	 0.60035308662566 
2242	 0.598615792287262 
2243	 0.596633351554117 
2244	 0.594444654948357 
2245	 0.592158543614769 
2246	 0.589555426633694 
2247	 0.587033101507069 
2248	 0.58450763961601 
2249	 0.581881662237388 
2250	 0.579199557980289 
2251	 0.576534373550298 
2252	 0.573598042301341 
2253	 0.570712676279021 
2254	 0.5678031226233 
2255	 0.564871874129112 
2256	 0.562266488951421 
2257	 0.559678904803721 
2258	 0.557213933723268 
2259	 0.554916668670898 
2260	 0.552681270413669 
2261	 0.550481753937422 
2262	 0.548478302079921 
2263	 0.546600973982195 
2264	 0.544886916275774 
2265	 0.543358125989101 
2266	 0.541879396635961 
2267	 0.540633791196067 
2268	 0.539279856112668 
2269	 0.537922662683492 
2270	 0.536640189992952 
2271	 0.535354806925769 
2272	 0.534129695158023 
2273	 0.533034196170617 
2274	 0.531863200626481 
2275	 0.530703742860923 
2276	 0.529503804768804 
2277	 0.528244999384215 
2278	 0.527039532482587 
2279	 0.525788540918001 
2280	 0.524623856074019 
2281	 0.523509229507061 
2282	 0.522437713562344 
2283	 0.521408883607524 
2284	 0.520465932131453 
2285	 0.519525030562685 
2286	 0.518660547246314 
2287	 0.51781849865607 
2288	 0.51698016441981 
2289	 0.516252491177243 
2290	 0.515584563065563 
2291	 0.514984482471116 
2292	 0.514451226543552 
2293	 0.513809490006604 
2294	 0.513173960393718 
2295	 0.512627750532628 
2296	 0.512089743652627 
2297	 0.5117344581896 
2298	 0.511569688196483 
2299	 0.511395624073918 
2300	 0.511280757022335 
2301	 0.511320672903145 
2302	 0.511415197473725 
2303	 0.511687009231434 
2304	 0.512145726204829 
2305	 0.512666813417555 
2306	 0.513304757264039 
2307	 0.514083919132102 
2308	 0.51499390857202 
2309	 0.515999086946007 
2310	 0.517188474944052 
2311	 0.518345006154411 
2312	 0.519646310903371 
2313	 0.520844098950337 
2314	 0.522050749234954 
2315	 0.523186958903347 
2316	 0.524287483716391 
2317	 0.525287144320271 
2318	 0.526274630703248 
2319	 0.527062880770974 
2320	 0.527720703526889 
2321	 0.528231898143624 
2322	 0.52854686355147 
2323	 0.528785214106755 
2324	 0.52891807779547 
2325	 0.528914631968274 
2326	 0.528755597354653 
2327	 0.528512101352505 
2328	 0.528105863648337 
2329	 0.5276607983793 
2330	 0.527117003514022 
2331	 0.526524775291753 
2332	 0.525935791294659 
2333	 0.5252444575449 
2334	 0.52449732811421 
2335	 0.523679853263192 
2336	 0.522643547764399 
2337	 0.521572302619506 
2338	 0.52059895586141 
2339	 0.519604849489947 
2340	 0.518709331468016 
2341	 0.51787922302823 
2342	 0.517016992425722 
2343	 0.516264684735123 
2344	 0.515637989098976 
2345	 0.5152467349161 
2346	 0.515100897010234 
2347	 0.515114632611708 
2348	 0.515398439605233 
2349	 0.515936128980111 
2350	 0.51655265592528 
2351	 0.51740099401362 
2352	 0.518435405518701 
2353	 0.519465949656233 
2354	 0.520522660000621 
2355	 0.521600712455325 
2356	 0.522567532204909 
2357	 0.523421550332444 
2358	 0.524241663666027 
2359	 0.524900337699273 
2360	 0.525490562136532 
2361	 0.526077013384082 
2362	 0.526586096447282 
2363	 0.52702140530363 
2364	 0.52737410528407 
2365	 0.52764982626667 
2366	 0.527891343896095 
2367	 0.528123406713172 
2368	 0.528310686711684 
2369	 0.528447428278349 
2370	 0.528544363002629 
2371	 0.528631843648513 
2372	 0.528731963854789 
2373	 0.528849723047026 
2374	 0.528947875567869 
2375	 0.528981637380438 
2376	 0.52905026382729 
2377	 0.529097595621041 
2378	 0.529138340423538 
2379	 0.529265965919176 
2380	 0.529279895100238 
2381	 0.529317207514347 
2382	 0.529362649839192 
2383	 0.529361270237352 
2384	 0.529354279360687 
2385	 0.529403734408491 
2386	 0.529410059610344 
2387	 0.529360847487472 
2388	 0.529425341984362 
2389	 0.529528284574121 
2390	 0.529599987469813 
2391	 0.529740492089634 
2392	 0.529772672137195 
2393	 0.529722975832656 
2394	 0.529687296796228 
2395	 0.529666512287013 
2396	 0.529574805539981 
2397	 0.529404617094591 
2398	 0.529313065777847 
2399	 0.529202425305665 
2400	 0.529045827227805 
2401	 0.528927008612231 
2402	 0.528688052084711 
2403	 0.528474262858472 
2404	 0.528192954330045 
2405	 0.527991407368179 
2406	 0.527730437269639 
2407	 0.527385628953175 
2408	 0.527100696064888 
2409	 0.526856894728912 
2410	 0.526704420559126 
2411	 0.526460575277428 
2412	 0.52619801961543 
2413	 0.526029027022259 
2414	 0.525713164981317 
2415	 0.525420171818853 
2416	 0.525120637342926 
2417	 0.524600781357104 
2418	 0.524091750197108 
2419	 0.523633252397981 
2420	 0.523291799800099 
2421	 0.522940274275171 
2422	 0.522503487000319 
2423	 0.522127941474769 
2424	 0.521537687456754 
2425	 0.521041536279005 
2426	 0.520766401070223 
2427	 0.520220183538903 
2428	 0.519594190364185 
2429	 0.518939651334113 
2430	 0.518178445443013 
2431	 0.517457656437057 
2432	 0.516650732841258 
2433	 0.515842205250122 
2434	 0.514977656282244 
2435	 0.514070686349697 
2436	 0.51323820545932 
2437	 0.512163337013448 
2438	 0.51107580604287 
2439	 0.510192938568534 
2440	 0.509195504067676 
2441	 0.508161647848383 
2442	 0.507114435912985 
2443	 0.505792662844427 
2444	 0.504597875374295 
2445	 0.503614228087668 
2446	 0.502392442865417 
2447	 0.50119396942391 
2448	 0.499980106956603 
2449	 0.498650883003641 
2450	 0.497505010730175 
2451	 0.49633525406655 
2452	 0.495133351323907 
2453	 0.49409082717659 
2454	 0.493086248357272 
2455	 0.492073357447607 
2456	 0.491192622745699 
2457	 0.490307324650029 
2458	 0.489388208153328 
2459	 0.488764201078273 
2460	 0.48790963789515 
2461	 0.486829304447254 
2462	 0.485980842153841 
2463	 0.484835919334799 
2464	 0.483843663695019 
2465	 0.483193231569993 
2466	 0.482206602032408 
2467	 0.481331360057461 
2468	 0.480457482422526 
2469	 0.479263379838069 
2470	 0.478556454171585 
2471	 0.478091477557816 
2472	 0.47743835289282 
2473	 0.477149134567197 
2474	 0.476676962291415 
2475	 0.475847713393683 
2476	 0.475322042173971 
2477	 0.474794540041761 
2478	 0.474292415691887 
2479	 0.473836172104378 
2480	 0.47289669388984 
2481	 0.472454365508672 
2482	 0.472211035222203 
2483	 0.471937502667355 
2484	 0.471705117980578 
2485	 0.471241334897968 
2486	 0.470467156984553 
2487	 0.469776648078634 
2488	 0.469521775089927 
2489	 0.469256954670664 
2490	 0.468720628961311 
2491	 0.468115055346763 
2492	 0.467412448455476 
2493	 0.466952977275941 
2494	 0.466889894585288 
2495	 0.466982696023628 
2496	 0.466918979357404 
2497	 0.466547007074774 
2498	 0.466088702793805 
2499	 0.465958997399319 
2500	 0.466160773476996 
