Wavelength	spectrum00003.asd
350	 6.16036865781154E-02 
351	 5.84849774152081E-02 
352	 5.50303393984186E-02 
353	 5.36697743433853E-02 
354	 5.46635350232763E-02 
355	 5.43495330279594E-02 
356	 5.34551975223751E-02 
357	 5.28595373595965E-02 
358	 5.03969103766376E-02 
359	 4.91186142420204E-02 
360	 4.91902480627869E-02 
361	 4.91990428054922E-02 
362	 0.04868688942094 
363	 4.81711138611059E-02 
364	 4.77606556137002E-02 
365	 0.04685290973194 
366	 4.79883743850442E-02 
367	 4.89185986894418E-02 
368	 4.76982411325293E-02 
369	 4.70529828170411E-02 
370	 4.74758472008169E-02 
371	 4.76934531864848E-02 
372	 4.59219682866968E-02 
373	 4.52647641584739E-02 
374	 4.60022606983795E-02 
375	 4.71726192094439E-02 
376	 4.65990744529079E-02 
377	 4.59404123954218E-02 
378	 4.59631860367306E-02 
379	 4.66081704757134E-02 
380	 4.58109871357238E-02 
381	 4.58609916333112E-02 
382	 4.59362938118906E-02 
383	 4.39395032070397E-02 
384	 4.50829272569291E-02 
385	 4.62285490843622E-02 
386	 4.57174457551208E-02 
387	 4.55940558493503E-02 
388	 4.48559387775243E-02 
389	 4.45056769330402E-02 
390	 0.045310164945481 
391	 4.54695371131549E-02 
392	 4.46362683534938E-02 
393	 4.38650365759611E-02 
394	 4.47606990450972E-02 
395	 4.47185001286865E-02 
396	 4.44065492547262E-02 
397	 4.44094365491371E-02 
398	 4.44586378421183E-02 
399	 4.44621019407705E-02 
400	 4.42530270497856E-02 
401	 4.38227160325203E-02 
402	 4.38086742111646E-02 
403	 4.38824615108285E-02 
404	 4.37413602073887E-02 
405	 4.32234466955076E-02 
406	 4.34138028439802E-02 
407	 4.35521980404972E-02 
408	 4.32435760946343E-02 
409	 4.33413489706689E-02 
410	 0.043188725805723 
411	 4.30935110698089E-02 
412	 0.043465575653696 
413	 4.36447251465707E-02 
414	 4.37103869971576E-02 
415	 4.37502262458409E-02 
416	 4.38139263539238E-02 
417	 4.37602184550653E-02 
418	 4.37255500522135E-02 
419	 4.38119544673315E-02 
420	 4.39228798567195E-02 
421	 4.41665829085075E-02 
422	 4.44961682616689E-02 
423	 4.47933779667753E-02 
424	 4.49488851745969E-02 
425	 4.50152071542598E-02 
426	 4.51353882809218E-02 
427	 4.55301652731956E-02 
428	 4.57110832111773E-02 
429	 4.59612916806338E-02 
430	 4.64722808425137E-02 
431	 4.65911448443436E-02 
432	 4.69216681326314E-02 
433	 4.74573725762783E-02 
434	 4.78748942135177E-02 
435	 0.048424189978454 
436	 4.88906089373485E-02 
437	 4.91946582818211E-02 
438	 0.049524526857051 
439	 5.00590189755564E-02 
440	 5.05970536771968E-02 
441	 5.09383421364243E-02 
442	 5.14019853708119E-02 
443	 5.19558491186854E-02 
444	 0.052452514297592 
445	 5.26919465532023E-02 
446	 5.29516470454905E-02 
447	 5.32645547112956E-02 
448	 5.36334142136124E-02 
449	 5.41254602133811E-02 
450	 5.44054955523182E-02 
451	 5.45446915226185E-02 
452	 5.47455031934277E-02 
453	 0.054889054067548 
454	 5.50665767598632E-02 
455	 5.52442398442873E-02 
456	 5.52457232375722E-02 
457	 5.53925612717991E-02 
458	 5.55738452693297E-02 
459	 5.56531741082565E-02 
460	 5.57201325046493E-02 
461	 0.055796758897494 
462	 5.58688431202875E-02 
463	 5.59138926313571E-02 
464	 5.60488398975517E-02 
465	 0.05616924696053 
466	 5.61942045681944E-02 
467	 5.61085930789138E-02 
468	 0.056163813663209 
469	 0.056295135528829 
470	 5.63952017737018E-02 
471	 5.66440677686293E-02 
472	 5.67700074316829E-02 
473	 5.67965996860849E-02 
474	 5.69733065738681E-02 
475	 5.70502659279922E-02 
476	 5.71839623802426E-02 
477	 5.74505956611856E-02 
478	 5.76046425968552E-02 
479	 5.77981908881903E-02 
480	 5.80231840126388E-02 
481	 5.82162518329826E-02 
482	 5.83455774146924E-02 
483	 5.86361805252834E-02 
484	 5.90713209764454E-02 
485	 5.93460221741844E-02 
486	 5.97157735135332E-02 
487	 6.01264482821356E-02 
488	 6.04967511806687E-02 
489	 6.08842048813496E-02 
490	 6.12715522827695E-02 
491	 6.16967236450632E-02 
492	 6.22225920672161E-02 
493	 6.28421362065745E-02 
494	 6.33698161446294E-02 
495	 6.38017391756636E-02 
496	 6.44673236759243E-02 
497	 0.065093429555016 
498	 6.57485738697727E-02 
499	 6.65335491573532E-02 
500	 6.72126960963863E-02 
501	 6.78947290841021E-02 
502	 0.06866804078241 
503	 6.95761591764441E-02 
504	 7.03978914684877E-02 
505	 7.12451934533564E-02 
506	 7.22063816633579E-02 
507	 7.31549089537993E-02 
508	 7.41731272588215E-02 
509	 7.52172838253081E-02 
510	 7.62152392625984E-02 
511	 7.73155064808568E-02 
512	 7.84535574566791E-02 
513	 7.96167632040679E-02 
514	 0.080889561532372 
515	 8.21119433613742E-02 
516	 8.33867280289374E-02 
517	 8.48206468646153E-02 
518	 0.086287741405194 
519	 8.77991826504483E-02 
520	 0.089365660800958 
521	 9.09955478325758E-02 
522	 9.26856663511073E-02 
523	 0.09441862611313 
524	 9.62016285302883E-02 
525	 9.81014258405569E-02 
526	 0.100044463927453 
527	 0.102055978861237 
528	 0.10418922987658 
529	 0.106436765158444 
530	 0.108714957097015 
531	 0.111048746864821 
532	 0.113574082307038 
533	 0.116159778537237 
534	 0.118839221038287 
535	 0.121639649537522 
536	 0.124470301419244 
537	 0.127417925916252 
538	 0.130488623422949 
539	 0.133648576118783 
540	 0.136924268794344 
541	 0.140221606563172 
542	 0.143514775020213 
543	 0.146901228982003 
544	 0.150360870239612 
545	 0.153863277089399 
546	 0.157391099669606 
547	 0.161031246390428 
548	 0.164708877203368 
549	 0.168381298931087 
550	 0.172044770262213 
551	 0.175751156038503 
552	 0.179515779776044 
553	 0.183325173769055 
554	 0.187101636977884 
555	 0.190880632893461 
556	 0.194677074115099 
557	 0.198485601724133 
558	 0.202256593438598 
559	 0.206005448205212 
560	 0.209700679568261 
561	 0.213244377218995 
562	 0.216664260000252 
563	 0.220009527188576 
564	 0.22331604197202 
565	 0.226530652134259 
566	 0.229707662176297 
567	 0.232835563019185 
568	 0.235854728477284 
569	 0.238797958482276 
570	 0.241630803156253 
571	 0.24435187086259 
572	 0.247053172561819 
573	 0.249592567345301 
574	 0.251960260014309 
575	 0.254203093682003 
576	 0.256346871862967 
577	 0.258313271775154 
578	 0.260145717356939 
579	 0.262023397951292 
580	 0.263773293556349 
581	 0.265399403970743 
582	 0.266937657174197 
583	 0.268384154387825 
584	 0.269734120832396 
585	 0.27098736292852 
586	 0.272148861846162 
587	 0.27320547211862 
588	 0.274214940388602 
589	 0.275183104791306 
590	 0.27602118298293 
591	 0.276751784030948 
592	 0.277393606793578 
593	 0.277950453772351 
594	 0.27836169173036 
595	 0.278677478580732 
596	 0.278928982149991 
597	 0.279127631347015 
598	 0.279324762254209 
599	 0.279504193037835 
600	 0.279621785728368 
601	 0.279588919677348 
602	 0.279549181360054 
603	 0.279528161999801 
604	 0.279483802950542 
605	 0.279310562505628 
606	 0.279139651066577 
607	 0.279008144861538 
608	 0.27881327361365 
609	 0.27855680029915 
610	 0.278302518807365 
611	 0.278075448707229 
612	 0.277709496207365 
613	 0.277355365986861 
614	 0.277046117245964 
615	 0.27673035630989 
616	 0.276360965074019 
617	 0.276003585014668 
618	 0.275688167984063 
619	 0.275352538501377 
620	 0.275029041743402 
621	 0.274718282350621 
622	 0.274402537205148 
623	 0.274022521049682 
624	 0.27368469903291 
625	 0.273397374369376 
626	 0.273073835721467 
627	 0.272756103231946 
628	 0.272464482430239 
629	 0.272197056375203 
630	 0.271902987512871 
631	 0.271642650023349 
632	 0.271410005219777 
633	 0.271175699555809 
634	 0.270971814497127 
635	 0.270775938040784 
636	 0.270575387202732 
637	 0.270376093974859 
638	 0.270230807487213 
639	 0.270091339333722 
640	 0.269917715459253 
641	 0.269776974813244 
642	 0.26969531173044 
643	 0.269654496643875 
644	 0.26961479315216 
645	 0.269631961420247 
646	 0.26966895378637 
647	 0.269696533585406 
648	 0.269717558412027 
649	 0.26970844758517 
650	 0.269731913837344 
651	 0.269843851358133 
652	 0.269957047472278 
653	 0.270077165186002 
654	 0.270211729994896 
655	 0.270367924989262 
656	 0.270550267306958 
657	 0.270768365383736 
658	 0.271004564558189 
659	 0.271168346605571 
660	 0.271470058288482 
661	 0.271836664705404 
662	 0.272123729619826 
663	 0.272444795639094 
664	 0.27279197232899 
665	 0.273164390320211 
666	 0.27357181953675 
667	 0.273961116065466 
668	 0.274392791378775 
669	 0.27489819107647 
670	 0.27537344016457 
671	 0.275900667165939 
672	 0.276446666546097 
673	 0.276951299808035 
674	 0.277539972843176 
675	 0.278165839209896 
676	 0.278790591858047 
677	 0.279405394576701 
678	 0.28006455508615 
679	 0.280745421761981 
680	 0.281429470189717 
681	 0.282169018213305 
682	 0.282952473578854 
683	 0.28374740444643 
684	 0.284522577059412 
685	 0.285355043514368 
686	 0.286213588162849 
687	 0.287086421575977 
688	 0.288007544928736 
689	 0.288914507539228 
690	 0.289821633278873 
691	 0.290774621086678 
692	 0.291861307776843 
693	 0.292868141534492 
694	 0.293830382911617 
695	 0.294924574556736 
696	 0.296033320575089 
697	 0.297101842070602 
698	 0.298155755432674 
699	 0.299337364307986 
700	 0.300473649745837 
701	 0.30163234050844 
702	 0.302891806006765 
703	 0.304088971088976 
704	 0.305343461469599 
705	 0.306631596405551 
706	 0.307843328315504 
707	 0.309101568558459 
708	 0.310414777495827 
709	 0.311757608911581 
710	 0.313074077120897 
711	 0.314440462539354 
712	 0.315803237790298 
713	 0.317116225300098 
714	 0.318521410128299 
715	 0.319918271272164 
716	 0.321283011581209 
717	 0.322649165497002 
718	 0.324006525367744 
719	 0.325417693600314 
720	 0.32687913606837 
721	 0.328262099898819 
722	 0.329603818946868 
723	 0.330968337893692 
724	 0.332389527686762 
725	 0.333746995049464 
726	 0.335103542644069 
727	 0.336478443873215 
728	 0.337854231218546 
729	 0.339196924998128 
730	 0.340512137092259 
731	 0.341803241582519 
732	 0.343056467997435 
733	 0.344334911923152 
734	 0.34559188510964 
735	 0.346782941176703 
736	 0.348000012902801 
737	 0.349172290532245 
738	 0.350272677049524 
739	 0.351316585804227 
740	 0.352408143457827 
741	 0.353500275985717 
742	 0.354526810687874 
743	 0.355426111066855 
744	 0.35633947030881 
745	 0.357260407988791 
746	 0.358130658797656 
747	 0.358866506260135 
748	 0.359608040455788 
749	 0.360339537824388 
750	 0.360968721065203 
751	 0.361588264376096 
752	 0.362154332334804 
753	 0.362643829507741 
754	 0.363078281463666 
755	 0.363521483058949 
756	 0.363900737587781 
757	 0.364171080669443 
758	 0.364466598904908 
759	 0.364673353291645 
760	 0.364793996561833 
761	 0.364881965598522 
762	 0.36492567396923 
763	 0.3649265010817 
764	 0.364893129068425 
765	 0.364839319317035 
766	 0.36473420148929 
767	 0.364562400950922 
768	 0.364326506530632 
769	 0.364055311189197 
770	 0.363798117426124 
771	 0.363486597303415 
772	 0.363042003696039 
773	 0.36256364848869 
774	 0.362086708525632 
775	 0.361592510365944 
776	 0.361022487703315 
777	 0.360371226742098 
778	 0.359703256023927 
779	 0.359037209499355 
780	 0.358295291677088 
781	 0.357628614020972 
782	 0.356970005140614 
783	 0.356213612241233 
784	 0.355349277141777 
785	 0.354494813588931 
786	 0.353651776804427 
787	 0.352757166630876 
788	 0.351827788865469 
789	 0.350874044115094 
790	 0.349902619909866 
791	 0.348915537943169 
792	 0.347953430274397 
793	 0.346992917142635 
794	 0.345997573998135 
795	 0.344933067699788 
796	 0.343827184836716 
797	 0.342746785833889 
798	 0.341738007268301 
799	 0.340679738553453 
800	 0.33960371313585 
801	 0.33851402537174 
802	 0.337395190598769 
803	 0.336287679804322 
804	 0.335197139559689 
805	 0.334104128347179 
806	 0.332960906369207 
807	 0.331847678682872 
808	 0.330788225292569 
809	 0.329756786037055 
810	 0.328636775161292 
811	 0.327500693553704 
812	 0.326373086680526 
813	 0.325257346682312 
814	 0.324162410948706 
815	 0.323082487118895 
816	 0.321995673792657 
817	 0.320874556946239 
818	 0.319770345696109 
819	 0.318680669540289 
820	 0.317601739360466 
821	 0.316541685083894 
822	 0.315507728420148 
823	 0.314468079674991 
824	 0.313408858948665 
825	 0.312401520471179 
826	 0.311400899187387 
827	 0.310391177640825 
828	 0.30937750329518 
829	 0.308394419662808 
830	 0.307403132029996 
831	 0.306404632292223 
832	 0.305440658773341 
833	 0.304552767192447 
834	 0.303658084047968 
835	 0.302715687738533 
836	 0.30177655716455 
837	 0.300844795361158 
838	 0.299943486231226 
839	 0.299082300030496 
840	 0.298230464812055 
841	 0.297347960708576 
842	 0.296475130239381 
843	 0.295663190486649 
844	 0.294840024259484 
845	 0.294013797627044 
846	 0.293206820474897 
847	 0.292442628467627 
848	 0.291688509988563 
849	 0.290924385617715 
850	 0.290160907591022 
851	 0.289444107091356 
852	 0.288764144267672 
853	 0.288071656838674 
854	 0.287356940914222 
855	 0.286711198526254 
856	 0.286060483062291 
857	 0.285398821126107 
858	 0.284747097973115 
859	 0.284134172833876 
860	 0.283542238934896 
861	 0.282972614604161 
862	 0.282428944165429 
863	 0.281858907999045 
864	 0.281311148103557 
865	 0.280805054202137 
866	 0.280319762632101 
867	 0.279774588458866 
868	 0.279247189941934 
869	 0.278768449678313 
870	 0.278275882603365 
871	 0.277821298678674 
872	 0.277365262843683 
873	 0.276892419335996 
874	 0.276481593266487 
875	 0.27609597247619 
876	 0.275708854720262 
877	 0.275321820419925 
878	 0.275027809543107 
879	 0.274743484943659 
880	 0.274417034388256 
881	 0.274038924647782 
882	 0.273703310491209 
883	 0.273423084301343 
884	 0.273177995237938 
885	 0.272924495822919 
886	 0.27262944057335 
887	 0.272348726830158 
888	 0.272092905799647 
889	 0.271815568628967 
890	 0.271625321222944 
891	 0.271434942377079 
892	 0.271192532472689 
893	 0.270966262701837 
894	 0.270788741884895 
895	 0.270673434368843 
896	 0.270589963005973 
897	 0.270418743672457 
898	 0.270274949743031 
899	 0.270144642354496 
900	 0.269995636594789 
901	 0.269904371491755 
902	 0.269799052681806 
903	 0.269703913840224 
904	 0.269679949334765 
905	 0.269711137031409 
906	 0.269686973447215 
907	 0.269592435272221 
908	 0.269500709231156 
909	 0.269537053491472 
910	 0.269538443220591 
911	 0.269493708740173 
912	 0.269558678577277 
913	 0.269632849322459 
914	 0.269660087925778 
915	 0.269662864765666 
916	 0.269752813726456 
917	 0.269843844793385 
918	 0.269930008490654 
919	 0.270016478124595 
920	 0.270099638389805 
921	 0.270155170387935 
922	 0.270216362775804 
923	 0.270313196039651 
924	 0.270426333945286 
925	 0.270569632639899 
926	 0.270714659515631 
927	 0.270837975506774 
928	 0.270978509716321 
929	 0.271119360405355 
930	 0.271273835585441 
931	 0.271456488879638 
932	 0.271633563721976 
933	 0.271818656031213 
934	 0.272027084377232 
935	 0.272260592564767 
936	 0.272451125050367 
937	 0.272661526933567 
938	 0.272906748410741 
939	 0.273154525836009 
940	 0.273336918964539 
941	 0.273560505749034 
942	 0.273850662860267 
943	 0.274144011920718 
944	 0.274383847773149 
945	 0.274614754214516 
946	 0.274894772124574 
947	 0.275258146471662 
948	 0.275503373982416 
949	 0.27576857092083 
950	 0.276100148896412 
951	 0.27637494198797 
952	 0.27670505247298 
953	 0.277021266620289 
954	 0.277307133601899 
955	 0.277663072384561 
956	 0.278011522380336 
957	 0.278342218803695 
958	 0.278665119228552 
959	 0.278999391680625 
960	 0.279419680849725 
961	 0.279805189331844 
962	 0.2801214422116 
963	 0.280590143128458 
964	 0.28099158895176 
965	 0.281382967416377 
966	 0.281814020470111 
967	 0.282152948383011 
968	 0.282540121429379 
969	 0.282960872368603 
970	 0.283371300564503 
971	 0.283775872687712 
972	 0.284150927060672 
973	 0.284552212514571 
974	 0.285031125235734 
975	 0.285561167140076 
976	 0.286066246601441 
977	 0.286522848045704 
978	 0.286956581713173 
979	 0.287466474165235 
980	 0.287964570621247 
981	 0.288406218141346 
982	 0.288811382350913 
983	 0.289346073159801 
984	 0.289869809977547 
985	 0.290407525966628 
986	 0.29099200847132 
987	 0.291483994943417 
988	 0.291965066508095 
989	 0.292522559663545 
990	 0.293166635605394 
991	 0.293653625630046 
992	 0.294225986763791 
993	 0.294802118667 
994	 0.29528449883115 
995	 0.295944590942412 
996	 0.296539409002978 
997	 0.297080470018519 
998	 0.297672695876977 
999	 0.298396482601814 
1000	 0.299072875555227 
1001	 0.302675793933106 
1002	 0.303323898960483 
1003	 0.303985914660142 
1004	 0.304643590961619 
1005	 0.305316878361718 
1006	 0.305980987243806 
1007	 0.306620042562454 
1008	 0.307307413197297 
1009	 0.308001497706149 
1010	 0.308716814594534 
1011	 0.309498531176847 
1012	 0.310232927708172 
1013	 0.310927282127968 
1014	 0.311663010659017 
1015	 0.312404595090372 
1016	 0.3131353629559 
1017	 0.313914221354198 
1018	 0.314708156047878 
1019	 0.315511456849652 
1020	 0.316343720030675 
1021	 0.317159567297032 
1022	 0.317991810681705 
1023	 0.318822466796115 
1024	 0.319621893413971 
1025	 0.320458023333699 
1026	 0.32132070173051 
1027	 0.322185489594786 
1028	 0.323059761202365 
1029	 0.32396935511893 
1030	 0.32485018768776 
1031	 0.325751761085388 
1032	 0.326638211725019 
1033	 0.327515391469037 
1034	 0.328460097530919 
1035	 0.329380912959357 
1036	 0.330324597340432 
1037	 0.331326910794395 
1038	 0.332279430824479 
1039	 0.333198118280702 
1040	 0.334158363554757 
1041	 0.335090978289027 
1042	 0.336090306232105 
1043	 0.337144851854503 
1044	 0.338186118905283 
1045	 0.339305369050078 
1046	 0.340418246038329 
1047	 0.341450708989189 
1048	 0.342559192546603 
1049	 0.343660079707294 
1050	 0.344732979990207 
1051	 0.345928959448446 
1052	 0.347103360687979 
1053	 0.348285170904864 
1054	 0.349502218098053 
1055	 0.350709471629109 
1056	 0.351916308303507 
1057	 0.353111803435414 
1058	 0.354290624258315 
1059	 0.355452098023856 
1060	 0.356695490516682 
1061	 0.357935892042458 
1062	 0.35927147726487 
1063	 0.360652161721407 
1064	 0.361908311034672 
1065	 0.363216704488566 
1066	 0.364552346658549 
1067	 0.365854849629731 
1068	 0.367274387270098 
1069	 0.368685208925528 
1070	 0.370102964010971 
1071	 0.371529424026816 
1072	 0.372980671290564 
1073	 0.374357590294461 
1074	 0.375785297731851 
1075	 0.377194269440391 
1076	 0.378624412218924 
1077	 0.380179273206503 
1078	 0.381656591982209 
1079	 0.383170701225502 
1080	 0.384740156267492 
1081	 0.386181664091563 
1082	 0.387691284847825 
1083	 0.389220802584898 
1084	 0.390719503885055 
1085	 0.392342933184366 
1086	 0.393936921095723 
1087	 0.395532159784733 
1088	 0.397187107828495 
1089	 0.398880280539023 
1090	 0.400460421019637 
1091	 0.40212789950525 
1092	 0.403767317552274 
1093	 0.405368630005003 
1094	 0.407094500319974 
1095	 0.408791730547074 
1096	 0.410548500087164 
1097	 0.412355450975335 
1098	 0.414067837287266 
1099	 0.415831292755669 
1100	 0.417574027867386 
1101	 0.419289020059346 
1102	 0.421128939156682 
1103	 0.422936511763365 
1104	 0.42474118273305 
1105	 0.426591302659477 
1106	 0.428493227914744 
1107	 0.430267065541758 
1108	 0.432115607958353 
1109	 0.433973302807581 
1110	 0.435787137219984 
1111	 0.437729700023697 
1112	 0.439611018085024 
1113	 0.44152772694925 
1114	 0.443530517045152 
1115	 0.445397924824801 
1116	 0.447339781901842 
1117	 0.449298619283982 
1118	 0.451253035536747 
1119	 0.453225850691499 
1120	 0.455213249963671 
1121	 0.457188850700209 
1122	 0.459209790829085 
1123	 0.461299234055851 
1124	 0.463231165140575 
1125	 0.465259292404099 
1126	 0.467267978168308 
1127	 0.469208814384302 
1128	 0.47132342586604 
1129	 0.473367957550784 
1130	 0.475439792658107 
1131	 0.477579120205194 
1132	 0.479575102201447 
1133	 0.481645617242989 
1134	 0.483691273084045 
1135	 0.485752632712432 
1136	 0.487844300769722 
1137	 0.489925835822388 
1138	 0.491986877162667 
1139	 0.494098815559065 
1140	 0.496284557789141 
1141	 0.498275631108619 
1142	 0.500358164497456 
1143	 0.50243450546884 
1144	 0.504414429188267 
1145	 0.506531233609681 
1146	 0.508593964529878 
1147	 0.510666928436902 
1148	 0.512799417773877 
1149	 0.514811633190787 
1150	 0.516874076524097 
1151	 0.518917930937403 
1152	 0.520966132129633 
1153	 0.523015213214803 
1154	 0.52506991095371 
1155	 0.527145172404278 
1156	 0.529200475249383 
1157	 0.531234949597562 
1158	 0.533222963928239 
1159	 0.535199344981162 
1160	 0.537132779051992 
1161	 0.539061026858725 
1162	 0.541121367553717 
1163	 0.543106101373253 
1164	 0.545124889013309 
1165	 0.547160591055438 
1166	 0.549046630624202 
1167	 0.55097534892398 
1168	 0.552875489700423 
1169	 0.554777789328417 
1170	 0.556668037471367 
1171	 0.558551180868107 
1172	 0.560441700163674 
1173	 0.562317159690758 
1174	 0.564163873780899 
1175	 0.565973798378732 
1176	 0.567772152267717 
1177	 0.569551731944122 
1178	 0.57126685459659 
1179	 0.573060839865402 
1180	 0.574778310095755 
1181	 0.576528634357614 
1182	 0.578286788136858 
1183	 0.579913813929853 
1184	 0.581589751781382 
1185	 0.583235715213385 
1186	 0.584905149872786 
1187	 0.586593797056384 
1188	 0.588255225974431 
1189	 0.589912994629945 
1190	 0.59157729709787 
1191	 0.593211193153834 
1192	 0.594839677571507 
1193	 0.596487034641633 
1194	 0.59812273568789 
1195	 0.599754914656788 
1196	 0.601378883787029 
1197	 0.602991046767773 
1198	 0.604624964375173 
1199	 0.606258707785753 
1200	 0.607776026291836 
1201	 0.609358503071534 
1202	 0.610907147261249 
1203	 0.612413730826434 
1204	 0.614013764347232 
1205	 0.615572617718768 
1206	 0.61711949436472 
1207	 0.618697692894709 
1208	 0.620276195217373 
1209	 0.621864367412571 
1210	 0.62345280420516 
1211	 0.625085545188582 
1212	 0.626754349332951 
1213	 0.628445835998355 
1214	 0.630159857869536 
1215	 0.63192079173965 
1216	 0.633731576998632 
1217	 0.635508441431699 
1218	 0.637308450748937 
1219	 0.639124254194483 
1220	 0.640889156055088 
1221	 0.642749197780599 
1222	 0.644554673756725 
1223	 0.646391279828709 
1224	 0.648178172056399 
1225	 0.649932364785707 
1226	 0.651637082934141 
1227	 0.653326905897521 
1228	 0.654962600804498 
1229	 0.656559753131057 
1230	 0.658104150572008 
1231	 0.659599892930635 
1232	 0.661067534056864 
1233	 0.662461901220028 
1234	 0.663843357419982 
1235	 0.665201901586382 
1236	 0.666541412190491 
1237	 0.667867456351488 
1238	 0.66915415602584 
1239	 0.670412382896158 
1240	 0.67164485496587 
1241	 0.672865536816163 
1242	 0.673984863106809 
1243	 0.675090509243433 
1244	 0.676149813953469 
1245	 0.677216907445399 
1246	 0.678259314391553 
1247	 0.679269931267298 
1248	 0.680284406613517 
1249	 0.681247858466172 
1250	 0.682147623543208 
1251	 0.683043664228594 
1252	 0.68393186092263 
1253	 0.684784791746851 
1254	 0.685614230772685 
1255	 0.686412662265565 
1256	 0.687169470471869 
1257	 0.687922672729807 
1258	 0.688649996466775 
1259	 0.689362295455694 
1260	 0.690061908780463 
1261	 0.690752835814045 
1262	 0.691412125661406 
1263	 0.692094286105433 
1264	 0.692739023045465 
1265	 0.693374378326551 
1266	 0.693993285616338 
1267	 0.694593143493877 
1268	 0.695164388967963 
1269	 0.6957112345264 
1270	 0.696259108373482 
1271	 0.696756207708813 
1272	 0.697308917640289 
1273	 0.697885260369536 
1274	 0.698464945789419 
1275	 0.699078586718456 
1276	 0.699663054509249 
1277	 0.700234056890841 
1278	 0.700811410985405 
1279	 0.701392731926934 
1280	 0.701952416291183 
1281	 0.702513223409445 
1282	 0.703054157396619 
1283	 0.703565532144127 
1284	 0.704068293018926 
1285	 0.7045594486408 
1286	 0.705038520630518 
1287	 0.705514198236948 
1288	 0.705979123345543 
1289	 0.706433135228154 
1290	 0.706872719494237 
1291	 0.707325105305137 
1292	 0.707775906493009 
1293	 0.708211898232818 
1294	 0.708662967606358 
1295	 0.70907714940995 
1296	 0.709455087177882 
1297	 0.709839948765185 
1298	 0.710226547659652 
1299	 0.710582233291483 
1300	 0.710916711797801 
1301	 0.711248241282576 
1302	 0.71154237437885 
1303	 0.711858809906217 
1304	 0.712208052778139 
1305	 0.712517161240045 
1306	 0.712806827246812 
1307	 0.713096367471961 
1308	 0.713358631341723 
1309	 0.713624206136127 
1310	 0.713883610265491 
1311	 0.714156976185566 
1312	 0.714390956113795 
1313	 0.714609186023276 
1314	 0.71480153878162 
1315	 0.714973902564586 
1316	 0.715123577925795 
1317	 0.715240626108355 
1318	 0.715362131485379 
1319	 0.715455156530638 
1320	 0.715572558128553 
1321	 0.715703879024363 
1322	 0.7158188792364 
1323	 0.715956983676211 
1324	 0.716046864550744 
1325	 0.716095862800498 
1326	 0.716154875013478 
1327	 0.71620262008103 
1328	 0.716233819398445 
1329	 0.716266456706039 
1330	 0.716280695232092 
1331	 0.716281841644389 
1332	 0.716253510864812 
1333	 0.716207455602417 
1334	 0.716147649847618 
1335	 0.716057255112707 
1336	 0.715930384064061 
1337	 0.715803528512926 
1338	 0.715659614135221 
1339	 0.715514295122032 
1340	 0.71536775882965 
1341	 0.715187704667266 
1342	 0.71499959983079 
1343	 0.714777867620916 
1344	 0.714526272361423 
1345	 0.714253291149044 
1346	 0.713954448475326 
1347	 0.713645737492079 
1348	 0.713323723925156 
1349	 0.712967320894094 
1350	 0.712580392841106 
1351	 0.712192993000867 
1352	 0.711761376169989 
1353	 0.711355551496221 
1354	 0.710964625488282 
1355	 0.710567504775599 
1356	 0.710166809680803 
1357	 0.7097724778507 
1358	 0.709378403800252 
1359	 0.708986322275642 
1360	 0.708606651911045 
1361	 0.708220853908323 
1362	 0.707821074909373 
1363	 0.707427301033454 
1364	 0.706996273417041 
1365	 0.70655172656807 
1366	 0.706077801089865 
1367	 0.705574274092804 
1368	 0.705062423019757 
1369	 0.704535928375103 
1370	 0.703981775181088 
1371	 0.703418588875356 
1372	 0.702817465818838 
1373	 0.702192020445547 
1374	 0.701526722567787 
1375	 0.700816978779918 
1376	 0.700092907292504 
1377	 0.699344149860652 
1378	 0.698551661527485 
1379	 0.697737507126419 
1380	 0.696882860638482 
1381	 0.695959719171333 
1382	 0.695047031498193 
1383	 0.694111302931284 
1384	 0.693171676293144 
1385	 0.692244560891402 
1386	 0.691283248084757 
1387	 0.69030660829111 
1388	 0.689315589532097 
1389	 0.688319792401123 
1390	 0.687276594344328 
1391	 0.686214012941953 
1392	 0.685088621179341 
1393	 0.683948672514346 
1394	 0.682802611209986 
1395	 0.681732085043012 
1396	 0.680663185335844 
1397	 0.679731346932667 
1398	 0.678870367406074 
1399	 0.678089684143194 
1400	 0.677455228245781 
1401	 0.676733913794379 
1402	 0.676121535716058 
1403	 0.675292345308051 
1404	 0.67443961378666 
1405	 0.673374117962042 
1406	 0.672183955943891 
1407	 0.670796079358842 
1408	 0.669173185464937 
1409	 0.667527163436335 
1410	 0.66564359230146 
1411	 0.663882198552051 
1412	 0.661970294085091 
1413	 0.660364487947336 
1414	 0.658757391355023 
1415	 0.657504242650032 
1416	 0.656490744849651 
1417	 0.655741406588594 
1418	 0.655334055716992 
1419	 0.655031996365752 
1420	 0.655077644861688 
1421	 0.655067726497181 
1422	 0.655259945757302 
1423	 0.655290383967956 
1424	 0.655311481026251 
1425	 0.655238838665149 
1426	 0.654986677973428 
1427	 0.654608987970791 
1428	 0.654059673180602 
1429	 0.653429441938471 
1430	 0.652732368494835 
1431	 0.651874349718516 
1432	 0.651141813469752 
1433	 0.650332916097274 
1434	 0.64971810264249 
1435	 0.649168030628167 
1436	 0.648761716990575 
1437	 0.648505222489722 
1438	 0.648271072457713 
1439	 0.64819289412884 
1440	 0.648017032064172 
1441	 0.647902086914333 
1442	 0.647656818337315 
1443	 0.647344381938864 
1444	 0.646996308484589 
1445	 0.646494567427371 
1446	 0.646142571655665 
1447	 0.645720385681432 
1448	 0.645533044497045 
1449	 0.645461708833033 
1450	 0.645542174467477 
1451	 0.64586819832179 
1452	 0.646158945008338 
1453	 0.646649120584006 
1454	 0.646972542587711 
1455	 0.647274110139876 
1456	 0.647493189512997 
1457	 0.647546068619742 
1458	 0.647676467570512 
1459	 0.64767015515041 
1460	 0.647882533515813 
1461	 0.648161044064091 
1462	 0.648604061783314 
1463	 0.649262853723415 
1464	 0.64997947328638 
1465	 0.650841866566575 
1466	 0.651777721694199 
1467	 0.652678949564251 
1468	 0.65359103398346 
1469	 0.654377570766574 
1470	 0.655049261859442 
1471	 0.655641046930991 
1472	 0.656135295441004 
1473	 0.656562346622941 
1474	 0.656892879063252 
1475	 0.657188416903768 
1476	 0.657409411200198 
1477	 0.657600462640634 
1478	 0.657734093842477 
1479	 0.657842373777892 
1480	 0.657900788784901 
1481	 0.657951501035294 
1482	 0.6579802878336 
1483	 0.657970648967335 
1484	 0.65793225878083 
1485	 0.65787100520099 
1486	 0.657757600139865 
1487	 0.657662957830447 
1488	 0.657561300486693 
1489	 0.657448796223063 
1490	 0.657327619007333 
1491	 0.657204904065979 
1492	 0.657070669643263 
1493	 0.65693938310487 
1494	 0.656805712402615 
1495	 0.656676312004044 
1496	 0.656546412656698 
1497	 0.656415679464067 
1498	 0.656283659053895 
1499	 0.656161293082982 
1500	 0.656039254297091 
1501	 0.655923505780312 
1502	 0.655829388065954 
1503	 0.655716215282112 
1504	 0.655598047012317 
1505	 0.655474184536331 
1506	 0.655334535549638 
1507	 0.655201530542168 
1508	 0.655069639928216 
1509	 0.654934735067663 
1510	 0.654776575449151 
1511	 0.654658357817983 
1512	 0.654539169155894 
1513	 0.654460776751552 
1514	 0.654411064920048 
1515	 0.654406734818503 
1516	 0.654436259340389 
1517	 0.654506712092306 
1518	 0.654627685898467 
1519	 0.654780148511026 
1520	 0.654974110502925 
1521	 0.655200302003564 
1522	 0.655438688379255 
1523	 0.655697763309533 
1524	 0.655934325537737 
1525	 0.656170191796595 
1526	 0.656392957917908 
1527	 0.656617545246636 
1528	 0.656799481519267 
1529	 0.656956098790047 
1530	 0.657113889739802 
1531	 0.657244597926441 
1532	 0.6573779596442 
1533	 0.65751551086188 
1534	 0.657638347313893 
1535	 0.65774239163761 
1536	 0.657846897687611 
1537	 0.657958903151839 
1538	 0.658037513134217 
1539	 0.658087162393711 
1540	 0.658155058101426 
1541	 0.658212393441144 
1542	 0.658271264227075 
1543	 0.658333592891965 
1544	 0.658404541604487 
1545	 0.658465838352308 
1546	 0.65854620811023 
1547	 0.658643911230155 
1548	 0.658749127433362 
1549	 0.658851612918789 
1550	 0.658984850345686 
1551	 0.659150320145153 
1552	 0.659303756256344 
1553	 0.659463774812976 
1554	 0.659637399786447 
1555	 0.65982049442108 
1556	 0.659996346612992 
1557	 0.660179647195071 
1558	 0.660370519738827 
1559	 0.660569718704842 
1560	 0.660743730384756 
1561	 0.660937069462125 
1562	 0.661084307784657 
1563	 0.661184835388859 
1564	 0.661288422902618 
1565	 0.661375675307965 
1566	 0.661456373313424 
1567	 0.66152801594227 
1568	 0.66158648958756 
1569	 0.661633100367344 
1570	 0.661671049714914 
1571	 0.661680330693541 
1572	 0.661714965228751 
1573	 0.661760265796724 
1574	 0.661795439390201 
1575	 0.661842338868502 
1576	 0.661876770881252 
1577	 0.661900150204379 
1578	 0.661915713716007 
1579	 0.661926814781522 
1580	 0.661932314884644 
1581	 0.66190894037616 
1582	 0.66191634939073 
1583	 0.661934432256684 
1584	 0.661961020611521 
1585	 0.662015015770829 
1586	 0.662053554187907 
1587	 0.662097775401727 
1588	 0.662126880917131 
1589	 0.662138904434309 
1590	 0.662158899979331 
1591	 0.662176011346534 
1592	 0.662188096875358 
1593	 0.662201802093516 
1594	 0.662213917210445 
1595	 0.662223728971874 
1596	 0.662223993847999 
1597	 0.662230880206639 
1598	 0.662216096894071 
1599	 0.66216980184223 
1600	 0.662140974593528 
1601	 0.66211894578118 
1602	 0.662079226762715 
1603	 0.662037524308748 
1604	 0.661990907951733 
1605	 0.661922541451673 
1606	 0.661861820768128 
1607	 0.661816912387049 
1608	 0.661753958610843 
1609	 0.661693078313033 
1610	 0.661602735788437 
1611	 0.661478786082656 
1612	 0.661364332800253 
1613	 0.661235314901694 
1614	 0.6611038159495 
1615	 0.66098115738244 
1616	 0.660846158888726 
1617	 0.660699909799748 
1618	 0.660544183453683 
1619	 0.660383261921271 
1620	 0.660211536071469 
1621	 0.660024404893067 
1622	 0.659832855646718 
1623	 0.659622631860103 
1624	 0.65942831239924 
1625	 0.659251068162033 
1626	 0.659046742197739 
1627	 0.658833010389678 
1628	 0.658623200053176 
1629	 0.658401665238577 
1630	 0.658169206624408 
1631	 0.657934357953628 
1632	 0.657701854840105 
1633	 0.657444359537064 
1634	 0.657204571649646 
1635	 0.656999673059051 
1636	 0.65676654149881 
1637	 0.656534114930322 
1638	 0.65627273529412 
1639	 0.655976561823326 
1640	 0.655686133345585 
1641	 0.65538481994265 
1642	 0.655075320266405 
1643	 0.654759733038168 
1644	 0.65444255760105 
1645	 0.654128834991303 
1646	 0.653784478240691 
1647	 0.653435467952478 
1648	 0.65305741891464 
1649	 0.652647554275303 
1650	 0.652216390834525 
1651	 0.651764768544418 
1652	 0.651299338270375 
1653	 0.650804318288172 
1654	 0.650299684286875 
1655	 0.649781279650925 
1656	 0.649245691387774 
1657	 0.648719863751078 
1658	 0.648126717283546 
1659	 0.6474888086743 
1660	 0.64683772186136 
1661	 0.646131895429779 
1662	 0.645418299472883 
1663	 0.644710624599329 
1664	 0.643944823698752 
1665	 0.643159206578959 
1666	 0.642294716515097 
1667	 0.64136403581213 
1668	 0.640417203081729 
1669	 0.639421337802598 
1670	 0.638378055165925 
1671	 0.637302972794515 
1672	 0.636169268367018 
1673	 0.634987794281288 
1674	 0.633732556670339 
1675	 0.632424291867331 
1676	 0.631083761116002 
1677	 0.629681518773503 
1678	 0.628221263707275 
1679	 0.626706894209849 
1680	 0.625147815641486 
1681	 0.623506384080317 
1682	 0.621852406304168 
1683	 0.620176316105019 
1684	 0.618490092271824 
1685	 0.616766116520899 
1686	 0.615035209940846 
1687	 0.613272873516598 
1688	 0.611510755786758 
1689	 0.609734748554606 
1690	 0.607948192069443 
1691	 0.60616413049683 
1692	 0.604409371773665 
1693	 0.602658619627958 
1694	 0.60089250108008 
1695	 0.599141565387008 
1696	 0.597344600468848 
1697	 0.595506805866795 
1698	 0.593668676975273 
1699	 0.591827996529493 
1700	 0.590001187446392 
1701	 0.588147799409596 
1702	 0.586346607984557 
1703	 0.584526492153217 
1704	 0.582810598754076 
1705	 0.581130308824672 
1706	 0.579533359302037 
1707	 0.578129391230658 
1708	 0.576769800961314 
1709	 0.575495128521614 
1710	 0.574325796081879 
1711	 0.573094101312359 
1712	 0.571923669328268 
1713	 0.570769060414332 
1714	 0.569578107819929 
1715	 0.568488812761022 
1716	 0.567365151270505 
1717	 0.566283468321085 
1718	 0.565275906113691 
1719	 0.564222909576809 
1720	 0.563281454963243 
1721	 0.562422686841936 
1722	 0.561595753085269 
1723	 0.560969025984296 
1724	 0.560475866504376 
1725	 0.560097869570926 
1726	 0.559967231316886 
1727	 0.56002030172718 
1728	 0.560250512796507 
1729	 0.560726688283725 
1730	 0.561392419765789 
1731	 0.562188380752896 
1732	 0.563170263831022 
1733	 0.564210484070335 
1734	 0.565312926714314 
1735	 0.566477426502976 
1736	 0.567561880093722 
1737	 0.568563283963711 
1738	 0.56944696427625 
1739	 0.570170891223124 
1740	 0.570763729727625 
1741	 0.571241664648706 
1742	 0.57159350504465 
1743	 0.571803084509712 
1744	 0.571839546193623 
1745	 0.571835086824034 
1746	 0.571645315060514 
1747	 0.571509638759753 
1748	 0.571335694505432 
1749	 0.57121333853695 
1750	 0.571115461264464 
1751	 0.571015680419488 
1752	 0.570915636113081 
1753	 0.570860340046878 
1754	 0.570791541513125 
1755	 0.570803622913418 
1756	 0.570844652910721 
1757	 0.571001958546183 
1758	 0.571285802592572 
1759	 0.571673558647554 
1760	 0.572195754904419 
1761	 0.572823461596712 
1762	 0.573497240683584 
1763	 0.574325875344478 
1764	 0.575251323799525 
1765	 0.576240554052376 
1766	 0.577385584510036 
1767	 0.578538151815544 
1768	 0.579722382141997 
1769	 0.580921785463096 
1770	 0.582020767164102 
1771	 0.583158235591082 
1772	 0.584215460075037 
1773	 0.585180759506783 
1774	 0.586188927986658 
1775	 0.587053795005811 
1776	 0.587824753963889 
1777	 0.588567063011799 
1778	 0.58917225499006 
1779	 0.589715466906072 
1780	 0.590264073972388 
1781	 0.590757522387055 
1782	 0.591172207878046 
1783	 0.591517744858363 
1784	 0.59180332666364 
1785	 0.592045118088133 
1786	 0.592261473417365 
1787	 0.592426131794704 
1788	 0.59261212001089 
1789	 0.592801301146678 
1790	 0.592951228138531 
1791	 0.5930909660171 
1792	 0.593206899401891 
1793	 0.593231205982754 
1794	 0.593332593386219 
1795	 0.593517496978398 
1796	 0.593690124761506 
1797	 0.593858350751475 
1798	 0.594022497929238 
1799	 0.594153041135523 
1800	 0.594284790020753 
1801	 0.596189166627871 
1802	 0.596358753991068 
1803	 0.596521760116088 
1804	 0.596680379964545 
1805	 0.596849243881333 
1806	 0.597011141016684 
1807	 0.597163356094511 
1808	 0.597331630259857 
1809	 0.597506970902462 
1810	 0.597679469758309 
1811	 0.59785898377494 
1812	 0.598038444604953 
1813	 0.598201026356833 
1814	 0.598399414885973 
1815	 0.598598454008761 
1816	 0.598793635616235 
1817	 0.599013901610106 
1818	 0.599245221818653 
1819	 0.599489579524547 
1820	 0.599760642175381 
1821	 0.600029341265399 
1822	 0.600309111830005 
1823	 0.600585509607316 
1824	 0.600873798448551 
1825	 0.601160126769902 
1826	 0.601434646493503 
1827	 0.601702113845405 
1828	 0.601977565675906 
1829	 0.602247366758215 
1830	 0.602515794685928 
1831	 0.602784631450103 
1832	 0.603066400422249 
1833	 0.603320828352738 
1834	 0.603596548279358 
1835	 0.603891722866292 
1836	 0.604174992510641 
1837	 0.604474752468204 
1838	 0.604799368243997 
1839	 0.605100921856336 
1840	 0.605401381289371 
1841	 0.60569508700357 
1842	 0.605980992158114 
1843	 0.606267213604879 
1844	 0.606540272831262 
1845	 0.606807474372725 
1846	 0.607056885803271 
1847	 0.607268829103795 
1848	 0.607464635913906 
1849	 0.607633731981011 
1850	 0.607803875096046 
1851	 0.607971084708265 
1852	 0.60809588802272 
1853	 0.608205692031718 
1854	 0.608301041131039 
1855	 0.608357847026001 
1856	 0.608383145864996 
1857	 0.608403023254759 
1858	 0.608397083955335 
1859	 0.60836364638983 
1860	 0.608297376993568 
1861	 0.608227067899234 
1862	 0.608155417604409 
1863	 0.608029772447624 
1864	 0.607873488115288 
1865	 0.607694185579669 
1866	 0.607445814869223 
1867	 0.607136117618053 
1868	 0.606798092445822 
1869	 0.60638624749557 
1870	 0.605928937221747 
1871	 0.605424947195291 
1872	 0.604885847187129 
1873	 0.604297987985252 
1874	 0.603673810634603 
1875	 0.603025631078934 
1876	 0.602296686421906 
1877	 0.601530580184273 
1878	 0.600660909962285 
1879	 0.599680406515444 
1880	 0.598656570461952 
1881	 0.597511881284493 
1882	 0.596248798143777 
1883	 0.594921152035689 
1884	 0.593486196590522 
1885	 0.591851310675385 
1886	 0.590131146281206 
1887	 0.588251428651243 
1888	 0.586207824545574 
1889	 0.584188097380213 
1890	 0.582038263211937 
1891	 0.579863545334166 
1892	 0.577650423241304 
1893	 0.575337091925838 
1894	 0.572891512591281 
1895	 0.570507260705179 
1896	 0.568036106785894 
1897	 0.565562787858744 
1898	 0.563274612952991 
1899	 0.560915292377678 
1900	 0.558629835725317 
1901	 0.556422538191508 
1902	 0.554096990421757 
1903	 0.551922833226394 
1904	 0.549800424510203 
1905	 0.547702735702752 
1906	 0.545667674086278 
1907	 0.54388402038211 
1908	 0.542094866768423 
1909	 0.540391417993324 
1910	 0.538809095966428 
1911	 0.537174576170779 
1912	 0.535647750308156 
1913	 0.534181246362587 
1914	 0.532761589513389 
1915	 0.531468379455458 
1916	 0.530307837835154 
1917	 0.529166481635581 
1918	 0.528094606594587 
1919	 0.527097476901351 
1920	 0.526073624448567 
1921	 0.525103826724873 
1922	 0.52417837138761 
1923	 0.523289642724674 
1924	 0.522510835745169 
1925	 0.521769861103536 
1926	 0.52109945154457 
1927	 0.520511622138959 
1928	 0.519965498907828 
1929	 0.519463451656156 
1930	 0.519052831757684 
1931	 0.518660754853448 
1932	 0.518309243557634 
1933	 0.518043475190344 
1934	 0.517793330823951 
1935	 0.517605379751088 
1936	 0.517485194344559 
1937	 0.517390756026 
1938	 0.517329729375467 
1939	 0.517316117196003 
1940	 0.517346807526647 
1941	 0.517415246674215 
1942	 0.517524345217626 
1943	 0.517682689819117 
1944	 0.517871178510294 
1945	 0.518090164166867 
1946	 0.518355183162728 
1947	 0.518639212435026 
1948	 0.518955847153302 
1949	 0.519297738476322 
1950	 0.519637153236833 
1951	 0.519990582566221 
1952	 0.520353103933373 
1953	 0.520722317219553 
1954	 0.521089997211577 
1955	 0.521503882488326 
1956	 0.52188321411568 
1957	 0.522267686183387 
1958	 0.522692649478901 
1959	 0.523052091132701 
1960	 0.523411039038847 
1961	 0.52377593680817 
1962	 0.524136277105884 
1963	 0.524469659890889 
1964	 0.524805966725879 
1965	 0.525118737661745 
1966	 0.525399346144865 
1967	 0.525679271854722 
1968	 0.525954522500302 
1969	 0.52624649613205 
1970	 0.526521563472127 
1971	 0.526796560850673 
1972	 0.527109597797444 
1973	 0.52741285955594 
1974	 0.527732415545556 
1975	 0.528075739036414 
1976	 0.528424264804487 
1977	 0.528783731520736 
1978	 0.529141839358841 
1979	 0.529509780972469 
1980	 0.529879273532908 
1981	 0.530255823416588 
1982	 0.530627868314997 
1983	 0.531027247257383 
1984	 0.531424030609651 
1985	 0.53178335758074 
1986	 0.532141844163912 
1987	 0.532501310337984 
1988	 0.532843832915693 
1989	 0.533201850153532 
1990	 0.533572458348739 
1991	 0.533935093645161 
1992	 0.534303077534964 
1993	 0.534660043466548 
1994	 0.535008155697973 
1995	 0.535370199631402 
1996	 0.535697682851574 
1997	 0.536002148367041 
1998	 0.536330615607671 
1999	 0.536661790737436 
2000	 0.536971264491032 
2001	 0.537300466097865 
2002	 0.537597595994325 
2003	 0.537859733780997 
2004	 0.538118196261369 
2005	 0.538367804470604 
2006	 0.538605518061281 
2007	 0.538834375877428 
2008	 0.539035980521967 
2009	 0.539235524428093 
2010	 0.539429677144859 
2011	 0.53959200558423 
2012	 0.539740599141459 
2013	 0.539856571638105 
2014	 0.539939208372814 
2015	 0.540015256087662 
2016	 0.54008460842659 
2017	 0.540102516910812 
2018	 0.54010439622719 
2019	 0.540061274161015 
2020	 0.539975971495585 
2021	 0.539843014935437 
2022	 0.539690677940007 
2023	 0.539467977482994 
2024	 0.539150949534454 
2025	 0.538808353421348 
2026	 0.538427428330266 
2027	 0.53796982975214 
2028	 0.537525735895981 
2029	 0.537069449168459 
2030	 0.536578548756941 
2031	 0.536081329891671 
2032	 0.535529921542415 
2033	 0.534898809301007 
2034	 0.534306287901261 
2035	 0.533696225102293 
2036	 0.533071595562182 
2037	 0.532485389738467 
2038	 0.531909958516458 
2039	 0.531330458306691 
2040	 0.530747371872918 
2041	 0.530163498920268 
2042	 0.529561979806528 
2043	 0.529017008943173 
2044	 0.528463299094876 
2045	 0.527982538625144 
2046	 0.527570211058782 
2047	 0.527167658420868 
2048	 0.526786900943521 
2049	 0.526454522177576 
2050	 0.526132052552543 
2051	 0.525891921202934 
2052	 0.525721649556983 
2053	 0.525609669128733 
2054	 0.525574305911615 
2055	 0.525614538186237 
2056	 0.525730555041282 
2057	 0.525915594193767 
2058	 0.526177857287946 
2059	 0.526541330595093 
2060	 0.526935125262803 
2061	 0.527404768648116 
2062	 0.527904676914169 
2063	 0.528458835171431 
2064	 0.529041658980115 
2065	 0.529660627694513 
2066	 0.530327439482362 
2067	 0.531036705979296 
2068	 0.53173264400851 
2069	 0.532433280881939 
2070	 0.53317866716081 
2071	 0.53384588241552 
2072	 0.534491201031401 
2073	 0.535105231414982 
2074	 0.535653732459162 
2075	 0.536231218272463 
2076	 0.5368135613483 
2077	 0.537360765473425 
2078	 0.537936060251476 
2079	 0.538431529916793 
2080	 0.53886698461444 
2081	 0.53927878905301 
2082	 0.539649725347552 
2083	 0.539962237869937 
2084	 0.540286236447889 
2085	 0.540563775056143 
2086	 0.540816080829902 
2087	 0.541042905316961 
2088	 0.541238925545229 
2089	 0.541407385462404 
2090	 0.541532792106386 
2091	 0.541613375642697 
2092	 0.541682708534073 
2093	 0.541721052290167 
2094	 0.541728220025818 
2095	 0.541693593598322 
2096	 0.541668253920544 
2097	 0.541622908050565 
2098	 0.541559743034584 
2099	 0.541502824376451 
2100	 0.541438755419699 
2101	 0.541317328703711 
2102	 0.541144212730532 
2103	 0.540976202928377 
2104	 0.540775396382498 
2105	 0.540575868183157 
2106	 0.54037399983383 
2107	 0.540150182477239 
2108	 0.539925453774296 
2109	 0.539655648100866 
2110	 0.539357935240441 
2111	 0.539039024815022 
2112	 0.538668826716771 
2113	 0.538301203870471 
2114	 0.537936102822945 
2115	 0.537535746544002 
2116	 0.537115095850703 
2117	 0.536682200096921 
2118	 0.53619948339924 
2119	 0.535667945761011 
2120	 0.535146388388082 
2121	 0.534575583186421 
2122	 0.534051785600097 
2123	 0.533548760404304 
2124	 0.53302949285475 
2125	 0.532540732057098 
2126	 0.532000883801698 
2127	 0.531425426481971 
2128	 0.530858206894816 
2129	 0.530252798123229 
2130	 0.529671856418449 
2131	 0.529132988363262 
2132	 0.528541378987998 
2133	 0.527943364322985 
2134	 0.527328252752845 
2135	 0.526609032051029 
2136	 0.525890365963177 
2137	 0.525148602966049 
2138	 0.524350501466123 
2139	 0.523583967822017 
2140	 0.522831646543312 
2141	 0.522040183242689 
2142	 0.521250289643382 
2143	 0.52041375396848 
2144	 0.519524038556204 
2145	 0.518658019593752 
2146	 0.51774502243862 
2147	 0.516881846642455 
2148	 0.516071889842741 
2149	 0.515220231891011 
2150	 0.514408457788737 
2151	 0.513526825047682 
2152	 0.512578408663514 
2153	 0.511630418812447 
2154	 0.510663149567478 
2155	 0.509683564913043 
2156	 0.508743272975407 
2157	 0.507829644349807 
2158	 0.506905487493764 
2159	 0.506009243323762 
2160	 0.505064780700055 
2161	 0.504083283040039 
2162	 0.503151727793151 
2163	 0.502178246771893 
2164	 0.501295794995566 
2165	 0.500471140956859 
2166	 0.499677909444054 
2167	 0.498939916122112 
2168	 0.498220134086776 
2169	 0.497542925766001 
2170	 0.496886717865843 
2171	 0.496225484904535 
2172	 0.495633139235564 
2173	 0.495111715609811 
2174	 0.494588189449278 
2175	 0.494098486721782 
2176	 0.493661573866532 
2177	 0.493219485449067 
2178	 0.492774898182467 
2179	 0.492375004515013 
2180	 0.491991973850214 
2181	 0.491675408785691 
2182	 0.491404047877502 
2183	 0.491160297278012 
2184	 0.490996839038542 
2185	 0.490795225975017 
2186	 0.490615321900042 
2187	 0.490408520436189 
2188	 0.490188956257072 
2189	 0.489963827015354 
2190	 0.489734887183144 
2191	 0.489483933098164 
2192	 0.489242317365632 
2193	 0.488952405360856 
2194	 0.488652316747178 
2195	 0.488282892266187 
2196	 0.487843144112257 
2197	 0.487385115642076 
2198	 0.48691085044018 
2199	 0.486367820360681 
2200	 0.485814225172501 
2201	 0.485244399854149 
2202	 0.484645046266445 
2203	 0.483961468654819 
2204	 0.483383877001362 
2205	 0.482797305575649 
2206	 0.48230763743078 
2207	 0.481865924047323 
2208	 0.481529063301061 
2209	 0.48128405585219 
2210	 0.481086804109366 
2211	 0.481007708858663 
2212	 0.480923911996538 
2213	 0.480907913918946 
2214	 0.480860577624033 
2215	 0.480857830548712 
2216	 0.480792748772238 
2217	 0.480737872399757 
2218	 0.480586933252806 
2219	 0.480385382871758 
2220	 0.48011896593105 
2221	 0.47978727912617 
2222	 0.479356898441948 
2223	 0.478879935987442 
2224	 0.478364568403822 
2225	 0.477829706349833 
2226	 0.477212993558151 
2227	 0.476481418122363 
2228	 0.475709276097304 
2229	 0.474776404771373 
2230	 0.473677901182706 
2231	 0.472526120974498 
2232	 0.471287289749884 
2233	 0.469915163172936 
2234	 0.468479643420919 
2235	 0.466840531016768 
2236	 0.465047109550236 
2237	 0.463117210191601 
2238	 0.46092659294142 
2239	 0.458771972310097 
2240	 0.456550285722601 
2241	 0.454219216046463 
2242	 0.451904942547327 
2243	 0.449371662602079 
2244	 0.446556352665416 
2245	 0.443824582244502 
2246	 0.440872524479128 
2247	 0.438105963353984 
2248	 0.435427427918374 
2249	 0.432812242509608 
2250	 0.430259829341497 
2251	 0.42785773712132 
2252	 0.425400881499161 
2253	 0.423108613929354 
2254	 0.420850827773722 
2255	 0.418664089269874 
2256	 0.416695259602878 
2257	 0.414694268239355 
2258	 0.412679591996965 
2259	 0.410769695363612 
2260	 0.408674023723542 
2261	 0.406463861148595 
2262	 0.404288433218041 
2263	 0.401972341800007 
2264	 0.399825056734792 
2265	 0.397691289348169 
2266	 0.395691951792883 
2267	 0.393765663306735 
2268	 0.392030192221496 
2269	 0.390360015174819 
2270	 0.388983668330966 
2271	 0.387837949804484 
2272	 0.38685384865316 
2273	 0.386203684007444 
2274	 0.385521252911339 
2275	 0.385077204964657 
2276	 0.384464597806554 
2277	 0.383888324098782 
2278	 0.383177783178915 
2279	 0.382334308671227 
2280	 0.381452010026086 
2281	 0.380514943537048 
2282	 0.3794762501124 
2283	 0.378372165321712 
2284	 0.377200050794482 
2285	 0.375786718331198 
2286	 0.374350716905186 
2287	 0.372767742906132 
2288	 0.371047073662347 
2289	 0.369402351644109 
2290	 0.36768623383783 
2291	 0.365988478865614 
2292	 0.364258391134528 
2293	 0.362371145993333 
2294	 0.360540631999095 
2295	 0.358695636376888 
2296	 0.356897882362736 
2297	 0.355359752474945 
2298	 0.353993013899588 
2299	 0.352758455327219 
2300	 0.351714856235409 
2301	 0.350835847549017 
2302	 0.350044578617754 
2303	 0.349598800560963 
2304	 0.349379618027185 
2305	 0.349440872414714 
2306	 0.349807754482899 
2307	 0.350425246064881 
2308	 0.351314834806911 
2309	 0.352492168211877 
2310	 0.354034247292868 
2311	 0.355676901511937 
2312	 0.357712404145655 
2313	 0.359636308172415 
2314	 0.361728002522564 
2315	 0.363701724468982 
2316	 0.36569939278433 
2317	 0.367536935902871 
2318	 0.369364277457396 
2319	 0.370935906332373 
2320	 0.372392599678314 
2321	 0.373572699537063 
2322	 0.374472701942772 
2323	 0.375223941089373 
2324	 0.375722369783436 
2325	 0.376080394773954 
2326	 0.376220989201894 
2327	 0.376274098141994 
2328	 0.376182948042549 
2329	 0.375943424919566 
2330	 0.375591090387846 
2331	 0.375060026016457 
2332	 0.374315902722676 
2333	 0.373370734246901 
2334	 0.372234969325045 
2335	 0.370985568514885 
2336	 0.369583127013653 
2337	 0.368053759640041 
2338	 0.366560494674273 
2339	 0.364958471951381 
2340	 0.363342465291405 
2341	 0.361805338861048 
2342	 0.360229013472994 
2343	 0.358807548756343 
2344	 0.357642913264497 
2345	 0.356723767676859 
2346	 0.356158122836307 
2347	 0.356019715614366 
2348	 0.35618665827732 
2349	 0.35675222985269 
2350	 0.357643347184903 
2351	 0.358689532564204 
2352	 0.35993810672873 
2353	 0.361385621884795 
2354	 0.362809621090491 
2355	 0.364212287929897 
2356	 0.365514606502862 
2357	 0.366590290400842 
2358	 0.367515380457468 
2359	 0.36824155336244 
2360	 0.368891531767227 
2361	 0.369351605826905 
2362	 0.369598060426285 
2363	 0.369810085745707 
2364	 0.369951305447797 
2365	 0.370013992635527 
2366	 0.370083131282505 
2367	 0.370121125055835 
2368	 0.370054903454881 
2369	 0.369936522901807 
2370	 0.369858858389926 
2371	 0.369810498157433 
2372	 0.369751458358296 
2373	 0.369739946663709 
2374	 0.369672328362381 
2375	 0.369518998134261 
2376	 0.369443580941677 
2377	 0.369366647202021 
2378	 0.369255771463628 
2379	 0.369209308426366 
2380	 0.369099682435588 
2381	 0.368964346582918 
2382	 0.368899167345654 
2383	 0.368922064793808 
2384	 0.368828501419593 
2385	 0.368725589721028 
2386	 0.368586205803164 
2387	 0.368347940743105 
2388	 0.368217787862364 
2389	 0.368138692599843 
2390	 0.368004353741976 
2391	 0.367889129435351 
2392	 0.367759283887296 
2393	 0.36754705599095 
2394	 0.367437857346611 
2395	 0.367397000290975 
2396	 0.367300085787797 
2397	 0.367225390456683 
2398	 0.367174381908162 
2399	 0.367123800603642 
2400	 0.367082330655479 
2401	 0.367042290788694 
2402	 0.367075267817264 
2403	 0.367089630441458 
2404	 0.367145132262301 
2405	 0.36722697524497 
2406	 0.367266599671696 
2407	 0.367320792801254 
2408	 0.367454232053721 
2409	 0.367598471969671 
2410	 0.367673295335572 
2411	 0.367684967259195 
2412	 0.367707269299751 
2413	 0.367765023081704 
2414	 0.367865276181457 
2415	 0.368060069634854 
2416	 0.36815419180964 
2417	 0.368109089900341 
2418	 0.368074545417881 
2419	 0.368069555120119 
2420	 0.368199200117874 
2421	 0.368352017162402 
2422	 0.368372582091483 
2423	 0.368394418015875 
2424	 0.368341982813573 
2425	 0.368240659473823 
2426	 0.368270470141921 
2427	 0.368293443365751 
2428	 0.368298266970689 
2429	 0.368281145119381 
2430	 0.36828780987307 
2431	 0.368436146031027 
2432	 0.368585808611282 
2433	 0.368634363342557 
2434	 0.368571592987662 
2435	 0.368405987573721 
2436	 0.368146323484026 
2437	 0.367998583360894 
2438	 0.367999173715199 
2439	 0.367901105185297 
2440	 0.367724742784103 
2441	 0.367434007287841 
2442	 0.367167608877813 
2443	 0.367123392752718 
2444	 0.3670555511665 
2445	 0.366959651426767 
2446	 0.366721689605394 
2447	 0.366252252431936 
2448	 0.365903292500017 
2449	 0.365573389555878 
2450	 0.365250572808631 
2451	 0.36496677293817 
2452	 0.364480093474642 
2453	 0.364019261418284 
2454	 0.363699703683812 
2455	 0.363304412144794 
2456	 0.362899178441665 
2457	 0.362587443555227 
2458	 0.362185409760536 
2459	 0.361855533924132 
2460	 0.36167762680667 
2461	 0.361233638841714 
2462	 0.360717261389754 
2463	 0.360306181076337 
2464	 0.359835591858858 
2465	 0.359514371970273 
2466	 0.359397564691055 
2467	 0.359121189622212 
2468	 0.358740692448722 
2469	 0.358672896482662 
2470	 0.35864571459142 
2471	 0.358538790613946 
2472	 0.358517286907226 
2473	 0.358330197183203 
2474	 0.35807818047963 
2475	 0.358074929013236 
2476	 0.35815703679623 
2477	 0.358192797189091 
2478	 0.358170576318045 
2479	 0.357925133443196 
2480	 0.357753952938901 
2481	 0.357744633462452 
2482	 0.35800333615398 
2483	 0.358076169025549 
2484	 0.358160816252629 
2485	 0.358113256056819 
2486	 0.35784841125731 
2487	 0.35796262310992 
2488	 0.357868514454187 
2489	 0.357787618517497 
2490	 0.358002350143478 
2491	 0.357923320087328 
2492	 0.357990989348461 
2493	 0.35838113597566 
2494	 0.358757129356942 
2495	 0.359115064265613 
2496	 0.359503276094922 
2497	 0.359765706906046 
2498	 0.359878389101139 
2499	 0.360006094622387 
2500	 0.360420615985412 
