Wavelength	spectrum00012.asd
350	 9.46037680119742E-02 
351	 9.27043213251053E-02 
352	 9.13825297796983E-02 
353	 0.089675732354942 
354	 8.80661413487371E-02 
355	 8.65390222466854E-02 
356	 8.44130621530768E-02 
357	 8.15296217289482E-02 
358	 7.96012185686814E-02 
359	 7.83631199023287E-02 
360	 7.77119141452704E-02 
361	 7.75720098860982E-02 
362	 7.77996010480753E-02 
363	 7.68506053940491E-02 
364	 7.47861016864236E-02 
365	 7.38039087801223E-02 
366	 7.46465959934854E-02 
367	 7.52176559439232E-02 
368	 7.39808239904469E-02 
369	 7.35689392187361E-02 
370	 7.28886141449385E-02 
371	 7.18885649849305E-02 
372	 7.12167908990145E-02 
373	 7.19867723325613E-02 
374	 7.24636553978566E-02 
375	 7.21424659275007E-02 
376	 7.27244704095012E-02 
377	 7.17715646041198E-02 
378	 7.07285787745328E-02 
379	 7.10697378171329E-02 
380	 7.07526598358909E-02 
381	 7.05406289545992E-02 
382	 7.06078509693417E-02 
383	 7.06929366629478E-02 
384	 0.070140054998789 
385	 7.01351948769903E-02 
386	 7.07780384566182E-02 
387	 7.02480627306309E-02 
388	 6.97533073979394E-02 
389	 6.96288414199827E-02 
390	 6.97407899934999E-02 
391	 6.90984449400841E-02 
392	 0.069048504438895 
393	 6.94881773023983E-02 
394	 6.94253609873129E-02 
395	 6.96713048376922E-02 
396	 0.069817146615595 
397	 6.96135539527365E-02 
398	 6.92896033792522E-02 
399	 6.91085275729814E-02 
400	 6.91609508586536E-02 
401	 0.069342875852727 
402	 6.89998045722359E-02 
403	 6.92836122662698E-02 
404	 6.99780320599214E-02 
405	 6.98927206455805E-02 
406	 6.95254809824879E-02 
407	 0.069733508996503 
408	 7.06214890188288E-02 
409	 7.08134443203627E-02 
410	 7.08192853159891E-02 
411	 7.09590208954417E-02 
412	 0.071390098223269 
413	 7.17072305288727E-02 
414	 7.18458859736772E-02 
415	 7.21556633928166E-02 
416	 7.32437307626932E-02 
417	 7.34682725244021E-02 
418	 7.36511725036317E-02 
419	 7.44316380965499E-02 
420	 0.074983807559978 
421	 7.55960703599347E-02 
422	 7.63314478442065E-02 
423	 7.71261041789042E-02 
424	 0.077677844993411 
425	 7.82524045144595E-02 
426	 7.89859146828525E-02 
427	 7.98129243006852E-02 
428	 8.07087883238694E-02 
429	 0.081567225759755 
430	 8.23240253318579E-02 
431	 8.30456601461942E-02 
432	 8.40594383689835E-02 
433	 8.52007200055225E-02 
434	 8.60905881401247E-02 
435	 8.71496239076342E-02 
436	 8.82387852897995E-02 
437	 8.92881883273488E-02 
438	 9.04271159415135E-02 
439	 9.16167367325519E-02 
440	 9.29279297317486E-02 
441	 9.43837572986902E-02 
442	 9.56905224467605E-02 
443	 9.71131975561092E-02 
444	 9.86249843579374E-02 
445	 9.99764923422836E-02 
446	 0.101346216390402 
447	 0.10290825587343 
448	 0.104673444692879 
449	 0.106298855953756 
450	 0.107991459794743 
451	 0.109694112995172 
452	 0.111312973515169 
453	 0.113120363449271 
454	 0.115084255381275 
455	 0.11707610295886 
456	 0.118908940983545 
457	 0.120977525169487 
458	 0.123073118288823 
459	 0.12503451712709 
460	 0.127240787867507 
461	 0.129564954816992 
462	 0.131843029142655 
463	 0.133954314327789 
464	 0.136337672023329 
465	 0.138830756152546 
466	 0.141260698893246 
467	 0.143545106709287 
468	 0.146045873067814 
469	 0.148634042936261 
470	 0.151136428162396 
471	 0.153835849046723 
472	 0.156574041180579 
473	 0.159306861191962 
474	 0.162082333602167 
475	 0.164807657911274 
476	 0.167540336845387 
477	 0.17036366469867 
478	 0.173384532227454 
479	 0.1763722512604 
480	 0.179343756513649 
481	 0.182392075023049 
482	 0.18539275700836 
483	 0.188432461542767 
484	 0.191531475334016 
485	 0.194610407081879 
486	 0.197750017858709 
487	 0.200922004343093 
488	 0.204096365139199 
489	 0.207332047068439 
490	 0.210489676167245 
491	 0.213671918777306 
492	 0.217071981663939 
493	 0.220230867008725 
494	 0.223479158959841 
495	 0.22693265002497 
496	 0.230189572611701 
497	 0.23334567351031 
498	 0.23656039436687 
499	 0.239926355800981 
500	 0.243147376080774 
501	 0.246370544824694 
502	 0.249620163017298 
503	 0.25280501878467 
504	 0.256060967856628 
505	 0.259336419522652 
506	 0.26257228557167 
507	 0.265771262118315 
508	 0.268947244235418 
509	 0.272088712689529 
510	 0.275176015032885 
511	 0.278231868728046 
512	 0.281350438796611 
513	 0.284512994334112 
514	 0.287565107518491 
515	 0.290523553919859 
516	 0.293470649557506 
517	 0.296473109865859 
518	 0.299480418794884 
519	 0.302416219761422 
520	 0.305315030810056 
521	 0.308269792711315 
522	 0.311075449620032 
523	 0.313855047468278 
524	 0.31670030994132 
525	 0.319565093096203 
526	 0.3223610286669 
527	 0.32510887000316 
528	 0.327867443362619 
529	 0.330630771726666 
530	 0.333336123942745 
531	 0.336015999153236 
532	 0.338797429677018 
533	 0.341490836761579 
534	 0.344170343710532 
535	 0.346911227260932 
536	 0.349628832321591 
537	 0.352353618776494 
538	 0.355076702533847 
539	 0.357773324329961 
540	 0.360449780702793 
541	 0.363085128086088 
542	 0.365698227439598 
543	 0.368370874529591 
544	 0.371107162734524 
545	 0.373781099761379 
546	 0.376300656570342 
547	 0.378926687288918 
548	 0.381555379216399 
549	 0.384145034847733 
550	 0.386725462161969 
551	 0.389356382813587 
552	 0.391998663963308 
553	 0.394616105630799 
554	 0.397217990390761 
555	 0.399829471395474 
556	 0.40245061440313 
557	 0.405068562051353 
558	 0.407698931301999 
559	 0.410353688305263 
560	 0.412992554952314 
561	 0.415510784586815 
562	 0.417918529164767 
563	 0.420267285275651 
564	 0.422610154926332 
565	 0.424936682207229 
566	 0.427297720786066 
567	 0.429674741280595 
568	 0.431999724423959 
569	 0.434311502176994 
570	 0.436568350332414 
571	 0.438779216542094 
572	 0.441089705477625 
573	 0.443331262686932 
574	 0.445468312450536 
575	 0.447536885894876 
576	 0.449643042319175 
577	 0.451683866176023 
578	 0.453658173759375 
579	 0.455688688625034 
580	 0.457627030273431 
581	 0.459511169565399 
582	 0.461406565772981 
583	 0.463320932860104 
584	 0.465177496593201 
585	 0.466984784162772 
586	 0.468807039797766 
587	 0.470649797164646 
588	 0.47252222330583 
589	 0.474387640915479 
590	 0.476138210009396 
591	 0.477847834801358 
592	 0.479494812330647 
593	 0.481033060145099 
594	 0.482441564528852 
595	 0.483821298381746 
596	 0.485176981788167 
597	 0.486434394366097 
598	 0.487847603975124 
599	 0.489276437152518 
600	 0.490594568350004 
601	 0.49187152558453 
602	 0.493182918197567 
603	 0.494515208656888 
604	 0.495806610329927 
605	 0.497009158256784 
606	 0.498218206238447 
607	 0.499455570353947 
608	 0.500634773925132 
609	 0.501708694709888 
610	 0.502784910610973 
611	 0.503930709398967 
612	 0.504926062936605 
613	 0.505904303953163 
614	 0.506916963322488 
615	 0.507949573312985 
616	 0.508890698501964 
617	 0.509817568156592 
618	 0.510763725800566 
619	 0.511637742445041 
620	 0.512529668464434 
621	 0.513465729848546 
622	 0.514425146027995 
623	 0.515273712547224 
624	 0.516139091011472 
625	 0.517039088599604 
626	 0.517879611536141 
627	 0.518632652484258 
628	 0.519381380472028 
629	 0.520187399225408 
630	 0.521004600439196 
631	 0.521816246400922 
632	 0.522596272859415 
633	 0.523338907909506 
634	 0.524200322898631 
635	 0.525015747522326 
636	 0.525722400068809 
637	 0.526415102281138 
638	 0.527171544706574 
639	 0.527972367520085 
640	 0.528753415446194 
641	 0.529401157315625 
642	 0.530045488402843 
643	 0.530758759423222 
644	 0.531553406396349 
645	 0.532263200509764 
646	 0.53296548008737 
647	 0.533709611675844 
648	 0.53445164373822 
649	 0.535123329426691 
650	 0.535775819383916 
651	 0.536471472157341 
652	 0.537141881400249 
653	 0.537809073249834 
654	 0.538474441220299 
655	 0.539122947336063 
656	 0.539793344445283 
657	 0.540490230053911 
658	 0.541178201210534 
659	 0.541730256815211 
660	 0.542455202808004 
661	 0.543222129067579 
662	 0.543806402205368 
663	 0.544471904607707 
664	 0.545146007180763 
665	 0.545812367561502 
666	 0.546522145704013 
667	 0.547099752941534 
668	 0.54768915771564 
669	 0.548380634172094 
670	 0.548954567750341 
671	 0.549557502019052 
672	 0.550207045078641 
673	 0.550861316312293 
674	 0.551496061209813 
675	 0.552114269912689 
676	 0.552726098970203 
677	 0.553345861613059 
678	 0.554015498403815 
679	 0.554643690739929 
680	 0.555182894362214 
681	 0.555816983879509 
682	 0.556424228905896 
683	 0.556977002160708 
684	 0.557509473553867 
685	 0.558094877443638 
686	 0.558666579214601 
687	 0.55922978690071 
688	 0.559912222800783 
689	 0.560580441963478 
690	 0.561148018189649 
691	 0.561619376886176 
692	 0.562258897252782 
693	 0.562801938208744 
694	 0.563280687086527 
695	 0.563896092794565 
696	 0.564512945473283 
697	 0.565052134607085 
698	 0.565542818520851 
699	 0.566173534141261 
700	 0.566734927758445 
701	 0.567257942789358 
702	 0.56781089532545 
703	 0.568315902268061 
704	 0.568881399392505 
705	 0.569427077487335 
706	 0.569785736531176 
707	 0.570335845531391 
708	 0.570939505008821 
709	 0.571488170175566 
710	 0.572045636222027 
711	 0.572494714757738 
712	 0.572952867036537 
713	 0.573536420641475 
714	 0.574070730244884 
715	 0.574541829373811 
716	 0.574988938949692 
717	 0.575481875534318 
718	 0.576014596822451 
719	 0.576485217192533 
720	 0.576901235812761 
721	 0.577481449019032 
722	 0.577924046313487 
723	 0.578337602488922 
724	 0.578868092613078 
725	 0.5792975806273 
726	 0.579621693864062 
727	 0.580011691434792 
728	 0.580691259690483 
729	 0.581113213960751 
730	 0.581517132532298 
731	 0.582032099816025 
732	 0.582430080173404 
733	 0.582795795667805 
734	 0.583183760290887 
735	 0.583632842741966 
736	 0.584156509961028 
737	 0.584620039720498 
738	 0.584976086703028 
739	 0.585261358868046 
740	 0.585650866588734 
741	 0.586099725499895 
742	 0.586515260303299 
743	 0.586780201313733 
744	 0.587162952903177 
745	 0.587623544849327 
746	 0.588057789059688 
747	 0.588467141121644 
748	 0.588797542000969 
749	 0.589137446021849 
750	 0.58961585080102 
751	 0.589997638824443 
752	 0.590305456280309 
753	 0.590575716405205 
754	 0.590825762811641 
755	 0.591154478864664 
756	 0.591528165867614 
757	 0.591908145230836 
758	 0.592361605121151 
759	 0.592686681115822 
760	 0.592962591950499 
761	 0.593356356086272 
762	 0.593640597046384 
763	 0.593967189855192 
764	 0.594343427647108 
765	 0.594607568137469 
766	 0.594963824421818 
767	 0.595361941808652 
768	 0.595715760430045 
769	 0.595961269463524 
770	 0.596286611750804 
771	 0.596656919249211 
772	 0.596964362019199 
773	 0.597188424951443 
774	 0.597519266765886 
775	 0.597932280998573 
776	 0.598226924572145 
777	 0.59839076991292 
778	 0.598605129226685 
779	 0.598936686627913 
780	 0.59920864354346 
781	 0.599550549872664 
782	 0.599900379348323 
783	 0.600172396724881 
784	 0.600390870013887 
785	 0.600599098714885 
786	 0.6008105745194 
787	 0.601032951936729 
788	 0.601375767112825 
789	 0.60176612864398 
790	 0.60208976829227 
791	 0.602225136398808 
792	 0.602503268934803 
793	 0.602833142282467 
794	 0.603083358606342 
795	 0.603248764423318 
796	 0.603401193298886 
797	 0.603637697012271 
798	 0.603990049039196 
799	 0.604156157812053 
800	 0.604376645088877 
801	 0.604680250303703 
802	 0.604918693557177 
803	 0.60510176318992 
804	 0.605293874777761 
805	 0.605531117193901 
806	 0.605793168597653 
807	 0.606024785672947 
808	 0.606314031729222 
809	 0.606677447599372 
810	 0.606805470042857 
811	 0.606986021444258 
812	 0.607207090434963 
813	 0.607360049779189 
814	 0.607624484514773 
815	 0.607847657489063 
816	 0.608019395116178 
817	 0.608259254438788 
818	 0.608439354689168 
819	 0.608626006728848 
820	 0.608840782662595 
821	 0.608985590747242 
822	 0.609167904098205 
823	 0.609368607936509 
824	 0.60955796094177 
825	 0.609781117074768 
826	 0.610050429669856 
827	 0.610312359514833 
828	 0.610493267222573 
829	 0.610589064874041 
830	 0.610759712952203 
831	 0.611006728152242 
832	 0.611197038204211 
833	 0.611446420154758 
834	 0.6116617505379 
835	 0.611794483179191 
836	 0.61190917786794 
837	 0.612042918405602 
838	 0.612236258051931 
839	 0.612478074827513 
840	 0.612624950985188 
841	 0.612772379639485 
842	 0.612992361085741 
843	 0.613294576044207 
844	 0.613452702219126 
845	 0.613584747244786 
846	 0.613756067386892 
847	 0.613967266687821 
848	 0.614136026609363 
849	 0.614245317146497 
850	 0.614341092544311 
851	 0.614528402258078 
852	 0.614780267041821 
853	 0.614945738465997 
854	 0.614991982093379 
855	 0.61518372305447 
856	 0.615399446998366 
857	 0.615607882791176 
858	 0.615792360905931 
859	 0.615889552276708 
860	 0.616067148002263 
861	 0.616275887893133 
862	 0.61637950046209 
863	 0.616462259864171 
864	 0.616638426467374 
865	 0.61687994195801 
866	 0.61704035539112 
867	 0.617107213414305 
868	 0.617154903774906 
869	 0.617274719337811 
870	 0.617547053697707 
871	 0.617721064688598 
872	 0.617844270946992 
873	 0.617990656467348 
874	 0.618134309128784 
875	 0.618270926419975 
876	 0.61839234969946 
877	 0.618499574611382 
878	 0.61861519547211 
879	 0.618814993533111 
880	 0.619023652809326 
881	 0.619135082496069 
882	 0.619310470724985 
883	 0.619501321753059 
884	 0.619660974953899 
885	 0.619760306423124 
886	 0.619807152268398 
887	 0.619905502487302 
888	 0.620054695907146 
889	 0.620133343526062 
890	 0.620267138930459 
891	 0.620386544745838 
892	 0.620462938137415 
893	 0.620592304594489 
894	 0.620816188713133 
895	 0.621015372492946 
896	 0.621099801340355 
897	 0.621157781327093 
898	 0.621262396423584 
899	 0.62146155476901 
900	 0.621719781376397 
901	 0.621774032186978 
902	 0.621761252745942 
903	 0.621787078562144 
904	 0.621916576770301 
905	 0.622124787463225 
906	 0.622288058278127 
907	 0.622390209405531 
908	 0.622495742027115 
909	 0.622583845702396 
910	 0.622713465071657 
911	 0.622882231441044 
912	 0.623018681484219 
913	 0.623070679057976 
914	 0.623097281219963 
915	 0.623179484471944 
916	 0.623389048681584 
917	 0.623605029645445 
918	 0.623814390523417 
919	 0.624017639343657 
920	 0.624197418928317 
921	 0.624361905833693 
922	 0.624438922094848 
923	 0.624432213416098 
924	 0.624580488404991 
925	 0.624682242132461 
926	 0.624787540361481 
927	 0.624991704648167 
928	 0.625270835651505 
929	 0.625451513726658 
930	 0.625554161504006 
931	 0.625671993525403 
932	 0.62577894339794 
933	 0.625996709429681 
934	 0.626263312433945 
935	 0.626453297272803 
936	 0.626699896724748 
937	 0.626967723917973 
938	 0.627175335621698 
939	 0.627258976171846 
940	 0.62742268942324 
941	 0.627617662869054 
942	 0.627805025451922 
943	 0.627978932948911 
944	 0.628154700537898 
945	 0.628375154720591 
946	 0.628638565821313 
947	 0.628885001671241 
948	 0.628974454393991 
949	 0.629034112122429 
950	 0.629159430660962 
951	 0.629341482880878 
952	 0.629502988924625 
953	 0.62963985236758 
954	 0.629754346023197 
955	 0.629838162745711 
956	 0.629936880039095 
957	 0.629998748959553 
958	 0.630042414389217 
959	 0.630230139397145 
960	 0.630399086700688 
961	 0.630528179960213 
962	 0.630637101588478 
963	 0.630754017534491 
964	 0.630881355217849 
965	 0.630999589064842 
966	 0.631114624311311 
967	 0.631305044446262 
968	 0.631394968196773 
969	 0.631461450872434 
970	 0.631579992864044 
971	 0.631623921195424 
972	 0.631743738790291 
973	 0.631834000727514 
974	 0.631831705574689 
975	 0.632013232095186 
976	 0.63214156412528 
977	 0.632276937686282 
978	 0.632494013904178 
979	 0.63260797791397 
980	 0.632805684465928 
981	 0.632906065433363 
982	 0.632804670968204 
983	 0.633029814318454 
984	 0.633239732790943 
985	 0.633406958887615 
986	 0.633583640031012 
987	 0.633713034648616 
988	 0.633713833528764 
989	 0.633786188355313 
990	 0.634064158342837 
991	 0.634121819682258 
992	 0.634142342625183 
993	 0.634216479934807 
994	 0.634368098106575 
995	 0.634532749871195 
996	 0.634523587960191 
997	 0.634501809006888 
998	 0.634675327058624 
999	 0.634955318800858 
1000	 0.635155027543302 
1001	 0.638962605363651 
1002	 0.639064319604159 
1003	 0.639191068122732 
1004	 0.639322213544544 
1005	 0.639468937875941 
1006	 0.639592733000539 
1007	 0.639736899925521 
1008	 0.63984399553823 
1009	 0.639920921377346 
1010	 0.640004600462401 
1011	 0.640057250584485 
1012	 0.640142895886957 
1013	 0.640249814675376 
1014	 0.640334847626119 
1015	 0.640417850265574 
1016	 0.640511994909848 
1017	 0.640597396459985 
1018	 0.640718625269127 
1019	 0.640844057345647 
1020	 0.640938928292571 
1021	 0.641022033352344 
1022	 0.641049693527303 
1023	 0.641148505662162 
1024	 0.641277611752225 
1025	 0.641382965603719 
1026	 0.641511848564039 
1027	 0.641627928837937 
1028	 0.641704120698931 
1029	 0.641835988183407 
1030	 0.641994648015413 
1031	 0.642108447352425 
1032	 0.642200184627085 
1033	 0.642281832173684 
1034	 0.642364900083806 
1035	 0.642455899036623 
1036	 0.642534594313195 
1037	 0.642631068411074 
1038	 0.642696975932422 
1039	 0.642710214871122 
1040	 0.64277772619312 
1041	 0.642884617334974 
1042	 0.642959794812042 
1043	 0.643037639831989 
1044	 0.643105387251567 
1045	 0.643184714724775 
1046	 0.64326317652794 
1047	 0.643370823961253 
1048	 0.643511546308246 
1049	 0.643623006207819 
1050	 0.643729529640144 
1051	 0.643845926322542 
1052	 0.643934431548926 
1053	 0.644020253641819 
1054	 0.644077449328312 
1055	 0.644184006942813 
1056	 0.644319330210247 
1057	 0.644419416522478 
1058	 0.644537357037843 
1059	 0.644635973348587 
1060	 0.644680180540813 
1061	 0.644773954965913 
1062	 0.644903074821178 
1063	 0.644996909564188 
1064	 0.64508482852716 
1065	 0.645170237927492 
1066	 0.645277342340545 
1067	 0.645441543794279 
1068	 0.645617649653164 
1069	 0.645793108956687 
1070	 0.64592679793423 
1071	 0.646030071001025 
1072	 0.646109273804254 
1073	 0.646215233492144 
1074	 0.646304299103064 
1075	 0.646437039232346 
1076	 0.646584899829724 
1077	 0.646697322338386 
1078	 0.646822421597362 
1079	 0.646930729849394 
1080	 0.647022721737949 
1081	 0.647077203090707 
1082	 0.647123489214207 
1083	 0.647252004967097 
1084	 0.647387328281146 
1085	 0.647532798270961 
1086	 0.64766558130236 
1087	 0.647820261657078 
1088	 0.647906243153451 
1089	 0.647995900728937 
1090	 0.648087747835308 
1091	 0.648191129250716 
1092	 0.64830958092679 
1093	 0.648379693836297 
1094	 0.648446195134911 
1095	 0.648539612887721 
1096	 0.648583292876572 
1097	 0.648609557899867 
1098	 0.648678716304572 
1099	 0.648742835203749 
1100	 0.648794771163259 
1101	 0.648843155692193 
1102	 0.648862516696462 
1103	 0.64887113247201 
1104	 0.648840216341373 
1105	 0.648817039990339 
1106	 0.648828048461643 
1107	 0.648868374541437 
1108	 0.648913922938095 
1109	 0.648954964349975 
1110	 0.648978876939594 
1111	 0.648963473408633 
1112	 0.64892471484822 
1113	 0.648885123717245 
1114	 0.648872509434217 
1115	 0.64886865955315 
1116	 0.648840558823319 
1117	 0.648816342946483 
1118	 0.648787396627653 
1119	 0.648735603173226 
1120	 0.648695772540816 
1121	 0.648670847419596 
1122	 0.648631372255381 
1123	 0.6485722733271 
1124	 0.64848183446698 
1125	 0.64838374611132 
1126	 0.648271955138797 
1127	 0.648134049990574 
1128	 0.647974791338636 
1129	 0.647809001026493 
1130	 0.647660353728543 
1131	 0.647513485573929 
1132	 0.64737832047616 
1133	 0.647219237874243 
1134	 0.647022461624871 
1135	 0.646829484557943 
1136	 0.646615544537006 
1137	 0.646407200228109 
1138	 0.646197705759264 
1139	 0.645986954822352 
1140	 0.645769429748451 
1141	 0.645562899675008 
1142	 0.645345695837728 
1143	 0.64513785576096 
1144	 0.644899941249335 
1145	 0.644607023748866 
1146	 0.644323885533497 
1147	 0.64401880996371 
1148	 0.643723421502965 
1149	 0.643476991620357 
1150	 0.643199057264603 
1151	 0.6429153428753 
1152	 0.642611757576559 
1153	 0.642270877532717 
1154	 0.641947492175665 
1155	 0.641635682238801 
1156	 0.641296741696261 
1157	 0.640936764131092 
1158	 0.640602288623786 
1159	 0.640264303650109 
1160	 0.639914887695836 
1161	 0.639594342654669 
1162	 0.639282033022784 
1163	 0.63896297012295 
1164	 0.638644690571884 
1165	 0.638335121269273 
1166	 0.638039189255907 
1167	 0.637712089087131 
1168	 0.637388515186105 
1169	 0.637070798924571 
1170	 0.636747302819259 
1171	 0.636420825550251 
1172	 0.6361144952036 
1173	 0.635781096082436 
1174	 0.635425296522579 
1175	 0.6350825512484 
1176	 0.6347326583001 
1177	 0.634385364683487 
1178	 0.634037725337008 
1179	 0.633692691163999 
1180	 0.633378629605853 
1181	 0.633037628219508 
1182	 0.632682315500461 
1183	 0.63235622563282 
1184	 0.632015532521927 
1185	 0.631670214924207 
1186	 0.631343761835957 
1187	 0.631025294781986 
1188	 0.630734823866399 
1189	 0.630457843736019 
1190	 0.630195729028984 
1191	 0.629961686177539 
1192	 0.629737660948909 
1193	 0.62951349927452 
1194	 0.629317036773903 
1195	 0.629151777204744 
1196	 0.628988795822411 
1197	 0.628840102057077 
1198	 0.628700487953317 
1199	 0.628558350936183 
1200	 0.628437631900684 
1201	 0.628337898344079 
1202	 0.628236295186696 
1203	 0.628162842798254 
1204	 0.62813654885396 
1205	 0.628136289893534 
1206	 0.628165822607894 
1207	 0.628225107461728 
1208	 0.628305169428064 
1209	 0.628437135388681 
1210	 0.628587838951825 
1211	 0.62881252530258 
1212	 0.629111489503518 
1213	 0.629432399075186 
1214	 0.629784899775004 
1215	 0.630203506585995 
1216	 0.630681913971329 
1217	 0.631181024423941 
1218	 0.631743344400813 
1219	 0.632330423422366 
1220	 0.632913706908522 
1221	 0.633525740734254 
1222	 0.634125003210628 
1223	 0.634735406298933 
1224	 0.635319990060262 
1225	 0.635899386691666 
1226	 0.636436318823896 
1227	 0.636949328339236 
1228	 0.637448406007236 
1229	 0.637929609416812 
1230	 0.638369959743312 
1231	 0.638791235268833 
1232	 0.639184116299004 
1233	 0.639527501865963 
1234	 0.639858239415563 
1235	 0.640173998792856 
1236	 0.640467182023515 
1237	 0.640716320320876 
1238	 0.640973468027967 
1239	 0.641229899083363 
1240	 0.641467762844025 
1241	 0.641690753710986 
1242	 0.641903957763181 
1243	 0.642087482574745 
1244	 0.642233331107229 
1245	 0.642397721887149 
1246	 0.642559877246365 
1247	 0.642698641487146 
1248	 0.642829006927607 
1249	 0.642955722543777 
1250	 0.643056497835839 
1251	 0.643165759436613 
1252	 0.643292499659131 
1253	 0.643392846327641 
1254	 0.64346485667025 
1255	 0.643554282773158 
1256	 0.64364754076913 
1257	 0.643728448756083 
1258	 0.643822210857585 
1259	 0.643892627768721 
1260	 0.643934617561618 
1261	 0.643979980941743 
1262	 0.644019581586396 
1263	 0.644054864167851 
1264	 0.644074412797944 
1265	 0.644088380541979 
1266	 0.644089494296693 
1267	 0.644060869347386 
1268	 0.644063244454881 
1269	 0.64407251812112 
1270	 0.64408018177585 
1271	 0.644099940719016 
1272	 0.644116091390273 
1273	 0.64412548617485 
1274	 0.644141582994433 
1275	 0.644167912815958 
1276	 0.644187362228656 
1277	 0.644200853792281 
1278	 0.644220575258691 
1279	 0.644246266188809 
1280	 0.644265632299217 
1281	 0.644289371557039 
1282	 0.644304785452826 
1283	 0.644295682859159 
1284	 0.64431008081545 
1285	 0.64433317286789 
1286	 0.644357372286077 
1287	 0.644399067606524 
1288	 0.644460838028278 
1289	 0.644520327086085 
1290	 0.644579798856465 
1291	 0.644659116440101 
1292	 0.644762268997332 
1293	 0.644843399703828 
1294	 0.644933371029406 
1295	 0.64500808353705 
1296	 0.645060263675519 
1297	 0.645124259231569 
1298	 0.645203179370715 
1299	 0.645255025202954 
1300	 0.6452935893861 
1301	 0.64533042004075 
1302	 0.645345442820537 
1303	 0.645369361946571 
1304	 0.645408551476481 
1305	 0.645427724343837 
1306	 0.645422293489475 
1307	 0.645435780276249 
1308	 0.645460920798663 
1309	 0.64546811380202 
1310	 0.645472108646625 
1311	 0.645494197499299 
1312	 0.645473839545068 
1313	 0.645423295362327 
1314	 0.645374416350534 
1315	 0.645314758398923 
1316	 0.645243999408466 
1317	 0.64515651232274 
1318	 0.645075920108948 
1319	 0.644989123215373 
1320	 0.64489967665922 
1321	 0.644819233290704 
1322	 0.644719052485625 
1323	 0.644607658510829 
1324	 0.644487665228396 
1325	 0.644354931218676 
1326	 0.644218238341008 
1327	 0.644077858789381 
1328	 0.643925341543004 
1329	 0.643768154915959 
1330	 0.643597247477991 
1331	 0.643424704200095 
1332	 0.643223516691567 
1333	 0.642998893041804 
1334	 0.642762461197927 
1335	 0.642523816221655 
1336	 0.642275400992328 
1337	 0.641992704488109 
1338	 0.641692560782784 
1339	 0.641401579361363 
1340	 0.641077079202887 
1341	 0.640778632862446 
1342	 0.640519657341756 
1343	 0.640205424512757 
1344	 0.639869714363195 
1345	 0.639520988344525 
1346	 0.63914538228491 
1347	 0.638770305126101 
1348	 0.638394921691695 
1349	 0.637992914848671 
1350	 0.637567246486593 
1351	 0.637141524461766 
1352	 0.636699672014547 
1353	 0.636250911678213 
1354	 0.635774277892285 
1355	 0.635335746670918 
1356	 0.63490668833093 
1357	 0.634479270635812 
1358	 0.634074457063319 
1359	 0.633674161624944 
1360	 0.633272476432586 
1361	 0.632878051024679 
1362	 0.632475933120799 
1363	 0.632087073980189 
1364	 0.631667057527456 
1365	 0.63122515526953 
1366	 0.630779003809449 
1367	 0.630325785424543 
1368	 0.6298592952715 
1369	 0.629381095121702 
1370	 0.628889212400811 
1371	 0.628389940215244 
1372	 0.627874145362037 
1373	 0.627345898220513 
1374	 0.626797273349942 
1375	 0.626229476720973 
1376	 0.62564600028642 
1377	 0.625039379091346 
1378	 0.624420215708377 
1379	 0.62378257813318 
1380	 0.62313855314769 
1381	 0.62247840607483 
1382	 0.621814639868048 
1383	 0.6211376723105 
1384	 0.620464057043754 
1385	 0.619782459365044 
1386	 0.619110104374094 
1387	 0.618423928250899 
1388	 0.617781098857165 
1389	 0.617157073523669 
1390	 0.616552932300396 
1391	 0.615999945832356 
1392	 0.615424009222242 
1393	 0.614879326172783 
1394	 0.614331022698383 
1395	 0.613768504746186 
1396	 0.613227998193914 
1397	 0.612616192485947 
1398	 0.611990834343067 
1399	 0.611283709981866 
1400	 0.61052380702659 
1401	 0.609704794978101 
1402	 0.608820520458736 
1403	 0.60789629626834 
1404	 0.606910294641415 
1405	 0.605913819691573 
1406	 0.604862353376914 
1407	 0.603820474505686 
1408	 0.602730903296012 
1409	 0.601695310308356 
1410	 0.60063471422739 
1411	 0.59966527011255 
1412	 0.598721788951377 
1413	 0.597883578363765 
1414	 0.597129505781338 
1415	 0.596428521973918 
1416	 0.595822806562015 
1417	 0.595239108612675 
1418	 0.594720707745036 
1419	 0.594205757603909 
1420	 0.593729830670199 
1421	 0.593264332822048 
1422	 0.592814448191349 
1423	 0.592371323224718 
1424	 0.591949679842249 
1425	 0.591518196464167 
1426	 0.591115897016872 
1427	 0.590741049984144 
1428	 0.590386760833537 
1429	 0.590063099995995 
1430	 0.589736473679987 
1431	 0.589409387267433 
1432	 0.589125469774156 
1433	 0.588857567861321 
1434	 0.588622018863299 
1435	 0.588419191694286 
1436	 0.588240330779857 
1437	 0.588085064923355 
1438	 0.587957376653104 
1439	 0.587870881887787 
1440	 0.587781695908802 
1441	 0.587705256899492 
1442	 0.587647359484282 
1443	 0.587601786556501 
1444	 0.587573715107241 
1445	 0.587567204767574 
1446	 0.587571924103057 
1447	 0.587585991958697 
1448	 0.587620277564347 
1449	 0.587670518839753 
1450	 0.587742038457356 
1451	 0.587837414432336 
1452	 0.587941290925563 
1453	 0.588075816371157 
1454	 0.588197347480443 
1455	 0.588320764178946 
1456	 0.588447575277499 
1457	 0.588584513422993 
1458	 0.588702825561557 
1459	 0.588812163412227 
1460	 0.588924866272296 
1461	 0.589029606463167 
1462	 0.589127433567477 
1463	 0.589216843456286 
1464	 0.589319433899935 
1465	 0.589415806001617 
1466	 0.589516564968018 
1467	 0.589651703918434 
1468	 0.58979445730574 
1469	 0.589918536679524 
1470	 0.590031981154718 
1471	 0.590126256035092 
1472	 0.590197607953796 
1473	 0.59026674632434 
1474	 0.590328785109024 
1475	 0.590374567720112 
1476	 0.590406688353004 
1477	 0.590429851902011 
1478	 0.590436421325971 
1479	 0.590442947367189 
1480	 0.590440380099464 
1481	 0.590438946356693 
1482	 0.590435882836981 
1483	 0.59042309324494 
1484	 0.590408126246031 
1485	 0.590382873111863 
1486	 0.590348507048035 
1487	 0.59030806893543 
1488	 0.590249995432915 
1489	 0.59020827981228 
1490	 0.590156318000005 
1491	 0.590129543547294 
1492	 0.590121178844626 
1493	 0.590119681841925 
1494	 0.59013455679281 
1495	 0.590148884067356 
1496	 0.590176869665685 
1497	 0.590196038557683 
1498	 0.59020294540013 
1499	 0.590233740616954 
1500	 0.590257334716204 
1501	 0.590315165243089 
1502	 0.590412416283661 
1503	 0.590502320212213 
1504	 0.590616688885745 
1505	 0.590717179030529 
1506	 0.590796822031985 
1507	 0.590904682634254 
1508	 0.591015614454184 
1509	 0.591145695251849 
1510	 0.591309999702195 
1511	 0.591467027937128 
1512	 0.591643216896499 
1513	 0.591800316479152 
1514	 0.59195023544334 
1515	 0.592093909341725 
1516	 0.592228815067621 
1517	 0.592352453163127 
1518	 0.592451594513886 
1519	 0.592570305819539 
1520	 0.592686925677879 
1521	 0.592807633450867 
1522	 0.592952862144939 
1523	 0.59310847429673 
1524	 0.593260337698345 
1525	 0.593418061226755 
1526	 0.59356495127889 
1527	 0.593707846173738 
1528	 0.593859302440757 
1529	 0.594005243046674 
1530	 0.59416341004806 
1531	 0.594330677299954 
1532	 0.594505501545648 
1533	 0.594686255953413 
1534	 0.594869471457162 
1535	 0.595067507452588 
1536	 0.595250994014572 
1537	 0.595431107077489 
1538	 0.595605536654587 
1539	 0.595783838652893 
1540	 0.595933953165633 
1541	 0.596064059585218 
1542	 0.596201605291802 
1543	 0.596323595461369 
1544	 0.59644919626202 
1545	 0.596586580843507 
1546	 0.596702391107274 
1547	 0.596811540169328 
1548	 0.596895818738281 
1549	 0.596964441266628 
1550	 0.597021522869931 
1551	 0.597057483979992 
1552	 0.597082837954517 
1553	 0.597099556290594 
1554	 0.597101168023209 
1555	 0.59706906026675 
1556	 0.597062965587559 
1557	 0.597042860705626 
1558	 0.597061860009697 
1559	 0.597111303651634 
1560	 0.597156863941538 
1561	 0.597230286392732 
1562	 0.597285383127017 
1563	 0.597329033172899 
1564	 0.597383894780499 
1565	 0.597441539283054 
1566	 0.597499364007619 
1567	 0.597556023645683 
1568	 0.597626228688001 
1569	 0.597704432106145 
1570	 0.59778079528047 
1571	 0.597868133154591 
1572	 0.597953102399402 
1573	 0.598029985095034 
1574	 0.598116903031751 
1575	 0.598220655133972 
1576	 0.598308642420852 
1577	 0.598398211414607 
1578	 0.598474001712408 
1579	 0.598528425822116 
1580	 0.598595297780277 
1581	 0.598658028040558 
1582	 0.598726381541994 
1583	 0.598818376407013 
1584	 0.598878919724668 
1585	 0.598904239119552 
1586	 0.598965821863369 
1587	 0.599032751310942 
1588	 0.599096485513038 
1589	 0.599185705463876 
1590	 0.599265038026079 
1591	 0.599321607248195 
1592	 0.59939489348142 
1593	 0.599491234403338 
1594	 0.599572833415609 
1595	 0.599651121263408 
1596	 0.59972494310946 
1597	 0.599786948183186 
1598	 0.599856236684061 
1599	 0.599925234824922 
1600	 0.599996844682212 
1601	 0.600076529574347 
1602	 0.600150463377734 
1603	 0.600219932447042 
1604	 0.600293425749224 
1605	 0.60037802362995 
1606	 0.600440119631348 
1607	 0.600479670007314 
1608	 0.600541378874684 
1609	 0.600607199549033 
1610	 0.600662805098643 
1611	 0.600735513037101 
1612	 0.600791906593228 
1613	 0.600816616951804 
1614	 0.600856002685203 
1615	 0.600907780303323 
1616	 0.600950849425433 
1617	 0.600997578323714 
1618	 0.601030958106123 
1619	 0.601054439466099 
1620	 0.601071299888097 
1621	 0.601080763012859 
1622	 0.601079495968866 
1623	 0.601067473671717 
1624	 0.601053092320833 
1625	 0.601027024353692 
1626	 0.601000781790909 
1627	 0.60096478986173 
1628	 0.600939275635648 
1629	 0.600920332624972 
1630	 0.600897217795225 
1631	 0.600874610182293 
1632	 0.600857816965339 
1633	 0.600842217958886 
1634	 0.600824415505246 
1635	 0.600827068008448 
1636	 0.600803907769038 
1637	 0.600759502092261 
1638	 0.6007141474977 
1639	 0.60064877723001 
1640	 0.6005921752098 
1641	 0.600554041595053 
1642	 0.600487484713758 
1643	 0.600401263909407 
1644	 0.60032177477693 
1645	 0.600226608427533 
1646	 0.600133706747418 
1647	 0.600072249082666 
1648	 0.599960680354499 
1649	 0.599824098713166 
1650	 0.599666855476632 
1651	 0.59947920346001 
1652	 0.599270725583446 
1653	 0.599043546666405 
1654	 0.598791552314704 
1655	 0.598491181515742 
1656	 0.598204147851315 
1657	 0.597930918930757 
1658	 0.59760962088545 
1659	 0.59727945937065 
1660	 0.596911689185808 
1661	 0.59651043528016 
1662	 0.596058778568033 
1663	 0.595574449915594 
1664	 0.595042159777167 
1665	 0.594452536278289 
1666	 0.593818470653218 
1667	 0.593139361860181 
1668	 0.592436642367779 
1669	 0.591689211926319 
1670	 0.590910874531951 
1671	 0.590102000865652 
1672	 0.589254204035136 
1673	 0.588375305391382 
1674	 0.587441480891393 
1675	 0.586475169219905 
1676	 0.585469014919488 
1677	 0.584406962555055 
1678	 0.583306514936023 
1679	 0.582152921241507 
1680	 0.580978314444829 
1681	 0.579769746936169 
1682	 0.578512138000944 
1683	 0.577221061704807 
1684	 0.575924476797426 
1685	 0.574580088740855 
1686	 0.573227334691886 
1687	 0.571849798757238 
1688	 0.570470898162875 
1689	 0.569082169237729 
1690	 0.567652728107598 
1691	 0.566227929077693 
1692	 0.564786781552111 
1693	 0.563307250528688 
1694	 0.561809485490585 
1695	 0.560313054755247 
1696	 0.558741709499531 
1697	 0.55711499857673 
1698	 0.55543993012337 
1699	 0.553726650499643 
1700	 0.551998828091952 
1701	 0.550188979782611 
1702	 0.54846049137595 
1703	 0.546694152748182 
1704	 0.545052291377142 
1705	 0.543466065127319 
1706	 0.54194020452096 
1707	 0.540599955541354 
1708	 0.539303919491333 
1709	 0.538077454255139 
1710	 0.536948856633545 
1711	 0.535785584935817 
1712	 0.53469849134018 
1713	 0.533636349619615 
1714	 0.532550006977903 
1715	 0.531564249785077 
1716	 0.530565423083378 
1717	 0.529585983393024 
1718	 0.528707028709807 
1719	 0.527859420558614 
1720	 0.527054335744302 
1721	 0.526335799774172 
1722	 0.525730739086148 
1723	 0.525256205797156 
1724	 0.524946433663933 
1725	 0.524804871532166 
1726	 0.524833937561454 
1727	 0.525073168441335 
1728	 0.525505142849234 
1729	 0.526142006114066 
1730	 0.526957074235012 
1731	 0.527832613082834 
1732	 0.528839790193167 
1733	 0.529896488290213 
1734	 0.530977194443117 
1735	 0.532085512703202 
1736	 0.533099834659863 
1737	 0.534033781491823 
1738	 0.534840472882695 
1739	 0.535478075908834 
1740	 0.535968308958937 
1741	 0.53634483153055 
1742	 0.536559549794547 
1743	 0.536687393723002 
1744	 0.536680622601426 
1745	 0.536621393885732 
1746	 0.536423257604841 
1747	 0.536255559901353 
1748	 0.536040593620796 
1749	 0.535823647388356 
1750	 0.535574642763554 
1751	 0.535378070905167 
1752	 0.535166737344077 
1753	 0.535027453628061 
1754	 0.534925055924389 
1755	 0.534908108320111 
1756	 0.534927230470646 
1757	 0.535069987829594 
1758	 0.53531029593616 
1759	 0.535629562192802 
1760	 0.536047973463678 
1761	 0.536586697116912 
1762	 0.537218318792933 
1763	 0.537970347271067 
1764	 0.538817458335107 
1765	 0.539732944191862 
1766	 0.540721680629665 
1767	 0.541710383581786 
1768	 0.542749369477495 
1769	 0.543803478777209 
1770	 0.544804362882229 
1771	 0.545818211154626 
1772	 0.546749206497887 
1773	 0.547605697760402 
1774	 0.548456069843459 
1775	 0.549208357565836 
1776	 0.549920638685776 
1777	 0.550567140831086 
1778	 0.551116192146899 
1779	 0.551645676063561 
1780	 0.55210461464653 
1781	 0.552507192150261 
1782	 0.55287424949281 
1783	 0.553167746034958 
1784	 0.553419969360915 
1785	 0.553615046379462 
1786	 0.553817878243172 
1787	 0.554006451202543 
1788	 0.554143738102326 
1789	 0.554252325677248 
1790	 0.55435466972498 
1791	 0.55439123368724 
1792	 0.554491888988545 
1793	 0.55463376105913 
1794	 0.554748462777523 
1795	 0.554855094229369 
1796	 0.554933762690541 
1797	 0.55503397506581 
1798	 0.555145507495366 
1799	 0.555250800396261 
1800	 0.55539406860658 
1801	 0.557573859610064 
1802	 0.557695630485987 
1803	 0.5578250093362 
1804	 0.557955879925785 
1805	 0.558092551789136 
1806	 0.558232757752493 
1807	 0.558396948215039 
1808	 0.558533423695268 
1809	 0.558649451689639 
1810	 0.55878224780562 
1811	 0.558905018638717 
1812	 0.559040066488593 
1813	 0.559167478405148 
1814	 0.559355085607034 
1815	 0.559511675567574 
1816	 0.559665051394448 
1817	 0.5598380447611 
1818	 0.560023212516818 
1819	 0.560191259357853 
1820	 0.560379232943449 
1821	 0.560549240611808 
1822	 0.56068890025552 
1823	 0.560849607597119 
1824	 0.561028799057909 
1825	 0.561201290601028 
1826	 0.561376894668936 
1827	 0.561558618439095 
1828	 0.561747723251165 
1829	 0.561942576631075 
1830	 0.562124898041006 
1831	 0.562307287164542 
1832	 0.56250276657174 
1833	 0.562670718453505 
1834	 0.562847048232777 
1835	 0.563037482392411 
1836	 0.563224103770575 
1837	 0.563428150551531 
1838	 0.563648609830875 
1839	 0.563862304040906 
1840	 0.564093591971454 
1841	 0.564304696778632 
1842	 0.564508781783312 
1843	 0.564710568664997 
1844	 0.564883749023722 
1845	 0.565037388752144 
1846	 0.565210896356385 
1847	 0.565369092295861 
1848	 0.565514381211277 
1849	 0.565661580828612 
1850	 0.565803692104622 
1851	 0.565948386950107 
1852	 0.566042191047679 
1853	 0.566119860713467 
1854	 0.566198337465558 
1855	 0.56621080607388 
1856	 0.566187567230364 
1857	 0.566183626910208 
1858	 0.566150291326144 
1859	 0.566088630019536 
1860	 0.566020378598752 
1861	 0.565908386859263 
1862	 0.565765453357594 
1863	 0.565580818942814 
1864	 0.565364948765625 
1865	 0.565118476383665 
1866	 0.564837751730116 
1867	 0.564513030633515 
1868	 0.564150248775816 
1869	 0.563726304979319 
1870	 0.563272353359981 
1871	 0.56278541811357 
1872	 0.562259076984907 
1873	 0.561689987627808 
1874	 0.561108867047562 
1875	 0.560490819637647 
1876	 0.559770293361708 
1877	 0.559037782038687 
1878	 0.558218849971947 
1879	 0.55728998153431 
1880	 0.556350102749855 
1881	 0.555308511186867 
1882	 0.554174573456125 
1883	 0.552975127518211 
1884	 0.551679373025793 
1885	 0.550202509518019 
1886	 0.548687567325152 
1887	 0.54704159567087 
1888	 0.545251705231629 
1889	 0.543524918706381 
1890	 0.541662570101686 
1891	 0.539743350908458 
1892	 0.537819082043254 
1893	 0.535809812083724 
1894	 0.53368309971257 
1895	 0.531608972112605 
1896	 0.529478379850261 
1897	 0.52733261917714 
1898	 0.525355580663108 
1899	 0.52330353334356 
1900	 0.521294106083345 
1901	 0.519356164262711 
1902	 0.517288226096739 
1903	 0.515344484160176 
1904	 0.513453617155094 
1905	 0.511594609101609 
1906	 0.509769206604441 
1907	 0.508144496616382 
1908	 0.506522637397636 
1909	 0.504964721892838 
1910	 0.503498897769382 
1911	 0.501995517140542 
1912	 0.500585910836439 
1913	 0.499209243906191 
1914	 0.49785183731083 
1915	 0.496594318672278 
1916	 0.495445093532445 
1917	 0.49428458597947 
1918	 0.49318662483799 
1919	 0.492177063877231 
1920	 0.491154505240558 
1921	 0.49020133078255 
1922	 0.489263252935843 
1923	 0.488361488795291 
1924	 0.48757899220997 
1925	 0.486798452909587 
1926	 0.486083604870001 
1927	 0.485454536858953 
1928	 0.484846506625651 
1929	 0.484248973757535 
1930	 0.483750313859883 
1931	 0.483315903590914 
1932	 0.482912717082254 
1933	 0.482605068930595 
1934	 0.482337415860734 
1935	 0.482079309051404 
1936	 0.48185871211419 
1937	 0.481696433967583 
1938	 0.481564625689373 
1939	 0.481496502788742 
1940	 0.48148286511427 
1941	 0.481544056660128 
1942	 0.481644819805625 
1943	 0.481769984359402 
1944	 0.481934708529305 
1945	 0.482155590637601 
1946	 0.482416854305834 
1947	 0.482707103957432 
1948	 0.483064907448402 
1949	 0.483446301919461 
1950	 0.483813695273658 
1951	 0.484197274494384 
1952	 0.484585660906973 
1953	 0.484973536882712 
1954	 0.485342902536862 
1955	 0.485775020232877 
1956	 0.486206916331451 
1957	 0.486658445403411 
1958	 0.487156322964735 
1959	 0.487620993177488 
1960	 0.488090776835036 
1961	 0.488558118195476 
1962	 0.489011142341766 
1963	 0.489472808568185 
1964	 0.489933334478617 
1965	 0.490405916721391 
1966	 0.490881220443162 
1967	 0.491382431618256 
1968	 0.49186384994141 
1969	 0.492367962905679 
1970	 0.492865595346422 
1971	 0.493348390095777 
1972	 0.493870209515303 
1973	 0.494378092053586 
1974	 0.494886234209219 
1975	 0.495412652114604 
1976	 0.495911905409789 
1977	 0.496397237351994 
1978	 0.496876506870755 
1979	 0.497338118861678 
1980	 0.49779173994659 
1981	 0.498276257419013 
1982	 0.498732494911837 
1983	 0.499195935397559 
1984	 0.499665010500347 
1985	 0.50008851093787 
1986	 0.500530325525581 
1987	 0.500974040801044 
1988	 0.501412292226382 
1989	 0.501862803174761 
1990	 0.502335062111546 
1991	 0.502779719645874 
1992	 0.503217821521509 
1993	 0.503671838439299 
1994	 0.504062431265127 
1995	 0.504457854436083 
1996	 0.504864556509442 
1997	 0.50522084659457 
1998	 0.505595796709026 
1999	 0.505981951569939 
2000	 0.506341555899604 
2001	 0.506695478212416 
2002	 0.507028742157966 
2003	 0.507338992749638 
2004	 0.507653294064058 
2005	 0.507946954310161 
2006	 0.50824519121691 
2007	 0.508566201062222 
2008	 0.508837053002265 
2009	 0.509098995146028 
2010	 0.509362631168781 
2011	 0.509572033790906 
2012	 0.509760571411561 
2013	 0.509942029840124 
2014	 0.510114739006228 
2015	 0.510252369361807 
2016	 0.510382607230772 
2017	 0.510468419370351 
2018	 0.510521161346781 
2019	 0.510529809104137 
2020	 0.510498221860309 
2021	 0.510438841697131 
2022	 0.510346242191593 
2023	 0.510197608069718 
2024	 0.510009932318268 
2025	 0.509805659759374 
2026	 0.50956931311475 
2027	 0.509280398261938 
2028	 0.509004327172511 
2029	 0.508709135944024 
2030	 0.508405955629289 
2031	 0.508097019541435 
2032	 0.507771967948336 
2033	 0.507393241812608 
2034	 0.50707608563552 
2035	 0.506772154576353 
2036	 0.506478215649616 
2037	 0.506222857127399 
2038	 0.506022893623834 
2039	 0.505853459782035 
2040	 0.505700666331938 
2041	 0.505608664380237 
2042	 0.505576434958235 
2043	 0.505573285039403 
2044	 0.505625327814769 
2045	 0.505681865484511 
2046	 0.505768627917158 
2047	 0.50587976996568 
2048	 0.505992791949532 
2049	 0.506154764470724 
2050	 0.506370569599964 
2051	 0.506594837674549 
2052	 0.5068481037719 
2053	 0.507162608405168 
2054	 0.507467370315263 
2055	 0.507789779685368 
2056	 0.508134987583946 
2057	 0.508497510810219 
2058	 0.50887090110841 
2059	 0.509271145473948 
2060	 0.509675138212683 
2061	 0.510111359470333 
2062	 0.510512942434148 
2063	 0.510928490272365 
2064	 0.51131231652154 
2065	 0.511659888391571 
2066	 0.511984086488173 
2067	 0.512369523138061 
2068	 0.512707512885474 
2069	 0.513045504083401 
2070	 0.513396867126684 
2071	 0.513727024932203 
2072	 0.514021898078354 
2073	 0.514335275269682 
2074	 0.514665067237434 
2075	 0.514970449015762 
2076	 0.515264149335033 
2077	 0.515543223125974 
2078	 0.515825135573302 
2079	 0.516070289301641 
2080	 0.516283330957593 
2081	 0.516492033000264 
2082	 0.51667402900923 
2083	 0.516842779310878 
2084	 0.517026357654433 
2085	 0.517190945446701 
2086	 0.517348960751716 
2087	 0.517512910935475 
2088	 0.517637625186615 
2089	 0.517746495681871 
2090	 0.517823824277283 
2091	 0.517860620626055 
2092	 0.517890742647779 
2093	 0.517890435868168 
2094	 0.517897470242746 
2095	 0.517874359052704 
2096	 0.51788245080242 
2097	 0.517911374124518 
2098	 0.51793515539324 
2099	 0.51793910186524 
2100	 0.517969634487012 
2101	 0.517940659455474 
2102	 0.517860882827108 
2103	 0.517791790343837 
2104	 0.517707758966925 
2105	 0.51761653633427 
2106	 0.51750637218646 
2107	 0.517416595006121 
2108	 0.517338206646525 
2109	 0.517228689789391 
2110	 0.517133830350152 
2111	 0.516999586529489 
2112	 0.516812099507775 
2113	 0.516636487519296 
2114	 0.516465300830892 
2115	 0.516262230891522 
2116	 0.516037635853058 
2117	 0.515804026690217 
2118	 0.515571980772806 
2119	 0.515314913134834 
2120	 0.515073976808018 
2121	 0.514837525305975 
2122	 0.514613075719403 
2123	 0.514385648546515 
2124	 0.51416852868829 
2125	 0.513967779087493 
2126	 0.513776822012735 
2127	 0.513584153986202 
2128	 0.513410028635127 
2129	 0.513283907404326 
2130	 0.513113771804458 
2131	 0.512932615692235 
2132	 0.512745273423092 
2133	 0.512559620652446 
2134	 0.51232505743063 
2135	 0.512079005826645 
2136	 0.511831165391829 
2137	 0.511523101185383 
2138	 0.511155696218065 
2139	 0.510798589711137 
2140	 0.510413379437516 
2141	 0.510019015899523 
2142	 0.509608716468212 
2143	 0.509196503040495 
2144	 0.50876670841661 
2145	 0.508338131287009 
2146	 0.507900837429632 
2147	 0.507473896798729 
2148	 0.507035915902484 
2149	 0.506615156938806 
2150	 0.506235794991383 
2151	 0.505816590615917 
2152	 0.505376964902958 
2153	 0.50494784777438 
2154	 0.504498260230014 
2155	 0.504026874514374 
2156	 0.503560021224969 
2157	 0.503096433145737 
2158	 0.502619100595554 
2159	 0.502144632476628 
2160	 0.501623965412244 
2161	 0.501087028990574 
2162	 0.500529346993817 
2163	 0.499904973485269 
2164	 0.499327717643106 
2165	 0.498747765045352 
2166	 0.498193999129827 
2167	 0.497661935204532 
2168	 0.497139258964695 
2169	 0.49660831082012 
2170	 0.496133934001629 
2171	 0.495681492809057 
2172	 0.49527136022111 
2173	 0.494914938190682 
2174	 0.494582044182515 
2175	 0.494290941770084 
2176	 0.494025276492203 
2177	 0.493809268730487 
2178	 0.493649398666104 
2179	 0.493493574866092 
2180	 0.493377148163646 
2181	 0.493263534792126 
2182	 0.493167586807407 
2183	 0.493080987756727 
2184	 0.493003888747507 
2185	 0.492949855823547 
2186	 0.492926201825088 
2187	 0.49288531393106 
2188	 0.492854519272113 
2189	 0.492828149417989 
2190	 0.492785108482846 
2191	 0.492767384582368 
2192	 0.492809449513685 
2193	 0.492793065118893 
2194	 0.492740371109388 
2195	 0.49270065594658 
2196	 0.492641671112211 
2197	 0.492563501035753 
2198	 0.492519838305547 
2199	 0.492527555562778 
2200	 0.492497152987199 
2201	 0.492476194965404 
2202	 0.492419078703079 
2203	 0.492334771757994 
2204	 0.492260126124748 
2205	 0.492160802983734 
2206	 0.49208036820593 
2207	 0.492029036561937 
2208	 0.491928725448226 
2209	 0.49180860140776 
2210	 0.49169254113951 
2211	 0.491548637262656 
2212	 0.491414206730492 
2213	 0.491301513095633 
2214	 0.491153070598644 
2215	 0.49099365848664 
2216	 0.490802669936226 
2217	 0.490591575456481 
2218	 0.490355832112229 
2219	 0.490087348340664 
2220	 0.48980329426377 
2221	 0.489499408313581 
2222	 0.489171500182988 
2223	 0.488836805935898 
2224	 0.48844433520097 
2225	 0.488046190434538 
2226	 0.487621863524619 
2227	 0.487121397681774 
2228	 0.486574162528281 
2229	 0.485986943434961 
2230	 0.485335261591291 
2231	 0.484635581759754 
2232	 0.483922378438562 
2233	 0.483086718644788 
2234	 0.482186473401556 
2235	 0.481171102513494 
2236	 0.480048186628195 
2237	 0.478853421757551 
2238	 0.477522800744702 
2239	 0.476174813187473 
2240	 0.474792622059469 
2241	 0.473292701485698 
2242	 0.471761280299416 
2243	 0.470079004676829 
2244	 0.468211998993846 
2245	 0.466340924120116 
2246	 0.464319528366758 
2247	 0.462332878542857 
2248	 0.460377697549134 
2249	 0.4583274563945 
2250	 0.456214820824876 
2251	 0.45412032546505 
2252	 0.451843822802129 
2253	 0.449617477298003 
2254	 0.447371991865255 
2255	 0.445082785611088 
2256	 0.442993006405426 
2257	 0.440921720951001 
2258	 0.438904993233352 
2259	 0.437023460260402 
2260	 0.435055147894082 
2261	 0.433056154220414 
2262	 0.431128399732381 
2263	 0.429175750795173 
2264	 0.427334467192339 
2265	 0.425602873101102 
2266	 0.423817145111443 
2267	 0.422096823587041 
2268	 0.420331356112237 
2269	 0.418510641167422 
2270	 0.416756239567188 
2271	 0.414980308938886 
2272	 0.413282275166956 
2273	 0.411668292734237 
2274	 0.410034164412887 
2275	 0.408521367195277 
2276	 0.406867845559814 
2277	 0.405141247426997 
2278	 0.403401160079643 
2279	 0.401542752742895 
2280	 0.399723717241264 
2281	 0.397940013720389 
2282	 0.396104417021129 
2283	 0.394246714582071 
2284	 0.392406260611261 
2285	 0.390383290172721 
2286	 0.388380596421878 
2287	 0.386295063273344 
2288	 0.384122941559015 
2289	 0.382074930389026 
2290	 0.37991114934185 
2291	 0.377717444251203 
2292	 0.375463786902966 
2293	 0.373038147950353 
2294	 0.370661307070005 
2295	 0.368258135160306 
2296	 0.365919841660056 
2297	 0.363866793354859 
2298	 0.361958489768682 
2299	 0.360281223267413 
2300	 0.358850930799149 
2301	 0.357621603535281 
2302	 0.356498055328602 
2303	 0.355865227293723 
2304	 0.35554638447281 
2305	 0.355606584184824 
2306	 0.356122202146113 
2307	 0.35688703063031 
2308	 0.357968952430454 
2309	 0.359402689537245 
2310	 0.361299638535187 
2311	 0.363287928537658 
2312	 0.365756971583549 
2313	 0.368057679833312 
2314	 0.370526032112277 
2315	 0.372824622457662 
2316	 0.375120094905274 
2317	 0.377209025843661 
2318	 0.379278875859841 
2319	 0.380988211952579 
2320	 0.382463064020449 
2321	 0.38370031180637 
2322	 0.384576024558982 
2323	 0.385341080083194 
2324	 0.385914676676774 
2325	 0.386302274771958 
2326	 0.386469534587074 
2327	 0.386494306703719 
2328	 0.386326888972927 
2329	 0.386003065516884 
2330	 0.385496681127741 
2331	 0.38483656648902 
2332	 0.384073861727329 
2333	 0.383103103881465 
2334	 0.381939219524827 
2335	 0.380679507151916 
2336	 0.379125872349922 
2337	 0.377410027217663 
2338	 0.375842735657771 
2339	 0.3740899113539 
2340	 0.37236325344034 
2341	 0.370822946741713 
2342	 0.369201086404383 
2343	 0.367822560929214 
2344	 0.366812947166406 
2345	 0.366040908547855 
2346	 0.365651123035662 
2347	 0.365698731012869 
2348	 0.366033824771769 
2349	 0.366848890982516 
2350	 0.368089604181033 
2351	 0.369578759828368 
2352	 0.371246232618362 
2353	 0.373068794405475 
2354	 0.374795367859572 
2355	 0.376442893967968 
2356	 0.378071094985919 
2357	 0.379460652439912 
2358	 0.380713343240844 
2359	 0.381690005219228 
2360	 0.382412755403284 
2361	 0.382922346936121 
2362	 0.383174431544047 
2363	 0.383340159328262 
2364	 0.383494996305567 
2365	 0.383588281038624 
2366	 0.383705834336274 
2367	 0.383848761702155 
2368	 0.383819062123878 
2369	 0.383708220614693 
2370	 0.383688328219472 
2371	 0.383670121047992 
2372	 0.383716384969786 
2373	 0.383880830053059 
2374	 0.383919084351174 
2375	 0.383894673234279 
2376	 0.383983714253254 
2377	 0.384106391755371 
2378	 0.384282137872079 
2379	 0.384462620300365 
2380	 0.384594543632656 
2381	 0.384747956039748 
2382	 0.384902160439651 
2383	 0.385059709434153 
2384	 0.385219510538692 
2385	 0.385382867241294 
2386	 0.385593606235504 
2387	 0.385830716936848 
2388	 0.386052380966749 
2389	 0.38629655291698 
2390	 0.386524118002511 
2391	 0.386751349993366 
2392	 0.38695222581728 
2393	 0.387164944935572 
2394	 0.387302389701811 
2395	 0.387382552530613 
2396	 0.387440658088457 
2397	 0.387412545654112 
2398	 0.387506473158911 
2399	 0.387615536925722 
2400	 0.387716282063738 
2401	 0.387933756049815 
2402	 0.388006034151356 
2403	 0.388054565040716 
2404	 0.388110406391289 
2405	 0.38814336588643 
2406	 0.388223055342287 
2407	 0.388293489232559 
2408	 0.388361548323105 
2409	 0.388544180205019 
2410	 0.388756209586462 
2411	 0.388894741501177 
2412	 0.389050987329657 
2413	 0.389154397758134 
2414	 0.389257285512421 
2415	 0.389397222562164 
2416	 0.389377818823498 
2417	 0.389378341899029 
2418	 0.389427750374741 
2419	 0.389452591176843 
2420	 0.389702382043608 
2421	 0.389964654675197 
2422	 0.390036510261844 
2423	 0.390064739766066 
2424	 0.38995260683487 
2425	 0.389837649603723 
2426	 0.389815381094636 
2427	 0.389807972227843 
2428	 0.389900679312867 
2429	 0.389888964654688 
2430	 0.38994255694456 
2431	 0.390115292597599 
2432	 0.39010028411172 
2433	 0.390024299322316 
2434	 0.389834038990603 
2435	 0.389594552691123 
2436	 0.38949177652207 
2437	 0.389556184900716 
2438	 0.389562962632533 
2439	 0.389303337309842 
2440	 0.388998192292467 
2441	 0.388725363651351 
2442	 0.388533742589216 
2443	 0.38838415870809 
2444	 0.388168985363182 
2445	 0.387877752813087 
2446	 0.387454756644538 
2447	 0.387058163690243 
2448	 0.386795252273912 
2449	 0.386389703667462 
2450	 0.38588254175264 
2451	 0.385488322882435 
2452	 0.384896335632343 
2453	 0.384351386593936 
2454	 0.38400645919743 
2455	 0.383500353726188 
2456	 0.383278349168039 
2457	 0.383099102368132 
2458	 0.382774545321677 
2459	 0.382596713058486 
2460	 0.382125537928038 
2461	 0.381621065392886 
2462	 0.38128927787058 
2463	 0.380931200404653 
2464	 0.380656468614589 
2465	 0.380521567898883 
2466	 0.380277424776863 
2467	 0.379789834541408 
2468	 0.379617759234144 
2469	 0.379550214190342 
2470	 0.379300673162904 
2471	 0.379421647997134 
2472	 0.379571350371343 
2473	 0.379543843457398 
2474	 0.379508272818156 
2475	 0.379333372798379 
2476	 0.379242669088701 
2477	 0.379159972086136 
2478	 0.379166776552936 
2479	 0.37955135014448 
2480	 0.379749655750695 
2481	 0.379733806445938 
2482	 0.379622349060101 
2483	 0.379402300303915 
2484	 0.379320483359234 
2485	 0.379311230445358 
2486	 0.379268458089694 
2487	 0.379498608848097 
2488	 0.379833311989539 
2489	 0.380070538416547 
2490	 0.380375121606212 
2491	 0.38040036914908 
2492	 0.380363716147955 
2493	 0.380410747400192 
2494	 0.380583182959376 
2495	 0.381124236102118 
2496	 0.381471260925308 
2497	 0.381826231605959 
2498	 0.38234401552268 
2499	 0.382836354366399 
2500	 0.383661846669386 
