Wavelength	spectrum00023.asd
350	 8.59365415184543E-02 
351	 8.27730661028088E-02 
352	 7.99898846366748E-02 
353	 7.80254317118284E-02 
354	 7.83884857124427E-02 
355	 7.68057793324629E-02 
356	 7.40727522058812E-02 
357	 7.14552168425994E-02 
358	 6.75834054781586E-02 
359	 6.52772555105265E-02 
360	 6.49195801210981E-02 
361	 0.065314140237798 
362	 6.46933588703272E-02 
363	 6.33062641900637E-02 
364	 6.19463406082018E-02 
365	 6.17590363997502E-02 
366	 6.17626342501353E-02 
367	 6.16506693122542E-02 
368	 0.061280432393555 
369	 6.04007830677959E-02 
370	 5.99293052524188E-02 
371	 5.94013841236349E-02 
372	 5.79106323788722E-02 
373	 5.81183888349143E-02 
374	 5.84523579015676E-02 
375	 5.79180058651278E-02 
376	 5.69790636449356E-02 
377	 5.73044453312833E-02 
378	 5.75809042366932E-02 
379	 5.66324358041794E-02 
380	 5.66878247526568E-02 
381	 5.66070405911571E-02 
382	 5.59589827086611E-02 
383	 5.49406531269667E-02 
384	 5.48783268283845E-02 
385	 5.54081748622456E-02 
386	 5.57006719340865E-02 
387	 5.45510640095744E-02 
388	 0.053853082679411 
389	 5.35223397326782E-02 
390	 5.30901199596158E-02 
391	 5.29232772512793E-02 
392	 5.23950556393574E-02 
393	 5.18713112054029E-02 
394	 5.21966168318045E-02 
395	 5.18562757424403E-02 
396	 5.14711997093371E-02 
397	 5.13901395245515E-02 
398	 5.10554755378192E-02 
399	 5.06404571231762E-02 
400	 5.01935606290332E-02 
401	 0.049749034800154 
402	 4.93325104289736E-02 
403	 4.94478054191554E-02 
404	 4.96384216183223E-02 
405	 4.88849509942499E-02 
406	 4.87540883404434E-02 
407	 0.048424474412769 
408	 4.75747438294422E-02 
409	 4.75690046556038E-02 
410	 4.71595221820309E-02 
411	 4.68287151379552E-02 
412	 4.72634827158411E-02 
413	 4.72928437603621E-02 
414	 4.71028012208286E-02 
415	 4.67983369504934E-02 
416	 0.046363147353853 
417	 0.046324682690318 
418	 0.046481838326014 
419	 4.65756906194693E-02 
420	 4.65617445067771E-02 
421	 4.63340244300434E-02 
422	 4.61793107544915E-02 
423	 0.046418081888508 
424	 0.046506360288973 
425	 4.64251646843236E-02 
426	 4.63083108404511E-02 
427	 4.64029491306588E-02 
428	 4.62348418434793E-02 
429	 4.61997647322934E-02 
430	 4.65653084530556E-02 
431	 0.046630948347412 
432	 4.66908085707003E-02 
433	 4.67679802277993E-02 
434	 4.67663351336821E-02 
435	 4.69853827628562E-02 
436	 4.72314885437674E-02 
437	 4.73560136426685E-02 
438	 0.047350213919208 
439	 4.75799034416982E-02 
440	 4.79194403103279E-02 
441	 4.81456387984997E-02 
442	 4.83069269606304E-02 
443	 4.85284806834244E-02 
444	 4.87889590054916E-02 
445	 4.89655855086065E-02 
446	 4.93232559221616E-02 
447	 4.95994455182351E-02 
448	 4.97248517089125E-02 
449	 5.02723126601543E-02 
450	 5.06525022011042E-02 
451	 5.09026788263855E-02 
452	 5.12666237607916E-02 
453	 5.16370135324709E-02 
454	 5.21121232673722E-02 
455	 5.26345468308771E-02 
456	 0.052975093699662 
457	 5.35078320887319E-02 
458	 5.40086399871407E-02 
459	 0.054342016958004 
460	 5.50658939297903E-02 
461	 5.56547853509831E-02 
462	 5.60573071853004E-02 
463	 5.65168397375856E-02 
464	 5.72864674428443E-02 
465	 5.80867460492029E-02 
466	 5.87259006887415E-02 
467	 5.92365667705061E-02 
468	 5.99373226606559E-02 
469	 6.07636397399463E-02 
470	 6.15792936659751E-02 
471	 6.25032123521568E-02 
472	 6.34022228863192E-02 
473	 6.42494981989977E-02 
474	 0.065115793995126 
475	 6.61240676357748E-02 
476	 6.71888186872051E-02 
477	 6.82332417980309E-02 
478	 6.92738820081478E-02 
479	 0.070365345161388 
480	 7.15655222005619E-02 
481	 7.28999390276682E-02 
482	 7.42252182650733E-02 
483	 7.55483690689694E-02 
484	 7.69112198039533E-02 
485	 7.83761722101396E-02 
486	 7.99718993171044E-02 
487	 8.15861672976822E-02 
488	 8.31360435692786E-02 
489	 8.47160489972617E-02 
490	 0.086444465862313 
491	 8.82744784787663E-02 
492	 9.00828799125181E-02 
493	 9.20560368554747E-02 
494	 9.40852332178559E-02 
495	 9.60896584990594E-02 
496	 9.80751638853856E-02 
497	 0.10026009127423 
498	 0.102560568009441 
499	 0.104837170073882 
500	 0.107215207348064 
501	 0.109596281209932 
502	 0.111973269324719 
503	 0.114428081880558 
504	 0.116987332969227 
505	 0.119610731364074 
506	 0.122283324839369 
507	 0.125102403617107 
508	 0.127837600253234 
509	 0.13052173209694 
510	 0.133306577311612 
511	 0.136265171397339 
512	 0.139248120572441 
513	 0.142197360905999 
514	 0.14520913200734 
515	 0.148167296388725 
516	 0.151157161630769 
517	 0.154262657911499 
518	 0.157369353903913 
519	 0.16048504045283 
520	 0.163623055892186 
521	 0.166793957649111 
522	 0.169969368793628 
523	 0.173131616796833 
524	 0.176280563476327 
525	 0.179451125667782 
526	 0.182616569563645 
527	 0.185792567442166 
528	 0.188988999010614 
529	 0.192086692674349 
530	 0.195183718593461 
531	 0.1983285303171 
532	 0.201495940112475 
533	 0.204608020323089 
534	 0.207700262462809 
535	 0.210813829943606 
536	 0.213937665850424 
537	 0.217056273225114 
538	 0.220142828970474 
539	 0.2231735481801 
540	 0.226171610815356 
541	 0.22915823326354 
542	 0.232131307401287 
543	 0.235051642527747 
544	 0.23792978994752 
545	 0.240770288962577 
546	 0.243581267955761 
547	 0.246394362963688 
548	 0.24917904284816 
549	 0.251943058730287 
550	 0.254722978557104 
551	 0.257412246528575 
552	 0.260092088141351 
553	 0.262818997057017 
554	 0.265487198797464 
555	 0.268148562334405 
556	 0.270826773501063 
557	 0.273523288069185 
558	 0.276195411113666 
559	 0.278824296471028 
560	 0.281399805392608 
561	 0.28392428717073 
562	 0.286386177628292 
563	 0.288797250359439 
564	 0.291174624607277 
565	 0.293522892437528 
566	 0.295836526190217 
567	 0.298145015968565 
568	 0.30049927256775 
569	 0.302891914817886 
570	 0.305234567953258 
571	 0.30749100693528 
572	 0.309750689711062 
573	 0.312013652409261 
574	 0.314242591577798 
575	 0.316398861702218 
576	 0.318544351264268 
577	 0.320621092020832 
578	 0.322651036315623 
579	 0.324749843814403 
580	 0.326827926888715 
581	 0.328880399427446 
582	 0.330922047976471 
583	 0.332950109013386 
584	 0.335036583562884 
585	 0.33715268203836 
586	 0.339223303123492 
587	 0.341335408057536 
588	 0.343437045156635 
589	 0.345518706286692 
590	 0.347668624077487 
591	 0.349740694166485 
592	 0.351741218658811 
593	 0.353705018241121 
594	 0.355582074545842 
595	 0.357378773118352 
596	 0.35916419632271 
597	 0.361041069476301 
598	 0.362847907077238 
599	 0.364680680752087 
600	 0.366607840693162 
601	 0.368514587218924 
602	 0.370371380080912 
603	 0.372216048650514 
604	 0.374101174660895 
605	 0.375954259949433 
606	 0.377802994508132 
607	 0.379658831874281 
608	 0.381501654712986 
609	 0.383230980663306 
610	 0.38494187388626 
611	 0.386723164926009 
612	 0.38844925740815 
613	 0.390167603845823 
614	 0.39188648529719 
615	 0.393588464448982 
616	 0.395211898491772 
617	 0.396841766918981 
618	 0.398524521804191 
619	 0.400217207722499 
620	 0.401808431321945 
621	 0.403387169349665 
622	 0.405064009886106 
623	 0.406698065375058 
624	 0.408232232663403 
625	 0.409722027145643 
626	 0.411317704427101 
627	 0.412896150141032 
628	 0.414440020101867 
629	 0.415956850305708 
630	 0.417460519409772 
631	 0.418949839335748 
632	 0.420462388437034 
633	 0.422023197975077 
634	 0.423476867503486 
635	 0.424892577333912 
636	 0.426329743899544 
637	 0.427801485743782 
638	 0.429252244851607 
639	 0.430666871192853 
640	 0.432055720248476 
641	 0.433477831393419 
642	 0.434877771020625 
643	 0.436268425118275 
644	 0.437695733077793 
645	 0.439062041898008 
646	 0.44039685251815 
647	 0.441729027600833 
648	 0.443062675414333 
649	 0.444365676195063 
650	 0.445639926798665 
651	 0.446913843018438 
652	 0.448280944743416 
653	 0.449625393453619 
654	 0.450916244825 
655	 0.452195608406849 
656	 0.453435248359693 
657	 0.454701012422996 
658	 0.456012229375945 
659	 0.45726211523117 
660	 0.458499995007831 
661	 0.45975842106606 
662	 0.461053859980102 
663	 0.462360439085173 
664	 0.463574921549893 
665	 0.464730058210221 
666	 0.46598906734112 
667	 0.467225913808503 
668	 0.46843108046221 
669	 0.469640091833606 
670	 0.470958026284482 
671	 0.472234659832573 
672	 0.473429918118586 
673	 0.474578548776027 
674	 0.475805486864764 
675	 0.476983268936094 
676	 0.47811768334242 
677	 0.47939568789457 
678	 0.4805964774908 
679	 0.481758698854323 
680	 0.482957986550252 
681	 0.484198555359853 
682	 0.485355672026596 
683	 0.486445199372054 
684	 0.487560764418153 
685	 0.488704095576405 
686	 0.489836279453538 
687	 0.490968606839842 
688	 0.492193240585856 
689	 0.49330375907958 
690	 0.494372002124732 
691	 0.495499957173916 
692	 0.496604062888657 
693	 0.497732770906639 
694	 0.498862334914427 
695	 0.499929716033807 
696	 0.500980093433962 
697	 0.502063050340662 
698	 0.50318024809768 
699	 0.504261912763651 
700	 0.505320544846587 
701	 0.506347726168833 
702	 0.507356297408749 
703	 0.508450105828179 
704	 0.509508485009685 
705	 0.510515243025566 
706	 0.511531886908091 
707	 0.512564005395277 
708	 0.513574484235418 
709	 0.514558177653561 
710	 0.515572198937534 
711	 0.516567210768095 
712	 0.517551885959496 
713	 0.518543659782052 
714	 0.519526453064398 
715	 0.520478497773737 
716	 0.521398599415876 
717	 0.522303379522516 
718	 0.523240452344782 
719	 0.524195758148338 
720	 0.525156455737418 
721	 0.526130537064408 
722	 0.527060372644841 
723	 0.527949233489212 
724	 0.528814288349367 
725	 0.529634573927013 
726	 0.530515686289648 
727	 0.531447222652091 
728	 0.532336621319533 
729	 0.533183673235227 
730	 0.534036725122876 
731	 0.534920469450187 
732	 0.535810966928718 
733	 0.536655986158601 
734	 0.537446206057648 
735	 0.538216805096739 
736	 0.539105015970118 
737	 0.539939465529789 
738	 0.540717361261016 
739	 0.541549735291034 
740	 0.54246526299323 
741	 0.543297014744911 
742	 0.544011536582837 
743	 0.544807967439608 
744	 0.545608570486534 
745	 0.546373867496284 
746	 0.547111443169208 
747	 0.547964864780277 
748	 0.548784458166341 
749	 0.549543120073482 
750	 0.550294252940063 
751	 0.551089314551017 
752	 0.551877333164039 
753	 0.552622481140286 
754	 0.553324129401633 
755	 0.554029905228536 
756	 0.554729691865744 
757	 0.55541159834442 
758	 0.556091305115828 
759	 0.556827816427994 
760	 0.557616240921976 
761	 0.558401338020275 
762	 0.559040862485701 
763	 0.559728116526203 
764	 0.560500230256171 
765	 0.561205620794692 
766	 0.561849291348586 
767	 0.562486263804013 
768	 0.563167967465116 
769	 0.563914302183613 
770	 0.564642409832553 
771	 0.565310863021775 
772	 0.565929012787043 
773	 0.566649897061943 
774	 0.567374128356849 
775	 0.568038995724987 
776	 0.568632409528253 
777	 0.569212414954366 
778	 0.569871686962053 
779	 0.570607484222396 
780	 0.571256869348542 
781	 0.57184274054098 
782	 0.572437001370161 
783	 0.573089049398741 
784	 0.573708277342601 
785	 0.574300836818118 
786	 0.57490041221492 
787	 0.575539261421781 
788	 0.576120053490131 
789	 0.576715950480296 
790	 0.577361792090854 
791	 0.578024737736829 
792	 0.578569200954843 
793	 0.57911181901846 
794	 0.579734073587023 
795	 0.580297173949274 
796	 0.580853875998945 
797	 0.581404250922579 
798	 0.581935561492103 
799	 0.582451546805241 
800	 0.583016913089736 
801	 0.583618409633435 
802	 0.584181041887899 
803	 0.584677781855859 
804	 0.58522314481491 
805	 0.585838695595496 
806	 0.586381975620849 
807	 0.586886889026887 
808	 0.587372010123691 
809	 0.587858487889891 
810	 0.588375702917043 
811	 0.588899836216126 
812	 0.589409777789419 
813	 0.58990293649738 
814	 0.590472107291649 
815	 0.591013990517705 
816	 0.591505505761386 
817	 0.592006167105742 
818	 0.592542896632473 
819	 0.593056337451136 
820	 0.593530005399444 
821	 0.59403977842612 
822	 0.594525449189941 
823	 0.594994352964604 
824	 0.595477078940234 
825	 0.596029481914477 
826	 0.59650276447796 
827	 0.596896401978752 
828	 0.597301678309761 
829	 0.597865891427147 
830	 0.598440060789991 
831	 0.598909090822689 
832	 0.599237350217733 
833	 0.599673178066655 
834	 0.60020957956227 
835	 0.600769126460111 
836	 0.601238968286906 
837	 0.601660684847312 
838	 0.602050028802407 
839	 0.602434794688605 
840	 0.602883759393869 
841	 0.603382591003222 
842	 0.603870383054569 
843	 0.604284560696454 
844	 0.60464882324048 
845	 0.60509306635673 
846	 0.605601024650056 
847	 0.606042127279827 
848	 0.606329521591366 
849	 0.60665707791374 
850	 0.607102069738365 
851	 0.60755078856331 
852	 0.607989831169198 
853	 0.608337263426715 
854	 0.608620875853824 
855	 0.609121674966156 
856	 0.609524654827977 
857	 0.609865961371918 
858	 0.610252367921165 
859	 0.610617734050664 
860	 0.610955891108576 
861	 0.611295185814834 
862	 0.611677150460912 
863	 0.612111957684328 
864	 0.612528726988685 
865	 0.612885432540076 
866	 0.613183891409395 
867	 0.613507429178224 
868	 0.613914836074299 
869	 0.614349986106115 
870	 0.614623399402791 
871	 0.61497192696057 
872	 0.615334305106881 
873	 0.615655599669465 
874	 0.616041700364774 
875	 0.616460580203382 
876	 0.616816030441 
877	 0.617063507357971 
878	 0.617400848887738 
879	 0.617759260332116 
880	 0.618090031359626 
881	 0.618370366442974 
882	 0.618659743931041 
883	 0.618921993305865 
884	 0.619180797712762 
885	 0.619503838516432 
886	 0.619900968179357 
887	 0.620254266885196 
888	 0.620524444003117 
889	 0.620785781664003 
890	 0.621187394489197 
891	 0.621497785852016 
892	 0.621644857096894 
893	 0.621938589087935 
894	 0.622190807312732 
895	 0.622395081457885 
896	 0.622593637141181 
897	 0.622834755539574 
898	 0.623083777632658 
899	 0.62332731455305 
900	 0.623553421598809 
901	 0.623721990082017 
902	 0.623939597353467 
903	 0.624193446060759 
904	 0.624413085463347 
905	 0.624586146370341 
906	 0.624796493296535 
907	 0.625041507084362 
908	 0.625252972717076 
909	 0.625408421710415 
910	 0.625607861817164 
911	 0.625862916203073 
912	 0.626084736814931 
913	 0.626240452676034 
914	 0.626441915915119 
915	 0.626713507983404 
916	 0.626936434700039 
917	 0.627227875421321 
918	 0.627451723421519 
919	 0.627572761086566 
920	 0.62782394768219 
921	 0.628116902288168 
922	 0.628418287953637 
923	 0.628713189055957 
924	 0.629009924745928 
925	 0.629247687552651 
926	 0.629459218560057 
927	 0.629699766621764 
928	 0.62998323503869 
929	 0.63025759853484 
930	 0.630546237195716 
931	 0.630893892390063 
932	 0.631294661012833 
933	 0.631643171802905 
934	 0.631965433564552 
935	 0.632331775073824 
936	 0.632612667754536 
937	 0.63288914643749 
938	 0.633218782595497 
939	 0.633610715424543 
940	 0.633946512181461 
941	 0.634314180853054 
942	 0.634680000997572 
943	 0.634914933643876 
944	 0.635126951727086 
945	 0.635332702437101 
946	 0.635568924656143 
947	 0.635879242446436 
948	 0.63605206393285 
949	 0.63621380263359 
950	 0.636445905235584 
951	 0.63670019529449 
952	 0.636900413437801 
953	 0.636972356308196 
954	 0.636957501439891 
955	 0.637046101895428 
956	 0.637169773707546 
957	 0.637379796515167 
958	 0.637640675542222 
959	 0.637748605436033 
960	 0.637745097643844 
961	 0.637830965562238 
962	 0.638048749032735 
963	 0.638066761065401 
964	 0.638015096682841 
965	 0.638035979510749 
966	 0.63818518391605 
967	 0.6383147205361 
968	 0.638510047764047 
969	 0.638647151445644 
970	 0.638658131751819 
971	 0.638745932493296 
972	 0.63897086080211 
973	 0.639130898804127 
974	 0.639118064423648 
975	 0.63932395213107 
976	 0.639453653499429 
977	 0.639600256731054 
978	 0.639863623296725 
979	 0.639975595122862 
980	 0.640173951396026 
981	 0.640407942385857 
982	 0.640559990959789 
983	 0.64061359168389 
984	 0.640866179102689 
985	 0.641136197834528 
986	 0.641225849549272 
987	 0.641492739535965 
988	 0.64175412335356 
989	 0.641980457437952 
990	 0.642173066759101 
991	 0.642235046867266 
992	 0.642401626566625 
993	 0.642640538139363 
994	 0.642841103093014 
995	 0.642995810780456 
996	 0.643303569715541 
997	 0.643603134564983 
998	 0.643711177732985 
999	 0.643819969259873 
1000	 0.644089171224985 
1001	 0.653078830686837 
1002	 0.653356806189804 
1003	 0.653616255761542 
1004	 0.653844889525901 
1005	 0.654037973167313 
1006	 0.654250310425979 
1007	 0.654453698303805 
1008	 0.654671601232273 
1009	 0.654888954547242 
1010	 0.655100471446859 
1011	 0.655326282609046 
1012	 0.655528370407752 
1013	 0.655697276271531 
1014	 0.655905697177081 
1015	 0.656130768191446 
1016	 0.656345207038834 
1017	 0.656576638908578 
1018	 0.656782066516821 
1019	 0.656990581758338 
1020	 0.657184303267225 
1021	 0.657372213518161 
1022	 0.657565806231372 
1023	 0.657754545437413 
1024	 0.657923444035265 
1025	 0.658102445411994 
1026	 0.658294725206908 
1027	 0.65845887325575 
1028	 0.658619701815023 
1029	 0.658764474406941 
1030	 0.65887966887812 
1031	 0.659011011302248 
1032	 0.659099967281818 
1033	 0.659196261562261 
1034	 0.65933123052143 
1035	 0.65944727866161 
1036	 0.659594798754988 
1037	 0.659807307832332 
1038	 0.659958673615655 
1039	 0.660094648917091 
1040	 0.660217169515276 
1041	 0.660293573202031 
1042	 0.660409651589468 
1043	 0.660517657531949 
1044	 0.660659836547144 
1045	 0.660871835448817 
1046	 0.661061768776002 
1047	 0.661223913863282 
1048	 0.661431098918445 
1049	 0.661612653526962 
1050	 0.661780308933654 
1051	 0.661970712228156 
1052	 0.662159364770307 
1053	 0.662370735113202 
1054	 0.662592056959883 
1055	 0.662812723726195 
1056	 0.663046781079069 
1057	 0.66329222001344 
1058	 0.663526338437558 
1059	 0.663799623301577 
1060	 0.664092880100346 
1061	 0.664337817900207 
1062	 0.664578338880922 
1063	 0.664818151035478 
1064	 0.665040855206172 
1065	 0.665317826627047 
1066	 0.66559047571704 
1067	 0.665841464578805 
1068	 0.666131098598787 
1069	 0.666388222989953 
1070	 0.666644996041996 
1071	 0.666903885882029 
1072	 0.667168141608105 
1073	 0.66740143832296 
1074	 0.667652428000625 
1075	 0.667900426975593 
1076	 0.668136535473062 
1077	 0.668365569681353 
1078	 0.668596879984835 
1079	 0.66885836334275 
1080	 0.669108472428303 
1081	 0.669354138674358 
1082	 0.669628164341937 
1083	 0.669860509737143 
1084	 0.670068792439236 
1085	 0.670311803523387 
1086	 0.670526624414613 
1087	 0.670714849911912 
1088	 0.67089422918029 
1089	 0.671106550020387 
1090	 0.671272628364795 
1091	 0.671441212637074 
1092	 0.67166330751237 
1093	 0.671872625029323 
1094	 0.672088226605091 
1095	 0.672263549177841 
1096	 0.672373821701622 
1097	 0.672465381886559 
1098	 0.6725294299737 
1099	 0.672634601472376 
1100	 0.672772243490247 
1101	 0.672883397485993 
1102	 0.67298743957645 
1103	 0.673075918411101 
1104	 0.673137487103446 
1105	 0.67319302240805 
1106	 0.673268127709171 
1107	 0.673343918855758 
1108	 0.673421915077688 
1109	 0.673477185668753 
1110	 0.673513810588081 
1111	 0.673554050777548 
1112	 0.673577804587049 
1113	 0.673593590051661 
1114	 0.673597462993042 
1115	 0.673577280166038 
1116	 0.673547159314572 
1117	 0.673517684044495 
1118	 0.673487121271957 
1119	 0.673468254667098 
1120	 0.673418578601208 
1121	 0.673360042795475 
1122	 0.673285431475686 
1123	 0.673181612248216 
1124	 0.673057112357674 
1125	 0.672926364819355 
1126	 0.672754556322288 
1127	 0.67254703837366 
1128	 0.672313787769159 
1129	 0.672053716275461 
1130	 0.671803828494609 
1131	 0.671529916557278 
1132	 0.671231885556152 
1133	 0.670928712087521 
1134	 0.670580667398136 
1135	 0.670213094800459 
1136	 0.669833450552165 
1137	 0.669423941938942 
1138	 0.6689734718966 
1139	 0.668513606462706 
1140	 0.668031412215996 
1141	 0.667542752007633 
1142	 0.667038061958741 
1143	 0.666536734528323 
1144	 0.66599561859196 
1145	 0.665414921086398 
1146	 0.664846421580785 
1147	 0.6642444536 
1148	 0.663632163059874 
1149	 0.663042348090126 
1150	 0.662430735883028 
1151	 0.661835664077956 
1152	 0.661218847418735 
1153	 0.660610083849282 
1154	 0.659964497187102 
1155	 0.659290043831694 
1156	 0.658604309078397 
1157	 0.657885642232716 
1158	 0.657195698863771 
1159	 0.65650726536052 
1160	 0.655810553293697 
1161	 0.655129738828544 
1162	 0.654447980485782 
1163	 0.653772737255517 
1164	 0.653078613131085 
1165	 0.652404399819135 
1166	 0.6517896672013 
1167	 0.651163842724989 
1168	 0.650553176716703 
1169	 0.649944704469362 
1170	 0.649338710948231 
1171	 0.648736401553348 
1172	 0.648149475581051 
1173	 0.647545971469778 
1174	 0.646956418954496 
1175	 0.646339801636299 
1176	 0.645698456248578 
1177	 0.645062203190941 
1178	 0.64443022813579 
1179	 0.643753431236403 
1180	 0.643101436601524 
1181	 0.642424275066086 
1182	 0.641698695676304 
1183	 0.641033642773069 
1184	 0.640371980413081 
1185	 0.639718885451913 
1186	 0.639128489648544 
1187	 0.638589764025392 
1188	 0.638067269752555 
1189	 0.637568841417129 
1190	 0.637119879634019 
1191	 0.636704724619411 
1192	 0.636336056522019 
1193	 0.636024107366723 
1194	 0.635727857389215 
1195	 0.635466040976788 
1196	 0.635223073456361 
1197	 0.635010448831298 
1198	 0.634818387775089 
1199	 0.634602689317551 
1200	 0.634409018901586 
1201	 0.634217043734576 
1202	 0.634042893933282 
1203	 0.633931659560589 
1204	 0.633858976555696 
1205	 0.633853773015257 
1206	 0.633883657566341 
1207	 0.634004016228648 
1208	 0.634184282970367 
1209	 0.634460426236709 
1210	 0.634794172682032 
1211	 0.635250218369806 
1212	 0.635812243600463 
1213	 0.636463492328394 
1214	 0.637218039019453 
1215	 0.638066550129362 
1216	 0.63903371728241 
1217	 0.640038357905114 
1218	 0.641153486279957 
1219	 0.64229297579753 
1220	 0.643430029785327 
1221	 0.644651489070076 
1222	 0.645832999049331 
1223	 0.647032519493583 
1224	 0.648188222346887 
1225	 0.649342826747184 
1226	 0.650419950710708 
1227	 0.65147258394154 
1228	 0.652443985906712 
1229	 0.65335920626851 
1230	 0.654213064080672 
1231	 0.654988191952837 
1232	 0.655737453211849 
1233	 0.656427408948794 
1234	 0.657078631898191 
1235	 0.657689015860857 
1236	 0.658265332401458 
1237	 0.658793742086152 
1238	 0.659293596856649 
1239	 0.659748790106964 
1240	 0.660186820573097 
1241	 0.660633161701398 
1242	 0.661027981026098 
1243	 0.661417758524229 
1244	 0.661809948749545 
1245	 0.662157789121084 
1246	 0.662471630157511 
1247	 0.662764226937067 
1248	 0.663033357495511 
1249	 0.663279381825677 
1250	 0.663480595864729 
1251	 0.663692379641501 
1252	 0.663898231885049 
1253	 0.664087128950308 
1254	 0.664285409401241 
1255	 0.66444006239824 
1256	 0.66455571622 
1257	 0.664665492254042 
1258	 0.664760362809304 
1259	 0.664825074218031 
1260	 0.664859108311337 
1261	 0.664895422292635 
1262	 0.664915983997183 
1263	 0.664901727786955 
1264	 0.664917751517517 
1265	 0.664946887685274 
1266	 0.664967091766006 
1267	 0.664984530671056 
1268	 0.665006928934913 
1269	 0.665031232851763 
1270	 0.66505368673701 
1271	 0.665084828092521 
1272	 0.665102360931186 
1273	 0.66509250365584 
1274	 0.665123044388939 
1275	 0.665164491486493 
1276	 0.665212237786796 
1277	 0.665293333234123 
1278	 0.665361841477005 
1279	 0.665410416521918 
1280	 0.665486072887118 
1281	 0.66557211365362 
1282	 0.665673105638756 
1283	 0.665802365143283 
1284	 0.665925564642574 
1285	 0.666052383296674 
1286	 0.666191461361209 
1287	 0.666311755933316 
1288	 0.666425627865045 
1289	 0.666538051831378 
1290	 0.666644110343796 
1291	 0.666747121449693 
1292	 0.666849212797266 
1293	 0.666944015570907 
1294	 0.667028973083044 
1295	 0.667117711849409 
1296	 0.667215576098073 
1297	 0.667288328008404 
1298	 0.667348132485258 
1299	 0.667406773346668 
1300	 0.667461360739869 
1301	 0.667492039481381 
1302	 0.66751601228718 
1303	 0.667525723826267 
1304	 0.667511951404376 
1305	 0.667486342133147 
1306	 0.667467811135506 
1307	 0.667413559697713 
1308	 0.667332993343096 
1309	 0.667228582624375 
1310	 0.66710943780907 
1311	 0.666960667201168 
1312	 0.666818279362913 
1313	 0.666678402009762 
1314	 0.666494528140206 
1315	 0.666288963695715 
1316	 0.666076716575996 
1317	 0.665830629564848 
1318	 0.665589310245788 
1319	 0.665357081186029 
1320	 0.665096100798013 
1321	 0.664825599293419 
1322	 0.664522768144095 
1323	 0.664199025017087 
1324	 0.663855766179567 
1325	 0.663481065432311 
1326	 0.66309586522401 
1327	 0.662721545005586 
1328	 0.662287587518241 
1329	 0.661814398566225 
1330	 0.66132236810493 
1331	 0.660777996075831 
1332	 0.66023212781759 
1333	 0.659694945194772 
1334	 0.65910582502829 
1335	 0.658520429759563 
1336	 0.65792179241587 
1337	 0.657302754904072 
1338	 0.656672649779255 
1339	 0.656018113983223 
1340	 0.655342369839856 
1341	 0.654651045815027 
1342	 0.65394062271927 
1343	 0.653212391231464 
1344	 0.652478004850316 
1345	 0.651699492448299 
1346	 0.650891887335588 
1347	 0.650066050450731 
1348	 0.64920102088682 
1349	 0.648330781552103 
1350	 0.647426226296016 
1351	 0.646543749015481 
1352	 0.645669377399711 
1353	 0.644770376365127 
1354	 0.643868742994019 
1355	 0.642964261343826 
1356	 0.642037225780153 
1357	 0.641107935214819 
1358	 0.640190063207261 
1359	 0.639252855895716 
1360	 0.638330121046125 
1361	 0.637344744824284 
1362	 0.636312219094135 
1363	 0.63531459335031 
1364	 0.6342495740217 
1365	 0.633160100596475 
1366	 0.631987345262916 
1367	 0.63078279030595 
1368	 0.629493525358493 
1369	 0.628134845961029 
1370	 0.626691829375667 
1371	 0.625201850659463 
1372	 0.623609235930721 
1373	 0.621919131656744 
1374	 0.620156038086162 
1375	 0.618293040047093 
1376	 0.616378767765297 
1377	 0.614401416689858 
1378	 0.612312978937892 
1379	 0.610142645380999 
1380	 0.607898969523584 
1381	 0.605559487953895 
1382	 0.60313589447422 
1383	 0.600611415394393 
1384	 0.598065645863265 
1385	 0.595439777985466 
1386	 0.592797461409527 
1387	 0.590124760489372 
1388	 0.587467021310816 
1389	 0.584783080880406 
1390	 0.582086645001664 
1391	 0.579465872419744 
1392	 0.576670814160428 
1393	 0.573967743841226 
1394	 0.571172538656012 
1395	 0.568317010465945 
1396	 0.565444761350178 
1397	 0.562484227498472 
1398	 0.559450587026119 
1399	 0.556317608230121 
1400	 0.553101075909618 
1401	 0.54983559478993 
1402	 0.546458155742264 
1403	 0.543064776402968 
1404	 0.539616378438736 
1405	 0.53621004328157 
1406	 0.532724063574234 
1407	 0.529346469602291 
1408	 0.525952592220397 
1409	 0.522732140774859 
1410	 0.519561953066581 
1411	 0.516559979826199 
1412	 0.513686302528219 
1413	 0.511003838398561 
1414	 0.508454072766135 
1415	 0.50607076371706 
1416	 0.50388416857154 
1417	 0.501809546552333 
1418	 0.499892513792743 
1419	 0.498066636483783 
1420	 0.49636913715831 
1421	 0.494787452953695 
1422	 0.493326285079673 
1423	 0.491942562492316 
1424	 0.490699751092363 
1425	 0.489474104521748 
1426	 0.488369268063008 
1427	 0.487362768617807 
1428	 0.486453537062299 
1429	 0.485688353845627 
1430	 0.484963543450663 
1431	 0.484321742163613 
1432	 0.483749259215144 
1433	 0.483250376291036 
1434	 0.48281974951558 
1435	 0.482468188484845 
1436	 0.482172492466674 
1437	 0.481948785479944 
1438	 0.481774444616512 
1439	 0.481664140377147 
1440	 0.481596676575535 
1441	 0.481591991169711 
1442	 0.481612535969957 
1443	 0.481685916921136 
1444	 0.481777103812558 
1445	 0.481903687272264 
1446	 0.482044942496136 
1447	 0.482210903584923 
1448	 0.482399062650849 
1449	 0.482616945513993 
1450	 0.482838948777799 
1451	 0.483085282684717 
1452	 0.483334185933654 
1453	 0.483610192374959 
1454	 0.483854121902468 
1455	 0.48408979316183 
1456	 0.484324268686852 
1457	 0.484523839177142 
1458	 0.484749059732135 
1459	 0.48499214996783 
1460	 0.485235862849663 
1461	 0.485474086395449 
1462	 0.485736138998108 
1463	 0.486005484962822 
1464	 0.486296774913827 
1465	 0.486608360613458 
1466	 0.486947647073783 
1467	 0.487283130400563 
1468	 0.487634297743324 
1469	 0.488011132571143 
1470	 0.48837131724847 
1471	 0.488745695437998 
1472	 0.489135737032529 
1473	 0.489517525467636 
1474	 0.489900432378517 
1475	 0.490278087982522 
1476	 0.490664098652127 
1477	 0.491023570837987 
1478	 0.491367773333337 
1479	 0.491704636447689 
1480	 0.492029973360638 
1481	 0.492342156240363 
1482	 0.492654665245341 
1483	 0.492932931572558 
1484	 0.493175323763841 
1485	 0.493430011727086 
1486	 0.493672261747204 
1487	 0.493905557695797 
1488	 0.49413605775547 
1489	 0.494364134345317 
1490	 0.494570762982483 
1491	 0.494793464995226 
1492	 0.495016319796363 
1493	 0.49526056592002 
1494	 0.495508984815357 
1495	 0.495776356642891 
1496	 0.496072730886493 
1497	 0.496365852528437 
1498	 0.496666608375322 
1499	 0.496973663713622 
1500	 0.497281570220037 
1501	 0.497607126593402 
1502	 0.497951516229555 
1503	 0.498290363313308 
1504	 0.498637334446301 
1505	 0.498986918762082 
1506	 0.499336325361663 
1507	 0.499688655956997 
1508	 0.500048829000527 
1509	 0.500409201648463 
1510	 0.50076816819324 
1511	 0.501127631620887 
1512	 0.501490657569159 
1513	 0.501854216313597 
1514	 0.502220250732305 
1515	 0.502582397493189 
1516	 0.502943663182522 
1517	 0.503305045491556 
1518	 0.503655543989531 
1519	 0.504016291274839 
1520	 0.504387941696653 
1521	 0.504757158577319 
1522	 0.505109540848655 
1523	 0.5054879106833 
1524	 0.505849753176076 
1525	 0.506203145912643 
1526	 0.506559677619721 
1527	 0.50692156884946 
1528	 0.507267203987216 
1529	 0.507607367794463 
1530	 0.507934841118946 
1531	 0.508247889359544 
1532	 0.508568757823564 
1533	 0.508880522909654 
1534	 0.509203169719812 
1535	 0.509531985198844 
1536	 0.509858671644719 
1537	 0.510197472565803 
1538	 0.510506188010025 
1539	 0.51080276792274 
1540	 0.511098416862604 
1541	 0.511370407392954 
1542	 0.511660425509131 
1543	 0.511966110866181 
1544	 0.51225030291746 
1545	 0.51252923615495 
1546	 0.51280028375958 
1547	 0.51306349083443 
1548	 0.51331382275193 
1549	 0.513559124332933 
1550	 0.513787805903657 
1551	 0.514009459639352 
1552	 0.514198314659603 
1553	 0.514366615951394 
1554	 0.514518707668281 
1555	 0.514629738725145 
1556	 0.514758751499018 
1557	 0.514890926494062 
1558	 0.515005640668503 
1559	 0.515115142277025 
1560	 0.51521507322275 
1561	 0.515304980544814 
1562	 0.515378072412937 
1563	 0.515436008159079 
1564	 0.515495258596511 
1565	 0.515534057341014 
1566	 0.515583422335982 
1567	 0.515639809058214 
1568	 0.515693327779839 
1569	 0.515738633716477 
1570	 0.515796627758102 
1571	 0.515868025571346 
1572	 0.51592816442402 
1573	 0.515981492445652 
1574	 0.516049751088653 
1575	 0.516112223133264 
1576	 0.516191894612677 
1577	 0.516296729017511 
1578	 0.516393529940767 
1579	 0.516494079362856 
1580	 0.516593903560664 
1581	 0.516696357190692 
1582	 0.516795264610095 
1583	 0.516894851004423 
1584	 0.51699047542053 
1585	 0.51707737103121 
1586	 0.517172680557804 
1587	 0.517264602589751 
1588	 0.51736759930314 
1589	 0.517492902243648 
1590	 0.517596725210256 
1591	 0.517687521458395 
1592	 0.51779171067432 
1593	 0.517896564712029 
1594	 0.517992697936829 
1595	 0.518101683954655 
1596	 0.518195603682305 
1597	 0.518259218434159 
1598	 0.518342182384547 
1599	 0.518434468628952 
1600	 0.518524217138937 
1601	 0.518626799525905 
1602	 0.51871451524619 
1603	 0.518800983427606 
1604	 0.518870671436809 
1605	 0.518929898664015 
1606	 0.51897457290826 
1607	 0.51900907785051 
1608	 0.519022273217428 
1609	 0.519006392132601 
1610	 0.518997018075984 
1611	 0.518973705336593 
1612	 0.518949169698433 
1613	 0.518931485192007 
1614	 0.518900124735299 
1615	 0.518860477276913 
1616	 0.518810142391522 
1617	 0.518749097331905 
1618	 0.518682690798467 
1619	 0.518602651420483 
1620	 0.51852163074311 
1621	 0.51845377249975 
1622	 0.518350647038951 
1623	 0.518228213855256 
1624	 0.518090157978781 
1625	 0.517912720489527 
1626	 0.517745747372901 
1627	 0.517580833022026 
1628	 0.517404577090948 
1629	 0.517230379574334 
1630	 0.517033909875689 
1631	 0.516801463582914 
1632	 0.516590857721616 
1633	 0.516386681424158 
1634	 0.516168609247809 
1635	 0.515971879170497 
1636	 0.515743000730819 
1637	 0.515488487773063 
1638	 0.515217637723341 
1639	 0.514914936253538 
1640	 0.514617278099539 
1641	 0.514326120356042 
1642	 0.513996657168763 
1643	 0.513666882207036 
1644	 0.513297314086325 
1645	 0.512871352556678 
1646	 0.512441987958878 
1647	 0.511981644055039 
1648	 0.511523659491588 
1649	 0.511073758661961 
1650	 0.510582741634844 
1651	 0.510074879389407 
1652	 0.509550186005623 
1653	 0.508997336046511 
1654	 0.508420939276889 
1655	 0.507839888924379 
1656	 0.507205389457804 
1657	 0.506529332708338 
1658	 0.50581367795934 
1659	 0.505068885443919 
1660	 0.504275590475593 
1661	 0.503430797126648 
1662	 0.502553363154519 
1663	 0.501627670927365 
1664	 0.500659530932815 
1665	 0.49966095164373 
1666	 0.498604181846956 
1667	 0.497494919542685 
1668	 0.496355337721215 
1669	 0.495194347325475 
1670	 0.49394580657896 
1671	 0.492636785984454 
1672	 0.491258898392023 
1673	 0.489790770763533 
1674	 0.488282145575441 
1675	 0.48673459653628 
1676	 0.485139878419072 
1677	 0.483505859458717 
1678	 0.481783743660165 
1679	 0.47997479789412 
1680	 0.478119548205805 
1681	 0.476190893980575 
1682	 0.474203004566891 
1683	 0.472154912296918 
1684	 0.470112001958706 
1685	 0.46800752938033 
1686	 0.465892717772428 
1687	 0.463747555535562 
1688	 0.46160815649334 
1689	 0.459430672478402 
1690	 0.457270782811285 
1691	 0.455151610626659 
1692	 0.45303266827072 
1693	 0.450911631940401 
1694	 0.44877627143108 
1695	 0.446641350176343 
1696	 0.44446692173746 
1697	 0.442277191435264 
1698	 0.440023127751092 
1699	 0.437725445012157 
1700	 0.435496470494247 
1701	 0.43321374736907 
1702	 0.431022319409974 
1703	 0.428863423033965 
1704	 0.426788952381977 
1705	 0.424750027762561 
1706	 0.422786619273058 
1707	 0.421039261390444 
1708	 0.419330541136799 
1709	 0.417683139289296 
1710	 0.41614168499199 
1711	 0.414550669285283 
1712	 0.413050105145093 
1713	 0.411579038852348 
1714	 0.410094505864578 
1715	 0.408760538278074 
1716	 0.407431746188683 
1717	 0.406130282829974 
1718	 0.40491331660169 
1719	 0.403688015276304 
1720	 0.402541321320154 
1721	 0.401501034459108 
1722	 0.400587330883805 
1723	 0.399883548879237 
1724	 0.399323120670525 
1725	 0.39892941262742 
1726	 0.398779260675418 
1727	 0.39883957380791 
1728	 0.399144977536835 
1729	 0.39972688317758 
1730	 0.400539554440606 
1731	 0.40147520189805 
1732	 0.402604645201212 
1733	 0.403792566986474 
1734	 0.404979920044298 
1735	 0.406254137686324 
1736	 0.407424219074862 
1737	 0.408494804565649 
1738	 0.409508873844112 
1739	 0.410291167812102 
1740	 0.410924718287159 
1741	 0.411396707010777 
1742	 0.411638801051951 
1743	 0.411812291128457 
1744	 0.41183885834164 
1745	 0.411790809529681 
1746	 0.411606975483498 
1747	 0.411406023463344 
1748	 0.411099910325376 
1749	 0.410829947663921 
1750	 0.410500369662525 
1751	 0.410251741781606 
1752	 0.410030560765872 
1753	 0.409857161590686 
1754	 0.409728543490448 
1755	 0.409668593621053 
1756	 0.409606803263131 
1757	 0.409703053201535 
1758	 0.409919716519996 
1759	 0.410246302322841 
1760	 0.41075972514602 
1761	 0.411438346397311 
1762	 0.41220365766421 
1763	 0.413146630667833 
1764	 0.41418797268919 
1765	 0.415289872358283 
1766	 0.416520588891966 
1767	 0.417746460258931 
1768	 0.419003933067178 
1769	 0.420283836470787 
1770	 0.42144738463072 
1771	 0.42258052790257 
1772	 0.423664169220981 
1773	 0.424639790651288 
1774	 0.425599689361844 
1775	 0.426477206149655 
1776	 0.427253235444373 
1777	 0.427937496867263 
1778	 0.428518751308908 
1779	 0.429079268812599 
1780	 0.429599060819193 
1781	 0.430065857155576 
1782	 0.430514081589532 
1783	 0.430881388713983 
1784	 0.431161703367097 
1785	 0.431389770782819 
1786	 0.431569508214434 
1787	 0.431675924519658 
1788	 0.431780542110909 
1789	 0.43183208857332 
1790	 0.431880917821351 
1791	 0.431910309058427 
1792	 0.431954474862236 
1793	 0.431989588817703 
1794	 0.432064137132907 
1795	 0.43211423608026 
1796	 0.432180978077053 
1797	 0.432256480184457 
1798	 0.432317984735207 
1799	 0.432408475570981 
1800	 0.432517731135684 
1801	 0.429823500417465 
1802	 0.429948604746211 
1803	 0.430071291734691 
1804	 0.430194083320563 
1805	 0.430330559164559 
1806	 0.430472305154558 
1807	 0.430606752320054 
1808	 0.430763149755822 
1809	 0.43095056159155 
1810	 0.43111826110189 
1811	 0.431284660682464 
1812	 0.431454404053742 
1813	 0.431607276088516 
1814	 0.431778632558439 
1815	 0.431982829395944 
1816	 0.432206787367715 
1817	 0.432442128450745 
1818	 0.432717895696444 
1819	 0.432970018929723 
1820	 0.433220771592001 
1821	 0.433472338561007 
1822	 0.433720633390166 
1823	 0.433975330768618 
1824	 0.434218567477409 
1825	 0.434492411973449 
1826	 0.434769205975612 
1827	 0.435067385976098 
1828	 0.435328392982716 
1829	 0.435577296980793 
1830	 0.435842182401957 
1831	 0.43609054956603 
1832	 0.436358246881143 
1833	 0.436638242696663 
1834	 0.436898132357261 
1835	 0.437124582382373 
1836	 0.437338816395214 
1837	 0.437564254634937 
1838	 0.437789390008668 
1839	 0.438007657896235 
1840	 0.438242648559846 
1841	 0.438444904162931 
1842	 0.438632464146244 
1843	 0.438806373960474 
1844	 0.438961069495549 
1845	 0.439094222857382 
1846	 0.439203601115921 
1847	 0.439293906309867 
1848	 0.439354909616137 
1849	 0.439391979766484 
1850	 0.439388636770617 
1851	 0.439360973114104 
1852	 0.439302234636966 
1853	 0.439178257150894 
1854	 0.439035790801194 
1855	 0.438845100022688 
1856	 0.438602828370619 
1857	 0.438345124961784 
1858	 0.438024454409775 
1859	 0.437657890807538 
1860	 0.437267540286093 
1861	 0.436793245131903 
1862	 0.43625017662969 
1863	 0.435666529202424 
1864	 0.435007430012121 
1865	 0.434296899674578 
1866	 0.433522075339795 
1867	 0.432628453987039 
1868	 0.431705068547753 
1869	 0.430636173262825 
1870	 0.429467440591327 
1871	 0.428233654319461 
1872	 0.426893820563738 
1873	 0.425438585542724 
1874	 0.423910301026181 
1875	 0.422292137611964 
1876	 0.420438007909061 
1877	 0.418523078638802 
1878	 0.416387076235951 
1879	 0.41406140603071 
1880	 0.411757703996514 
1881	 0.409223007020698 
1882	 0.406488181977122 
1883	 0.403660178805364 
1884	 0.400635153839308 
1885	 0.397175779149621 
1886	 0.39364727513381 
1887	 0.389836620457941 
1888	 0.385712978452885 
1889	 0.381716537851202 
1890	 0.377409398359408 
1891	 0.373006372382866 
1892	 0.368579393069283 
1893	 0.363916660454503 
1894	 0.358963974815938 
1895	 0.354124654860887 
1896	 0.349124723247901 
1897	 0.344016365061616 
1898	 0.339276005936067 
1899	 0.33436786163868 
1900	 0.329559993061683 
1901	 0.324931476036326 
1902	 0.32004027727148 
1903	 0.315413713158173 
1904	 0.310902981482422 
1905	 0.306434166865437 
1906	 0.302094964709823 
1907	 0.298261511664989 
1908	 0.294442538297927 
1909	 0.290843295150016 
1910	 0.287542325919429 
1911	 0.284163910775651 
1912	 0.281057181240986 
1913	 0.278108688232873 
1914	 0.275249739771953 
1915	 0.272674370859658 
1916	 0.270391270385365 
1917	 0.268171618218772 
1918	 0.266124791368442 
1919	 0.264291584847991 
1920	 0.262458122905221 
1921	 0.260807651326051 
1922	 0.259283593439645 
1923	 0.257845369025528 
1924	 0.256638761984344 
1925	 0.255535557381567 
1926	 0.254519913274255 
1927	 0.253654361827357 
1928	 0.252843655201821 
1929	 0.252101156037764 
1930	 0.25145019694636 
1931	 0.250911548382256 
1932	 0.250450556006769 
1933	 0.250100942749655 
1934	 0.249810765384322 
1935	 0.249561173221531 
1936	 0.249391345486017 
1937	 0.249286537396259 
1938	 0.249247695618857 
1939	 0.249266922340084 
1940	 0.249366878988439 
1941	 0.24950230646012 
1942	 0.249664747846625 
1943	 0.249869881262363 
1944	 0.250121391205715 
1945	 0.250409239289714 
1946	 0.250755443012699 
1947	 0.251125294541032 
1948	 0.25149713726865 
1949	 0.251911428966217 
1950	 0.252323948747429 
1951	 0.252733206264087 
1952	 0.25317776066053 
1953	 0.253655646820099 
1954	 0.254120416170471 
1955	 0.254615305694927 
1956	 0.255110558479062 
1957	 0.25561882592616 
1958	 0.256153688210498 
1959	 0.256662219053145 
1960	 0.257186842602148 
1961	 0.257704271483412 
1962	 0.258189966556955 
1963	 0.258716825540621 
1964	 0.259276937302858 
1965	 0.259813966479409 
1966	 0.260363446136098 
1967	 0.260911995373146 
1968	 0.261408542952619 
1969	 0.261927314294926 
1970	 0.262465402217789 
1971	 0.263000446084516 
1972	 0.263571831848222 
1973	 0.264157090197024 
1974	 0.264755005856071 
1975	 0.265369548361541 
1976	 0.265991259954678 
1977	 0.266634994275409 
1978	 0.267278676236406 
1979	 0.267922517807725 
1980	 0.268576419427279 
1981	 0.269265904689557 
1982	 0.269924846700565 
1983	 0.270619036511005 
1984	 0.271352309932054 
1985	 0.272063495549109 
1986	 0.272811051573037 
1987	 0.273555538072991 
1988	 0.274290950286296 
1989	 0.275060860676567 
1990	 0.275861210162407 
1991	 0.276647539951111 
1992	 0.277443080088641 
1993	 0.278267563948718 
1994	 0.279045261127343 
1995	 0.279858539832962 
1996	 0.280693773032032 
1997	 0.281513855693209 
1998	 0.282363055411864 
1999	 0.283246651939934 
2000	 0.284091568224539 
2001	 0.284958545353092 
2002	 0.28578177687705 
2003	 0.286565779082567 
2004	 0.287355243957771 
2005	 0.288123557465272 
2006	 0.288887511674667 
2007	 0.289663171772636 
2008	 0.290395001356469 
2009	 0.291124047548779 
2010	 0.29183734540862 
2011	 0.292469660786981 
2012	 0.293095180107424 
2013	 0.293678658543471 
2014	 0.294200978517753 
2015	 0.29472378618948 
2016	 0.295260741675041 
2017	 0.295707214180877 
2018	 0.296110632371626 
2019	 0.296469823481428 
2020	 0.296749112310386 
2021	 0.297010477734896 
2022	 0.297269257642347 
2023	 0.297474218846879 
2024	 0.297649367008781 
2025	 0.297789033385923 
2026	 0.297880904626123 
2027	 0.297929707686294 
2028	 0.29793170501331 
2029	 0.297876548019728 
2030	 0.297802089570777 
2031	 0.297677419065193 
2032	 0.297537777364151 
2033	 0.297379654750744 
2034	 0.297192613189284 
2035	 0.296964927916261 
2036	 0.296721550563229 
2037	 0.296488318965377 
2038	 0.296207491947881 
2039	 0.295943201895288 
2040	 0.29568649709693 
2041	 0.295403950044452 
2042	 0.295100796055849 
2043	 0.294809707762311 
2044	 0.294487369744687 
2045	 0.294206797399173 
2046	 0.293931326614175 
2047	 0.293688783008438 
2048	 0.293476384613521 
2049	 0.293283043681893 
2050	 0.293090690193027 
2051	 0.292960254845414 
2052	 0.292874903422019 
2053	 0.29282411324504 
2054	 0.292836613802802 
2055	 0.292919484766162 
2056	 0.293037028061825 
2057	 0.293186586637823 
2058	 0.293408578185957 
2059	 0.293692788801041 
2060	 0.294024269641809 
2061	 0.294452833977315 
2062	 0.294864246205229 
2063	 0.295311523256023 
2064	 0.295772412368886 
2065	 0.296254217805729 
2066	 0.29672509193413 
2067	 0.297238291471942 
2068	 0.297741649264843 
2069	 0.298253967277986 
2070	 0.298790604697865 
2071	 0.299277211791823 
2072	 0.299765687931753 
2073	 0.300212364244783 
2074	 0.300602522828567 
2075	 0.301001976907926 
2076	 0.301390445354035 
2077	 0.301763539623945 
2078	 0.302139019041511 
2079	 0.302475745867426 
2080	 0.302792971106309 
2081	 0.303080259610395 
2082	 0.30331603284802 
2083	 0.303548160076222 
2084	 0.303802086032132 
2085	 0.304019315045513 
2086	 0.304225853621924 
2087	 0.304439698575637 
2088	 0.304614641684798 
2089	 0.304739506851044 
2090	 0.304886700428479 
2091	 0.305046575380162 
2092	 0.305163813387868 
2093	 0.305275312419027 
2094	 0.305346470225651 
2095	 0.30536519018444 
2096	 0.305384159532516 
2097	 0.305387918499258 
2098	 0.305375794195135 
2099	 0.305337404550412 
2100	 0.305265420264302 
2101	 0.305156251882745 
2102	 0.305005342641261 
2103	 0.304829801823914 
2104	 0.304620883979814 
2105	 0.304388909995336 
2106	 0.304126182319681 
2107	 0.30383522955164 
2108	 0.303528114033526 
2109	 0.30317284500136 
2110	 0.302772670056674 
2111	 0.302351009433745 
2112	 0.301871266388873 
2113	 0.301398653592784 
2114	 0.300930959643489 
2115	 0.300416592987561 
2116	 0.299887053384427 
2117	 0.29933102900503 
2118	 0.298712495536951 
2119	 0.298029559045646 
2120	 0.297353688800184 
2121	 0.296615439469538 
2122	 0.295930320068686 
2123	 0.295275583290042 
2124	 0.294564953855427 
2125	 0.293868341498646 
2126	 0.2931148931612 
2127	 0.2922925511833 
2128	 0.291486168759353 
2129	 0.290643034387209 
2130	 0.289820934598945 
2131	 0.289010710699458 
2132	 0.2881829021486 
2133	 0.28735226871861 
2134	 0.286539048923609 
2135	 0.285652310144248 
2136	 0.284778174651935 
2137	 0.28388098962478 
2138	 0.282939610837287 
2139	 0.282041455642951 
2140	 0.281144708072823 
2141	 0.280267223756298 
2142	 0.279424678572154 
2143	 0.278555865728202 
2144	 0.277667974168683 
2145	 0.276824876750619 
2146	 0.275956203295744 
2147	 0.275164463605389 
2148	 0.274451402568196 
2149	 0.273725941487539 
2150	 0.273048389153387 
2151	 0.272359049022075 
2152	 0.271641989051933 
2153	 0.270979133747976 
2154	 0.270340579747468 
2155	 0.269693105389656 
2156	 0.269110256246939 
2157	 0.268577411056716 
2158	 0.268053260744812 
2159	 0.267571700218785 
2160	 0.267080990651662 
2161	 0.266597867085299 
2162	 0.266141392449099 
2163	 0.265678533203186 
2164	 0.265276251082026 
2165	 0.264930562503482 
2166	 0.264577576462582 
2167	 0.26424853963437 
2168	 0.263944444582539 
2169	 0.263641924882521 
2170	 0.263375861972514 
2171	 0.263144184403149 
2172	 0.262942447290576 
2173	 0.262782117832395 
2174	 0.262628940589273 
2175	 0.262479964803509 
2176	 0.262357815109692 
2177	 0.262226580563852 
2178	 0.262076086178274 
2179	 0.261973377462299 
2180	 0.261896136986856 
2181	 0.261823622909336 
2182	 0.261765197797778 
2183	 0.261733483281563 
2184	 0.261722966131645 
2185	 0.261723656635515 
2186	 0.261752503977535 
2187	 0.261784324581701 
2188	 0.261833472313673 
2189	 0.261872594284806 
2190	 0.261908464201378 
2191	 0.261963766096524 
2192	 0.262019402710839 
2193	 0.262085212541723 
2194	 0.262166907093599 
2195	 0.262266177042127 
2196	 0.262386456839816 
2197	 0.262493195663057 
2198	 0.262628137053272 
2199	 0.262766046576832 
2200	 0.262876137648221 
2201	 0.262962822454308 
2202	 0.263072794672196 
2203	 0.263168556774381 
2204	 0.263294417557557 
2205	 0.263451585698504 
2206	 0.263591061932789 
2207	 0.263739125134613 
2208	 0.263870946760088 
2209	 0.263966062809448 
2210	 0.264121760690176 
2211	 0.264298351822094 
2212	 0.264483036090474 
2213	 0.264732637390494 
2214	 0.264929902556798 
2215	 0.265103122055803 
2216	 0.26527951960432 
2217	 0.265447882435362 
2218	 0.265596666823424 
2219	 0.265747654684341 
2220	 0.265866126826418 
2221	 0.265943822120364 
2222	 0.266039877105584 
2223	 0.266092190008934 
2224	 0.266108510466646 
2225	 0.266118995371571 
2226	 0.266032702813072 
2227	 0.265872966089091 
2228	 0.265646972126058 
2229	 0.265366727192752 
2230	 0.265010583441869 
2231	 0.264586239107123 
2232	 0.264110571433421 
2233	 0.263543807274035 
2234	 0.262880872961057 
2235	 0.262154017714966 
2236	 0.261345322404806 
2237	 0.260506209977268 
2238	 0.259588463332987 
2239	 0.258634057551574 
2240	 0.257655343155119 
2241	 0.256585998748545 
2242	 0.25545651172844 
2243	 0.254250366004633 
2244	 0.252957701091263 
2245	 0.251621478541085 
2246	 0.250156893948552 
2247	 0.248729624794325 
2248	 0.247291256885841 
2249	 0.245817054262661 
2250	 0.244333789165641 
2251	 0.242847247591496 
2252	 0.241258849445038 
2253	 0.239712870900009 
2254	 0.2381535795269 
2255	 0.236578141871908 
2256	 0.2350884871356 
2257	 0.233548859102456 
2258	 0.232046160256475 
2259	 0.230578304635838 
2260	 0.229093744750805 
2261	 0.227599403914128 
2262	 0.226144324651547 
2263	 0.224661837057786 
2264	 0.223282872489074 
2265	 0.221990038981978 
2266	 0.220662695622521 
2267	 0.219402195169076 
2268	 0.218103802267571 
2269	 0.216749623878525 
2270	 0.215459637564148 
2271	 0.214179361198293 
2272	 0.21294765350588 
2273	 0.211781340045436 
2274	 0.210591780019754 
2275	 0.209460859994304 
2276	 0.208273908571291 
2277	 0.207068579096978 
2278	 0.205837059447389 
2279	 0.204560330648711 
2280	 0.203268628658972 
2281	 0.201969935193598 
2282	 0.200619507086933 
2283	 0.199235428347433 
2284	 0.197848152530279 
2285	 0.196314591534498 
2286	 0.194797580456838 
2287	 0.193209947719775 
2288	 0.191561467869917 
2289	 0.190034311019117 
2290	 0.188406623112883 
2291	 0.186780388291895 
2292	 0.185193930197401 
2293	 0.183448065197658 
2294	 0.18174118868485 
2295	 0.180048245290948 
2296	 0.178333095957789 
2297	 0.17684278406869 
2298	 0.175466820430424 
2299	 0.17423129716747 
2300	 0.173169764180614 
2301	 0.17222199837579 
2302	 0.171336465446561 
2303	 0.170753419156234 
2304	 0.170331983450461 
2305	 0.170215525181314 
2306	 0.170429114519393 
2307	 0.170771760282837 
2308	 0.171325976513741 
2309	 0.17212164233396 
2310	 0.173198512049225 
2311	 0.174351342163495 
2312	 0.175863312361468 
2313	 0.17724221205687 
2314	 0.178693104912365 
2315	 0.18006319671754 
2316	 0.181474250029597 
2317	 0.182696702501743 
2318	 0.183865727770413 
2319	 0.184839593122658 
2320	 0.185673879844722 
2321	 0.18632054615317 
2322	 0.186756980605396 
2323	 0.187092063535282 
2324	 0.187243994080203 
2325	 0.187280812301343 
2326	 0.187168315836065 
2327	 0.186969208369139 
2328	 0.186633868817164 
2329	 0.186187575745566 
2330	 0.185636792585031 
2331	 0.184968967229893 
2332	 0.184204611461113 
2333	 0.183321997847474 
2334	 0.1822402480782 
2335	 0.18105228077229 
2336	 0.179709513429649 
2337	 0.178321478683902 
2338	 0.177078185434461 
2339	 0.175774196628953 
2340	 0.174487420705411 
2341	 0.173227043051833 
2342	 0.171919125234694 
2343	 0.170802422784464 
2344	 0.169886592692642 
2345	 0.169211247697072 
2346	 0.16882382975925 
2347	 0.16869799375429 
2348	 0.168823865305437 
2349	 0.169206644906629 
2350	 0.169813583040355 
2351	 0.170612514229414 
2352	 0.171485017727641 
2353	 0.172450568392629 
2354	 0.173425599008432 
2355	 0.174336504039353 
2356	 0.175178960296988 
2357	 0.175902441240118 
2358	 0.176546436484016 
2359	 0.176981141980646 
2360	 0.177358454720992 
2361	 0.17763492200551 
2362	 0.177687742597015 
2363	 0.17771804987805 
2364	 0.177652475230345 
2365	 0.177505069086657 
2366	 0.177426270799331 
2367	 0.177310676425361 
2368	 0.177175822966258 
2369	 0.177052839489662 
2370	 0.176866907018266 
2371	 0.176700613205347 
2372	 0.176531839285418 
2373	 0.176334555923821 
2374	 0.176146800817183 
2375	 0.175985296412841 
2376	 0.175912193429509 
2377	 0.175816363423446 
2378	 0.175655488061142 
2379	 0.175486390542975 
2380	 0.175302057543856 
2381	 0.175155646364034 
2382	 0.175024956292966 
2383	 0.174978484651693 
2384	 0.174848696664136 
2385	 0.17469666081667 
2386	 0.174515166565895 
2387	 0.17426156893898 
2388	 0.174115056145152 
2389	 0.174014768932535 
2390	 0.173847168182723 
2391	 0.173706920995666 
2392	 0.173525598471684 
2393	 0.173262635890432 
2394	 0.173059669776657 
2395	 0.172906384735898 
2396	 0.172719261500515 
2397	 0.172495237730953 
2398	 0.172266150504482 
2399	 0.172053655454335 
2400	 0.171850921293074 
2401	 0.171638952911137 
2402	 0.171483069072924 
2403	 0.171294266173615 
2404	 0.171132867708424 
2405	 0.170957783015987 
2406	 0.170789839886345 
2407	 0.17056406432081 
2408	 0.170308983395103 
2409	 0.170016669650064 
2410	 0.169672523817084 
2411	 0.169393137152712 
2412	 0.169149365110696 
2413	 0.168838042244476 
2414	 0.168493501951486 
2415	 0.168197055207932 
2416	 0.1678053466271 
2417	 0.167452997620472 
2418	 0.167172223193136 
2419	 0.166750014872189 
2420	 0.16641902239899 
2421	 0.166118593924497 
2422	 0.165667192622506 
2423	 0.165245643940956 
2424	 0.164869771558368 
2425	 0.16440798949927 
2426	 0.163969747650703 
2427	 0.163644503220261 
2428	 0.163225810148397 
2429	 0.162805051382247 
2430	 0.162495135901606 
2431	 0.162131821538206 
2432	 0.161725010999566 
2433	 0.161266621786006 
2434	 0.160727636388784 
2435	 0.160197154020839 
2436	 0.159716733095478 
2437	 0.159238365748166 
2438	 0.158871707728369 
2439	 0.158571088690629 
2440	 0.158062016243175 
2441	 0.157575628472014 
2442	 0.157090092765824 
2443	 0.15644647300025 
2444	 0.155892901654482 
2445	 0.155353029115832 
2446	 0.154900016595196 
2447	 0.15442854869022 
2448	 0.153903374682284 
2449	 0.153483580103848 
2450	 0.152891983683519 
2451	 0.152249459170319 
2452	 0.15166509312711 
2453	 0.151047364161126 
2454	 0.150367083963002 
2455	 0.14969321525229 
2456	 0.149144225217328 
2457	 0.148558400348804 
2458	 0.148029286240572 
2459	 0.147587865216655 
2460	 0.14699796723243 
2461	 0.146395581018737 
2462	 0.145881924880156 
2463	 0.145396034675136 
2464	 0.144985680818018 
2465	 0.14469599957706 
2466	 0.144360044424381 
2467	 0.143935543046211 
2468	 0.143686049821854 
2469	 0.143494324747118 
2470	 0.143252895494346 
2471	 0.143035948934186 
2472	 0.142738749586229 
2473	 0.142292013316356 
2474	 0.141894325637251 
2475	 0.141650717490354 
2476	 0.141393955786779 
2477	 0.141119674041824 
2478	 0.140888100599115 
2479	 0.140663961540673 
2480	 0.140387747672122 
2481	 0.14020486535236 
2482	 0.139947817266467 
2483	 0.139858598759032 
2484	 0.13974803041049 
2485	 0.139432227296455 
2486	 0.139350925839093 
2487	 0.139167016374735 
2488	 0.138905751276265 
2489	 0.138900455914631 
2490	 0.138713120789346 
2491	 0.138478327505677 
2492	 0.138456951355932 
2493	 0.138141520751641 
2494	 0.138034666035913 
2495	 0.138030469690312 
2496	 0.13758233814717 
2497	 0.13751251244047 
2498	 0.137452831665467 
2499	 0.137453749883315 
2500	 0.137607446232764 
