Wavelength	spectrum00020.asd
350	 6.56883017433409E-02 
351	 6.31144466192875E-02 
352	 5.99639506182725E-02 
353	 5.69283668581193E-02 
354	 5.80360456784534E-02 
355	 5.71406930122239E-02 
356	 5.44308443332598E-02 
357	 5.15545480833882E-02 
358	 4.97533817096023E-02 
359	 4.83647438611412E-02 
360	 4.76854629086682E-02 
361	 4.80726421468367E-02 
362	 4.63785450603014E-02 
363	 4.46509358748397E-02 
364	 4.38641267176906E-02 
365	 4.28877205999193E-02 
366	 4.35229841794348E-02 
367	 4.41225426149509E-02 
368	 4.33420226420946E-02 
369	 4.36528474778777E-02 
370	 4.28459171211713E-02 
371	 4.16149904519265E-02 
372	 4.19595781838922E-02 
373	 4.14197772451697E-02 
374	 4.15849682088545E-02 
375	 4.24425840317665E-02 
376	 4.11119965376904E-02 
377	 4.08323899420489E-02 
378	 4.12155737597956E-02 
379	 4.12707045004241E-02 
380	 4.14151449377159E-02 
381	 4.19735983836068E-02 
382	 4.20459763052797E-02 
383	 4.04608135051956E-02 
384	 4.06472430951395E-02 
385	 4.14788980972644E-02 
386	 4.17580221949656E-02 
387	 4.10034416749044E-02 
388	 4.12500066880121E-02 
389	 4.17268624145676E-02 
390	 4.13372064180286E-02 
391	 4.07225592102153E-02 
392	 4.10671119699421E-02 
393	 0.042025123359918 
394	 4.23007000803315E-02 
395	 4.20564645729736E-02 
396	 4.22217888895904E-02 
397	 0.042983103092473 
398	 4.31873968755631E-02 
399	 4.30228149159889E-02 
400	 4.28710915132283E-02 
401	 4.30941121960973E-02 
402	 4.37029651552348E-02 
403	 4.39044642611812E-02 
404	 0.04382931795667 
405	 4.42751603136708E-02 
406	 4.51392750653143E-02 
407	 4.56661269066899E-02 
408	 4.56165085716742E-02 
409	 4.58507502416541E-02 
410	 4.63314741986393E-02 
411	 0.046880422046141 
412	 4.73245084053031E-02 
413	 4.79069293789626E-02 
414	 4.85306421022657E-02 
415	 4.91941141656146E-02 
416	 4.99808261670987E-02 
417	 5.06037391672097E-02 
418	 5.12494392968634E-02 
419	 5.19896292639756E-02 
420	 0.052383387824132 
421	 5.30977640564002E-02 
422	 0.054109411819587 
423	 5.50755495439484E-02 
424	 5.56615129772387E-02 
425	 5.62933901089155E-02 
426	 5.71705066302585E-02 
427	 5.81621281670106E-02 
428	 0.059005190054713 
429	 5.98650521505693E-02 
430	 6.08882854676258E-02 
431	 6.18551293665119E-02 
432	 6.28328856045523E-02 
433	 6.38407839237177E-02 
434	 6.48862113423461E-02 
435	 6.61018630205391E-02 
436	 6.73259810944512E-02 
437	 6.84413580463946E-02 
438	 6.94283472111881E-02 
439	 7.06491281854512E-02 
440	 7.20209409817357E-02 
441	 0.073336099078214 
442	 7.44796725636709E-02 
443	 7.57760657349771E-02 
444	 7.72540801230992E-02 
445	 0.078694034198558 
446	 7.99836303366571E-02 
447	 0.081323344656209 
448	 8.28303807510812E-02 
449	 0.084305512142468 
450	 8.59313758735228E-02 
451	 8.76917284743145E-02 
452	 8.94636333494835E-02 
453	 9.09922852199194E-02 
454	 0.092629005622322 
455	 9.44297863382385E-02 
456	 9.60929803476674E-02 
457	 9.79627448359615E-02 
458	 9.98454942104977E-02 
459	 0.10160863926916 
460	 0.103662510458378 
461	 0.105686038953064 
462	 0.107608764184946 
463	 0.109523700593114 
464	 0.11156885447521 
465	 0.113774572091194 
466	 0.116046796832333 
467	 0.118126302759807 
468	 0.12037216583981 
469	 0.122716274394757 
470	 0.125026555708642 
471	 0.127452985404036 
472	 0.129869241246613 
473	 0.132241486858136 
474	 0.134619847984998 
475	 0.137115474290407 
476	 0.139604323104904 
477	 0.142068426848369 
478	 0.144832292374753 
479	 0.147573844563565 
480	 0.150307880682495 
481	 0.153133586377 
482	 0.155780547811209 
483	 0.158524388490261 
484	 0.161465017768449 
485	 0.164449152490992 
486	 0.167400313458106 
487	 0.1703396305393 
488	 0.173307981841971 
489	 0.176317058827124 
490	 0.179328488146299 
491	 0.182359996650396 
492	 0.185461992243089 
493	 0.188620332240656 
494	 0.191844417592243 
495	 0.19508626870558 
496	 0.198181891465106 
497	 0.201349916676691 
498	 0.204583024890018 
499	 0.207810989819326 
500	 0.211065465211733 
501	 0.214370624640658 
502	 0.217691547914197 
503	 0.220950368468766 
504	 0.224259450651209 
505	 0.227589784869717 
506	 0.230903637320886 
507	 0.23419887528642 
508	 0.237507430543166 
509	 0.24081714790012 
510	 0.244096149649808 
511	 0.247356653388098 
512	 0.250625680765083 
513	 0.253912942508212 
514	 0.257219000177764 
515	 0.260418128608558 
516	 0.263588976379454 
517	 0.266818278268061 
518	 0.27002486756089 
519	 0.273168304149509 
520	 0.276270457803538 
521	 0.279391653764319 
522	 0.282503953036099 
523	 0.285580004290277 
524	 0.288617016642349 
525	 0.291675154605805 
526	 0.294642938823598 
527	 0.297556632317158 
528	 0.300496320273465 
529	 0.303447611056278 
530	 0.306318161299797 
531	 0.309108330723281 
532	 0.311914839862144 
533	 0.314659520217818 
534	 0.317400490844054 
535	 0.320159922574997 
536	 0.32276954759444 
537	 0.325440512494014 
538	 0.328152793040008 
539	 0.330770406935282 
540	 0.333366863390614 
541	 0.335901500882819 
542	 0.338352341135888 
543	 0.340736306838797 
544	 0.343170053356651 
545	 0.345548371682732 
546	 0.347779135246465 
547	 0.350174711394389 
548	 0.352559613289333 
549	 0.354873117115264 
550	 0.357170388697882 
551	 0.359342877541041 
552	 0.361480905599133 
553	 0.363630697111687 
554	 0.365617346183771 
555	 0.367565558085022 
556	 0.369535226639852 
557	 0.371535322987446 
558	 0.37346516868561 
559	 0.375303678273599 
560	 0.377066016729518 
561	 0.378807681507132 
562	 0.380435417418833 
563	 0.381987566754903 
564	 0.383543676888035 
565	 0.385168529092335 
566	 0.386909374882586 
567	 0.388761255978498 
568	 0.390681184570877 
569	 0.392689900071863 
570	 0.394818810982738 
571	 0.397023100925769 
572	 0.399102102988147 
573	 0.401040638188039 
574	 0.402774681247211 
575	 0.404257128725367 
576	 0.405547476211436 
577	 0.406798890399074 
578	 0.408167337072521 
579	 0.409791414192989 
580	 0.411415418221572 
581	 0.412962402886449 
582	 0.414432611283615 
583	 0.415910779786657 
584	 0.417323777439216 
585	 0.418663616461789 
586	 0.419985533784421 
587	 0.421479730575269 
588	 0.423067372280688 
589	 0.424638461651995 
590	 0.426091723622431 
591	 0.427542466646256 
592	 0.428993269141822 
593	 0.430407451039821 
594	 0.431753799097138 
595	 0.433028958762591 
596	 0.434243655517642 
597	 0.435423371618307 
598	 0.436751386414725 
599	 0.438040415969423 
600	 0.439157665440719 
601	 0.440250279631954 
602	 0.441362033583971 
603	 0.442510425034831 
604	 0.443676240864301 
605	 0.444747241687453 
606	 0.445819093704838 
607	 0.446957343639101 
608	 0.448164196576477 
609	 0.449258426574205 
610	 0.450293196593223 
611	 0.451359139732138 
612	 0.452437359926901 
613	 0.45352018969635 
614	 0.454580047108629 
615	 0.455583739665364 
616	 0.456543410334569 
617	 0.457532136345522 
618	 0.458566595786246 
619	 0.459553377070399 
620	 0.460550950015391 
621	 0.461556863236749 
622	 0.462543733544934 
623	 0.463456612572637 
624	 0.464383194181883 
625	 0.46531704195134 
626	 0.466164685659001 
627	 0.46698483308385 
628	 0.467852159743455 
629	 0.468778605377858 
630	 0.46961732409502 
631	 0.470417075796189 
632	 0.471196967597954 
633	 0.4719702005978 
634	 0.472787414642438 
635	 0.473575698090396 
636	 0.474309169893886 
637	 0.475030438635162 
638	 0.47568140734638 
639	 0.476362978240354 
640	 0.477119048826611 
641	 0.477675532985412 
642	 0.478253196799456 
643	 0.478903235557779 
644	 0.479567619657222 
645	 0.480255488892599 
646	 0.480857980317408 
647	 0.481363251175149 
648	 0.481936801767318 
649	 0.482484935499742 
650	 0.483041521852349 
651	 0.483640352772146 
652	 0.484151454042693 
653	 0.484708736812489 
654	 0.485322227513264 
655	 0.485900320751212 
656	 0.486512186191267 
657	 0.487138229964196 
658	 0.487750701272504 
659	 0.488318152494642 
660	 0.489040856236477 
661	 0.489818931713558 
662	 0.49047315729919 
663	 0.491087148978253 
664	 0.491768754727845 
665	 0.492518939473987 
666	 0.493230246255323 
667	 0.493918963955232 
668	 0.494644675059043 
669	 0.495430297602872 
670	 0.496182991547595 
671	 0.496946381407395 
672	 0.497708974052958 
673	 0.498445618244656 
674	 0.499196948780049 
675	 0.499967961145944 
676	 0.50073966833314 
677	 0.501469973502575 
678	 0.502274389919443 
679	 0.503107329783288 
680	 0.503897128606093 
681	 0.504610846380288 
682	 0.505368759208325 
683	 0.506135150313605 
684	 0.506807438870813 
685	 0.507507024694531 
686	 0.508199385732298 
687	 0.508906044496958 
688	 0.509750174355438 
689	 0.510604793280778 
690	 0.511294064793838 
691	 0.51179208799578 
692	 0.512617356722251 
693	 0.513334265901468 
694	 0.513928805414053 
695	 0.514645427567108 
696	 0.515408164012294 
697	 0.516077778117522 
698	 0.516646240518953 
699	 0.517321016830282 
700	 0.518007752749776 
701	 0.51867554488177 
702	 0.519307615517297 
703	 0.519862750571901 
704	 0.520523596506873 
705	 0.521215225218584 
706	 0.521716065126353 
707	 0.522283664564226 
708	 0.522918958968694 
709	 0.52356080174553 
710	 0.524103210161768 
711	 0.524664454148252 
712	 0.52527417654702 
713	 0.525908620899732 
714	 0.526454405709084 
715	 0.526971987008051 
716	 0.527492148103735 
717	 0.528021797427419 
718	 0.528595547384423 
719	 0.529203836915797 
720	 0.529798943926829 
721	 0.530279119520419 
722	 0.530740215389892 
723	 0.53126140011486 
724	 0.531860739038023 
725	 0.532357137199101 
726	 0.532782385920844 
727	 0.53324215972441 
728	 0.533859379759134 
729	 0.534406876493025 
730	 0.534943108731445 
731	 0.535481462593224 
732	 0.535894799327835 
733	 0.536320455296292 
734	 0.536779814936934 
735	 0.537260193320101 
736	 0.537766746800597 
737	 0.538232911600494 
738	 0.538640966992704 
739	 0.539015718057477 
740	 0.539426202686033 
741	 0.539862394895605 
742	 0.540280406229405 
743	 0.54060301072793 
744	 0.541039875917959 
745	 0.541491534875574 
746	 0.541841720006697 
747	 0.542215081844791 
748	 0.542616413853753 
749	 0.543013727210948 
750	 0.54337603951427 
751	 0.543874415388376 
752	 0.544329987773053 
753	 0.544675471482005 
754	 0.545033169010231 
755	 0.545440876181029 
756	 0.545865223371415 
757	 0.546275138855783 
758	 0.546714058499303 
759	 0.547091178202668 
760	 0.547433419093662 
761	 0.547814790978095 
762	 0.548208179533762 
763	 0.548598144970631 
764	 0.548977293034225 
765	 0.549347588965896 
766	 0.549703866124745 
767	 0.550026196093415 
768	 0.55031402849607 
769	 0.550606171358105 
770	 0.550984000962454 
771	 0.551387168522353 
772	 0.55171465675907 
773	 0.551962895214541 
774	 0.552254610072526 
775	 0.552583786230642 
776	 0.552847758030873 
777	 0.553173066774031 
778	 0.553517273508445 
779	 0.553818371070522 
780	 0.554017987099934 
781	 0.554386008952635 
782	 0.554794759038389 
783	 0.555072746068128 
784	 0.555329011670172 
785	 0.555628610820933 
786	 0.55593530795055 
787	 0.556168230997661 
788	 0.556391609791809 
789	 0.556700491834863 
790	 0.557050974551713 
791	 0.55724745189746 
792	 0.557501861701119 
793	 0.557832035705141 
794	 0.558175453326659 
795	 0.558375685912756 
796	 0.558577210185387 
797	 0.558852079777748 
798	 0.559196994953129 
799	 0.559395315787602 
800	 0.55962019739151 
801	 0.559923075542424 
802	 0.560240255144695 
803	 0.560506311597462 
804	 0.560776320256036 
805	 0.561049987823113 
806	 0.561220343859229 
807	 0.561488327809384 
808	 0.561843358941118 
809	 0.56219894858023 
810	 0.562425135012484 
811	 0.562631131707174 
812	 0.562832669407789 
813	 0.56302734118364 
814	 0.563366021245454 
815	 0.563646724284771 
816	 0.563822520016482 
817	 0.564003837226383 
818	 0.564194340224698 
819	 0.56443525269411 
820	 0.564706587827323 
821	 0.564886784461486 
822	 0.565134931142772 
823	 0.565366720372595 
824	 0.565518055468413 
825	 0.565796105771848 
826	 0.566061893230632 
827	 0.566284638518672 
828	 0.566475889026234 
829	 0.566572227281875 
830	 0.566691115771657 
831	 0.566901024744239 
832	 0.567198260779514 
833	 0.567429088636022 
834	 0.567624308989456 
835	 0.56779385960438 
836	 0.567870738729056 
837	 0.568097891115153 
838	 0.568348115687962 
839	 0.568504673688713 
840	 0.568764288408863 
841	 0.568981725920448 
842	 0.569174189734104 
843	 0.569403668387237 
844	 0.569614674474295 
845	 0.569744037922024 
846	 0.569866374705207 
847	 0.570129725345254 
848	 0.570399882707673 
849	 0.570609886070689 
850	 0.570765902887336 
851	 0.570952689148718 
852	 0.571193163754651 
853	 0.571441542438212 
854	 0.57166561920631 
855	 0.571901662104388 
856	 0.572068809233462 
857	 0.572230379845821 
858	 0.572442810011379 
859	 0.572560276484068 
860	 0.572710824599979 
861	 0.572887617323483 
862	 0.573027697794808 
863	 0.57319934377535 
864	 0.573376889821633 
865	 0.573545036641309 
866	 0.573700559922858 
867	 0.5738018345873 
868	 0.573906789366498 
869	 0.574072898193516 
870	 0.574329619406437 
871	 0.574511252492637 
872	 0.574619178514546 
873	 0.574702746532611 
874	 0.57482068808481 
875	 0.574946031609292 
876	 0.575045981676671 
877	 0.575113363925234 
878	 0.575228854997091 
879	 0.57541988930543 
880	 0.575564923391607 
881	 0.575552729794031 
882	 0.575726118115354 
883	 0.575932207089498 
884	 0.576072358169699 
885	 0.576129598875981 
886	 0.576190081146643 
887	 0.576225126174443 
888	 0.576279423174583 
889	 0.576471021289649 
890	 0.57648334328689 
891	 0.576454507598889 
892	 0.576500459262176 
893	 0.576549642974111 
894	 0.576708674157655 
895	 0.576882697649486 
896	 0.576955934006561 
897	 0.576880710173019 
898	 0.576912886872841 
899	 0.577084144189376 
900	 0.577305296736264 
901	 0.577401616634226 
902	 0.577457159438716 
903	 0.57748679368588 
904	 0.577493520504291 
905	 0.577606885379106 
906	 0.577745502910893 
907	 0.577869143805052 
908	 0.577985636425378 
909	 0.578149584548685 
910	 0.57828948237546 
911	 0.578422523880235 
912	 0.578649032489539 
913	 0.578820984019957 
914	 0.578982189000592 
915	 0.579141145800708 
916	 0.579226698339715 
917	 0.579376589839738 
918	 0.579598919487324 
919	 0.579871400084007 
920	 0.580175890530541 
921	 0.580329008336529 
922	 0.580407413059982 
923	 0.580514326231644 
924	 0.580614415520469 
925	 0.580821895118003 
926	 0.581058478386366 
927	 0.581244963109501 
928	 0.581544922019531 
929	 0.58170268075931 
930	 0.581794976835204 
931	 0.581985604772342 
932	 0.582132505234731 
933	 0.582355147144174 
934	 0.582665588214935 
935	 0.582994894077245 
936	 0.583228485435107 
937	 0.583436723535924 
938	 0.583639697190418 
939	 0.583819863732701 
940	 0.5840218422159 
941	 0.584155140633513 
942	 0.584252185550847 
943	 0.584438921190146 
944	 0.584613369998774 
945	 0.58477763191837 
946	 0.584942753843242 
947	 0.585112032157529 
948	 0.585229845617872 
949	 0.585326095364522 
950	 0.585454581206461 
951	 0.585665279825825 
952	 0.585790026746991 
953	 0.585866122308724 
954	 0.585966779741206 
955	 0.586147432679955 
956	 0.586263993495183 
957	 0.586267150041039 
958	 0.586252953776803 
959	 0.586500530261243 
960	 0.58662335935333 
961	 0.586662081201852 
962	 0.586734683688565 
963	 0.586893717388723 
964	 0.586975817390989 
965	 0.587049614824111 
966	 0.587185107685462 
967	 0.587307413761325 
968	 0.587524429427708 
969	 0.587652559728978 
970	 0.587596836534941 
971	 0.58768796481107 
972	 0.587688109109855 
973	 0.587745011982211 
974	 0.588008267931431 
975	 0.588331438818715 
976	 0.588404476794284 
977	 0.588426618709142 
978	 0.588630559008211 
979	 0.588781891109994 
980	 0.58900216451476 
981	 0.589123123895331 
982	 0.589034672303617 
983	 0.589087796546731 
984	 0.589283241582956 
985	 0.58956430829127 
986	 0.589788430889583 
987	 0.589632486505698 
988	 0.589697032155537 
989	 0.589963307590998 
990	 0.590211720282029 
991	 0.590443631301786 
992	 0.590458360829282 
993	 0.590419281759089 
994	 0.590558940579959 
995	 0.59086527296109 
996	 0.590939788855877 
997	 0.590932493017538 
998	 0.591120588954334 
999	 0.591476808421688 
1000	 0.591569055615219 
1001	 0.584998385957928 
1002	 0.585089905202826 
1003	 0.585166969994796 
1004	 0.585256096448682 
1005	 0.585368518775261 
1006	 0.585467348458553 
1007	 0.585566403719143 
1008	 0.585632642465045 
1009	 0.585661164298063 
1010	 0.585728219990941 
1011	 0.585802735769006 
1012	 0.58586886086278 
1013	 0.585965692968885 
1014	 0.586040725007246 
1015	 0.586092125085169 
1016	 0.586109377504974 
1017	 0.586190702526936 
1018	 0.586307987833701 
1019	 0.586393016623176 
1020	 0.586510857344284 
1021	 0.586604817019436 
1022	 0.586658526035266 
1023	 0.586752124973013 
1024	 0.586865549087198 
1025	 0.586976729344237 
1026	 0.58709355746539 
1027	 0.587227752315599 
1028	 0.587370728161532 
1029	 0.587515438005773 
1030	 0.587684395803018 
1031	 0.587877088752387 
1032	 0.588074451929039 
1033	 0.588290743210523 
1034	 0.588460030684501 
1035	 0.588605735209869 
1036	 0.588799266449118 
1037	 0.588984732664293 
1038	 0.589193780192858 
1039	 0.589467744024095 
1040	 0.589700563349968 
1041	 0.589918040391692 
1042	 0.590144694712046 
1043	 0.590363459051119 
1044	 0.590583689830147 
1045	 0.590852900633431 
1046	 0.591088079403407 
1047	 0.591302859110484 
1048	 0.591511374257441 
1049	 0.591668304632091 
1050	 0.591834615275256 
1051	 0.592051807049431 
1052	 0.592257182332061 
1053	 0.592423170881657 
1054	 0.592567028866783 
1055	 0.592718475586274 
1056	 0.59284634488188 
1057	 0.592968096251727 
1058	 0.593103472774319 
1059	 0.593227026874523 
1060	 0.59330909523056 
1061	 0.593375623812837 
1062	 0.593440824078416 
1063	 0.593514021587041 
1064	 0.593593260050486 
1065	 0.593638026188837 
1066	 0.593703088003394 
1067	 0.593809489026145 
1068	 0.593893933287242 
1069	 0.593956123101055 
1070	 0.594023909820305 
1071	 0.594099137925948 
1072	 0.594146380900694 
1073	 0.594180370455636 
1074	 0.594228545077598 
1075	 0.594272806448623 
1076	 0.594300666339107 
1077	 0.59434594746252 
1078	 0.594419482556232 
1079	 0.594469577993603 
1080	 0.594510783584735 
1081	 0.594547684751486 
1082	 0.594572186085662 
1083	 0.594630094899178 
1084	 0.594718878846977 
1085	 0.594811863953682 
1086	 0.594870826813399 
1087	 0.594924186500031 
1088	 0.594943790793407 
1089	 0.594959222998779 
1090	 0.594966882512457 
1091	 0.594991812898624 
1092	 0.595061848183025 
1093	 0.595122039859318 
1094	 0.595169064397366 
1095	 0.595227714072917 
1096	 0.595282151182169 
1097	 0.595322531988626 
1098	 0.595373693044544 
1099	 0.595430451209287 
1100	 0.595467477810465 
1101	 0.595509600787839 
1102	 0.595552775765494 
1103	 0.595586193597508 
1104	 0.59560599187071 
1105	 0.595639395715523 
1106	 0.595682749816238 
1107	 0.595723452315228 
1108	 0.59578478600439 
1109	 0.595846674984039 
1110	 0.595894020930625 
1111	 0.595933621897569 
1112	 0.59595373980663 
1113	 0.595968473501406 
1114	 0.595986804423347 
1115	 0.596012550190586 
1116	 0.596037376576477 
1117	 0.596050037894982 
1118	 0.596052000313514 
1119	 0.59602525457829 
1120	 0.596023128433172 
1121	 0.596029728154823 
1122	 0.596036285461059 
1123	 0.596013346207062 
1124	 0.595950726695639 
1125	 0.595845614144015 
1126	 0.595712073498784 
1127	 0.595568147396274 
1128	 0.595420459748812 
1129	 0.595248821376669 
1130	 0.595038529935062 
1131	 0.594809624372291 
1132	 0.59456855687883 
1133	 0.594289688805409 
1134	 0.594005176976083 
1135	 0.59369299704872 
1136	 0.593346130862872 
1137	 0.592989956806863 
1138	 0.592617724481158 
1139	 0.592226147520105 
1140	 0.591802180512432 
1141	 0.591415325969534 
1142	 0.590996588177594 
1143	 0.590558620599748 
1144	 0.590134240874529 
1145	 0.589672262012196 
1146	 0.58921802422023 
1147	 0.588763879835511 
1148	 0.588286258519197 
1149	 0.587850646836532 
1150	 0.587393215701507 
1151	 0.586924662307749 
1152	 0.586438090961701 
1153	 0.585934963013863 
1154	 0.585408137278581 
1155	 0.584876703270979 
1156	 0.584303146260569 
1157	 0.58370083291309 
1158	 0.583096845874152 
1159	 0.582470392244154 
1160	 0.581812628622806 
1161	 0.581158393681986 
1162	 0.580468886091407 
1163	 0.579758155000266 
1164	 0.579009956934614 
1165	 0.578234171412767 
1166	 0.577479393623315 
1167	 0.576689565293299 
1168	 0.575911696268109 
1169	 0.575132789482691 
1170	 0.574361501402068 
1171	 0.573558405176658 
1172	 0.572755532974064 
1173	 0.571917984085565 
1174	 0.571032218962864 
1175	 0.5701924694803 
1176	 0.56934221816453 
1177	 0.568515128980683 
1178	 0.567722066648423 
1179	 0.566897633790312 
1180	 0.566140302568217 
1181	 0.565400654015697 
1182	 0.564687459065673 
1183	 0.564093045982621 
1184	 0.563527034153814 
1185	 0.563008438056276 
1186	 0.562569810239296 
1187	 0.56220223853442 
1188	 0.56190170489255 
1189	 0.561663500274594 
1190	 0.561495865116791 
1191	 0.561424284006082 
1192	 0.561374914368848 
1193	 0.561391061118304 
1194	 0.561423977728054 
1195	 0.561494233499941 
1196	 0.561586927650999 
1197	 0.561705992348419 
1198	 0.561857494118651 
1199	 0.562028278834501 
1200	 0.562218195616613 
1201	 0.56244543680687 
1202	 0.562671450452446 
1203	 0.562915299645363 
1204	 0.563226478806014 
1205	 0.563558599670794 
1206	 0.563917470463471 
1207	 0.56431805284379 
1208	 0.564737157627282 
1209	 0.565228779697015 
1210	 0.565752597584874 
1211	 0.566361365114236 
1212	 0.56706159073086 
1213	 0.567795805898156 
1214	 0.568590670225901 
1215	 0.569430344704876 
1216	 0.570336066074298 
1217	 0.571244316833318 
1218	 0.572196104880336 
1219	 0.573167292606934 
1220	 0.574136105656384 
1221	 0.575168290754087 
1222	 0.576180548051727 
1223	 0.577193810899789 
1224	 0.578162614383874 
1225	 0.579107406647836 
1226	 0.580008755873041 
1227	 0.580886982977918 
1228	 0.581715176408054 
1229	 0.582511223631906 
1230	 0.583253435784459 
1231	 0.583940764555594 
1232	 0.584603367833403 
1233	 0.585212720917799 
1234	 0.585796361759457 
1235	 0.586346600185351 
1236	 0.586877085007511 
1237	 0.587373561962198 
1238	 0.587854139874705 
1239	 0.588322551989492 
1240	 0.588757325324915 
1241	 0.589171277330013 
1242	 0.589541886818548 
1243	 0.589903322502331 
1244	 0.590233120848678 
1245	 0.590565864479715 
1246	 0.590890663780792 
1247	 0.591193047721544 
1248	 0.591481213125125 
1249	 0.591757566891666 
1250	 0.592019078928849 
1251	 0.592258824164989 
1252	 0.592479725643468 
1253	 0.592695923805076 
1254	 0.592877263945245 
1255	 0.593080094461503 
1256	 0.593297972405075 
1257	 0.593502042044807 
1258	 0.593699491614279 
1259	 0.593901938898335 
1260	 0.594093542073824 
1261	 0.594294691550153 
1262	 0.594500221053698 
1263	 0.594721843401181 
1264	 0.594937190696219 
1265	 0.595160634457018 
1266	 0.595366099477213 
1267	 0.59557180165134 
1268	 0.595758463856593 
1269	 0.595917259257141 
1270	 0.596098868733509 
1271	 0.596285049783113 
1272	 0.596461500127998 
1273	 0.596654400503748 
1274	 0.5968174459902 
1275	 0.596964116371035 
1276	 0.597094201921069 
1277	 0.597196090600916 
1278	 0.597305242964673 
1279	 0.597413936899717 
1280	 0.597501179995386 
1281	 0.597591447260356 
1282	 0.597655252083509 
1283	 0.597691973343586 
1284	 0.597711734191241 
1285	 0.597713851193035 
1286	 0.597692223671598 
1287	 0.597681178719108 
1288	 0.597647598965786 
1289	 0.597643611602171 
1290	 0.597663890614234 
1291	 0.597654250186507 
1292	 0.597642640405938 
1293	 0.59762509367813 
1294	 0.597593359124618 
1295	 0.597558022525024 
1296	 0.597522884735957 
1297	 0.597481828344988 
1298	 0.597431609343816 
1299	 0.597374213143178 
1300	 0.597314398689106 
1301	 0.597249522797744 
1302	 0.597166466615517 
1303	 0.597093529373738 
1304	 0.597027917647654 
1305	 0.596956767904754 
1306	 0.596884219687156 
1307	 0.596811898365154 
1308	 0.596736623420511 
1309	 0.596659602794768 
1310	 0.596590824808358 
1311	 0.596531438186896 
1312	 0.596454726064542 
1313	 0.596383442657354 
1314	 0.596286583385387 
1315	 0.596168625679257 
1316	 0.596054629909449 
1317	 0.595925117952049 
1318	 0.595807507047838 
1319	 0.595691308048458 
1320	 0.595577060189606 
1321	 0.595469970298482 
1322	 0.595355838606546 
1323	 0.595255866457495 
1324	 0.595122894742632 
1325	 0.594974763766969 
1326	 0.594815436106364 
1327	 0.594636284106662 
1328	 0.594446329171598 
1329	 0.594249849938084 
1330	 0.594038967903 
1331	 0.59383183190793 
1332	 0.593579729851085 
1333	 0.59330992379544 
1334	 0.59300563760339 
1335	 0.592669541264137 
1336	 0.592293071666471 
1337	 0.591893364777337 
1338	 0.59147272624964 
1339	 0.591017158983246 
1340	 0.590535918409672 
1341	 0.590005693730612 
1342	 0.589440811801573 
1343	 0.588838766955742 
1344	 0.588198655967281 
1345	 0.587512174632429 
1346	 0.58678368904359 
1347	 0.58603394062813 
1348	 0.585230568948891 
1349	 0.58442467822285 
1350	 0.583591570329178 
1351	 0.58275943990771 
1352	 0.581890578259493 
1353	 0.581054289737643 
1354	 0.580213113387474 
1355	 0.579409713524559 
1356	 0.578639897637996 
1357	 0.5778714659402 
1358	 0.577130523602886 
1359	 0.576384009223553 
1360	 0.575647750088008 
1361	 0.574904570093125 
1362	 0.57412457064113 
1363	 0.573388412539727 
1364	 0.572608440452738 
1365	 0.571813867716647 
1366	 0.570995409344185 
1367	 0.570164088013827 
1368	 0.569308634878583 
1369	 0.568428689921777 
1370	 0.567530135580678 
1371	 0.566609955125129 
1372	 0.565689137411283 
1373	 0.564741793536919 
1374	 0.563805112837529 
1375	 0.562863286006786 
1376	 0.561919016886101 
1377	 0.560975605452315 
1378	 0.560011187632888 
1379	 0.559035315935262 
1380	 0.558055903003363 
1381	 0.557070189316222 
1382	 0.556061480900614 
1383	 0.55502119647402 
1384	 0.5540089930622 
1385	 0.552994342567733 
1386	 0.551986344790773 
1387	 0.550999209290922 
1388	 0.550027174848923 
1389	 0.549055872272057 
1390	 0.548090319397457 
1391	 0.547175076459583 
1392	 0.546202898465119 
1393	 0.545256833929797 
1394	 0.544277132843928 
1395	 0.543224994271397 
1396	 0.542156202976314 
1397	 0.540989733085577 
1398	 0.539763388703555 
1399	 0.538427313957884 
1400	 0.537016077442949 
1401	 0.535507665712551 
1402	 0.533890214714209 
1403	 0.532204870412875 
1404	 0.530421661660897 
1405	 0.528624603312942 
1406	 0.526738424059622 
1407	 0.524858070187792 
1408	 0.522917362372702 
1409	 0.52103122722725 
1410	 0.519101623049247 
1411	 0.517268611499494 
1412	 0.515455311104613 
1413	 0.513771260962092 
1414	 0.512164304533168 
1415	 0.510638817081627 
1416	 0.509216372649905 
1417	 0.50785915320042 
1418	 0.506588513184294 
1419	 0.505356024128432 
1420	 0.504184636162256 
1421	 0.503089057995654 
1422	 0.50205504438578 
1423	 0.501064801342178 
1424	 0.500168360421499 
1425	 0.499273967499549 
1426	 0.498435250829245 
1427	 0.497636878369352 
1428	 0.496884024355744 
1429	 0.496229357981159 
1430	 0.495607941744361 
1431	 0.495032511473453 
1432	 0.494523826442674 
1433	 0.494069986164008 
1434	 0.493684446704469 
1435	 0.493365236435195 
1436	 0.493093929667813 
1437	 0.492893968863446 
1438	 0.492724969529405 
1439	 0.492600608301043 
1440	 0.492520878038759 
1441	 0.492492763769483 
1442	 0.492491389092461 
1443	 0.492535521315206 
1444	 0.492603938832237 
1445	 0.492703334293512 
1446	 0.49283206052913 
1447	 0.49299455445829 
1448	 0.493180275388507 
1449	 0.493401947918831 
1450	 0.493634494556782 
1451	 0.493895949319954 
1452	 0.494164106792705 
1453	 0.49445805546493 
1454	 0.49473940600997 
1455	 0.495024124906409 
1456	 0.495311767572403 
1457	 0.495599255904825 
1458	 0.495886272280836 
1459	 0.496166414402901 
1460	 0.496466806141228 
1461	 0.496765096714767 
1462	 0.497080491942104 
1463	 0.497413531301013 
1464	 0.497765634498652 
1465	 0.498128116711488 
1466	 0.49852143546945 
1467	 0.498902520398357 
1468	 0.499304801226224 
1469	 0.499701490593618 
1470	 0.500069068723495 
1471	 0.500461270588244 
1472	 0.500866988107706 
1473	 0.501254623833558 
1474	 0.501649490341918 
1475	 0.502017712395409 
1476	 0.502373866189382 
1477	 0.502709619461626 
1478	 0.503019577445002 
1479	 0.503333833463505 
1480	 0.503632171166625 
1481	 0.503935545231385 
1482	 0.504253666774526 
1483	 0.504533367517703 
1484	 0.504793354024782 
1485	 0.505048234252299 
1486	 0.505265179363422 
1487	 0.505512127957484 
1488	 0.505775020679585 
1489	 0.506023745741192 
1490	 0.506279551794599 
1491	 0.506522909798084 
1492	 0.50673842627001 
1493	 0.506984474178737 
1494	 0.507231630639057 
1495	 0.507499052820872 
1496	 0.507795430746841 
1497	 0.508085493052048 
1498	 0.508380885590132 
1499	 0.508686491645295 
1500	 0.508992559911006 
1501	 0.509313022370135 
1502	 0.509649540980113 
1503	 0.509988324048566 
1504	 0.510335861495932 
1505	 0.51068907794556 
1506	 0.511054731657794 
1507	 0.511414991835397 
1508	 0.511773682120765 
1509	 0.512139293807696 
1510	 0.5125151299853 
1511	 0.512875662324894 
1512	 0.513238505112748 
1513	 0.513593164572494 
1514	 0.513934355997092 
1515	 0.514269446217848 
1516	 0.51460627440776 
1517	 0.514927915157018 
1518	 0.515234902292277 
1519	 0.51553134129373 
1520	 0.515808261436439 
1521	 0.516087073241085 
1522	 0.516355612047697 
1523	 0.516648520775565 
1524	 0.516920135062968 
1525	 0.517194862200766 
1526	 0.5174570552026 
1527	 0.517704961452954 
1528	 0.517954089062511 
1529	 0.518196498442082 
1530	 0.51845270903098 
1531	 0.518704658865417 
1532	 0.518972615204699 
1533	 0.519261116995654 
1534	 0.519534096838968 
1535	 0.519810233867271 
1536	 0.52007241960492 
1537	 0.520328187516162 
1538	 0.520576277106002 
1539	 0.52081699420745 
1540	 0.521048820169949 
1541	 0.521274310300545 
1542	 0.521488246633166 
1543	 0.521699049823867 
1544	 0.521880552870351 
1545	 0.522044600120041 
1546	 0.522195549665747 
1547	 0.522318764387427 
1548	 0.522444194891394 
1549	 0.522573692871913 
1550	 0.522667049127904 
1551	 0.52273539093257 
1552	 0.52280191499224 
1553	 0.522846387295314 
1554	 0.522885557318221 
1555	 0.522902011463848 
1556	 0.522954318387316 
1557	 0.522995073314401 
1558	 0.523075107728657 
1559	 0.523209717365824 
1560	 0.523317812732291 
1561	 0.523426024734498 
1562	 0.52354297257844 
1563	 0.523653136719097 
1564	 0.523783664657714 
1565	 0.523937012998192 
1566	 0.524081767805646 
1567	 0.524229022681821 
1568	 0.524384111580626 
1569	 0.524534219940495 
1570	 0.524703287752315 
1571	 0.52489922658327 
1572	 0.525076575043815 
1573	 0.52525602273693 
1574	 0.525431897478724 
1575	 0.525590287761973 
1576	 0.525765948769103 
1577	 0.525958026138598 
1578	 0.526137918786446 
1579	 0.526325395994279 
1580	 0.526495970412647 
1581	 0.526638880826838 
1582	 0.52680689613725 
1583	 0.526986179125585 
1584	 0.527154447092706 
1585	 0.527331059678057 
1586	 0.527503508203482 
1587	 0.527664650975779 
1588	 0.527824975561561 
1589	 0.527983401933141 
1590	 0.528150539395505 
1591	 0.528314737058507 
1592	 0.528482842116038 
1593	 0.528671696440939 
1594	 0.528842330693088 
1595	 0.528996396681436 
1596	 0.529158625722481 
1597	 0.529324068286878 
1598	 0.529479423651901 
1599	 0.529636371009626 
1600	 0.529784863845456 
1601	 0.529917021284674 
1602	 0.530054777421299 
1603	 0.530206946831881 
1604	 0.530329568074168 
1605	 0.530437754053764 
1606	 0.530537676955079 
1607	 0.530613221701066 
1608	 0.530690129455349 
1609	 0.530772244056042 
1610	 0.530833629081957 
1611	 0.530874053110332 
1612	 0.530916820875839 
1613	 0.530958713857966 
1614	 0.530979583351431 
1615	 0.530991298197012 
1616	 0.53099271632585 
1617	 0.530975602416362 
1618	 0.530948534751682 
1619	 0.530921528440233 
1620	 0.530871628128152 
1621	 0.530801054140847 
1622	 0.530713362312659 
1623	 0.530601102835666 
1624	 0.530486405909537 
1625	 0.530353186844176 
1626	 0.530220402852043 
1627	 0.530072482369847 
1628	 0.529942622364408 
1629	 0.529815462747568 
1630	 0.529695449531338 
1631	 0.529591759382514 
1632	 0.529488822745585 
1633	 0.52938329380988 
1634	 0.529287794116381 
1635	 0.529200578008358 
1636	 0.529121146268188 
1637	 0.529061940212761 
1638	 0.528986833977068 
1639	 0.528921875250099 
1640	 0.528831695307993 
1641	 0.528734092518576 
1642	 0.528604800797695 
1643	 0.528456882926069 
1644	 0.528279548656903 
1645	 0.528079934140537 
1646	 0.527838667278738 
1647	 0.527576789480263 
1648	 0.527257030561658 
1649	 0.526883004745479 
1650	 0.526474399468012 
1651	 0.526033320278938 
1652	 0.525530754048036 
1653	 0.524988498197415 
1654	 0.524381374464081 
1655	 0.52371529008699 
1656	 0.522970937726447 
1657	 0.522182909020689 
1658	 0.521280914284093 
1659	 0.520286466494095 
1660	 0.519215034076307 
1661	 0.518094579894822 
1662	 0.51679555460925 
1663	 0.515378255302717 
1664	 0.513808115618482 
1665	 0.512086019578564 
1666	 0.510187570555944 
1667	 0.508156433596537 
1668	 0.505971002076241 
1669	 0.503591853407042 
1670	 0.501083833424612 
1671	 0.498391216363794 
1672	 0.49561079712583 
1673	 0.492680755521744 
1674	 0.489665293597292 
1675	 0.486538268310041 
1676	 0.483413103074666 
1677	 0.480177185613721 
1678	 0.476961320111323 
1679	 0.473672902328432 
1680	 0.470465245648031 
1681	 0.467258159029494 
1682	 0.464091193698498 
1683	 0.460989328408131 
1684	 0.457974869489954 
1685	 0.454979228123923 
1686	 0.45207155994333 
1687	 0.449232570396055 
1688	 0.446477667064347 
1689	 0.443760800788452 
1690	 0.441184945294536 
1691	 0.438744175106783 
1692	 0.436445547386767 
1693	 0.434270026511934 
1694	 0.432198835182311 
1695	 0.430267951346643 
1696	 0.428387034264345 
1697	 0.426610264231003 
1698	 0.424870205341177 
1699	 0.423232727307344 
1700	 0.421629393572729 
1701	 0.420058856658489 
1702	 0.418572242936682 
1703	 0.417127604138669 
1704	 0.415779430933775 
1705	 0.414519172811454 
1706	 0.413280026998999 
1707	 0.41220698938217 
1708	 0.411169564494779 
1709	 0.410175954724495 
1710	 0.409301947062067 
1711	 0.408438081110585 
1712	 0.407613345037824 
1713	 0.406828749493987 
1714	 0.406019881340396 
1715	 0.405264653221324 
1716	 0.404542285583433 
1717	 0.403841049117225 
1718	 0.403187474636949 
1719	 0.402553729108312 
1720	 0.401950462690196 
1721	 0.401422197255858 
1722	 0.400999108035438 
1723	 0.400698078615494 
1724	 0.400532923785827 
1725	 0.400516668079523 
1726	 0.400680520523258 
1727	 0.401016725637916 
1728	 0.401505167243443 
1729	 0.402177897611465 
1730	 0.403011477863082 
1731	 0.403935366864584 
1732	 0.405015515123132 
1733	 0.406136606637624 
1734	 0.407265676048852 
1735	 0.408438108813158 
1736	 0.409518045899944 
1737	 0.410558975846344 
1738	 0.411543683394909 
1739	 0.412362638239475 
1740	 0.413056652793604 
1741	 0.413690763417096 
1742	 0.414180306677531 
1743	 0.414653065811733 
1744	 0.415072225109646 
1745	 0.415467194692158 
1746	 0.415758926422099 
1747	 0.416107301058399 
1748	 0.416446603412965 
1749	 0.416829944428956 
1750	 0.41723865959186 
1751	 0.417703197377119 
1752	 0.418190175228808 
1753	 0.418767464813771 
1754	 0.419388465675445 
1755	 0.420096036478167 
1756	 0.420873269764664 
1757	 0.421718744172084 
1758	 0.422725695956672 
1759	 0.423782933622157 
1760	 0.424988470443891 
1761	 0.426347931128374 
1762	 0.427707986308157 
1763	 0.42921771311838 
1764	 0.430800129134281 
1765	 0.432418207671566 
1766	 0.434200708992272 
1767	 0.435964957252115 
1768	 0.4377743164395 
1769	 0.439619170771318 
1770	 0.441296827262789 
1771	 0.442960893550448 
1772	 0.44456117086096 
1773	 0.446035821315393 
1774	 0.447488662491067 
1775	 0.448814070060596 
1776	 0.45007689534589 
1777	 0.451243446431243 
1778	 0.452252669331546 
1779	 0.453243883905863 
1780	 0.454127874110736 
1781	 0.454901025923419 
1782	 0.455670908335638 
1783	 0.456333006386552 
1784	 0.456892288832763 
1785	 0.457336334374026 
1786	 0.457781547946161 
1787	 0.458192314594874 
1788	 0.458568023798875 
1789	 0.458922661666797 
1790	 0.459244592515096 
1791	 0.459501306133538 
1792	 0.459768546227868 
1793	 0.46000323542476 
1794	 0.460258186407852 
1795	 0.460503551989298 
1796	 0.460743070722498 
1797	 0.461031633424438 
1798	 0.461287242391322 
1799	 0.461508044748788 
1800	 0.461717579868411 
1801	 0.466082238405125 
1802	 0.466309226969107 
1803	 0.46651401067624 
1804	 0.466706137569187 
1805	 0.466887234635171 
1806	 0.467066269520849 
1807	 0.467240531634547 
1808	 0.467407196202511 
1809	 0.467547744280374 
1810	 0.467719305499415 
1811	 0.467911827163751 
1812	 0.468085880354661 
1813	 0.468238285479366 
1814	 0.468450223282973 
1815	 0.468645293615184 
1816	 0.468826358251909 
1817	 0.469052821790264 
1818	 0.469323384343676 
1819	 0.469576335441493 
1820	 0.469849588754516 
1821	 0.470113066461387 
1822	 0.47037220672958 
1823	 0.470638731021346 
1824	 0.470897167324221 
1825	 0.471148450003288 
1826	 0.471406807410262 
1827	 0.471658855900706 
1828	 0.471924937210902 
1829	 0.472203055148833 
1830	 0.472477777799751 
1831	 0.472760244724429 
1832	 0.473041889744395 
1833	 0.473288099333117 
1834	 0.473545741381468 
1835	 0.473836634134124 
1836	 0.474115678940718 
1837	 0.47442478812167 
1838	 0.474783157992391 
1839	 0.475116091150968 
1840	 0.475442990910968 
1841	 0.475777504517356 
1842	 0.476118301264202 
1843	 0.476465965285367 
1844	 0.476796143839105 
1845	 0.477103010999429 
1846	 0.477399562416746 
1847	 0.477643955388343 
1848	 0.477876358181763 
1849	 0.478088187240738 
1850	 0.478291655829219 
1851	 0.478481443146903 
1852	 0.478649739723537 
1853	 0.478786409009383 
1854	 0.478856128219839 
1855	 0.478870900365923 
1856	 0.478858069264351 
1857	 0.478820992424263 
1858	 0.47874057135399 
1859	 0.47861483815416 
1860	 0.478455194347302 
1861	 0.4782400261838 
1862	 0.477972120087696 
1863	 0.477675537509708 
1864	 0.477308190630571 
1865	 0.476912290852472 
1866	 0.47644788618859 
1867	 0.475888516328841 
1868	 0.47532029472085 
1869	 0.474660723921525 
1870	 0.47394303285548 
1871	 0.473189562267894 
1872	 0.472359096052704 
1873	 0.471462534237378 
1874	 0.470506976720172 
1875	 0.469482712151434 
1876	 0.468299679069266 
1877	 0.467053010902544 
1878	 0.465633419571884 
1879	 0.464024059561048 
1880	 0.46238373632428 
1881	 0.460534501776279 
1882	 0.458501726649705 
1883	 0.456346911152095 
1884	 0.45400911098096 
1885	 0.451318399475918 
1886	 0.448539796676889 
1887	 0.445499709530754 
1888	 0.442138598095057 
1889	 0.438865046101524 
1890	 0.435358969913404 
1891	 0.43178279507512 
1892	 0.428242788713749 
1893	 0.424559969548399 
1894	 0.420692491934172 
1895	 0.416940843656094 
1896	 0.413100831941999 
1897	 0.40923105514794 
1898	 0.405686696180688 
1899	 0.402061076877661 
1900	 0.398548683529334 
1901	 0.395233266645089 
1902	 0.391753009704357 
1903	 0.388488351632749 
1904	 0.385329649123687 
1905	 0.382238557006614 
1906	 0.379243206278563 
1907	 0.376605037360269 
1908	 0.373969874032031 
1909	 0.371478928143675 
1910	 0.369153955285826 
1911	 0.366765903601588 
1912	 0.364564534555481 
1913	 0.362448062680577 
1914	 0.360388722016666 
1915	 0.358513676054199 
1916	 0.356837913099068 
1917	 0.355171931368102 
1918	 0.35361932381047 
1919	 0.35220891634585 
1920	 0.350765009074886 
1921	 0.349465357751484 
1922	 0.348244730176264 
1923	 0.347062347958745 
1924	 0.346063447444314 
1925	 0.345104430211484 
1926	 0.344223130387558 
1927	 0.343444459863742 
1928	 0.342718263258832 
1929	 0.342037642356118 
1930	 0.341455577322076 
1931	 0.340958262027082 
1932	 0.340529068392048 
1933	 0.340210787083376 
1934	 0.339984855874317 
1935	 0.339836639390443 
1936	 0.339774924338108 
1937	 0.339770750941495 
1938	 0.339845979875177 
1939	 0.339971442795732 
1940	 0.340159536878347 
1941	 0.340400575164556 
1942	 0.340705768365856 
1943	 0.341075523244201 
1944	 0.341488903085906 
1945	 0.341967719055436 
1946	 0.342499002624132 
1947	 0.343042061823608 
1948	 0.343651757063718 
1949	 0.344314653102742 
1950	 0.344977964672338 
1951	 0.345675338093967 
1952	 0.3463932509885 
1953	 0.347123674526833 
1954	 0.34786801812995 
1955	 0.348686474095497 
1956	 0.349487021249268 
1957	 0.350305700479285 
1958	 0.351141288296219 
1959	 0.351931216550533 
1960	 0.352753349264418 
1961	 0.353568618158982 
1962	 0.354375595914553 
1963	 0.355198696168238 
1964	 0.356028785630401 
1965	 0.356854050601441 
1966	 0.35769329162602 
1967	 0.358543311070601 
1968	 0.359335587463454 
1969	 0.360155787062046 
1970	 0.360949270420884 
1971	 0.361723997937961 
1972	 0.362573543824314 
1973	 0.36339863935096 
1974	 0.36421743240033 
1975	 0.365065732536949 
1976	 0.365882919432329 
1977	 0.366659688516827 
1978	 0.367454643812766 
1979	 0.368252067697751 
1980	 0.369042962629786 
1981	 0.369850978660671 
1982	 0.370631812748096 
1983	 0.371435976334898 
1984	 0.372215921030908 
1985	 0.372941419001546 
1986	 0.373683332840875 
1987	 0.374396792843849 
1988	 0.375072233148079 
1989	 0.375765692156032 
1990	 0.376460586124609 
1991	 0.377130636265094 
1992	 0.3778082873422 
1993	 0.378455843050108 
1994	 0.379039359856279 
1995	 0.379637729947743 
1996	 0.380195709455315 
1997	 0.380701484947779 
1998	 0.381203229783025 
1999	 0.381684232560294 
2000	 0.382135343642643 
2001	 0.382578341829949 
2002	 0.382975931625833 
2003	 0.383354081306892 
2004	 0.38367788585876 
2005	 0.383944493732561 
2006	 0.384184124411146 
2007	 0.384397529875877 
2008	 0.384543630790737 
2009	 0.384649496027921 
2010	 0.384740627533568 
2011	 0.384779135409613 
2012	 0.384762548196174 
2013	 0.384693255331328 
2014	 0.384593058694986 
2015	 0.384411443872564 
2016	 0.384158002840843 
2017	 0.383854267778342 
2018	 0.383474090554018 
2019	 0.383062325937688 
2020	 0.382608524266642 
2021	 0.382090166928924 
2022	 0.38154141126933 
2023	 0.380930262249816 
2024	 0.380196372741944 
2025	 0.379430966275825 
2026	 0.378630393150722 
2027	 0.377726945055587 
2028	 0.376874926482778 
2029	 0.376023856234165 
2030	 0.375145261880385 
2031	 0.374285093742532 
2032	 0.373364570565826 
2033	 0.372344527333858 
2034	 0.371416909658663 
2035	 0.370477850435003 
2036	 0.369559615995233 
2037	 0.368769501468528 
2038	 0.368003233589318 
2039	 0.367274956235232 
2040	 0.36658739336412 
2041	 0.365947314326542 
2042	 0.365334064610698 
2043	 0.364803136380127 
2044	 0.364334454015242 
2045	 0.363918043086057 
2046	 0.363584873724088 
2047	 0.363268270960572 
2048	 0.362993336342201 
2049	 0.362755853410846 
2050	 0.362552952566986 
2051	 0.362392739844365 
2052	 0.362276585811149 
2053	 0.362208215359075 
2054	 0.362170150143852 
2055	 0.362170309062612 
2056	 0.362212663832388 
2057	 0.36231165160676 
2058	 0.362408559245741 
2059	 0.3625503210758 
2060	 0.362682714050611 
2061	 0.362813579803872 
2062	 0.362961776932818 
2063	 0.36313323239052 
2064	 0.363302224758674 
2065	 0.363468319566094 
2066	 0.363659400436461 
2067	 0.363867835119442 
2068	 0.364063881564933 
2069	 0.364259441657089 
2070	 0.364469219044694 
2071	 0.364662027648788 
2072	 0.364839919813828 
2073	 0.365020261999609 
2074	 0.36520141273493 
2075	 0.365377582214582 
2076	 0.365550829732493 
2077	 0.365709578084509 
2078	 0.365878727465394 
2079	 0.366014031416583 
2080	 0.366124423972343 
2081	 0.366225162451654 
2082	 0.366310528734716 
2083	 0.366360706122237 
2084	 0.366431903702078 
2085	 0.366483582980135 
2086	 0.366521683532563 
2087	 0.36655798232313 
2088	 0.366568900358026 
2089	 0.366552272660983 
2090	 0.36653327385322 
2091	 0.366508307394947 
2092	 0.366456460313145 
2093	 0.366391417328336 
2094	 0.366305360280441 
2095	 0.366190083588285 
2096	 0.366066519844848 
2097	 0.365936909442667 
2098	 0.365771275306688 
2099	 0.365600139742306 
2100	 0.365432580412499 
2101	 0.365239266725528 
2102	 0.365041063719584 
2103	 0.364802852836352 
2104	 0.364528195090749 
2105	 0.364257583295834 
2106	 0.36396622764706 
2107	 0.363662974378626 
2108	 0.363359590784561 
2109	 0.36302985205906 
2110	 0.362680317840692 
2111	 0.36230696767968 
2112	 0.361893732234276 
2113	 0.361495163774931 
2114	 0.361090828870143 
2115	 0.360669456292284 
2116	 0.360255934016479 
2117	 0.35982439242591 
2118	 0.359367907439765 
2119	 0.358877384196203 
2120	 0.35839682634976 
2121	 0.357890995130693 
2122	 0.35741798893479 
2123	 0.356957694883696 
2124	 0.35648397129487 
2125	 0.356038761166055 
2126	 0.355554231468918 
2127	 0.355035633018898 
2128	 0.354529796257696 
2129	 0.354003973280647 
2130	 0.353490682016578 
2131	 0.352997186406117 
2132	 0.352482798187422 
2133	 0.351968350740936 
2134	 0.351452161052461 
2135	 0.350865469124657 
2136	 0.35026922902012 
2137	 0.349686271377911 
2138	 0.349063808140826 
2139	 0.348491758277359 
2140	 0.347958185906902 
2141	 0.347410191871425 
2142	 0.346866665329943 
2143	 0.346327813092685 
2144	 0.345797108054863 
2145	 0.345268278794014 
2146	 0.344716693115966 
2147	 0.344219681524984 
2148	 0.343751609788911 
2149	 0.34329035072529 
2150	 0.342897257986096 
2151	 0.342461065574506 
2152	 0.34200875309162 
2153	 0.341545556873451 
2154	 0.341091098699033 
2155	 0.340610594484728 
2156	 0.340157406751731 
2157	 0.339716782794421 
2158	 0.339280003447927 
2159	 0.338861409129183 
2160	 0.338413635030147 
2161	 0.33794542488958 
2162	 0.337514244225513 
2163	 0.337048875762339 
2164	 0.336662854018758 
2165	 0.336355284747211 
2166	 0.336020294268955 
2167	 0.335691115292851 
2168	 0.335406616825742 
2169	 0.335117969908904 
2170	 0.334880543323355 
2171	 0.33468258456596 
2172	 0.334537716261791 
2173	 0.334451196445323 
2174	 0.334383643302566 
2175	 0.334322509016671 
2176	 0.334323233203992 
2177	 0.334324911459284 
2178	 0.334317980359848 
2179	 0.334366700331336 
2180	 0.334470444522146 
2181	 0.334568976711627 
2182	 0.334684632182073 
2183	 0.334820638937683 
2184	 0.334976434502936 
2185	 0.335149005240801 
2186	 0.335348798642586 
2187	 0.33554861484144 
2188	 0.335787247596487 
2189	 0.335983889166342 
2190	 0.336145049350152 
2191	 0.336343020880605 
2192	 0.336545115075558 
2193	 0.33674127325899 
2194	 0.336972069434663 
2195	 0.33717987500672 
2196	 0.337373882199047 
2197	 0.337549240115738 
2198	 0.337702076807745 
2199	 0.337836867274472 
2200	 0.337948870438143 
2201	 0.338019967949038 
2202	 0.33808890379228 
2203	 0.33815373810049 
2204	 0.338191532759548 
2205	 0.338209852114223 
2206	 0.338203359000356 
2207	 0.338171621614994 
2208	 0.338122040400173 
2209	 0.338050864293583 
2210	 0.337952100198211 
2211	 0.337848869956545 
2212	 0.337696759362456 
2213	 0.337514208233463 
2214	 0.337276552472578 
2215	 0.337006088779078 
2216	 0.336667955920942 
2217	 0.336271430729278 
2218	 0.335825351241638 
2219	 0.335339602397221 
2220	 0.334767562533096 
2221	 0.334127458049525 
2222	 0.333425112419547 
2223	 0.332655260690045 
2224	 0.33175519403044 
2225	 0.330792948517526 
2226	 0.329725309434838 
2227	 0.328517697247111 
2228	 0.327195847552997 
2229	 0.325742267053052 
2230	 0.324123594771352 
2231	 0.322451894809878 
2232	 0.320699134730981 
2233	 0.318760884575761 
2234	 0.316753429408136 
2235	 0.314506165801966 
2236	 0.312021593058711 
2237	 0.309459840719212 
2238	 0.306676969798314 
2239	 0.303867917952992 
2240	 0.300993416313522 
2241	 0.297957834706098 
2242	 0.294875940086232 
2243	 0.291580687320787 
2244	 0.288025573368561 
2245	 0.284470451281786 
2246	 0.280654038257723 
2247	 0.276964034075275 
2248	 0.273327609816593 
2249	 0.269634136357637 
2250	 0.265950209425546 
2251	 0.262307413559265 
2252	 0.258383903629964 
2253	 0.254625901020267 
2254	 0.25089160817892 
2255	 0.247189770836702 
2256	 0.243883433854803 
2257	 0.240592648380808 
2258	 0.237475797212634 
2259	 0.234566072836445 
2260	 0.231680693689266 
2261	 0.228867050397811 
2262	 0.226242338660045 
2263	 0.223670693333122 
2264	 0.221378700986046 
2265	 0.219339066960404 
2266	 0.217366102840015 
2267	 0.215667372461485 
2268	 0.213902919659578 
2269	 0.212191071523425 
2270	 0.210557012254157 
2271	 0.2089510205793 
2272	 0.207425980329961 
2273	 0.206045879965047 
2274	 0.204608102820889 
2275	 0.203289689015732 
2276	 0.201811441362891 
2277	 0.200271143980699 
2278	 0.198675885528358 
2279	 0.196930435169441 
2280	 0.195200678320466 
2281	 0.193447004691517 
2282	 0.191667303662259 
2283	 0.189852019740935 
2284	 0.188058837034834 
2285	 0.186145865774863 
2286	 0.184263685616534 
2287	 0.182347079294811 
2288	 0.180422362082235 
2289	 0.178634243426495 
2290	 0.17684113231033 
2291	 0.175145470911264 
2292	 0.173472160938484 
2293	 0.171752259600157 
2294	 0.170193995188229 
2295	 0.168735714894739 
2296	 0.167422255248995 
2297	 0.16634988939038 
2298	 0.165508178681244 
2299	 0.164834296090968 
2300	 0.16432717011848 
2301	 0.164108571056253 
2302	 0.164120853691438 
2303	 0.164381454532878 
2304	 0.164955608748713 
2305	 0.165676643481762 
2306	 0.16662867806042 
2307	 0.167786186332951 
2308	 0.169130387325633 
2309	 0.170740336784357 
2310	 0.172707694531996 
2311	 0.174643315611011 
2312	 0.176928712910566 
2313	 0.178961080760252 
2314	 0.180966092298672 
2315	 0.182894092310221 
2316	 0.18472679583854 
2317	 0.186465555506914 
2318	 0.188209920624774 
2319	 0.18969597791329 
2320	 0.191065006915975 
2321	 0.192191402168162 
2322	 0.193045075631642 
2323	 0.193786807128219 
2324	 0.194327137703844 
2325	 0.194716990675829 
2326	 0.194918469273439 
2327	 0.195006120455261 
2328	 0.194926899287247 
2329	 0.194704051916145 
2330	 0.194311746243066 
2331	 0.193842098425708 
2332	 0.193260290303964 
2333	 0.192590178902878 
2334	 0.191829256174383 
2335	 0.190961551933596 
2336	 0.189953640609722 
2337	 0.18890423372686 
2338	 0.187926699389205 
2339	 0.186928236959847 
2340	 0.185986119409521 
2341	 0.185113063921232 
2342	 0.184275338137762 
2343	 0.183599932087712 
2344	 0.183127054374661 
2345	 0.182899062496844 
2346	 0.182928565432139 
2347	 0.183284994371278 
2348	 0.183851655929192 
2349	 0.184668534056075 
2350	 0.185774533836065 
2351	 0.187013129730618 
2352	 0.18840621962246 
2353	 0.189923251185121 
2354	 0.191324648911798 
2355	 0.192691713392704 
2356	 0.193931304407632 
2357	 0.194958301940015 
2358	 0.195980420026448 
2359	 0.19678895082464 
2360	 0.197478393408108 
2361	 0.198039444275548 
2362	 0.198375559604645 
2363	 0.198683385823334 
2364	 0.198964312046188 
2365	 0.199244933891226 
2366	 0.199494717925626 
2367	 0.199660072540922 
2368	 0.199781265778847 
2369	 0.199865918567979 
2370	 0.199996809423595 
2371	 0.200123176616425 
2372	 0.200200203088678 
2373	 0.200338339337945 
2374	 0.200463367646065 
2375	 0.200569719510558 
2376	 0.200705535405753 
2377	 0.200797308197674 
2378	 0.200841667318741 
2379	 0.200855415490314 
2380	 0.200859844376014 
2381	 0.200839997764269 
2382	 0.200842899499645 
2383	 0.200856695304632 
2384	 0.200835650584266 
2385	 0.200839882750148 
2386	 0.200785769288858 
2387	 0.200611113277034 
2388	 0.200587388086379 
2389	 0.200643589423618 
2390	 0.200617236187538 
2391	 0.200632063437539 
2392	 0.200592895187211 
2393	 0.200431455966323 
2394	 0.200417708321157 
2395	 0.200501122313653 
2396	 0.200523927648598 
2397	 0.200588183333694 
2398	 0.200572680806641 
2399	 0.200482727499914 
2400	 0.200459772960821 
2401	 0.200405041931956 
2402	 0.200483892319693 
2403	 0.200583938199551 
2404	 0.200686537408148 
2405	 0.200758304067802 
2406	 0.200843703610908 
2407	 0.200982664897838 
2408	 0.201069877912318 
2409	 0.201179442234709 
2410	 0.201189816227532 
2411	 0.201053556791816 
2412	 0.201067894416572 
2413	 0.201190448770997 
2414	 0.201288069458339 
2415	 0.20141130676445 
2416	 0.201399857214463 
2417	 0.201290019230473 
2418	 0.20136617271731 
2419	 0.201444930484438 
2420	 0.201503030812617 
2421	 0.201629635953549 
2422	 0.201493882992505 
2423	 0.201273864551983 
2424	 0.201230166336148 
2425	 0.201150591194954 
2426	 0.201035820793082 
2427	 0.200964918712056 
2428	 0.200828667063853 
2429	 0.200594307020459 
2430	 0.200493088216856 
2431	 0.200484407343663 
2432	 0.200222554094936 
2433	 0.199883109242576 
2434	 0.199560207776757 
2435	 0.199129119691684 
2436	 0.198809442165639 
2437	 0.198621460660464 
2438	 0.198338076233396 
2439	 0.197854032627798 
2440	 0.197358915126003 
2441	 0.196820446978667 
2442	 0.196182088764106 
2443	 0.195766100006407 
2444	 0.19538987261112 
2445	 0.194912807289947 
2446	 0.194489167048132 
2447	 0.194036822466438 
2448	 0.193570358713531 
2449	 0.193020634379512 
2450	 0.192416657688948 
2451	 0.191815101811404 
2452	 0.191095125845245 
2453	 0.19048887207982 
2454	 0.190098690377564 
2455	 0.189586789118596 
2456	 0.189132788832614 
2457	 0.188693375770028 
2458	 0.188123014600733 
2459	 0.187714828204606 
2460	 0.187336324971954 
2461	 0.186976881935801 
2462	 0.186611364293997 
2463	 0.186190477529912 
2464	 0.185805581591271 
2465	 0.185450166316781 
2466	 0.185266609104222 
2467	 0.185135532944257 
2468	 0.184876157156611 
2469	 0.184707083448081 
2470	 0.184529354114836 
2471	 0.184283672895378 
2472	 0.184166604755854 
2473	 0.184136565049738 
2474	 0.184110875651318 
2475	 0.184071458944676 
2476	 0.184081709117038 
2477	 0.184007329970716 
2478	 0.183924689156037 
2479	 0.184063321443321 
2480	 0.184335040416546 
2481	 0.184515062394801 
2482	 0.184667047976545 
2483	 0.184826945388985 
2484	 0.18504248830892 
2485	 0.185096827073624 
2486	 0.185448686045869 
2487	 0.185545703126329 
2488	 0.185462228937524 
2489	 0.185625126002884 
2490	 0.185618123121302 
2491	 0.185875026965163 
2492	 0.186218977869378 
2493	 0.186570545351503 
2494	 0.186811709681191 
2495	 0.186518870937942 
2496	 0.186559169432219 
2497	 0.187039473063413 
2498	 0.187289749343035 
2499	 0.187793162934304 
2500	 0.188403046063403 
