Wavelength	spectrum00022.asd
350	 9.12900469247527E-02 
351	 8.50216339432337E-02 
352	 0.078266485009228 
353	 7.53379623072199E-02 
354	 7.76131194437691E-02 
355	 7.72287076221214E-02 
356	 7.45814396452203E-02 
357	 7.16483051005896E-02 
358	 6.84650150563483E-02 
359	 6.62291616330609E-02 
360	 6.61091284676421E-02 
361	 6.83223472357357E-02 
362	 6.71465645454094E-02 
363	 0.063714044329269 
364	 6.02158731288069E-02 
365	 5.91130910718791E-02 
366	 6.00143484992389E-02 
367	 6.05593259488006E-02 
368	 5.91564639109876E-02 
369	 5.80140477605221E-02 
370	 5.83573330519229E-02 
371	 5.88865533424223E-02 
372	 5.73757944080205E-02 
373	 5.73489960982309E-02 
374	 5.69626643723514E-02 
375	 5.56085342332993E-02 
376	 5.52224636100622E-02 
377	 5.49464402005958E-02 
378	 5.49429805787526E-02 
379	 5.51336103042662E-02 
380	 0.053702351609807 
381	 5.29999067093634E-02 
382	 5.28357304251044E-02 
383	 5.17198747603237E-02 
384	 5.20809108582221E-02 
385	 0.052203166004276 
386	 5.11624724701205E-02 
387	 4.99053586113465E-02 
388	 4.85907576120743E-02 
389	 4.82858014921402E-02 
390	 4.92744941144187E-02 
391	 4.83785911012651E-02 
392	 4.77467734892388E-02 
393	 4.75851886257727E-02 
394	 4.68473848904641E-02 
395	 4.63972219333296E-02 
396	 4.64947448908099E-02 
397	 4.67005943486928E-02 
398	 4.55417612254397E-02 
399	 4.45299013864435E-02 
400	 4.38514880427064E-02 
401	 0.043366220643545 
402	 4.34055530387806E-02 
403	 4.32363411626976E-02 
404	 4.25608878430252E-02 
405	 4.15407466981905E-02 
406	 4.15664693312629E-02 
407	 4.14276945007501E-02 
408	 4.06251424333089E-02 
409	 4.08457277715692E-02 
410	 4.05166210611786E-02 
411	 3.97749112834618E-02 
412	 3.92858565923777E-02 
413	 3.93709850771444E-02 
414	 3.91028039048717E-02 
415	 3.85665493703628E-02 
416	 3.87382140435985E-02 
417	 3.85597905044454E-02 
418	 3.82003755138422E-02 
419	 0.037950388947446 
420	 3.78475809960931E-02 
421	 3.78757991902226E-02 
422	 3.78479271761621E-02 
423	 3.76062059181988E-02 
424	 3.76749769195956E-02 
425	 0.037543012746705 
426	 3.71753816884864E-02 
427	 3.71558057303008E-02 
428	 3.70644008272289E-02 
429	 3.70512013422436E-02 
430	 3.72078577126914E-02 
431	 3.70394905824283E-02 
432	 3.71526275741397E-02 
433	 3.73809228639355E-02 
434	 3.72077349412511E-02 
435	 0.037232196448951 
436	 3.73893226638979E-02 
437	 3.75756551026779E-02 
438	 3.77520493444826E-02 
439	 3.79605534949576E-02 
440	 0.038138374350118 
441	 3.82492524246421E-02 
442	 3.84765195196143E-02 
443	 3.87958399683819E-02 
444	 3.91889371484721E-02 
445	 3.96354561871041E-02 
446	 3.99189624333411E-02 
447	 4.02226655619202E-02 
448	 0.040690127437448 
449	 0.041232684228288 
450	 0.041854772427416 
451	 4.25036549180567E-02 
452	 4.31156265268536E-02 
453	 4.36735528198817E-02 
454	 4.44007701706459E-02 
455	 4.53098735688403E-02 
456	 4.61691238379338E-02 
457	 4.69317229976992E-02 
458	 4.77340943392946E-02 
459	 4.87428224302299E-02 
460	 0.050100770204725 
461	 5.13713153873917E-02 
462	 5.25175023522715E-02 
463	 5.37456237381032E-02 
464	 5.51285648659423E-02 
465	 5.67973651493042E-02 
466	 5.86004379214629E-02 
467	 5.99415315471222E-02 
468	 6.16839627754422E-02 
469	 6.36678913533724E-02 
470	 0.065569913119283 
471	 6.77348061381762E-02 
472	 6.99185585742938E-02 
473	 7.22016325150446E-02 
474	 7.48850481305278E-02 
475	 7.73786909471493E-02 
476	 0.079947537056752 
477	 8.28015652618227E-02 
478	 8.57169496397676E-02 
479	 8.87152723045883E-02 
480	 9.18518616520831E-02 
481	 9.51681690607152E-02 
482	 9.84835038224828E-02 
483	 0.102017621803601 
484	 0.105792872977424 
485	 0.109570788602149 
486	 0.113440184145224 
487	 0.117354730826662 
488	 0.121312926130027 
489	 0.125533642690294 
490	 0.129883441014016 
491	 0.134309956870422 
492	 0.138803586063219 
493	 0.143246353135177 
494	 0.147735214527262 
495	 0.152399093403417 
496	 0.157394035102276 
497	 0.162107571453453 
498	 0.166775569826105 
499	 0.171760630519824 
500	 0.176712117436639 
501	 0.181595549997462 
502	 0.186508517851738 
503	 0.191638791135834 
504	 0.19675329695909 
505	 0.201779342135342 
506	 0.206731879721323 
507	 0.211738641304661 
508	 0.216776261258064 
509	 0.22184060483092 
510	 0.226912408166382 
511	 0.231887815140007 
512	 0.236785650041581 
513	 0.241671659177546 
514	 0.246671641663349 
515	 0.251521971249922 
516	 0.256308921046346 
517	 0.261134216869545 
518	 0.26579417566589 
519	 0.270379591675873 
520	 0.27499304198625 
521	 0.279708211069602 
522	 0.284258557474933 
523	 0.2886750143944 
524	 0.293039324482237 
525	 0.297450334948334 
526	 0.301813522030314 
527	 0.306115194238265 
528	 0.310362272000555 
529	 0.314499126243386 
530	 0.318535203713047 
531	 0.3225268013612 
532	 0.326563760705255 
533	 0.330538321389684 
534	 0.334434404607118 
535	 0.33826053789729 
536	 0.342035053551245 
537	 0.345833610653025 
538	 0.349594144576349 
539	 0.35320409987378 
540	 0.356825562637618 
541	 0.360394922248932 
542	 0.363866521060575 
543	 0.367259885002212 
544	 0.37063886179347 
545	 0.373972636190569 
546	 0.377221392272785 
547	 0.38046645444922 
548	 0.383619694839558 
549	 0.38670016515232 
550	 0.389821875998473 
551	 0.392973103581824 
552	 0.396038689419903 
553	 0.398973604509085 
554	 0.401945687639419 
555	 0.404903848574901 
556	 0.407831594045695 
557	 0.410722542582267 
558	 0.413569723268869 
559	 0.416359129591255 
560	 0.419089789534758 
561	 0.421784107542317 
562	 0.424394642534875 
563	 0.426956420742684 
564	 0.429512390933773 
565	 0.432041632614207 
566	 0.434510935676476 
567	 0.43696831043771 
568	 0.439507184587234 
569	 0.441982858448198 
570	 0.444411648520933 
571	 0.446827096076408 
572	 0.449237988858467 
573	 0.451623330250555 
574	 0.453936041940819 
575	 0.456152130349967 
576	 0.458434033539911 
577	 0.460620895648526 
578	 0.462696556867954 
579	 0.464828946968197 
580	 0.466973037861655 
581	 0.469079935924424 
582	 0.471124741370148 
583	 0.473155020604397 
584	 0.475188612269269 
585	 0.477215806938006 
586	 0.479217098025654 
587	 0.481220600067994 
588	 0.483273399360635 
589	 0.485361679046476 
590	 0.487368172329155 
591	 0.489400469294759 
592	 0.491390644008424 
593	 0.493252081130851 
594	 0.495066016563543 
595	 0.496890166943495 
596	 0.498740315936404 
597	 0.500588220354554 
598	 0.502428568226895 
599	 0.504254842233409 
600	 0.50605838560925 
601	 0.5078102743623 
602	 0.509517738576527 
603	 0.511217379861304 
604	 0.512947498337631 
605	 0.514685278150381 
606	 0.516408264943284 
607	 0.5180893488607 
608	 0.519695035187812 
609	 0.52129885607563 
610	 0.522881389379931 
611	 0.524436801611128 
612	 0.526080762958306 
613	 0.527656567733878 
614	 0.529155782326794 
615	 0.530671772673868 
616	 0.532202689335943 
617	 0.533713275056081 
618	 0.535183722518915 
619	 0.536634046197119 
620	 0.538093843932988 
621	 0.539544812071967 
622	 0.54097276771332 
623	 0.542482507640206 
624	 0.543887468445558 
625	 0.545200119324613 
626	 0.546622480070111 
627	 0.54802759395656 
628	 0.549381032348756 
629	 0.550695304314675 
630	 0.552055371348859 
631	 0.553398610427025 
632	 0.554727471173667 
633	 0.556064544066058 
634	 0.557380934962609 
635	 0.558662247640323 
636	 0.559910151492071 
637	 0.561137511789045 
638	 0.56240107723055 
639	 0.563642589885347 
640	 0.564837533627494 
641	 0.566194121661218 
642	 0.567407945514808 
643	 0.56851675469719 
644	 0.569754517404427 
645	 0.570998049374319 
646	 0.572136855048528 
647	 0.573184130114675 
648	 0.574350491423209 
649	 0.575576201013271 
650	 0.576749094316646 
651	 0.577802426204521 
652	 0.57895049125944 
653	 0.580080477236481 
654	 0.581164977614803 
655	 0.582252000303208 
656	 0.5833270587132 
657	 0.584412864807427 
658	 0.58551062260271 
659	 0.586565974253747 
660	 0.587605216161786 
661	 0.5886678244749 
662	 0.589780925290931 
663	 0.590896342614361 
664	 0.591886439228258 
665	 0.592812572097733 
666	 0.593913144172176 
667	 0.594954416751108 
668	 0.595897030641383 
669	 0.596821612167003 
670	 0.59803834302834 
671	 0.599139824477652 
672	 0.60004322337544 
673	 0.60086498828707 
674	 0.601892130763379 
675	 0.602939475664061 
676	 0.603904765352109 
677	 0.604839496102135 
678	 0.60574664039384 
679	 0.606688298390457 
680	 0.607693698638467 
681	 0.60866875943006 
682	 0.609588181419069 
683	 0.610435710422787 
684	 0.611226374534352 
685	 0.612139421220451 
686	 0.613024940738168 
687	 0.613877518785672 
688	 0.614946370473258 
689	 0.615842486019173 
690	 0.616632027450823 
691	 0.617471169437282 
692	 0.618362475702238 
693	 0.619258796300058 
694	 0.620116976656069 
695	 0.620910594444996 
696	 0.621734519339677 
697	 0.622578193982998 
698	 0.623435425874706 
699	 0.624333941788589 
700	 0.625142928740499 
701	 0.625905660481867 
702	 0.626708374743661 
703	 0.627585836326404 
704	 0.628429128684597 
705	 0.629210656207232 
706	 0.629970468361347 
707	 0.630766823235378 
708	 0.631551468394164 
709	 0.632310926880976 
710	 0.633115233900018 
711	 0.633879852485191 
712	 0.634663318989412 
713	 0.635506214564512 
714	 0.636201687716203 
715	 0.636904244719507 
716	 0.637645363157968 
717	 0.638361170489148 
718	 0.639060224890514 
719	 0.63975486942835 
720	 0.640462456714897 
721	 0.641208371078973 
722	 0.641920719981315 
723	 0.642624567503263 
724	 0.643338642687368 
725	 0.643929654919847 
726	 0.644529325696941 
727	 0.645212752844021 
728	 0.645981186833394 
729	 0.646587372317691 
730	 0.647207731453327 
731	 0.64792623258909 
732	 0.648585050334951 
733	 0.649122884248435 
734	 0.649656671316596 
735	 0.650299873060581 
736	 0.650934140236698 
737	 0.651487623418724 
738	 0.652024118601231 
739	 0.652678996808531 
740	 0.653371347094929 
741	 0.653959214923991 
742	 0.654427461193739 
743	 0.654955911006343 
744	 0.655511505357782 
745	 0.656057117702624 
746	 0.656580041846133 
747	 0.657167158779352 
748	 0.657769446600624 
749	 0.6583403080442 
750	 0.658852938705873 
751	 0.659406400508655 
752	 0.659965020205624 
753	 0.660499471768134 
754	 0.661007797609328 
755	 0.661499367671022 
756	 0.661961427507414 
757	 0.662420830362398 
758	 0.663040776108648 
759	 0.663589597646296 
760	 0.664102023743634 
761	 0.664701733585801 
762	 0.665194619295168 
763	 0.665682016007524 
764	 0.666210201362124 
765	 0.666744238727482 
766	 0.667302562618263 
767	 0.667789114922721 
768	 0.668187747962863 
769	 0.668704439138497 
770	 0.669293575187751 
771	 0.66983740861574 
772	 0.670249845408337 
773	 0.67075286735954 
774	 0.67129577840945 
775	 0.6718033830513 
776	 0.672205428594588 
777	 0.672588516688219 
778	 0.673039135782697 
779	 0.673568650659377 
780	 0.674070555014777 
781	 0.67447643249935 
782	 0.674874707693354 
783	 0.675339645781257 
784	 0.675711163967358 
785	 0.676098415482726 
786	 0.676526715668301 
787	 0.676966434944429 
788	 0.677385519357961 
789	 0.677859303390396 
790	 0.678340984526783 
791	 0.678643703353658 
792	 0.678984701642196 
793	 0.679404905776746 
794	 0.679862765916688 
795	 0.680211103356417 
796	 0.680581892884466 
797	 0.680980473644714 
798	 0.681363839600734 
799	 0.681691460562554 
800	 0.682082795376045 
801	 0.682517676682499 
802	 0.682877797420339 
803	 0.683277706760856 
804	 0.683678315416744 
805	 0.68404659354002 
806	 0.684389509060971 
807	 0.684704315342083 
808	 0.685042811366173 
809	 0.685424511529213 
810	 0.6857293997765 
811	 0.686112260362668 
812	 0.686484328847648 
813	 0.686720564019056 
814	 0.687155956046458 
815	 0.687567602269672 
816	 0.687884019511049 
817	 0.688198895430822 
818	 0.688521055711917 
819	 0.688828760392603 
820	 0.689126092661447 
821	 0.689468059937684 
822	 0.689833531343758 
823	 0.690164339593585 
824	 0.690441093937335 
825	 0.690796214757849 
826	 0.691123051018655 
827	 0.691406976801577 
828	 0.691683910669038 
829	 0.692001216553574 
830	 0.692339069633862 
831	 0.692652428870187 
832	 0.692896250392199 
833	 0.693213064677122 
834	 0.693596998744566 
835	 0.694004174283553 
836	 0.69437462029978 
837	 0.694594326302184 
838	 0.694752239094556 
839	 0.694972990991003 
840	 0.695315307349998 
841	 0.695740315114068 
842	 0.696130371546304 
843	 0.696377923706498 
844	 0.696574220142854 
845	 0.696843943898896 
846	 0.697217818015586 
847	 0.697624477082831 
848	 0.697805845232163 
849	 0.697974310431564 
850	 0.698270693826504 
851	 0.698659195453227 
852	 0.698927929853307 
853	 0.699083865773549 
854	 0.699248398437115 
855	 0.699672386609254 
856	 0.700055595067929 
857	 0.700311596191029 
858	 0.700468498584983 
859	 0.700669814282165 
860	 0.700965121646769 
861	 0.701278014257196 
862	 0.701494189072029 
863	 0.701716703904426 
864	 0.701913331383948 
865	 0.702108639870388 
866	 0.702367512515898 
867	 0.702574271499172 
868	 0.702811644145642 
869	 0.703086234582895 
870	 0.703269988605319 
871	 0.703420625841004 
872	 0.70357874088647 
873	 0.703772145990406 
874	 0.704009057291477 
875	 0.704222418767899 
876	 0.704445129931682 
877	 0.704707842082809 
878	 0.70492216828686 
879	 0.705044739184511 
880	 0.705109199444265 
881	 0.705193711755428 
882	 0.705376174767019 
883	 0.705519117416757 
884	 0.705588363477001 
885	 0.70565131070528 
886	 0.705807695149432 
887	 0.705987212405502 
888	 0.706134378223036 
889	 0.706244159674316 
890	 0.706430826754945 
891	 0.706538810735185 
892	 0.706529033680955 
893	 0.706635693247116 
894	 0.706715088321469 
895	 0.706750703728838 
896	 0.706773250217947 
897	 0.706851777863851 
898	 0.706923941957426 
899	 0.70701233614521 
900	 0.707118134706927 
901	 0.707047106787157 
902	 0.707034454053325 
903	 0.70710414925489 
904	 0.707166063509798 
905	 0.707187879778492 
906	 0.707189358631507 
907	 0.7071950400606 
908	 0.707216415096797 
909	 0.707158376684318 
910	 0.707159877121683 
911	 0.707257960084794 
912	 0.707358655518201 
913	 0.707379834951052 
914	 0.707428337138697 
915	 0.707523390337496 
916	 0.707533069783315 
917	 0.70761463383329 
918	 0.707712343084919 
919	 0.707783543240677 
920	 0.707890337541253 
921	 0.708021344781331 
922	 0.708177334335083 
923	 0.708364413831171 
924	 0.708602094117413 
925	 0.708806858746397 
926	 0.709022628502593 
927	 0.709296582847576 
928	 0.709541772170855 
929	 0.709723554673826 
930	 0.709935472899841 
931	 0.710291306816452 
932	 0.710748034085493 
933	 0.711152211705659 
934	 0.711547808722027 
935	 0.71204292187301 
936	 0.712440961711889 
937	 0.712817664671678 
938	 0.713233067176123 
939	 0.713704358456928 
940	 0.714124849276758 
941	 0.714607712888359 
942	 0.715075058451938 
943	 0.715314887980787 
944	 0.715532967723378 
945	 0.715805122482882 
946	 0.71608981861778 
947	 0.71626783492969 
948	 0.716594793509691 
949	 0.716884123473571 
950	 0.717071823852272 
951	 0.717317514548428 
952	 0.717489912118227 
953	 0.717581896035617 
954	 0.71762477798739 
955	 0.717671214481158 
956	 0.717802597140559 
957	 0.717862635369141 
958	 0.717805172749889 
959	 0.717850366028717 
960	 0.717906450993628 
961	 0.718007981142714 
962	 0.718133062556997 
963	 0.718108646573939 
964	 0.718027707300622 
965	 0.717921889694777 
966	 0.71785993656985 
967	 0.718018681672203 
968	 0.718115600819204 
969	 0.718182585480965 
970	 0.71828580937411 
971	 0.718326786774771 
972	 0.718499171009271 
973	 0.71858757705677 
974	 0.7184518007812 
975	 0.718509357521296 
976	 0.718521388460223 
977	 0.718623306680502 
978	 0.718902524656624 
979	 0.718958695797007 
980	 0.719017685762987 
981	 0.71909075648004 
982	 0.719158466015901 
983	 0.719330136591641 
984	 0.719531580753267 
985	 0.719694135443926 
986	 0.7197782591714 
987	 0.71980623271717 
988	 0.72003427262184 
989	 0.720221566709819 
990	 0.720168848482569 
991	 0.720472199671087 
992	 0.720578969394243 
993	 0.720658589277795 
994	 0.720944412829665 
995	 0.720938646609274 
996	 0.721059201337406 
997	 0.721269036797015 
998	 0.721411632856578 
999	 0.721535907110143 
1000	 0.72160355170024 
1001	 0.722774696748618 
1002	 0.722934791443597 
1003	 0.72305246595981 
1004	 0.723172814121042 
1005	 0.723287266420754 
1006	 0.723391657851984 
1007	 0.723481677601731 
1008	 0.723586549325288 
1009	 0.723681090645453 
1010	 0.723796147220995 
1011	 0.723951218312439 
1012	 0.72405032216104 
1013	 0.72411882749373 
1014	 0.724212753167045 
1015	 0.724306925941658 
1016	 0.724365224616932 
1017	 0.724416533452699 
1018	 0.724487175476651 
1019	 0.724565157773699 
1020	 0.724656412604869 
1021	 0.724760270268347 
1022	 0.72491328459699 
1023	 0.725052735904489 
1024	 0.725180378278539 
1025	 0.725319518374585 
1026	 0.725478095764643 
1027	 0.725636499508697 
1028	 0.725812525484054 
1029	 0.725945662411002 
1030	 0.72606152466307 
1031	 0.726219562423823 
1032	 0.726330160848276 
1033	 0.726439607463562 
1034	 0.726580065418088 
1035	 0.726694208455171 
1036	 0.726860637023368 
1037	 0.727069663122873 
1038	 0.72725452435604 
1039	 0.727464167938803 
1040	 0.727666492907627 
1041	 0.727834842510818 
1042	 0.728027102382328 
1043	 0.728234901177406 
1044	 0.728460975303191 
1045	 0.728688921414622 
1046	 0.7289098648433 
1047	 0.729133915411397 
1048	 0.729352608873773 
1049	 0.729542308870368 
1050	 0.729758146627689 
1051	 0.729975749925771 
1052	 0.730180617286463 
1053	 0.730411650380643 
1054	 0.730665251090909 
1055	 0.730899579869853 
1056	 0.731132878263576 
1057	 0.731399377971685 
1058	 0.731681895227123 
1059	 0.73194365724131 
1060	 0.732233090606615 
1061	 0.73248762494646 
1062	 0.732665812520492 
1063	 0.732847851265458 
1064	 0.733024089523427 
1065	 0.733194558110821 
1066	 0.733412949672327 
1067	 0.733646131984828 
1068	 0.733883659010243 
1069	 0.734121743559774 
1070	 0.734324897962487 
1071	 0.734504584384127 
1072	 0.734653014467394 
1073	 0.734807466547834 
1074	 0.734967610152146 
1075	 0.735109138073389 
1076	 0.735265689178595 
1077	 0.735421836373542 
1078	 0.735588217491611 
1079	 0.735806939819341 
1080	 0.736023639065614 
1081	 0.736225794713457 
1082	 0.736412223104098 
1083	 0.736567376902671 
1084	 0.736724062135897 
1085	 0.736887264001823 
1086	 0.737038069633125 
1087	 0.73718284833366 
1088	 0.737308622678829 
1089	 0.737426309330354 
1090	 0.737527027576974 
1091	 0.737629775006656 
1092	 0.737755383269058 
1093	 0.737873065373523 
1094	 0.737998043111546 
1095	 0.738131954109041 
1096	 0.738243276711655 
1097	 0.738345984177349 
1098	 0.738435291367888 
1099	 0.738515202256024 
1100	 0.73858860612105 
1101	 0.738641452226964 
1102	 0.738707902413016 
1103	 0.738772621814394 
1104	 0.738835273096464 
1105	 0.738882524328013 
1106	 0.738963804263599 
1107	 0.739039142026806 
1108	 0.739086958927422 
1109	 0.739142382716252 
1110	 0.739159644699941 
1111	 0.739167701857628 
1112	 0.739213008632558 
1113	 0.739239360098512 
1114	 0.739230210205944 
1115	 0.739195440562511 
1116	 0.739146217933406 
1117	 0.739093272858392 
1118	 0.739021107114098 
1119	 0.738942806428659 
1120	 0.738856451350582 
1121	 0.738756162882147 
1122	 0.738642205955677 
1123	 0.738508762906974 
1124	 0.738385356718619 
1125	 0.738207171701907 
1126	 0.737954146870156 
1127	 0.737681111472326 
1128	 0.737358225452413 
1129	 0.736993996318533 
1130	 0.736600753878916 
1131	 0.736157955743263 
1132	 0.735692787508112 
1133	 0.73517812817542 
1134	 0.734612828552269 
1135	 0.734011667477615 
1136	 0.733341631520631 
1137	 0.732683322680376 
1138	 0.732025463919302 
1139	 0.731307895701252 
1140	 0.730558196255201 
1141	 0.729811681996891 
1142	 0.728986345213129 
1143	 0.728123906243288 
1144	 0.72720236428642 
1145	 0.72619425870217 
1146	 0.725197341332479 
1147	 0.724131224057414 
1148	 0.723062453990149 
1149	 0.722061157562339 
1150	 0.720974683245164 
1151	 0.719907887859078 
1152	 0.718836800974593 
1153	 0.717754779570807 
1154	 0.7166605738047 
1155	 0.715595152099296 
1156	 0.714456859710869 
1157	 0.713279319726204 
1158	 0.712113691987196 
1159	 0.710907735819324 
1160	 0.709690000040856 
1161	 0.708529827298379 
1162	 0.707331118854414 
1163	 0.706170412116266 
1164	 0.705005599048113 
1165	 0.703824839524889 
1166	 0.702722961081859 
1167	 0.701621394607015 
1168	 0.700561965324464 
1169	 0.699492666292313 
1170	 0.698450495716266 
1171	 0.697383015062318 
1172	 0.696306808193642 
1173	 0.695212299610022 
1174	 0.694121545881587 
1175	 0.693028842727069 
1176	 0.691943973284552 
1177	 0.690811072249705 
1178	 0.689689585545204 
1179	 0.688465130557614 
1180	 0.687243456965366 
1181	 0.685979393448301 
1182	 0.684672087882454 
1183	 0.683435267423724 
1184	 0.68214376043919 
1185	 0.68086986688538 
1186	 0.679649326221573 
1187	 0.678441833107843 
1188	 0.677296866006069 
1189	 0.676179666932108 
1190	 0.675144965427193 
1191	 0.674151409764382 
1192	 0.673281623387311 
1193	 0.672508443770091 
1194	 0.671789473141305 
1195	 0.671183672229548 
1196	 0.670582231864204 
1197	 0.670020727042686 
1198	 0.669505812151334 
1199	 0.668989794759245 
1200	 0.668558473460475 
1201	 0.668152651222585 
1202	 0.667795810022535 
1203	 0.667508685891497 
1204	 0.667266065833001 
1205	 0.667133428177873 
1206	 0.667035913600021 
1207	 0.66712061701455 
1208	 0.667295808732126 
1209	 0.667670508067817 
1210	 0.668168673873951 
1211	 0.668885332920821 
1212	 0.669796446860035 
1213	 0.670881324587844 
1214	 0.672162155068628 
1215	 0.673615084582565 
1216	 0.675312599477286 
1217	 0.677046497246721 
1218	 0.678941093041225 
1219	 0.680910762956525 
1220	 0.682918595140155 
1221	 0.685068004950649 
1222	 0.687192982520621 
1223	 0.689384042631703 
1224	 0.691511819512189 
1225	 0.693649952164008 
1226	 0.695656994506578 
1227	 0.697650601106429 
1228	 0.699508612982612 
1229	 0.7012639487152 
1230	 0.702931770825532 
1231	 0.704511095046308 
1232	 0.705999610801266 
1233	 0.707360004605329 
1234	 0.708662705568463 
1235	 0.709888209650771 
1236	 0.711046603292896 
1237	 0.712131194557915 
1238	 0.713154723917719 
1239	 0.714099451884987 
1240	 0.714984805673379 
1241	 0.715859501336935 
1242	 0.716613819409776 
1243	 0.717356911380969 
1244	 0.718060399798906 
1245	 0.718720718195119 
1246	 0.71932278107718 
1247	 0.71990835550069 
1248	 0.720470220001432 
1249	 0.720984162712883 
1250	 0.721453829339902 
1251	 0.721895182543141 
1252	 0.722284477314104 
1253	 0.722668703568396 
1254	 0.723039528053731 
1255	 0.723378747939815 
1256	 0.723675998356053 
1257	 0.723984389680638 
1258	 0.724288755332525 
1259	 0.724557078027368 
1260	 0.724806166164273 
1261	 0.725054370128056 
1262	 0.725262694424478 
1263	 0.725479383293416 
1264	 0.725696663711685 
1265	 0.7259338426239 
1266	 0.726137896229539 
1267	 0.72632296499321 
1268	 0.726503872911375 
1269	 0.726667971924297 
1270	 0.726839191687053 
1271	 0.727006364230782 
1272	 0.727171948986636 
1273	 0.727336663105169 
1274	 0.727500972273948 
1275	 0.727663936276979 
1276	 0.727819820672761 
1277	 0.72796735742231 
1278	 0.728123100833709 
1279	 0.72827229453777 
1280	 0.72843004872195 
1281	 0.728611005350442 
1282	 0.728771187697414 
1283	 0.728918219950724 
1284	 0.729068206604703 
1285	 0.729214112591108 
1286	 0.729353641546969 
1287	 0.729481159449201 
1288	 0.72960834546851 
1289	 0.729723139997607 
1290	 0.729821262271391 
1291	 0.729915776601927 
1292	 0.729997602750404 
1293	 0.73009558839988 
1294	 0.730200024294808 
1295	 0.730284244038092 
1296	 0.730383808078406 
1297	 0.730449118201075 
1298	 0.730480598144819 
1299	 0.730511624075694 
1300	 0.730538915219507 
1301	 0.730544746652247 
1302	 0.730534379378917 
1303	 0.730512296801631 
1304	 0.730473850214883 
1305	 0.730423645889199 
1306	 0.730371995622396 
1307	 0.730292599530466 
1308	 0.730189434531412 
1309	 0.730072555751615 
1310	 0.729949443906034 
1311	 0.729800021660797 
1312	 0.729671180771002 
1313	 0.729545125754428 
1314	 0.729418525284935 
1315	 0.729306103314071 
1316	 0.729161937778876 
1317	 0.72900970403304 
1318	 0.728842052913245 
1319	 0.728660189339043 
1320	 0.7284569895236 
1321	 0.728243479946338 
1322	 0.728009168489109 
1323	 0.727754327402986 
1324	 0.727478618323384 
1325	 0.727187957786415 
1326	 0.726876156503196 
1327	 0.726543768666682 
1328	 0.726188545484282 
1329	 0.725832855815759 
1330	 0.725427978306895 
1331	 0.724987744724566 
1332	 0.724519443963379 
1333	 0.72403434926762 
1334	 0.723477143991876 
1335	 0.722920105652103 
1336	 0.722344035362605 
1337	 0.721729119629104 
1338	 0.721087414218394 
1339	 0.720413275010486 
1340	 0.719705189797903 
1341	 0.718974691509529 
1342	 0.718225590672729 
1343	 0.717424461941141 
1344	 0.716594113369024 
1345	 0.715717386602258 
1346	 0.71478337857025 
1347	 0.713841677340373 
1348	 0.712882994286748 
1349	 0.711873921667355 
1350	 0.710818463969004 
1351	 0.709753432353217 
1352	 0.708648764335527 
1353	 0.707526366075469 
1354	 0.706383903488177 
1355	 0.705238505535215 
1356	 0.704054174759364 
1357	 0.702885210893369 
1358	 0.701721474056541 
1359	 0.700554136017014 
1360	 0.699405028041576 
1361	 0.698228434602407 
1362	 0.697010584444711 
1363	 0.69583668377171 
1364	 0.694588638055663 
1365	 0.69333189874588 
1366	 0.691966932253887 
1367	 0.690550036394186 
1368	 0.689067364877787 
1369	 0.68751424123392 
1370	 0.685880854331764 
1371	 0.684186890006097 
1372	 0.682447660749595 
1373	 0.680618402358815 
1374	 0.678760449937814 
1375	 0.676852632330599 
1376	 0.674910526650541 
1377	 0.672921660074986 
1378	 0.670860292963242 
1379	 0.668743817524659 
1380	 0.666597920035066 
1381	 0.664384916149966 
1382	 0.662135705751103 
1383	 0.659829512213118 
1384	 0.657544503466091 
1385	 0.655185757126734 
1386	 0.65290924611166 
1387	 0.650642554158188 
1388	 0.648490971594701 
1389	 0.646397792673233 
1390	 0.644385366744696 
1391	 0.642519507867251 
1392	 0.6406156352386 
1393	 0.638852077609234 
1394	 0.637069186932876 
1395	 0.635241505108647 
1396	 0.633480133950136 
1397	 0.631532750346344 
1398	 0.629548554278594 
1399	 0.627333480574884 
1400	 0.62499202527142 
1401	 0.622461400108615 
1402	 0.619741234005655 
1403	 0.616877786762435 
1404	 0.613812262231449 
1405	 0.610743822947108 
1406	 0.607487081717906 
1407	 0.604311134138196 
1408	 0.601017586226958 
1409	 0.597932243314204 
1410	 0.59483491225772 
1411	 0.591974703865677 
1412	 0.589252643740371 
1413	 0.586771373498951 
1414	 0.584481095815934 
1415	 0.582353044405751 
1416	 0.580477441011397 
1417	 0.578675692015166 
1418	 0.577049320507992 
1419	 0.575459438700784 
1420	 0.573973712081619 
1421	 0.572560897184357 
1422	 0.571215359620811 
1423	 0.569928274824899 
1424	 0.568740165173991 
1425	 0.567564111468956 
1426	 0.566490053903229 
1427	 0.565483911663599 
1428	 0.564538884683924 
1429	 0.563738650675281 
1430	 0.562979276536425 
1431	 0.562283137069972 
1432	 0.56166828994475 
1433	 0.561135559464612 
1434	 0.560670717156463 
1435	 0.560277414535975 
1436	 0.559952987936552 
1437	 0.559712644606392 
1438	 0.559519340954631 
1439	 0.559391514943502 
1440	 0.559309560937819 
1441	 0.55929263744882 
1442	 0.559307397390798 
1443	 0.559376933876085 
1444	 0.559469799758377 
1445	 0.559605628046082 
1446	 0.559759709408279 
1447	 0.559939449778774 
1448	 0.560149750135849 
1449	 0.560396051225454 
1450	 0.560653121859604 
1451	 0.560951478990974 
1452	 0.561240604288213 
1453	 0.561544960973577 
1454	 0.561836362859007 
1455	 0.562123386501342 
1456	 0.562411093307155 
1457	 0.562691429576209 
1458	 0.56297948179858 
1459	 0.56326643938654 
1460	 0.563564722868243 
1461	 0.563870411944323 
1462	 0.564178011697748 
1463	 0.564482649291193 
1464	 0.564810165141333 
1465	 0.565135207726783 
1466	 0.565500329349518 
1467	 0.565874978576487 
1468	 0.566268185614204 
1469	 0.566667474261967 
1470	 0.56703597954799 
1471	 0.567420977201713 
1472	 0.567808920281501 
1473	 0.568188339151683 
1474	 0.568578308531909 
1475	 0.568933903664936 
1476	 0.569277499688498 
1477	 0.569593950894613 
1478	 0.569881672307101 
1479	 0.570164009875946 
1480	 0.570439308197968 
1481	 0.570674938311176 
1482	 0.570888098731254 
1483	 0.571081755295803 
1484	 0.571232723112753 
1485	 0.571391581086182 
1486	 0.571537505311877 
1487	 0.571685969495557 
1488	 0.571811826023934 
1489	 0.571970801551254 
1490	 0.572146259098269 
1491	 0.572322383278947 
1492	 0.572504629553915 
1493	 0.572711057546776 
1494	 0.57292631157342 
1495	 0.57315376693789 
1496	 0.573401918370261 
1497	 0.573664768389491 
1498	 0.573935545000541 
1499	 0.574223299049903 
1500	 0.574537491696732 
1501	 0.574857764142813 
1502	 0.575179953505252 
1503	 0.575522891564632 
1504	 0.575888461667338 
1505	 0.5762583183122 
1506	 0.57665134506755 
1507	 0.577036967120412 
1508	 0.577414935316962 
1509	 0.577811767905009 
1510	 0.578229011904009 
1511	 0.578627943067595 
1512	 0.57902764893417 
1513	 0.579431384344671 
1514	 0.579827927145785 
1515	 0.580219500187164 
1516	 0.580618398094115 
1517	 0.581013314468418 
1518	 0.581397183375826 
1519	 0.581776045728108 
1520	 0.582158545536699 
1521	 0.582525647814816 
1522	 0.582894003823225 
1523	 0.583296931973579 
1524	 0.583695546704586 
1525	 0.584111262765406 
1526	 0.584528756476893 
1527	 0.584951201516263 
1528	 0.585367013823797 
1529	 0.585786684354133 
1530	 0.586215562404596 
1531	 0.58663864296791 
1532	 0.587077451236568 
1533	 0.58753956664372 
1534	 0.587985020422868 
1535	 0.588428212823721 
1536	 0.588865495575969 
1537	 0.589299904177466 
1538	 0.589730056230842 
1539	 0.590169099251293 
1540	 0.590565388962898 
1541	 0.590952356624146 
1542	 0.591303274164516 
1543	 0.591610519709479 
1544	 0.591916064671991 
1545	 0.592208013460698 
1546	 0.592476164095334 
1547	 0.592728225670502 
1548	 0.59295430801697 
1549	 0.593165697990063 
1550	 0.593332449305752 
1551	 0.593467507383247 
1552	 0.593574621043138 
1553	 0.593632127928217 
1554	 0.593692512648552 
1555	 0.5937210133661 
1556	 0.593770146771035 
1557	 0.593804247647186 
1558	 0.593868403970262 
1559	 0.593949651962335 
1560	 0.594040898065226 
1561	 0.594152060817136 
1562	 0.594263943052518 
1563	 0.594376426709541 
1564	 0.5945122468044 
1565	 0.594649510586255 
1566	 0.594824157457112 
1567	 0.595037514390928 
1568	 0.595248517102445 
1569	 0.595482633890292 
1570	 0.59571884671259 
1571	 0.595969532790434 
1572	 0.596205544883393 
1573	 0.596443429758287 
1574	 0.596680952487472 
1575	 0.596906386931648 
1576	 0.597137308430914 
1577	 0.597375196803905 
1578	 0.597613160215259 
1579	 0.597862631712347 
1580	 0.598084788833763 
1581	 0.598304365639767 
1582	 0.598504572647952 
1583	 0.598662892779653 
1584	 0.598843548913156 
1585	 0.5990261960047 
1586	 0.599210595726723 
1587	 0.599396423567029 
1588	 0.599589720536604 
1589	 0.599772219928674 
1590	 0.599985432575026 
1591	 0.600248139141715 
1592	 0.600466039478351 
1593	 0.600675904293652 
1594	 0.600886341819495 
1595	 0.601065465842506 
1596	 0.601255195689061 
1597	 0.601465784974169 
1598	 0.601661460693843 
1599	 0.601839174597403 
1600	 0.602023881456832 
1601	 0.602199571248604 
1602	 0.602394129943357 
1603	 0.602619126450123 
1604	 0.602808432181197 
1605	 0.602999200921209 
1606	 0.603171406267407 
1607	 0.603308713704991 
1608	 0.603445247625385 
1609	 0.603583983206804 
1610	 0.603702310619963 
1611	 0.603814143489537 
1612	 0.603892576195486 
1613	 0.603944590313847 
1614	 0.603984674016543 
1615	 0.603980116995336 
1616	 0.603992482052928 
1617	 0.604018375571169 
1618	 0.604016170278725 
1619	 0.604006852250205 
1620	 0.603984766331202 
1621	 0.603943229530811 
1622	 0.603883909002983 
1623	 0.603810669283785 
1624	 0.603726726300159 
1625	 0.603625936481852 
1626	 0.603507847379315 
1627	 0.60337489076695 
1628	 0.603237171950178 
1629	 0.603069902491759 
1630	 0.602914589952092 
1631	 0.60276747101488 
1632	 0.602610522469768 
1633	 0.602449424898284 
1634	 0.602288636086045 
1635	 0.602140692032417 
1636	 0.601959760317606 
1637	 0.601767466035852 
1638	 0.601555964841691 
1639	 0.601308660528281 
1640	 0.601060629966543 
1641	 0.600821743178814 
1642	 0.60054046605024 
1643	 0.600228684801815 
1644	 0.599908988816303 
1645	 0.599567832056201 
1646	 0.599200181398645 
1647	 0.59882801849961 
1648	 0.598410654134348 
1649	 0.597953244484075 
1650	 0.59746648112893 
1651	 0.596967900677028 
1652	 0.596407123844644 
1653	 0.595801149908273 
1654	 0.595144318211542 
1655	 0.594432322889382 
1656	 0.593665904566747 
1657	 0.592872514577233 
1658	 0.591976707176626 
1659	 0.591001959095167 
1660	 0.589967905268006 
1661	 0.588870056887052 
1662	 0.587671094638197 
1663	 0.586388914420025 
1664	 0.585015008294892 
1665	 0.583529364527421 
1666	 0.581971183750273 
1667	 0.580345785856493 
1668	 0.578645076468027 
1669	 0.576873172285474 
1670	 0.574986718694005 
1671	 0.572993272061847 
1672	 0.570919542050986 
1673	 0.568734991163713 
1674	 0.566479755915468 
1675	 0.564163627010568 
1676	 0.561782057365891 
1677	 0.559324746065166 
1678	 0.556773174218839 
1679	 0.554135005597328 
1680	 0.551401718040141 
1681	 0.548564783125473 
1682	 0.545636912623626 
1683	 0.542609980009655 
1684	 0.539568392607154 
1685	 0.536441583461714 
1686	 0.533285374696433 
1687	 0.530029817451653 
1688	 0.526835447360006 
1689	 0.523616878128479 
1690	 0.520403292387377 
1691	 0.517249424834447 
1692	 0.514124530540045 
1693	 0.510994205066751 
1694	 0.507864258525724 
1695	 0.504776212616128 
1696	 0.501613684204538 
1697	 0.498421271207743 
1698	 0.4951423787514 
1699	 0.491796147800938 
1700	 0.48856791936271 
1701	 0.485245754284027 
1702	 0.482160911906837 
1703	 0.479161137853819 
1704	 0.476368488232915 
1705	 0.473717037732826 
1706	 0.471196775488374 
1707	 0.469023745536556 
1708	 0.466949304528229 
1709	 0.464982627757092 
1710	 0.463177619243488 
1711	 0.46136141357277 
1712	 0.45966988685452 
1713	 0.458019075169894 
1714	 0.456388341982811 
1715	 0.454937813493208 
1716	 0.453421881559794 
1717	 0.451978210487648 
1718	 0.450674510794202 
1719	 0.449355339422281 
1720	 0.448217865258614 
1721	 0.447228142675248 
1722	 0.446359257394226 
1723	 0.445778361095166 
1724	 0.445436654160003 
1725	 0.445347397758186 
1726	 0.445610344660972 
1727	 0.446167335622305 
1728	 0.446968910438237 
1729	 0.448066619584099 
1730	 0.449443370186798 
1731	 0.450910826358259 
1732	 0.452570367911203 
1733	 0.454296982763468 
1734	 0.455985389951885 
1735	 0.457712362074378 
1736	 0.459276858122861 
1737	 0.460679001979841 
1738	 0.461893067600181 
1739	 0.462865107050721 
1740	 0.46362946264948 
1741	 0.464211872449714 
1742	 0.464556291290997 
1743	 0.464763500919566 
1744	 0.464759629677905 
1745	 0.464672386491179 
1746	 0.464380217197206 
1747	 0.464104726123014 
1748	 0.463725591365989 
1749	 0.46338857101165 
1750	 0.462988392345025 
1751	 0.462676507922682 
1752	 0.46237256860329 
1753	 0.462201023019355 
1754	 0.462101893090163 
1755	 0.462127364879687 
1756	 0.462233809391113 
1757	 0.46244851577862 
1758	 0.462858725728182 
1759	 0.463448156194818 
1760	 0.464252235904591 
1761	 0.465298903132973 
1762	 0.466487909610335 
1763	 0.467863478933512 
1764	 0.469345843894705 
1765	 0.470935613057345 
1766	 0.472714007981314 
1767	 0.474456323940198 
1768	 0.476279604179321 
1769	 0.478166417085295 
1770	 0.479862983720612 
1771	 0.481564424215165 
1772	 0.483180134225513 
1773	 0.484585597026243 
1774	 0.486002137830117 
1775	 0.487320495506632 
1776	 0.488510721025489 
1777	 0.489661517376346 
1778	 0.490670484651745 
1779	 0.491596890952535 
1780	 0.492470990598459 
1781	 0.493250648484963 
1782	 0.493970872049127 
1783	 0.494571088801026 
1784	 0.495114301260162 
1785	 0.495567996091832 
1786	 0.495969325991671 
1787	 0.496325224288306 
1788	 0.496621710752507 
1789	 0.496821785993651 
1790	 0.497040904882339 
1791	 0.497219881314339 
1792	 0.497402748598841 
1793	 0.497579160260832 
1794	 0.497767772532087 
1795	 0.497928391504518 
1796	 0.498113964956785 
1797	 0.498344584317112 
1798	 0.498537876028025 
1799	 0.498756868421396 
1800	 0.499021802854533 
1801	 0.497447785945796 
1802	 0.497658589068802 
1803	 0.497884905481743 
1804	 0.498118225240044 
1805	 0.49837716601241 
1806	 0.498615238836353 
1807	 0.498834942855537 
1808	 0.499092194533838 
1809	 0.499378969161327 
1810	 0.499632555571984 
1811	 0.499891685934123 
1812	 0.500150452671789 
1813	 0.500379547348394 
1814	 0.50062471157434 
1815	 0.500883186531403 
1816	 0.501172080620119 
1817	 0.501486339221151 
1818	 0.501811128525133 
1819	 0.502163801402271 
1820	 0.502567475622031 
1821	 0.502955776402889 
1822	 0.503349167583316 
1823	 0.503766682963117 
1824	 0.504157117322442 
1825	 0.504556270267834 
1826	 0.504953729771585 
1827	 0.505359056359275 
1828	 0.505729589450559 
1829	 0.506076757752159 
1830	 0.506446128286908 
1831	 0.506796999589887 
1832	 0.507170091881729 
1833	 0.507549749628867 
1834	 0.507929076359576 
1835	 0.508309271884583 
1836	 0.508659924787517 
1837	 0.509043284295222 
1838	 0.509456139350506 
1839	 0.509849095188873 
1840	 0.510251043178382 
1841	 0.51064150721386 
1842	 0.511018736700238 
1843	 0.511399932892138 
1844	 0.511792887035454 
1845	 0.512152349581482 
1846	 0.512509988283231 
1847	 0.512822416239776 
1848	 0.513083320831593 
1849	 0.513306277167799 
1850	 0.513490883138106 
1851	 0.513626476220505 
1852	 0.51373020519493 
1853	 0.513813299083403 
1854	 0.513838459981674 
1855	 0.513822400693419 
1856	 0.513770039834383 
1857	 0.513666555932834 
1858	 0.513507568261308 
1859	 0.513297272553152 
1860	 0.513044902924552 
1861	 0.512721564151525 
1862	 0.512334852366304 
1863	 0.511908858367801 
1864	 0.511410446872752 
1865	 0.510877696950805 
1866	 0.510293979066468 
1867	 0.509584272031631 
1868	 0.508837710318884 
1869	 0.507959730618015 
1870	 0.506974409425939 
1871	 0.505903470545552 
1872	 0.50474674077268 
1873	 0.503474872963798 
1874	 0.502150788971326 
1875	 0.500754474408128 
1876	 0.499138299466611 
1877	 0.497482980581093 
1878	 0.495639853448303 
1879	 0.493574943909934 
1880	 0.491505924082529 
1881	 0.48922569764392 
1882	 0.486753846454632 
1883	 0.484147445464769 
1884	 0.481377969784012 
1885	 0.47823202510602 
1886	 0.474976096158202 
1887	 0.471437015835989 
1888	 0.467578730286708 
1889	 0.463829074579987 
1890	 0.459831662592458 
1891	 0.455767489657669 
1892	 0.451705983690439 
1893	 0.447438381310988 
1894	 0.442937465872706 
1895	 0.438511460783427 
1896	 0.433923895087426 
1897	 0.429285411532781 
1898	 0.424980404794259 
1899	 0.420526481790608 
1900	 0.416169988440074 
1901	 0.411938473083704 
1902	 0.407417364642907 
1903	 0.403108686426992 
1904	 0.398892229074303 
1905	 0.394696101548512 
1906	 0.390580659686889 
1907	 0.386913098177064 
1908	 0.383234411183953 
1909	 0.379721194805467 
1910	 0.376435527001604 
1911	 0.373044305462082 
1912	 0.369896336834779 
1913	 0.366868352919417 
1914	 0.363905254986116 
1915	 0.361186513778004 
1916	 0.358731185056806 
1917	 0.356289382433923 
1918	 0.353993744584316 
1919	 0.351877064504589 
1920	 0.349710959905851 
1921	 0.347738808038457 
1922	 0.345877084677355 
1923	 0.344070510217563 
1924	 0.342519353005702 
1925	 0.341040625457663 
1926	 0.339661644083636 
1927	 0.338426483437753 
1928	 0.337255205093243 
1929	 0.336148246743198 
1930	 0.335167563947153 
1931	 0.334279979608955 
1932	 0.333482504162092 
1933	 0.332852535538278 
1934	 0.332298007256668 
1935	 0.331827922671452 
1936	 0.331460099825374 
1937	 0.331169422590796 
1938	 0.330955906990706 
1939	 0.330836222103756 
1940	 0.330813529542992 
1941	 0.330867773975617 
1942	 0.33098198742605 
1943	 0.331156210376715 
1944	 0.331380063901932 
1945	 0.331658269835735 
1946	 0.332020339698903 
1947	 0.332409263595435 
1948	 0.332854429732338 
1949	 0.333364437786975 
1950	 0.333884415779816 
1951	 0.334440976965153 
1952	 0.335023059363177 
1953	 0.335627693575107 
1954	 0.336250700796189 
1955	 0.336961511506054 
1956	 0.337673570288944 
1957	 0.338421511893815 
1958	 0.339219134246693 
1959	 0.339958142316717 
1960	 0.340713006264879 
1961	 0.341477845801554 
1962	 0.342230360402517 
1963	 0.343016357051746 
1964	 0.343842686900447 
1965	 0.344637149679666 
1966	 0.34544128271942 
1967	 0.346252397194569 
1968	 0.346997766502361 
1969	 0.347770728903554 
1970	 0.348542277406428 
1971	 0.349305851982109 
1972	 0.350128076118715 
1973	 0.350941956885914 
1974	 0.351760360402124 
1975	 0.352608673510514 
1976	 0.353434110293349 
1977	 0.354245247917497 
1978	 0.355068620899296 
1979	 0.355889205347065 
1980	 0.356704650377058 
1981	 0.357580818538459 
1982	 0.358412032293101 
1983	 0.35926329026261 
1984	 0.360142149821932 
1985	 0.360924896833719 
1986	 0.361711231633896 
1987	 0.362492809211926 
1988	 0.363232699970023 
1989	 0.364003707284467 
1990	 0.364797027395373 
1991	 0.365568164811929 
1992	 0.366340798143891 
1993	 0.367120090383668 
1994	 0.367835130141314 
1995	 0.368576832723516 
1996	 0.369291528344521 
1997	 0.369960429746326 
1998	 0.370658085703424 
1999	 0.37136608467567 
2000	 0.372040506334215 
2001	 0.372733764865193 
2002	 0.373372657211155 
2003	 0.373974260850356 
2004	 0.374554354524764 
2005	 0.375088493721049 
2006	 0.37561608434576 
2007	 0.376128046979546 
2008	 0.376616230709843 
2009	 0.37709466950077 
2010	 0.377562886832807 
2011	 0.377933876695077 
2012	 0.378255377889963 
2013	 0.378548805021213 
2014	 0.378784080791152 
2015	 0.378982600816324 
2016	 0.379180770519157 
2017	 0.379285553658574 
2018	 0.379305632981325 
2019	 0.379293353068142 
2020	 0.379231230233985 
2021	 0.379109112714519 
2022	 0.378944355491618 
2023	 0.378712795851971 
2024	 0.378405081112167 
2025	 0.378049486764782 
2026	 0.377637428873623 
2027	 0.377140978919251 
2028	 0.376652010252528 
2029	 0.37610887366859 
2030	 0.375560339724738 
2031	 0.374975642859976 
2032	 0.374421717816899 
2033	 0.373830401416185 
2034	 0.373304920178035 
2035	 0.372810087136242 
2036	 0.372341399021929 
2037	 0.371950675437336 
2038	 0.37157225272082 
2039	 0.371256260302613 
2040	 0.370992691760112 
2041	 0.370787284598666 
2042	 0.370612118340735 
2043	 0.370535006816602 
2044	 0.370552115718561 
2045	 0.37059895979617 
2046	 0.370725586794802 
2047	 0.37087371930111 
2048	 0.371064122212129 
2049	 0.371281143818052 
2050	 0.371540800508729 
2051	 0.371831000670606 
2052	 0.372143712685153 
2053	 0.372485320009398 
2054	 0.372830737142063 
2055	 0.373186815378852 
2056	 0.373584748340599 
2057	 0.374001020946655 
2058	 0.374443293394469 
2059	 0.37493847852709 
2060	 0.375420159766757 
2061	 0.3759325833475 
2062	 0.376414659052844 
2063	 0.376882264363987 
2064	 0.377362587274619 
2065	 0.377839088241523 
2066	 0.378300253258021 
2067	 0.378797348624291 
2068	 0.379265758978491 
2069	 0.379720713995273 
2070	 0.380172857153608 
2071	 0.380583551171567 
2072	 0.380963170938989 
2073	 0.381341531194171 
2074	 0.381687399983203 
2075	 0.382033442384156 
2076	 0.382393096373811 
2077	 0.382707478594346 
2078	 0.382996437395507 
2079	 0.383266511361368 
2080	 0.383522132950323 
2081	 0.383735719868547 
2082	 0.383919196863307 
2083	 0.384073419142314 
2084	 0.384190680046138 
2085	 0.384275228929998 
2086	 0.38436089207016 
2087	 0.384434651037364 
2088	 0.384493116419513 
2089	 0.384545892436799 
2090	 0.384570113328599 
2091	 0.384562977634231 
2092	 0.384557928187154 
2093	 0.384554254935814 
2094	 0.384505814691168 
2095	 0.384442340989923 
2096	 0.384352871837251 
2097	 0.384220794018158 
2098	 0.384067059390655 
2099	 0.383918608275847 
2100	 0.383740416334206 
2101	 0.38352482735857 
2102	 0.383269478568167 
2103	 0.383019862097231 
2104	 0.382736804046165 
2105	 0.382462919541487 
2106	 0.382213444973548 
2107	 0.381899584986956 
2108	 0.381555956850954 
2109	 0.381188767161207 
2110	 0.38077343637609 
2111	 0.380356955192826 
2112	 0.379931802930398 
2113	 0.379476991823167 
2114	 0.378998111551064 
2115	 0.378501983324207 
2116	 0.377978502756087 
2117	 0.377441885905466 
2118	 0.376891076010042 
2119	 0.376328070742575 
2120	 0.375749412302518 
2121	 0.375131801787728 
2122	 0.374553097330174 
2123	 0.373984559758337 
2124	 0.373397418424591 
2125	 0.372849032573748 
2126	 0.37223693340364 
2127	 0.371573071937601 
2128	 0.370918511287348 
2129	 0.370217125638252 
2130	 0.369548526696167 
2131	 0.368920109602116 
2132	 0.368245477997106 
2133	 0.367559302371332 
2134	 0.366867642041703 
2135	 0.366130111591773 
2136	 0.365412925063064 
2137	 0.36467894096686 
2138	 0.363951761122706 
2139	 0.363195313801385 
2140	 0.362414260076332 
2141	 0.361627001882401 
2142	 0.360815991550783 
2143	 0.360026046656778 
2144	 0.359207328345831 
2145	 0.358452581508375 
2146	 0.357711760531922 
2147	 0.357020300824695 
2148	 0.356410146842996 
2149	 0.355770307510533 
2150	 0.355150464199565 
2151	 0.35453735023591 
2152	 0.353915322885774 
2153	 0.353301613459993 
2154	 0.352732891476398 
2155	 0.352167103724132 
2156	 0.35160779673718 
2157	 0.35105821491132 
2158	 0.350523051868234 
2159	 0.350013350423384 
2160	 0.349466119888577 
2161	 0.348898758904667 
2162	 0.348378719919568 
2163	 0.347838589007479 
2164	 0.347346394390009 
2165	 0.346916271536911 
2166	 0.346476277943339 
2167	 0.346024957308325 
2168	 0.345625332696737 
2169	 0.345237542304006 
2170	 0.344911921952075 
2171	 0.34463015988672 
2172	 0.344392342930519 
2173	 0.344213051196953 
2174	 0.344069625510895 
2175	 0.34394528266717 
2176	 0.343875798014817 
2177	 0.343827869920186 
2178	 0.343815176033981 
2179	 0.343820150307817 
2180	 0.343855389883033 
2181	 0.343914674540255 
2182	 0.344002165664253 
2183	 0.344099780172359 
2184	 0.344230873546554 
2185	 0.344364431840406 
2186	 0.344482324259587 
2187	 0.344662614478946 
2188	 0.344908521116038 
2189	 0.345119871268684 
2190	 0.345344805375241 
2191	 0.345586648799629 
2192	 0.345809903438016 
2193	 0.346056194558308 
2194	 0.346365717707357 
2195	 0.346639061190609 
2196	 0.346891702670655 
2197	 0.347154078399651 
2198	 0.347418564385947 
2199	 0.347639345053366 
2200	 0.347851342393007 
2201	 0.348041791623922 
2202	 0.348253652016237 
2203	 0.348447590565953 
2204	 0.348654592958905 
2205	 0.348889353063798 
2206	 0.349096365236925 
2207	 0.3492990795045 
2208	 0.349478822147884 
2209	 0.349639581431871 
2210	 0.349798023026556 
2211	 0.349928304111183 
2212	 0.350069779291891 
2213	 0.350240248936624 
2214	 0.350364038958902 
2215	 0.350461254918588 
2216	 0.350553922119865 
2217	 0.35063284080297 
2218	 0.350675976454666 
2219	 0.350728708576222 
2220	 0.350719462531911 
2221	 0.350653941404697 
2222	 0.350558860411963 
2223	 0.350423469293198 
2224	 0.350224659075581 
2225	 0.35002857611946 
2226	 0.349810175570383 
2227	 0.349476390461683 
2228	 0.349106084967011 
2229	 0.348614483747863 
2230	 0.347988614389602 
2231	 0.347328927685401 
2232	 0.34661736734122 
2233	 0.345795801662052 
2234	 0.34493681315399 
2235	 0.343877226571486 
2236	 0.342688374143781 
2237	 0.341360237420649 
2238	 0.339780248124493 
2239	 0.338249286004763 
2240	 0.336680165052978 
2241	 0.334971879497295 
2242	 0.333261327798575 
2243	 0.331348280325925 
2244	 0.329200439320096 
2245	 0.32704570150225 
2246	 0.324708739367499 
2247	 0.322415898501619 
2248	 0.320128075433254 
2249	 0.317765601870161 
2250	 0.315376069567646 
2251	 0.312979023290542 
2252	 0.310329727563926 
2253	 0.307767305754693 
2254	 0.305187315092242 
2255	 0.302565016314176 
2256	 0.300144926103418 
2257	 0.297699134886905 
2258	 0.295337430724237 
2259	 0.293064237117649 
2260	 0.290737088096255 
2261	 0.288423634918541 
2262	 0.286185108595595 
2263	 0.283886125470823 
2264	 0.28176766475899 
2265	 0.279792563458132 
2266	 0.277829411560029 
2267	 0.276006740169049 
2268	 0.274105464320153 
2269	 0.272204505771054 
2270	 0.270340122695405 
2271	 0.268407488825666 
2272	 0.266599497269618 
2273	 0.264916500320291 
2274	 0.263195213642142 
2275	 0.261575852141511 
2276	 0.259857939302815 
2277	 0.258086124004684 
2278	 0.25631579766094 
2279	 0.254428413237662 
2280	 0.252649004332958 
2281	 0.250954668927268 
2282	 0.249210036902552 
2283	 0.247499905792332 
2284	 0.245823160485771 
2285	 0.243931392723717 
2286	 0.242073781139507 
2287	 0.240134415460308 
2288	 0.238119966007766 
2289	 0.236269644430667 
2290	 0.234342024915306 
2291	 0.232457656102666 
2292	 0.230565656390937 
2293	 0.228479035567119 
2294	 0.226496697080891 
2295	 0.22454505273032 
2296	 0.222658296379833 
2297	 0.221059462706027 
2298	 0.219667754383983 
2299	 0.218414558902326 
2300	 0.217364849129417 
2301	 0.216514461423893 
2302	 0.215770110245779 
2303	 0.21541787167959 
2304	 0.215363267075086 
2305	 0.215560440065364 
2306	 0.216114614970931 
2307	 0.216821141773254 
2308	 0.217781178024008 
2309	 0.218942740113858 
2310	 0.220371945520879 
2311	 0.221911661646656 
2312	 0.223792530834096 
2313	 0.225545488813944 
2314	 0.227458617375817 
2315	 0.229215144950695 
2316	 0.230956735036572 
2317	 0.232498847919111 
2318	 0.234001188616286 
2319	 0.235210393699151 
2320	 0.236217946605443 
2321	 0.236999642344052 
2322	 0.237501742744826 
2323	 0.237840521079434 
2324	 0.237909356631823 
2325	 0.237904977900637 
2326	 0.237700173079675 
2327	 0.237419394354013 
2328	 0.23706613105275 
2329	 0.236534843509868 
2330	 0.235850313616938 
2331	 0.235032345499761 
2332	 0.234049445019896 
2333	 0.232878689995029 
2334	 0.231547450858341 
2335	 0.23010645138288 
2336	 0.228598885144499 
2337	 0.227022844962189 
2338	 0.225511414460599 
2339	 0.223926933558342 
2340	 0.222265072496277 
2341	 0.220720790448845 
2342	 0.21924795950206 
2343	 0.218040917620279 
2344	 0.217172600444996 
2345	 0.216564055862182 
2346	 0.216244152111184 
2347	 0.216217524982107 
2348	 0.216448049853659 
2349	 0.217048640630431 
2350	 0.217933595275946 
2351	 0.218994599751861 
2352	 0.220282938879114 
2353	 0.221678464231772 
2354	 0.222961090440421 
2355	 0.224242145109818 
2356	 0.22535495738371 
2357	 0.226180352130053 
2358	 0.226964455081236 
2359	 0.227542431096537 
2360	 0.227936941819674 
2361	 0.228232679837052 
2362	 0.228411227898098 
2363	 0.228499533420862 
2364	 0.228484490609126 
2365	 0.228431115631766 
2366	 0.22832102715426 
2367	 0.228108933756157 
2368	 0.227994091612022 
2369	 0.227933330499455 
2370	 0.227808873107688 
2371	 0.227749153988365 
2372	 0.22765899448586 
2373	 0.227518516241271 
2374	 0.227413403542127 
2375	 0.227324941048393 
2376	 0.227283598569668 
2377	 0.227234089810957 
2378	 0.227244669786099 
2379	 0.227337738163814 
2380	 0.227255300916099 
2381	 0.22714768590911 
2382	 0.227104703971813 
2383	 0.22697587873988 
2384	 0.226945732419475 
2385	 0.22706665002986 
2386	 0.22713381129046 
2387	 0.227209791986822 
2388	 0.22725864534646 
2389	 0.227328152733982 
2390	 0.227299607669264 
2391	 0.22716884169085 
2392	 0.227119997097533 
2393	 0.227104483064698 
2394	 0.227029174425032 
2395	 0.226960877060496 
2396	 0.226803135822477 
2397	 0.226513231434588 
2398	 0.226307616666196 
2399	 0.226097024057081 
2400	 0.225969269200262 
2401	 0.225959347713318 
2402	 0.225841843148543 
2403	 0.22565677716136 
2404	 0.225557742399358 
2405	 0.225343141810674 
2406	 0.22517223522047 
2407	 0.225162207408852 
2408	 0.224972820597149 
2409	 0.224650277503822 
2410	 0.224462934170075 
2411	 0.224304492540756 
2412	 0.224101762639871 
2413	 0.223973183404572 
2414	 0.223795781700058 
2415	 0.223514367000909 
2416	 0.223290140615184 
2417	 0.223114109612588 
2418	 0.222959972651918 
2419	 0.222717429335343 
2420	 0.222412150725906 
2421	 0.222288518040616 
2422	 0.222108917559525 
2423	 0.221822547023093 
2424	 0.221598695217688 
2425	 0.22122059694686 
2426	 0.220960892374135 
2427	 0.220811127464102 
2428	 0.22057209822471 
2429	 0.220492611285144 
2430	 0.220211093146679 
2431	 0.219813574938354 
2432	 0.219582532077505 
2433	 0.219192162245182 
2434	 0.218773083601818 
2435	 0.218343634438347 
2436	 0.217827101599332 
2437	 0.217455945018386 
2438	 0.217162372430666 
2439	 0.216861660148737 
2440	 0.216433181736021 
2441	 0.215791448801602 
2442	 0.215118683276045 
2443	 0.214488208125935 
2444	 0.213944693374912 
2445	 0.21350261247765 
2446	 0.212941579056107 
2447	 0.212245338762997 
2448	 0.211552485640313 
2449	 0.210750393744604 
2450	 0.210068598622625 
2451	 0.209436961804345 
2452	 0.208712751464954 
2453	 0.208217608288244 
2454	 0.207735985632826 
2455	 0.207074460081505 
2456	 0.206397531543398 
2457	 0.205750770243361 
2458	 0.205132648091002 
2459	 0.204644708358508 
2460	 0.20427127940682 
2461	 0.203818956766584 
2462	 0.203137067681813 
2463	 0.20247384874638 
2464	 0.20206231443987 
2465	 0.201577589037744 
2466	 0.201006579901832 
2467	 0.200542922339856 
2468	 0.200093396011787 
2469	 0.199781082853868 
2470	 0.199613333605899 
2471	 0.199312419276802 
2472	 0.198847068470718 
2473	 0.198407375665496 
2474	 0.198142154432093 
2475	 0.198043254930298 
2476	 0.19801035013798 
2477	 0.197821066798752 
2478	 0.197328318935205 
2479	 0.196887580283608 
2480	 0.196550050608829 
2481	 0.196388497550147 
2482	 0.196586026446174 
2483	 0.19632847393034 
2484	 0.196011200131037 
2485	 0.195758907078489 
2486	 0.195786848611099 
2487	 0.195760974007686 
2488	 0.195626204874805 
2489	 0.195264617025536 
2490	 0.194820275843722 
2491	 0.19481896491525 
2492	 0.194880880433635 
2493	 0.194944548035096 
2494	 0.195212562202149 
2495	 0.195301396732474 
2496	 0.195474967221709 
2497	 0.195855177610026 
2498	 0.195944486730082 
2499	 0.195825128455841 
2500	 0.195652303169454 
