Wavelength	spectrum00019.asd
350	 0.100670785669015 
351	 0.096527528576819 
352	 9.23040466787872E-02 
353	 9.04702518240103E-02 
354	 0.089194427710731 
355	 8.68449055237658E-02 
356	 8.41890400891478E-02 
357	 0.082032892884348 
358	 0.079392326526598 
359	 7.77822542239956E-02 
360	 7.71757111792468E-02 
361	 7.65623975964496E-02 
362	 7.42146850227168E-02 
363	 7.28315287862623E-02 
364	 7.27749558436354E-02 
365	 0.070813468627355 
366	 7.13169919394895E-02 
367	 7.15131867391317E-02 
368	 6.90688021867718E-02 
369	 6.86380369892393E-02 
370	 6.87710652981221E-02 
371	 6.86150169712148E-02 
372	 0.067757990504251 
373	 0.066226872592863 
374	 6.57952431085576E-02 
375	 6.63386847653422E-02 
376	 6.48243793874102E-02 
377	 6.44473182632952E-02 
378	 6.46484659492836E-02 
379	 6.42487747420097E-02 
380	 6.34658292546789E-02 
381	 6.30390521155212E-02 
382	 6.25351346468323E-02 
383	 6.10937762159648E-02 
384	 0.061130705101027 
385	 6.12433069673974E-02 
386	 6.05816536604285E-02 
387	 5.97996108253889E-02 
388	 0.059020397805286 
389	 5.84571737825736E-02 
390	 5.80923192980402E-02 
391	 5.69886514168793E-02 
392	 0.056818764543757 
393	 5.72468217479613E-02 
394	 5.67232829423028E-02 
395	 5.61764927316001E-02 
396	 5.57077396763141E-02 
397	 5.52556975255126E-02 
398	 5.46667364347876E-02 
399	 5.39971120271361E-02 
400	 5.34836548446838E-02 
401	 5.31991567325007E-02 
402	 5.22589338900649E-02 
403	 5.20242232543273E-02 
404	 5.21709503657449E-02 
405	 5.12435844488349E-02 
406	 5.09948426183909E-02 
407	 5.08005189463354E-02 
408	 5.02974289867222E-02 
409	 5.03539891370613E-02 
410	 0.050054748643286 
411	 4.96067743874009E-02 
412	 4.94619744454392E-02 
413	 4.93585387563954E-02 
414	 4.89523298684185E-02 
415	 0.048480281553985 
416	 4.86396565249489E-02 
417	 4.85879034397793E-02 
418	 4.85478379314664E-02 
419	 4.86731712935871E-02 
420	 4.84815991297548E-02 
421	 0.048404419735822 
422	 4.84479015534197E-02 
423	 4.84501536422859E-02 
424	 4.84024444282831E-02 
425	 4.83708146602262E-02 
426	 4.84247688056967E-02 
427	 4.86275479312701E-02 
428	 4.87129689297476E-02 
429	 4.87715014859417E-02 
430	 4.89217215134374E-02 
431	 4.91009135511535E-02 
432	 4.93347228666462E-02 
433	 4.95805074106734E-02 
434	 4.97843300403973E-02 
435	 5.01626250815161E-02 
436	 5.05073507032364E-02 
437	 5.07061310158728E-02 
438	 5.08467536979626E-02 
439	 5.12881363205895E-02 
440	 0.051814406023229 
441	 5.21628386380312E-02 
442	 5.26705360448974E-02 
443	 5.31941782224876E-02 
444	 5.37035100522359E-02 
445	 5.42703448859124E-02 
446	 5.48961779945209E-02 
447	 5.55079089289166E-02 
448	 5.60777493439028E-02 
449	 5.66895385831673E-02 
450	 0.057403387860944 
451	 5.81932144551706E-02 
452	 5.89874502566367E-02 
453	 5.96792113380583E-02 
454	 6.05913336275811E-02 
455	 6.16803729423995E-02 
456	 6.24852256532649E-02 
457	 6.33835342955814E-02 
458	 6.43421649760671E-02 
459	 6.53374510019029E-02 
460	 6.66859029837804E-02 
461	 6.78237934173854E-02 
462	 6.87793997066282E-02 
463	 6.99242092947343E-02 
464	 7.13832025104478E-02 
465	 7.28797279226958E-02 
466	 7.42498255533865E-02 
467	 7.55785660094097E-02 
468	 7.69512848895142E-02 
469	 7.84531004545676E-02 
470	 8.01232911513158E-02 
471	 8.18623662598684E-02 
472	 8.34631001949084E-02 
473	 8.50655236090669E-02 
474	 8.70428035227427E-02 
475	 8.89187691806649E-02 
476	 9.07618384114193E-02 
477	 9.26997850083376E-02 
478	 9.48060874213533E-02 
479	 9.68515854980854E-02 
480	 9.89252117153229E-02 
481	 0.101189730941894 
482	 0.103395771109687 
483	 0.105647584149439 
484	 0.107999478899054 
485	 0.11041310455618 
486	 0.112986948044727 
487	 0.115530180209245 
488	 0.117931312363653 
489	 0.120511355269222 
490	 0.123239761738056 
491	 0.1260359635062 
492	 0.128799380347116 
493	 0.131550652329825 
494	 0.134369683765101 
495	 0.137285797854693 
496	 0.140228135437341 
497	 0.143164793527705 
498	 0.146131295215065 
499	 0.149165527412053 
500	 0.152244294608293 
501	 0.155299142771709 
502	 0.158334263726965 
503	 0.161420480359667 
504	 0.164613529781679 
505	 0.167812318866016 
506	 0.170972818866351 
507	 0.174266430013103 
508	 0.177505172346554 
509	 0.180710752693624 
510	 0.183975789674962 
511	 0.187204583382822 
512	 0.190421310120468 
513	 0.193646472365664 
514	 0.196894508060712 
515	 0.200121916613869 
516	 0.203326133962698 
517	 0.206527272760934 
518	 0.209789962113642 
519	 0.212993688936109 
520	 0.216129914529323 
521	 0.219270535210581 
522	 0.222433235274215 
523	 0.225554026383757 
524	 0.228622493592963 
525	 0.231776695267765 
526	 0.23483155048994 
527	 0.237820937085421 
528	 0.240839534999263 
529	 0.24382211065959 
530	 0.246778935499466 
531	 0.249731755488414 
532	 0.252703886244692 
533	 0.255622970715293 
534	 0.258490710351112 
535	 0.261343875281688 
536	 0.264285530163674 
537	 0.26717227826379 
538	 0.269996009613527 
539	 0.272822839072226 
540	 0.275584146527406 
541	 0.278370340028301 
542	 0.281175147204722 
543	 0.283801689824722 
544	 0.286452109504108 
545	 0.289104670788874 
546	 0.291693306029167 
547	 0.294296320723645 
548	 0.296864841470837 
549	 0.299402316039812 
550	 0.301959811856299 
551	 0.304484855597655 
552	 0.306998592699861 
553	 0.309515261523915 
554	 0.311985953942972 
555	 0.314440762672438 
556	 0.316894171825158 
557	 0.319349469128662 
558	 0.321803072834617 
559	 0.324242911152739 
560	 0.326663781875824 
561	 0.329076628707284 
562	 0.331364358899689 
563	 0.333625890313793 
564	 0.335967146980217 
565	 0.338271474576678 
566	 0.340579689255688 
567	 0.342918025717085 
568	 0.345290550397541 
569	 0.347590900600354 
570	 0.349880292351203 
571	 0.352221001922164 
572	 0.354622988211335 
573	 0.35698647931004 
574	 0.359288882429563 
575	 0.361533966581565 
576	 0.363649178484549 
577	 0.365748309128693 
578	 0.367874974567182 
579	 0.369974455578335 
580	 0.372053782230955 
581	 0.374125164874397 
582	 0.376200276361024 
583	 0.378275737453149 
584	 0.380325357553174 
585	 0.382382561820541 
586	 0.384510392646893 
587	 0.386649560633668 
588	 0.388779151155593 
589	 0.390899918862862 
590	 0.393042326654841 
591	 0.395139220712027 
592	 0.397202751289136 
593	 0.399255664004572 
594	 0.401264560903123 
595	 0.403214373360475 
596	 0.405142788372647 
597	 0.407120971452944 
598	 0.409120705985409 
599	 0.41109823105614 
600	 0.413034411027934 
601	 0.414959583429078 
602	 0.416914101767143 
603	 0.418915437827451 
604	 0.420944678070839 
605	 0.422863255476421 
606	 0.424795626480008 
607	 0.426781097542298 
608	 0.428721323064341 
609	 0.430671031685064 
610	 0.432601277368651 
611	 0.434490925933185 
612	 0.436382330348917 
613	 0.438317785701865 
614	 0.440259833704873 
615	 0.442129611795841 
616	 0.443956445190928 
617	 0.445807463527122 
618	 0.447705711040897 
619	 0.449597792600902 
620	 0.451439033914688 
621	 0.453266931059238 
622	 0.455117378412811 
623	 0.456856087060368 
624	 0.458571563808194 
625	 0.460291072863931 
626	 0.461979028538316 
627	 0.463674879250813 
628	 0.465345041738002 
629	 0.466966155998156 
630	 0.468572877790653 
631	 0.470132096256121 
632	 0.47162396692204 
633	 0.473050492225415 
634	 0.474527039273692 
635	 0.475992059129948 
636	 0.477373848755409 
637	 0.478605436015179 
638	 0.479844412195549 
639	 0.481070953292221 
640	 0.482218282474555 
641	 0.483217057238859 
642	 0.484198246120627 
643	 0.485196346765481 
644	 0.486177846131663 
645	 0.487091426471673 
646	 0.487969167560348 
647	 0.488842059048532 
648	 0.489721655575569 
649	 0.490587782914054 
650	 0.491454217200498 
651	 0.492345064266524 
652	 0.493277306404388 
653	 0.49425838786627 
654	 0.495286394734423 
655	 0.496352157760196 
656	 0.497475347184865 
657	 0.498661321970867 
658	 0.49990436988155 
659	 0.501179760162341 
660	 0.502544807916619 
661	 0.50396133857449 
662	 0.505388054743941 
663	 0.506995529034907 
664	 0.508653213708712 
665	 0.510301352678903 
666	 0.511971550072997 
667	 0.513760721304203 
668	 0.515618988095498 
669	 0.517485586335837 
670	 0.519355627573785 
671	 0.521289963328534 
672	 0.523301623669114 
673	 0.525364668123647 
674	 0.527354267673699 
675	 0.529346404456849 
676	 0.53136042837204 
677	 0.533326810360037 
678	 0.535398344829173 
679	 0.537506959967104 
680	 0.539562397046665 
681	 0.54157681359049 
682	 0.543588083781713 
683	 0.545612429330647 
684	 0.547646843571699 
685	 0.549647320994167 
686	 0.551643164417269 
687	 0.553654614611903 
688	 0.555681848806174 
689	 0.557711956600298 
690	 0.55966439404685 
691	 0.561537285730323 
692	 0.563666267082968 
693	 0.565628559145063 
694	 0.567457281911644 
695	 0.569455024227087 
696	 0.571482995304633 
697	 0.573431076000609 
698	 0.575286938440116 
699	 0.577187431822123 
700	 0.579116339269636 
701	 0.581048720100777 
702	 0.582942791855471 
703	 0.584701534381801 
704	 0.586517653149955 
705	 0.588338491340652 
706	 0.589982033784112 
707	 0.591852972122824 
708	 0.593765297827313 
709	 0.595554861799724 
710	 0.597224914049045 
711	 0.598882065290408 
712	 0.600592600133896 
713	 0.602363344014264 
714	 0.604048606242179 
715	 0.605650339915678 
716	 0.607223417631353 
717	 0.608850871448811 
718	 0.610537990959234 
719	 0.612232216619589 
720	 0.61387250656173 
721	 0.615397993924918 
722	 0.616810800543897 
723	 0.618318058276753 
724	 0.620042127374009 
725	 0.621542423222978 
726	 0.622986538672632 
727	 0.624494748967397 
728	 0.626116822439084 
729	 0.627644309871305 
730	 0.629122511103597 
731	 0.630610514288447 
732	 0.632132730379186 
733	 0.633528944370186 
734	 0.634868627241928 
735	 0.636260147827776 
736	 0.637666811217809 
737	 0.63910307928904 
738	 0.640498313772452 
739	 0.64175118042543 
740	 0.643020850893915 
741	 0.644355149868678 
742	 0.64570593615995 
743	 0.64690866405264 
744	 0.648240402625547 
745	 0.649562739576722 
746	 0.650724643303124 
747	 0.651923373082855 
748	 0.653157601250665 
749	 0.654399507943191 
750	 0.655608933637589 
751	 0.656809385638444 
752	 0.65792889992904 
753	 0.658973013616265 
754	 0.660054857866382 
755	 0.661195298843134 
756	 0.662328721237421 
757	 0.663406374680165 
758	 0.66449465138699 
759	 0.665526245776878 
760	 0.666558514942654 
761	 0.667673164733871 
762	 0.668710205606847 
763	 0.669720246876177 
764	 0.670699899537438 
765	 0.67158557603301 
766	 0.672600473402376 
767	 0.673616119276091 
768	 0.674516904809844 
769	 0.675363709376286 
770	 0.676327411449428 
771	 0.677307322480291 
772	 0.678151630774188 
773	 0.679018796288403 
774	 0.679929204186063 
775	 0.680820601913462 
776	 0.681584152893909 
777	 0.682317364056936 
778	 0.683129914813644 
779	 0.684012790978123 
780	 0.68475538471303 
781	 0.685623570660026 
782	 0.686495798443501 
783	 0.687228675540598 
784	 0.688013396510752 
785	 0.68875174401987 
786	 0.689473143779624 
787	 0.690256825570032 
788	 0.690968621823059 
789	 0.691735114117111 
790	 0.692523079090379 
791	 0.693103575877689 
792	 0.693842737244505 
793	 0.694667827187306 
794	 0.695420832002727 
795	 0.695959580407177 
796	 0.696542163755005 
797	 0.697206667794144 
798	 0.697895409605748 
799	 0.698544052807368 
800	 0.699200548713654 
801	 0.699896310152567 
802	 0.700627566915987 
803	 0.701226421171452 
804	 0.701845234041096 
805	 0.702530654060246 
806	 0.703109171885328 
807	 0.703689056619091 
808	 0.704328581442107 
809	 0.705027681654595 
810	 0.705667074248574 
811	 0.70621371567302 
812	 0.706714457572733 
813	 0.707260773541388 
814	 0.707940740214507 
815	 0.708594685512684 
816	 0.709139208854745 
817	 0.709591755760033 
818	 0.710114956300324 
819	 0.71065126008153 
820	 0.711165994088381 
821	 0.711722257974926 
822	 0.712234207381642 
823	 0.712730321241957 
824	 0.713259304556384 
825	 0.713829522305256 
826	 0.714444049810964 
827	 0.715015364571462 
828	 0.715446013925121 
829	 0.715818712093386 
830	 0.71625620900442 
831	 0.716782033003302 
832	 0.717328476244712 
833	 0.717897428708398 
834	 0.718431482984761 
835	 0.718892433985943 
836	 0.719283597865079 
837	 0.719744153297624 
838	 0.720234414773124 
839	 0.72069426167835 
840	 0.721146535186121 
841	 0.721623494867803 
842	 0.722126157338617 
843	 0.722629781139734 
844	 0.723070374332964 
845	 0.723465322500245 
846	 0.723859212003745 
847	 0.724309139871645 
848	 0.724832460820467 
849	 0.72533291847526 
850	 0.725767249269212 
851	 0.726181096745305 
852	 0.726775677288652 
853	 0.727285852368738 
854	 0.727585374762465 
855	 0.728048890511363 
856	 0.728501451541395 
857	 0.728905529640513 
858	 0.729277623413622 
859	 0.729677836666354 
860	 0.7301102621133 
861	 0.730552125357064 
862	 0.730973493652008 
863	 0.731404971484147 
864	 0.731820475642203 
865	 0.732221294671065 
866	 0.732634798251988 
867	 0.733056066647183 
868	 0.733510280770994 
869	 0.73398433355053 
870	 0.734411397424715 
871	 0.734767903298214 
872	 0.735114112121854 
873	 0.73547234375204 
874	 0.735730502254855 
875	 0.736066598004908 
876	 0.736480152635801 
877	 0.736913707559267 
878	 0.73733938925119 
879	 0.737766546617638 
880	 0.738122293818086 
881	 0.738365717862839 
882	 0.738827054055279 
883	 0.739284722060754 
884	 0.739670677725051 
885	 0.740065671102712 
886	 0.740528907886635 
887	 0.74089474410403 
888	 0.741137688769226 
889	 0.741415005524059 
890	 0.741686806085053 
891	 0.741940963347659 
892	 0.742200714633295 
893	 0.742540701564495 
894	 0.742923017178254 
895	 0.743312462065468 
896	 0.743680624455889 
897	 0.744008762925186 
898	 0.744413422978105 
899	 0.744822198509582 
900	 0.745137663306106 
901	 0.74543890953282 
902	 0.745703170190552 
903	 0.745977266243753 
904	 0.74632457390618 
905	 0.746700910753678 
906	 0.747141215822719 
907	 0.747590899582242 
908	 0.747948380283525 
909	 0.748275211228817 
910	 0.748629234514442 
911	 0.749019084500037 
912	 0.749405837556272 
913	 0.749805474154492 
914	 0.750227841064641 
915	 0.750648736834601 
916	 0.751009629568273 
917	 0.75149993226168 
918	 0.751987325303806 
919	 0.752384311821101 
920	 0.752811139546731 
921	 0.753214421566114 
922	 0.753608199528621 
923	 0.753973941955795 
924	 0.754156575574962 
925	 0.754498883575618 
926	 0.754958976762084 
927	 0.755393657902782 
928	 0.75580727520539 
929	 0.756180788357543 
930	 0.756537846228526 
931	 0.756891269061858 
932	 0.757111204489541 
933	 0.757436641261452 
934	 0.757885006215198 
935	 0.758326340676385 
936	 0.758617754896003 
937	 0.758963601205121 
938	 0.759335191456557 
939	 0.759567791246024 
940	 0.759836158229442 
941	 0.760150624308602 
942	 0.760465452462635 
943	 0.760716128940126 
944	 0.760987242422877 
945	 0.761326540252772 
946	 0.761690612185159 
947	 0.761952008978671 
948	 0.762050887208738 
949	 0.762187551139125 
950	 0.762436961058146 
951	 0.762669051528259 
952	 0.762924315093933 
953	 0.76310516263337 
954	 0.763204355736508 
955	 0.763370211680834 
956	 0.763565932300597 
957	 0.763707924177714 
958	 0.763806250528849 
959	 0.764038653297238 
960	 0.764246269567133 
961	 0.764465715776785 
962	 0.764736576455681 
963	 0.765014053294941 
964	 0.765282368222379 
965	 0.765493484567515 
966	 0.765666516367849 
967	 0.765976027429773 
968	 0.76626134235613 
969	 0.766522632593123 
970	 0.766789436985345 
971	 0.767048293906362 
972	 0.76722989743421 
973	 0.767353287910756 
974	 0.767510968043627 
975	 0.767910261624172 
976	 0.768214400521641 
977	 0.768472009295038 
978	 0.768788522996906 
979	 0.76901129813237 
980	 0.769416194070056 
981	 0.769812401052143 
982	 0.769990009192646 
983	 0.770198504186551 
984	 0.770552049032405 
985	 0.77092809745684 
986	 0.771173316933622 
987	 0.771363236697412 
988	 0.771481996630002 
989	 0.77170317328325 
990	 0.772138729677758 
991	 0.772504885724484 
992	 0.772721136651869 
993	 0.77291803189631 
994	 0.773240515418567 
995	 0.77358053749297 
996	 0.773901652205556 
997	 0.774109214372427 
998	 0.774233004735281 
999	 0.774759656041424 
1000	 0.775017256304429 
1001	 0.776006308483797 
1002	 0.776255329526749 
1003	 0.776532106801711 
1004	 0.776796075241564 
1005	 0.777059081989574 
1006	 0.777285400964051 
1007	 0.777496720301033 
1008	 0.777704275311519 
1009	 0.777863791869423 
1010	 0.778074149706171 
1011	 0.778320696788187 
1012	 0.778542142573597 
1013	 0.778776370392783 
1014	 0.778985019976303 
1015	 0.77915739551666 
1016	 0.779339185044597 
1017	 0.779576466705713 
1018	 0.779848936243842 
1019	 0.780127509681645 
1020	 0.78041110645624 
1021	 0.780658870779287 
1022	 0.780845236705602 
1023	 0.781085153279805 
1024	 0.781343968210838 
1025	 0.781599650251517 
1026	 0.781884247200097 
1027	 0.782136979729155 
1028	 0.7823798711863 
1029	 0.782596297310765 
1030	 0.782825133845024 
1031	 0.783075304713206 
1032	 0.78334595936365 
1033	 0.783631634030857 
1034	 0.783882754412127 
1035	 0.784130774857163 
1036	 0.784374828016638 
1037	 0.784594287398582 
1038	 0.784833883545801 
1039	 0.785088939326264 
1040	 0.7853348715156 
1041	 0.785567503571731 
1042	 0.785816220359191 
1043	 0.786082855123953 
1044	 0.786319905857348 
1045	 0.786576570399213 
1046	 0.786877628781594 
1047	 0.78713522238569 
1048	 0.787394874808374 
1049	 0.787637127490488 
1050	 0.787823738960113 
1051	 0.788070674658503 
1052	 0.788347171384027 
1053	 0.788608022685298 
1054	 0.788911561961748 
1055	 0.789184195336567 
1056	 0.789417060428536 
1057	 0.789661107746511 
1058	 0.789921101261845 
1059	 0.790144115689876 
1060	 0.790335345517923 
1061	 0.790554125074249 
1062	 0.790780615625309 
1063	 0.790980571430471 
1064	 0.791204184272758 
1065	 0.791461646623569 
1066	 0.791717586719091 
1067	 0.791973359946706 
1068	 0.7922318767748 
1069	 0.792464528934481 
1070	 0.792702670653232 
1071	 0.792923468616149 
1072	 0.793161315222091 
1073	 0.793380128082627 
1074	 0.793590768387088 
1075	 0.793770000913524 
1076	 0.793939172020081 
1077	 0.79414333227076 
1078	 0.794356082491332 
1079	 0.79458282847961 
1080	 0.79481793767768 
1081	 0.795028686548355 
1082	 0.795200701196428 
1083	 0.795389189965265 
1084	 0.795573089256596 
1085	 0.795752526121199 
1086	 0.795938204597004 
1087	 0.796144962203462 
1088	 0.796316933462895 
1089	 0.796508690047665 
1090	 0.796679326123813 
1091	 0.796815643934852 
1092	 0.796974983873336 
1093	 0.797106369331904 
1094	 0.797225619308897 
1095	 0.797391355937356 
1096	 0.797575882530507 
1097	 0.797683255965571 
1098	 0.797776777345398 
1099	 0.797897512777459 
1100	 0.797975985429177 
1101	 0.798081424969312 
1102	 0.798216479923934 
1103	 0.798326738265227 
1104	 0.798421774356359 
1105	 0.798501551715959 
1106	 0.798580978244301 
1107	 0.798671682592051 
1108	 0.798771240098489 
1109	 0.798882652123349 
1110	 0.798974302229095 
1111	 0.799042477427939 
1112	 0.799097682201453 
1113	 0.799113021169602 
1114	 0.799137223128589 
1115	 0.799174201961403 
1116	 0.799190454441429 
1117	 0.799218711974411 
1118	 0.799237299048473 
1119	 0.799258831720094 
1120	 0.799264006237864 
1121	 0.799268117232517 
1122	 0.799242170072982 
1123	 0.79919237054113 
1124	 0.799100461127047 
1125	 0.798993876927041 
1126	 0.798886638148082 
1127	 0.798743968432522 
1128	 0.798562848655135 
1129	 0.79834972941372 
1130	 0.79809112942401 
1131	 0.797821009880854 
1132	 0.797556832862112 
1133	 0.797256618035123 
1134	 0.796958354921711 
1135	 0.796627491183303 
1136	 0.796262576598425 
1137	 0.795882615263487 
1138	 0.795479755661028 
1139	 0.795065834696391 
1140	 0.794615295106561 
1141	 0.794209797329392 
1142	 0.793796919558089 
1143	 0.793373146664068 
1144	 0.792946545692457 
1145	 0.792478296113163 
1146	 0.792018072876673 
1147	 0.791547932856851 
1148	 0.791057185494432 
1149	 0.790583768084696 
1150	 0.790079961828856 
1151	 0.789554755769961 
1152	 0.789003276601264 
1153	 0.788440512267193 
1154	 0.787833639851657 
1155	 0.787179467122917 
1156	 0.786515026022634 
1157	 0.785814426554572 
1158	 0.785132903645511 
1159	 0.784443898473583 
1160	 0.783757839011147 
1161	 0.78307159833636 
1162	 0.782327198499514 
1163	 0.781597760006188 
1164	 0.78085995286243 
1165	 0.780119595991799 
1166	 0.779438077696889 
1167	 0.778746722569075 
1168	 0.778081312595684 
1169	 0.777442051757443 
1170	 0.776811055513226 
1171	 0.7762301358217 
1172	 0.77568319315607 
1173	 0.775163606211683 
1174	 0.77468630815009 
1175	 0.77424738938636 
1176	 0.773832543117649 
1177	 0.773452044464169 
1178	 0.773116946119699 
1179	 0.772794423379929 
1180	 0.772516095196499 
1181	 0.772282055059393 
1182	 0.77208402183707 
1183	 0.771938254512284 
1184	 0.771830931412017 
1185	 0.77175694834195 
1186	 0.771732597324617 
1187	 0.771767248612463 
1188	 0.771824785974507 
1189	 0.771914967822707 
1190	 0.772043440752774 
1191	 0.772219141226102 
1192	 0.772401719818513 
1193	 0.772616169604215 
1194	 0.772848178712163 
1195	 0.773114530558331 
1196	 0.773373588581762 
1197	 0.77363924882206 
1198	 0.773920054041042 
1199	 0.774222555466755 
1200	 0.774511055206617 
1201	 0.774856085165108 
1202	 0.775213867660547 
1203	 0.775535588429165 
1204	 0.775883605442663 
1205	 0.776225003280467 
1206	 0.776541274349324 
1207	 0.776909624462072 
1208	 0.777306774386999 
1209	 0.777701121366275 
1210	 0.778118397575578 
1211	 0.778539674185903 
1212	 0.778979703551348 
1213	 0.779405028220331 
1214	 0.77983415648662 
1215	 0.780262096146816 
1216	 0.780675198409666 
1217	 0.781090736883804 
1218	 0.781515848460107 
1219	 0.781943445963613 
1220	 0.782344696413242 
1221	 0.782745720975184 
1222	 0.7831309692722 
1223	 0.783531212832262 
1224	 0.783923279086673 
1225	 0.784328298531325 
1226	 0.784689081002686 
1227	 0.785028573365336 
1228	 0.785364619822274 
1229	 0.785666120494866 
1230	 0.78598592872442 
1231	 0.786320427351552 
1232	 0.786635263291116 
1233	 0.786940158194309 
1234	 0.787238235032043 
1235	 0.787519543999002 
1236	 0.787810602948573 
1237	 0.788103104454885 
1238	 0.788391403461015 
1239	 0.788701216060965 
1240	 0.788974480006949 
1241	 0.789226092712811 
1242	 0.789466842338652 
1243	 0.789686737687601 
1244	 0.789878051053373 
1245	 0.790067760494981 
1246	 0.790245319884065 
1247	 0.790416756452219 
1248	 0.790584273550716 
1249	 0.790726207628492 
1250	 0.790868788828748 
1251	 0.790966625789389 
1252	 0.791020184389223 
1253	 0.791076110034028 
1254	 0.791102590959011 
1255	 0.791129708673512 
1256	 0.791165899907439 
1257	 0.791172049752668 
1258	 0.791149186149985 
1259	 0.791127974956965 
1260	 0.791081436626285 
1261	 0.791043487201233 
1262	 0.790998243155024 
1263	 0.79097371838484 
1264	 0.790943880335905 
1265	 0.790912340041583 
1266	 0.790892049642081 
1267	 0.790880965702017 
1268	 0.790867190481514 
1269	 0.79086318243559 
1270	 0.790849521693691 
1271	 0.790838114468678 
1272	 0.790810414627613 
1273	 0.790763749713886 
1274	 0.790733244517643 
1275	 0.790695285689259 
1276	 0.790669447608394 
1277	 0.790656032145458 
1278	 0.790647076631458 
1279	 0.790646655182742 
1280	 0.790641371347887 
1281	 0.790624494308898 
1282	 0.790637045544707 
1283	 0.790668123779864 
1284	 0.790693170816759 
1285	 0.790726036210153 
1286	 0.790785533396098 
1287	 0.790824205540573 
1288	 0.790846303048601 
1289	 0.79088331055549 
1290	 0.79093627516853 
1291	 0.7909654518978 
1292	 0.790987452186785 
1293	 0.791005178219833 
1294	 0.791016062307018 
1295	 0.791014333663577 
1296	 0.791008087497413 
1297	 0.79099063905581 
1298	 0.790966205394421 
1299	 0.790920002316063 
1300	 0.790874517262979 
1301	 0.790792418895621 
1302	 0.790666276041344 
1303	 0.790548051046821 
1304	 0.790424396167602 
1305	 0.790276279032345 
1306	 0.790110468156879 
1307	 0.789944961811408 
1308	 0.789762362651678 
1309	 0.789563697102796 
1310	 0.789385749006926 
1311	 0.789231757360393 
1312	 0.789031182879921 
1313	 0.788830593255087 
1314	 0.788583300911686 
1315	 0.788290094488468 
1316	 0.788009322904378 
1317	 0.787706246290357 
1318	 0.7874077561849 
1319	 0.787110979991882 
1320	 0.786805007598865 
1321	 0.786488197123436 
1322	 0.786172650275939 
1323	 0.78588626675762 
1324	 0.785534297092067 
1325	 0.785156066025571 
1326	 0.784755534843954 
1327	 0.784310501072564 
1328	 0.783850742190973 
1329	 0.783378919065077 
1330	 0.782886740122546 
1331	 0.782387542389848 
1332	 0.78183719938963 
1333	 0.781256249118022 
1334	 0.780644441569035 
1335	 0.78002012799779 
1336	 0.779352701086498 
1337	 0.778683777778535 
1338	 0.778016135105166 
1339	 0.777317259601936 
1340	 0.776596383698645 
1341	 0.775842910738645 
1342	 0.775073998216969 
1343	 0.774265162940835 
1344	 0.773415598171399 
1345	 0.772547147827941 
1346	 0.771646758328232 
1347	 0.770741086723629 
1348	 0.769819542039532 
1349	 0.768870523518545 
1350	 0.767875113990067 
1351	 0.766914608888592 
1352	 0.765929645259541 
1353	 0.76497541384886 
1354	 0.764055339696154 
1355	 0.7631408954727 
1356	 0.762249061851577 
1357	 0.761338325057451 
1358	 0.7604363987047 
1359	 0.759520538133763 
1360	 0.758603484193646 
1361	 0.757653209633709 
1362	 0.756678230362267 
1363	 0.75573284637739 
1364	 0.754734530244835 
1365	 0.753718487303254 
1366	 0.752654498378129 
1367	 0.751564313330463 
1368	 0.750431052703468 
1369	 0.749259057567773 
1370	 0.74804055728208 
1371	 0.74680075047954 
1372	 0.745495158617612 
1373	 0.744167667547479 
1374	 0.742713283520885 
1375	 0.741198393610801 
1376	 0.739550014697656 
1377	 0.737810407194591 
1378	 0.735904143697342 
1379	 0.733871935962157 
1380	 0.731712152467455 
1381	 0.729421985418897 
1382	 0.72697136566635 
1383	 0.724385262214699 
1384	 0.721667363139922 
1385	 0.718824180348419 
1386	 0.715815568520597 
1387	 0.712647102652211 
1388	 0.709413738786754 
1389	 0.706012496472563 
1390	 0.702553857258552 
1391	 0.699083291225745 
1392	 0.695375007637486 
1393	 0.691770565695611 
1394	 0.688049554251032 
1395	 0.684351625028803 
1396	 0.680655168393269 
1397	 0.676976826302066 
1398	 0.673266258784185 
1399	 0.669574322870475 
1400	 0.66590648480235 
1401	 0.662228239207247 
1402	 0.658532196751654 
1403	 0.654834405223129 
1404	 0.651131004709862 
1405	 0.647499660204741 
1406	 0.643856625764073 
1407	 0.640282230546204 
1408	 0.6367263628421 
1409	 0.633298090072732 
1410	 0.629889038531082 
1411	 0.626643233988484 
1412	 0.623498685965008 
1413	 0.620560244799281 
1414	 0.6177458849467 
1415	 0.615105368101123 
1416	 0.612664714410296 
1417	 0.610346220000865 
1418	 0.608216559841771 
1419	 0.606134414506896 
1420	 0.604185856699267 
1421	 0.602315732585775 
1422	 0.600517184622945 
1423	 0.59878815507687 
1424	 0.597181912719331 
1425	 0.59557375636232 
1426	 0.594093720172394 
1427	 0.592671895672197 
1428	 0.591327710970835 
1429	 0.590146943505835 
1430	 0.588989941920834 
1431	 0.587896582055313 
1432	 0.586882645462807 
1433	 0.585947243770316 
1434	 0.58506852633836 
1435	 0.584273691902898 
1436	 0.5834956117989 
1437	 0.582767665329046 
1438	 0.582093281091402 
1439	 0.581456120478171 
1440	 0.580870768137889 
1441	 0.580356037178886 
1442	 0.579852624853546 
1443	 0.579384316908711 
1444	 0.578941825340066 
1445	 0.578528720123934 
1446	 0.578149929614682 
1447	 0.577808865969775 
1448	 0.577479615050215 
1449	 0.57718563694098 
1450	 0.576895740935856 
1451	 0.576631419956137 
1452	 0.576355054099111 
1453	 0.576080276428498 
1454	 0.57581767328695 
1455	 0.57554667741704 
1456	 0.575294144896324 
1457	 0.575051546830121 
1458	 0.574832427049684 
1459	 0.57463046080023 
1460	 0.574440930886481 
1461	 0.574264138528318 
1462	 0.574117296504437 
1463	 0.573980868055006 
1464	 0.573875350229568 
1465	 0.573809153596118 
1466	 0.573759781782969 
1467	 0.573734081744963 
1468	 0.573729751986448 
1469	 0.573733150718085 
1470	 0.573747266291716 
1471	 0.573744627319718 
1472	 0.573744443809512 
1473	 0.573720399444338 
1474	 0.573693617740542 
1475	 0.573625204308372 
1476	 0.573540306051758 
1477	 0.573408759401251 
1478	 0.573238484855279 
1479	 0.57304271048212 
1480	 0.572810808425552 
1481	 0.57255618189983 
1482	 0.572270611527813 
1483	 0.571964575697463 
1484	 0.571615930786461 
1485	 0.571282937467667 
1486	 0.570918129602305 
1487	 0.570600126652171 
1488	 0.570284977711358 
1489	 0.57001567661872 
1490	 0.569758246184316 
1491	 0.569573343450191 
1492	 0.569434500489645 
1493	 0.569345068098799 
1494	 0.569305331123739 
1495	 0.569333216597574 
1496	 0.56941539107636 
1497	 0.569551247616451 
1498	 0.569746377267122 
1499	 0.570011786387464 
1500	 0.570340274421808 
1501	 0.570716248810389 
1502	 0.571189075822485 
1503	 0.571660922038115 
1504	 0.572147384115844 
1505	 0.572687036955255 
1506	 0.573274018047553 
1507	 0.573881713139506 
1508	 0.574547381853246 
1509	 0.575211509559059 
1510	 0.575881463729217 
1511	 0.576573232922715 
1512	 0.577286210068519 
1513	 0.578010016213977 
1514	 0.578765432612804 
1515	 0.579513619947626 
1516	 0.580262499564508 
1517	 0.581020639875014 
1518	 0.581771231198187 
1519	 0.582539729738623 
1520	 0.583325856960069 
1521	 0.584115310388743 
1522	 0.584907742661374 
1523	 0.585762466337178 
1524	 0.586602114187865 
1525	 0.587450342881206 
1526	 0.588335701961458 
1527	 0.589234208822413 
1528	 0.590161637780246 
1529	 0.591117533990699 
1530	 0.592113554677997 
1531	 0.593141795206877 
1532	 0.594182837862222 
1533	 0.59526519453271 
1534	 0.596352762320386 
1535	 0.597461430332982 
1536	 0.598540683030479 
1537	 0.599651855451076 
1538	 0.600694820438596 
1539	 0.601706743846288 
1540	 0.602668430926334 
1541	 0.60359408951031 
1542	 0.60447969855676 
1543	 0.60532105241853 
1544	 0.606110953570649 
1545	 0.606881236267772 
1546	 0.607554513870357 
1547	 0.608156016133571 
1548	 0.6086957025662 
1549	 0.609159404313989 
1550	 0.609571912507187 
1551	 0.609911853308187 
1552	 0.610221568130251 
1553	 0.610460397395158 
1554	 0.610699751346651 
1555	 0.610892031914624 
1556	 0.611105518985887 
1557	 0.611280550916127 
1558	 0.611524822804852 
1559	 0.611794872743141 
1560	 0.61209165365526 
1561	 0.61243179703265 
1562	 0.612789477109901 
1563	 0.613162154454226 
1564	 0.613567420753616 
1565	 0.61401077283065 
1566	 0.614468623199019 
1567	 0.61494838203475 
1568	 0.615449681526239 
1569	 0.615978923772386 
1570	 0.616518450493482 
1571	 0.617090432232059 
1572	 0.617648254340845 
1573	 0.61822045488852 
1574	 0.61877504971624 
1575	 0.619317579365568 
1576	 0.619860818677045 
1577	 0.620402075376104 
1578	 0.620932736576944 
1579	 0.62146633128827 
1580	 0.621976480797847 
1581	 0.622454556885181 
1582	 0.622951548487871 
1583	 0.623435164324754 
1584	 0.623937411499878 
1585	 0.624462621501156 
1586	 0.624980670569889 
1587	 0.625495075752229 
1588	 0.626021671506706 
1589	 0.626544660690594 
1590	 0.627089093473153 
1591	 0.627649257548661 
1592	 0.628222530337707 
1593	 0.628816106158899 
1594	 0.629413670114493 
1595	 0.630034159145684 
1596	 0.630637761060554 
1597	 0.631225949148755 
1598	 0.63183670999563 
1599	 0.632450696104753 
1600	 0.633072813479777 
1601	 0.633715881009011 
1602	 0.634361547758396 
1603	 0.635019478670569 
1604	 0.635656939682426 
1605	 0.636303036084944 
1606	 0.636925425034359 
1607	 0.63752729109595 
1608	 0.638116973836576 
1609	 0.638691234478656 
1610	 0.639257322235878 
1611	 0.639814492423021 
1612	 0.640344357387783 
1613	 0.640846427777231 
1614	 0.641354343103707 
1615	 0.641851995617827 
1616	 0.642335951015976 
1617	 0.642830006666017 
1618	 0.643295109862953 
1619	 0.643734431992121 
1620	 0.64415010871952 
1621	 0.644527058960495 
1622	 0.644917096880744 
1623	 0.645302657929004 
1624	 0.645671308636815 
1625	 0.646042894996619 
1626	 0.646399843456988 
1627	 0.646717463988165 
1628	 0.64705173018172 
1629	 0.647405249812033 
1630	 0.647731339087205 
1631	 0.648054084064994 
1632	 0.648359929370506 
1633	 0.648654016451942 
1634	 0.648917299271479 
1635	 0.649160908340058 
1636	 0.649381965670844 
1637	 0.649569371926832 
1638	 0.649740313484643 
1639	 0.649898255151977 
1640	 0.650029960728563 
1641	 0.65013773779371 
1642	 0.650221359336943 
1643	 0.650275000544528 
1644	 0.650316101084105 
1645	 0.650350684120793 
1646	 0.65033737188967 
1647	 0.650306473852879 
1648	 0.650227452424961 
1649	 0.650092512910441 
1650	 0.649930930172374 
1651	 0.649720050458384 
1652	 0.649503239553474 
1653	 0.649286647453546 
1654	 0.649002597214322 
1655	 0.648691845240344 
1656	 0.648321896953923 
1657	 0.647902283716942 
1658	 0.647404055503837 
1659	 0.646858456174362 
1660	 0.646235326572312 
1661	 0.64555062176074 
1662	 0.644749454707445 
1663	 0.643878998810742 
1664	 0.642870435255501 
1665	 0.641744728807227 
1666	 0.640476757566186 
1667	 0.639083070530075 
1668	 0.637577195149353 
1669	 0.635932065575036 
1670	 0.634175502953669 
1671	 0.632273621915649 
1672	 0.630292893851806 
1673	 0.628189479509216 
1674	 0.62601203116597 
1675	 0.62372580345111 
1676	 0.621457449408494 
1677	 0.619102433797753 
1678	 0.616769674115709 
1679	 0.614379685338682 
1680	 0.61207498813912 
1681	 0.609730910687627 
1682	 0.607554834869572 
1683	 0.605460429332961 
1684	 0.603562981217252 
1685	 0.601777752499542 
1686	 0.600195945937413 
1687	 0.598804042547036 
1688	 0.597549700843693 
1689	 0.596485876976983 
1690	 0.595527777448161 
1691	 0.594734975901922 
1692	 0.594049521144826 
1693	 0.593512552878594 
1694	 0.593024432108038 
1695	 0.592694831823268 
1696	 0.592294651459316 
1697	 0.591946528588994 
1698	 0.591544128268168 
1699	 0.591126810473205 
1700	 0.590679657323285 
1701	 0.590214162391415 
1702	 0.589722857393471 
1703	 0.589201390674251 
1704	 0.588640780647163 
1705	 0.588071972148439 
1706	 0.587385300832737 
1707	 0.586700060081526 
1708	 0.585914390588477 
1709	 0.585034467153543 
1710	 0.584078447175564 
1711	 0.582929617267672 
1712	 0.581693396824864 
1713	 0.580304432421915 
1714	 0.578714734476367 
1715	 0.577096282276893 
1716	 0.575297785778382 
1717	 0.573444443077367 
1718	 0.571580439465209 
1719	 0.569592493583405 
1720	 0.567677829167885 
1721	 0.565769897422243 
1722	 0.563929811721331 
1723	 0.562361592203274 
1724	 0.560929995314669 
1725	 0.559717871854355 
1726	 0.5587818461379 
1727	 0.557976729665388 
1728	 0.557444850367359 
1729	 0.557152569953306 
1730	 0.557067111725328 
1731	 0.557208457729454 
1732	 0.557498481556991 
1733	 0.557874932167989 
1734	 0.558358012963924 
1735	 0.558931433970387 
1736	 0.559519809585144 
1737	 0.560139229019564 
1738	 0.56076471426954 
1739	 0.561381231651221 
1740	 0.561984336564463 
1741	 0.562632757663082 
1742	 0.563315770412848 
1743	 0.563998536468383 
1744	 0.564726640817075 
1745	 0.565436250002961 
1746	 0.566131040582897 
1747	 0.566808564715835 
1748	 0.567499586425979 
1749	 0.56813379391533 
1750	 0.568757802160853 
1751	 0.569309472192778 
1752	 0.569810753287566 
1753	 0.570266947851194 
1754	 0.570643741301439 
1755	 0.571011051122087 
1756	 0.571313829878364 
1757	 0.571625000743829 
1758	 0.571990681847229 
1759	 0.572380258515644 
1760	 0.572815575924881 
1761	 0.573298233119997 
1762	 0.573792810428944 
1763	 0.574346845186412 
1764	 0.574934215726796 
1765	 0.575560038917773 
1766	 0.576246602069051 
1767	 0.576914764697585 
1768	 0.577623347859973 
1769	 0.578358866786512 
1770	 0.579034277990399 
1771	 0.579711838444582 
1772	 0.580329258019354 
1773	 0.580864663346111 
1774	 0.581376105770961 
1775	 0.581847974252962 
1776	 0.582319858419053 
1777	 0.582744489454366 
1778	 0.583093129398426 
1779	 0.583406075865665 
1780	 0.583647812794858 
1781	 0.58386615225524 
1782	 0.584078778431904 
1783	 0.58423466897235 
1784	 0.584384903520293 
1785	 0.584517348400693 
1786	 0.584654147782558 
1787	 0.584803521809263 
1788	 0.584931091428611 
1789	 0.585033178613658 
1790	 0.585159359015822 
1791	 0.585284854828552 
1792	 0.58541718493986 
1793	 0.585563484352437 
1794	 0.585697725431349 
1795	 0.585853653418627 
1796	 0.586044401313997 
1797	 0.586239592076824 
1798	 0.586459151408907 
1799	 0.586694717497387 
1800	 0.58692063028992 
1801	 0.588651085006441 
1802	 0.588973605768064 
1803	 0.58927229719051 
1804	 0.589558592993425 
1805	 0.589825607498931 
1806	 0.590107922827583 
1807	 0.590395528621874 
1808	 0.590679434720184 
1809	 0.590957603974608 
1810	 0.591249353782678 
1811	 0.591549041638802 
1812	 0.591844216007916 
1813	 0.592140839134369 
1814	 0.592453347564821 
1815	 0.592755417460143 
1816	 0.59308039775433 
1817	 0.593379022513509 
1818	 0.593665042542786 
1819	 0.593959673188039 
1820	 0.594259362690211 
1821	 0.594534329851658 
1822	 0.594790117743247 
1823	 0.59507885379215 
1824	 0.59533566141216 
1825	 0.595575015143088 
1826	 0.595850737691812 
1827	 0.596159358649004 
1828	 0.596436929462047 
1829	 0.596716724517715 
1830	 0.596996192064931 
1831	 0.597273835035147 
1832	 0.597534952021195 
1833	 0.597784258115907 
1834	 0.598019992128605 
1835	 0.598255654847371 
1836	 0.598494111784192 
1837	 0.598729306151521 
1838	 0.598986489238634 
1839	 0.599217823782502 
1840	 0.599442357428876 
1841	 0.599637353656604 
1842	 0.599829466655139 
1843	 0.600004720491013 
1844	 0.600106658183897 
1845	 0.600145038557909 
1846	 0.600157266636125 
1847	 0.600114438539305 
1848	 0.600011017530311 
1849	 0.599868407163799 
1850	 0.599667160231625 
1851	 0.599427825327379 
1852	 0.599078902803936 
1853	 0.598644200944395 
1854	 0.598186434253923 
1855	 0.597602975659276 
1856	 0.596948805765348 
1857	 0.596261297389846 
1858	 0.595413952765833 
1859	 0.59449466028718 
1860	 0.593496031997818 
1861	 0.592378046087735 
1862	 0.591146447509668 
1863	 0.589875709937075 
1864	 0.588429455172367 
1865	 0.586888967079324 
1866	 0.585225080769272 
1867	 0.583295609888236 
1868	 0.581294296465716 
1869	 0.579066703369021 
1870	 0.576652887840026 
1871	 0.574096523853965 
1872	 0.571377599266345 
1873	 0.568479282446995 
1874	 0.565433373203856 
1875	 0.562232803676973 
1876	 0.558647814857813 
1877	 0.554972446978506 
1878	 0.550942072489777 
1879	 0.546515514303482 
1880	 0.542120658947385 
1881	 0.537345905120805 
1882	 0.532196815298999 
1883	 0.526899207121327 
1884	 0.521380109676463 
1885	 0.515157809608036 
1886	 0.508853122150433 
1887	 0.502107360616742 
1888	 0.494877060735585 
1889	 0.487947455630253 
1890	 0.480589308824617 
1891	 0.473146377512968 
1892	 0.46573126601212 
1893	 0.457981227450987 
1894	 0.449807230770398 
1895	 0.441878133180783 
1896	 0.433765532010407 
1897	 0.425542305955419 
1898	 0.417961979782806 
1899	 0.410207955118694 
1900	 0.402658506594377 
1901	 0.395461779244151 
1902	 0.387892114082298 
1903	 0.380730731387409 
1904	 0.373774730966762 
1905	 0.366911612034242 
1906	 0.360236727054822 
1907	 0.354359452369718 
1908	 0.348518443699501 
1909	 0.342972059122292 
1910	 0.337825389186467 
1911	 0.332528498626605 
1912	 0.32762821242942 
1913	 0.322937527689717 
1914	 0.3183613378809 
1915	 0.314168054065638 
1916	 0.310396489168995 
1917	 0.306643236234772 
1918	 0.303117526787655 
1919	 0.299865475692535 
1920	 0.296549013250605 
1921	 0.293507811073509 
1922	 0.290612071880672 
1923	 0.287806557734815 
1924	 0.285367491726757 
1925	 0.283024892823631 
1926	 0.280835246858344 
1927	 0.278867505746556 
1928	 0.276980650776782 
1929	 0.275175995354781 
1930	 0.273571844723389 
1931	 0.272108335925758 
1932	 0.2707674484991 
1933	 0.269668769248615 
1934	 0.268673760119848 
1935	 0.267805919965748 
1936	 0.267098224359348 
1937	 0.26649287531657 
1938	 0.265994716508364 
1939	 0.265642548188205 
1940	 0.265418122763775 
1941	 0.265329569468088 
1942	 0.265378032322641 
1943	 0.26554445651135 
1944	 0.265802679682602 
1945	 0.26616504407635 
1946	 0.266652953383158 
1947	 0.267222355886569 
1948	 0.26791701900966 
1949	 0.268715925342282 
1950	 0.269536839173699 
1951	 0.270418313303342 
1952	 0.271362460408703 
1953	 0.272352585054097 
1954	 0.273397416193305 
1955	 0.274571464223817 
1956	 0.275741617413783 
1957	 0.276998265505462 
1958	 0.27831184186972 
1959	 0.279536541211745 
1960	 0.280829311534077 
1961	 0.282122454747012 
1962	 0.283368523191273 
1963	 0.284704399063116 
1964	 0.286117609709733 
1965	 0.287502042392721 
1966	 0.288915906265161 
1967	 0.290372264494511 
1968	 0.291728802349926 
1969	 0.293139642236885 
1970	 0.294544886218862 
1971	 0.295921275795203 
1972	 0.297417319146079 
1973	 0.298874763305856 
1974	 0.300347448311544 
1975	 0.301879539253822 
1976	 0.30336521973465 
1977	 0.30481356238163 
1978	 0.306290934954868 
1979	 0.307766357025419 
1980	 0.30923348654889 
1981	 0.310782425306819 
1982	 0.31226480783689 
1983	 0.313789674928251 
1984	 0.315331054514133 
1985	 0.316747646159052 
1986	 0.318233771956544 
1987	 0.319711479729913 
1988	 0.321154620954821 
1989	 0.322642058718036 
1990	 0.324179588970017 
1991	 0.325677317957809 
1992	 0.327186779955608 
1993	 0.328703843605346 
1994	 0.330098092510391 
1995	 0.331531739482493 
1996	 0.332923521481279 
1997	 0.334257988663985 
1998	 0.33563664091711 
1999	 0.33704537247608 
2000	 0.338398126282488 
2001	 0.3397809754563 
2002	 0.341064318961697 
2003	 0.342292625525372 
2004	 0.343485454889163 
2005	 0.344587801300343 
2006	 0.345695155848122 
2007	 0.346823835200523 
2008	 0.347844628846676 
2009	 0.348819325389765 
2010	 0.349757130521287 
2011	 0.350545923068961 
2012	 0.351291604211445 
2013	 0.351924977705838 
2014	 0.352462440971714 
2015	 0.352916575641297 
2016	 0.353302618779532 
2017	 0.353543887445812 
2018	 0.353704498606013 
2019	 0.35371949044122 
2020	 0.353595141174437 
2021	 0.353325884609386 
2022	 0.352979512959308 
2023	 0.352514808956403 
2024	 0.351869205344177 
2025	 0.351128492061673 
2026	 0.350259149037289 
2027	 0.349181887686161 
2028	 0.348116816867672 
2029	 0.346948463039451 
2030	 0.345766031774982 
2031	 0.344513928600216 
2032	 0.343275230987686 
2033	 0.341895755818758 
2034	 0.340704261314033 
2035	 0.339541962132742 
2036	 0.338476948159637 
2037	 0.337608918079335 
2038	 0.336880836731116 
2039	 0.33628252424558 
2040	 0.335816916745436 
2041	 0.335506301168312 
2042	 0.3353352732081 
2043	 0.33531915644822 
2044	 0.335495777371866 
2045	 0.335741786720393 
2046	 0.33613957659548 
2047	 0.336610968988567 
2048	 0.337163264638732 
2049	 0.337831068650751 
2050	 0.338644156598286 
2051	 0.339497177658744 
2052	 0.340449885431631 
2053	 0.341465900395849 
2054	 0.342510487212378 
2055	 0.343601919304818 
2056	 0.344751927818356 
2057	 0.34594304896723 
2058	 0.347205135951818 
2059	 0.348549891712207 
2060	 0.34989378124983 
2061	 0.351338926623561 
2062	 0.35272353868432 
2063	 0.354100331778537 
2064	 0.355478023040021 
2065	 0.356851012215024 
2066	 0.358180325634964 
2067	 0.359598316176509 
2068	 0.360936142005184 
2069	 0.36224808152318 
2070	 0.363573416326646 
2071	 0.364805838397601 
2072	 0.365964401623577 
2073	 0.36709648879437 
2074	 0.368165475344287 
2075	 0.369222105153194 
2076	 0.370255152449151 
2077	 0.37123009371976 
2078	 0.372208636415274 
2079	 0.373081082217049 
2080	 0.373861161050473 
2081	 0.374605297958437 
2082	 0.37528431776651 
2083	 0.375884829950226 
2084	 0.376501611215462 
2085	 0.377031377118135 
2086	 0.377520991198216 
2087	 0.37797000000161 
2088	 0.378362118291858 
2089	 0.378682500408869 
2090	 0.378981534768773 
2091	 0.37922522406481 
2092	 0.379453324088492 
2093	 0.379676663574445 
2094	 0.3798191699649 
2095	 0.379886714702252 
2096	 0.379959541758275 
2097	 0.379995650801477 
2098	 0.379977904727747 
2099	 0.379962155743516 
2100	 0.379947047874375 
2101	 0.379892302831786 
2102	 0.379793715262035 
2103	 0.379676982583911 
2104	 0.37954657609761 
2105	 0.379389586191954 
2106	 0.37919249647765 
2107	 0.378984011878446 
2108	 0.378757455131116 
2109	 0.37851619402775 
2110	 0.378248187153805 
2111	 0.37797350564643 
2112	 0.377702372043813 
2113	 0.377393585945097 
2114	 0.377073004852916 
2115	 0.37670578804337 
2116	 0.376291144093472 
2117	 0.375870674734446 
2118	 0.375399564859943 
2119	 0.374884510399728 
2120	 0.374346658198187 
2121	 0.373772159205354 
2122	 0.373174612031912 
2123	 0.372563423513994 
2124	 0.371891830776095 
2125	 0.371229104339889 
2126	 0.370420632700665 
2127	 0.369518558861483 
2128	 0.368556527112385 
2129	 0.367463874294675 
2130	 0.366359063085988 
2131	 0.365243791352933 
2132	 0.364020311812538 
2133	 0.362736445846819 
2134	 0.361373907918493 
2135	 0.359840534500947 
2136	 0.358296286954738 
2137	 0.356680929411969 
2138	 0.354940874965076 
2139	 0.353258114506821 
2140	 0.351563470546131 
2141	 0.34983577271782 
2142	 0.348131308965453 
2143	 0.34632950914142 
2144	 0.344442671656934 
2145	 0.342579851917838 
2146	 0.340625866986047 
2147	 0.338746465298146 
2148	 0.33691854123927 
2149	 0.335062995703094 
2150	 0.333269260333005 
2151	 0.331399322102567 
2152	 0.329434727088119 
2153	 0.327534618887944 
2154	 0.325628223684542 
2155	 0.32368630196436 
2156	 0.321892389926282 
2157	 0.320193930680701 
2158	 0.318504617914708 
2159	 0.316900217492539 
2160	 0.31527710022107 
2161	 0.313637391547096 
2162	 0.312114506364992 
2163	 0.310590934065186 
2164	 0.309227518287056 
2165	 0.307989779925743 
2166	 0.306817157752113 
2167	 0.305756229183756 
2168	 0.304767836702455 
2169	 0.303835047997311 
2170	 0.303029509381608 
2171	 0.30232213829715 
2172	 0.301714875658218 
2173	 0.301249840655517 
2174	 0.300838727780482 
2175	 0.300488200379697 
2176	 0.300245281602281 
2177	 0.300063128317571 
2178	 0.299948390376409 
2179	 0.299912849770995 
2180	 0.299964666482941 
2181	 0.300080990542735 
2182	 0.300267837203117 
2183	 0.300530311855142 
2184	 0.300883425871641 
2185	 0.301285838651042 
2186	 0.301781209858811 
2187	 0.302280431392999 
2188	 0.302829805159464 
2189	 0.303408394554375 
2190	 0.304015591769444 
2191	 0.3046607307681 
2192	 0.305354729414264 
2193	 0.30607121219945 
2194	 0.306852439855395 
2195	 0.307595841347539 
2196	 0.308352210132663 
2197	 0.309121123403602 
2198	 0.309780821644184 
2199	 0.310457310635287 
2200	 0.311110505015107 
2201	 0.311716861478379 
2202	 0.312352152504403 
2203	 0.313008563634532 
2204	 0.313616718078376 
2205	 0.314215142018697 
2206	 0.314790769277932 
2207	 0.315318241941026 
2208	 0.315868732216053 
2209	 0.316398997461209 
2210	 0.316965602123132 
2211	 0.317550458852366 
2212	 0.318133525035423 
2213	 0.318751875970589 
2214	 0.319339864790805 
2215	 0.31992820348792 
2216	 0.320487147159924 
2217	 0.321016912417817 
2218	 0.32154652065631 
2219	 0.322092687166788 
2220	 0.32256518283803 
2221	 0.323024570025861 
2222	 0.323424569715473 
2223	 0.323724163648304 
2224	 0.324000166774996 
2225	 0.324233484128725 
2226	 0.324400653438704 
2227	 0.324477859289463 
2228	 0.324500300290168 
2229	 0.324402152964653 
2230	 0.324201397879125 
2231	 0.323915873258063 
2232	 0.323552037968554 
2233	 0.323043728014563 
2234	 0.322445752196591 
2235	 0.321680961630879 
2236	 0.320758943131263 
2237	 0.319727993926564 
2238	 0.318530363401627 
2239	 0.317263397583737 
2240	 0.315899404667738 
2241	 0.314398988400302 
2242	 0.312829592371695 
2243	 0.311070629970029 
2244	 0.309090919765879 
2245	 0.307077827934704 
2246	 0.304856353851672 
2247	 0.302665138605759 
2248	 0.30044797212836 
2249	 0.2981836127221 
2250	 0.295876774277277 
2251	 0.293582408145045 
2252	 0.291094533192694 
2253	 0.288672939837275 
2254	 0.286273392544029 
2255	 0.283856531238068 
2256	 0.281730509423081 
2257	 0.279670238250846 
2258	 0.277710879229879 
2259	 0.275883306475927 
2260	 0.274153232112077 
2261	 0.272488443891444 
2262	 0.271004912500945 
2263	 0.269655072971486 
2264	 0.268449416119637 
2265	 0.267439139269802 
2266	 0.266448883985393 
2267	 0.265626574440394 
2268	 0.26477561441136 
2269	 0.263963463005976 
2270	 0.263180308300059 
2271	 0.262442870802706 
2272	 0.261702302819271 
2273	 0.260999968447551 
2274	 0.260278474751074 
2275	 0.259561113326105 
2276	 0.258835932053152 
2277	 0.258070068194659 
2278	 0.257384301081922 
2279	 0.256681062874452 
2280	 0.256078879551232 
2281	 0.255573298305293 
2282	 0.255093648900684 
2283	 0.254643736909876 
2284	 0.254314973725097 
2285	 0.254005518604481 
2286	 0.253778926490161 
2287	 0.253631759606704 
2288	 0.253573560968724 
2289	 0.253589358489618 
2290	 0.253647376277004 
2291	 0.253783035599669 
2292	 0.253944858092146 
2293	 0.254108750243539 
2294	 0.254298815607791 
2295	 0.254526653592512 
2296	 0.254736681025836 
2297	 0.254945122304146 
2298	 0.255167514026055 
2299	 0.255409217118931 
2300	 0.255637243310513 
2301	 0.255884312602671 
2302	 0.256175307944473 
2303	 0.256438273744522 
2304	 0.256672992619558 
2305	 0.256956931260199 
2306	 0.25725082151363 
2307	 0.257582381134362 
2308	 0.257936269215061 
2309	 0.258319900809491 
2310	 0.258741867458227 
2311	 0.259187391536324 
2312	 0.259670847339177 
2313	 0.260181024489014 
2314	 0.260736675565386 
2315	 0.261272668068398 
2316	 0.261877918610742 
2317	 0.262364066838904 
2318	 0.262820748136361 
2319	 0.263197728338991 
2320	 0.263491855657028 
2321	 0.263722255783864 
2322	 0.263885751621348 
2323	 0.263966219338237 
2324	 0.26394445895599 
2325	 0.263888563556806 
2326	 0.263751157045567 
2327	 0.263591328347598 
2328	 0.263384302546044 
2329	 0.263151056353863 
2330	 0.262879941385015 
2331	 0.262571886792767 
2332	 0.262230406673405 
2333	 0.261818835189027 
2334	 0.261335799822083 
2335	 0.260894799460369 
2336	 0.260411256234616 
2337	 0.259854062750748 
2338	 0.259359756731423 
2339	 0.258790960286301 
2340	 0.258174456390281 
2341	 0.257566401927052 
2342	 0.256932904490025 
2343	 0.256357830332138 
2344	 0.255846165478309 
2345	 0.255449144644362 
2346	 0.255189716010205 
2347	 0.254946347516625 
2348	 0.254750354561449 
2349	 0.254736029191423 
2350	 0.254819585222917 
2351	 0.254976863899216 
2352	 0.255261406169749 
2353	 0.25564268916759 
2354	 0.25599512597756 
2355	 0.256344170163036 
2356	 0.256729803577952 
2357	 0.257027097202421 
2358	 0.257245392508113 
2359	 0.257417362587178 
2360	 0.257500749430166 
2361	 0.257590057515567 
2362	 0.257704871331858 
2363	 0.257740886611011 
2364	 0.257832322224988 
2365	 0.257932250156498 
2366	 0.257922187242565 
2367	 0.257954954510354 
2368	 0.257949764575114 
2369	 0.257829989336314 
2370	 0.25772370819028 
2371	 0.257595797764687 
2372	 0.257495362889412 
2373	 0.257473181924852 
2374	 0.257424940881136 
2375	 0.257317298490829 
2376	 0.257097752271095 
2377	 0.256841269114163 
2378	 0.256616501886046 
2379	 0.256377130625863 
2380	 0.256222464921044 
2381	 0.256085515114453 
2382	 0.255963737510648 
2383	 0.255877401753963 
2384	 0.255783380356193 
2385	 0.255724931209559 
2386	 0.255621108143988 
2387	 0.255502470441505 
2388	 0.255371014935877 
2389	 0.255199975206819 
2390	 0.25501742595846 
2391	 0.25480030208607 
2392	 0.254632365004861 
2393	 0.254468906000848 
2394	 0.254323063507397 
2395	 0.254243264550544 
2396	 0.254086278002257 
2397	 0.253934894422952 
2398	 0.253722455783811 
2399	 0.253458744007316 
2400	 0.253125900872379 
2401	 0.25271180422632 
2402	 0.252200396930237 
2403	 0.251682372355614 
2404	 0.251174762947389 
2405	 0.250705889550041 
2406	 0.250268883535925 
2407	 0.24985986660789 
2408	 0.249388822919023 
2409	 0.24896634826394 
2410	 0.248571455731933 
2411	 0.248050120662412 
2412	 0.247623824109021 
2413	 0.2472378553706 
2414	 0.246683214285429 
2415	 0.246172200961124 
2416	 0.245665886790111 
2417	 0.245059849890925 
2418	 0.244560263901844 
2419	 0.24404129924397 
2420	 0.243391689060307 
2421	 0.242751032709585 
2422	 0.241986932370752 
2423	 0.241159095711851 
2424	 0.240354615588888 
2425	 0.239545610872182 
2426	 0.238871556939273 
2427	 0.23816604146306 
2428	 0.237473656081007 
2429	 0.23667024706329 
2430	 0.235712851895265 
2431	 0.234893332257484 
2432	 0.233899679230624 
2433	 0.23294573172131 
2434	 0.232049611661876 
2435	 0.230866103408358 
2436	 0.229853115220203 
2437	 0.228828092471667 
2438	 0.227556045713014 
2439	 0.22652064345877 
2440	 0.225560673256272 
2441	 0.22444096430388 
2442	 0.223402677059171 
2443	 0.222363200173531 
2444	 0.221142240306924 
2445	 0.219786866344394 
2446	 0.2184470218763 
2447	 0.217120524664535 
2448	 0.215810404678458 
2449	 0.214745196425266 
2450	 0.213941313860642 
2451	 0.213020684233619 
2452	 0.211963161407131 
2453	 0.211029126217023 
2454	 0.209957161585166 
2455	 0.208988819587263 
2456	 0.208185113073359 
2457	 0.207247912526861 
2458	 0.206348994235644 
2459	 0.205419941066727 
2460	 0.204567742644817 
2461	 0.203762334854003 
2462	 0.202874213899647 
2463	 0.201936972663609 
2464	 0.201141060079438 
2465	 0.200494903434274 
2466	 0.199822843778307 
2467	 0.199259657986404 
2468	 0.1984916176305 
2469	 0.197531351588364 
2470	 0.196933120984247 
2471	 0.196537475206914 
2472	 0.196009944681351 
2473	 0.195616388530505 
2474	 0.195334181619828 
2475	 0.194860269833078 
2476	 0.194413645383233 
2477	 0.193986075389155 
2478	 0.193456849974707 
2479	 0.192945643154496 
2480	 0.192943818245754 
2481	 0.192685792841049 
2482	 0.192203487186778 
2483	 0.191895697704903 
2484	 0.191589781318768 
2485	 0.191210928512233 
2486	 0.190792066923027 
2487	 0.190419695702189 
2488	 0.190007102920557 
2489	 0.189620306753724 
2490	 0.189318878956829 
2491	 0.188938562717782 
2492	 0.188523587855397 
2493	 0.188260558238583 
2494	 0.187999681499507 
2495	 0.187441592952599 
2496	 0.186998723516988 
2497	 0.186590388052987 
2498	 0.186012838505082 
2499	 0.185962437259126 
2500	 0.185923456102968 
