Wavelength	spectrum00014.asd
350	 0.103161006716554 
351	 9.82798373269397E-02 
352	 9.31801999128504E-02 
353	 0.090546631014189 
354	 9.04502152555625E-02 
355	 8.94458721105262E-02 
356	 8.73513711456375E-02 
357	 8.48326925783281E-02 
358	 0.08214273176723 
359	 0.081873825603506 
360	 8.23544761267482E-02 
361	 8.03409913044046E-02 
362	 7.92740913695016E-02 
363	 7.75507946221083E-02 
364	 7.53899973264444E-02 
365	 7.59705238434003E-02 
366	 7.53154981658596E-02 
367	 7.49247148569749E-02 
368	 7.61486891003606E-02 
369	 7.53729892495487E-02 
370	 7.54436766904387E-02 
371	 7.55203258926668E-02 
372	 7.32203813739771E-02 
373	 7.23073369976806E-02 
374	 7.26506858022015E-02 
375	 7.34071256026279E-02 
376	 7.34194156874723E-02 
377	 7.35705076444799E-02 
378	 0.073460327005537 
379	 7.27584522912493E-02 
380	 7.24063805897194E-02 
381	 7.25287354351412E-02 
382	 7.23510422486917E-02 
383	 7.10148545302191E-02 
384	 0.07230576960703 
385	 7.30839273185393E-02 
386	 7.19810583618596E-02 
387	 7.14460882297797E-02 
388	 7.10750454221121E-02 
389	 7.14121538238976E-02 
390	 7.23706106462216E-02 
391	 7.08077832622357E-02 
392	 7.01308255826221E-02 
393	 0.070874466082061 
394	 7.15159239270085E-02 
395	 0.071498517853277 
396	 7.11601979140794E-02 
397	 0.071038612657128 
398	 7.18146866682275E-02 
399	 7.20259620627472E-02 
400	 7.20624899251804E-02 
401	 0.07252318119006 
402	 0.072380667197738 
403	 7.25690437143781E-02 
404	 7.29321861733784E-02 
405	 7.25885878746211E-02 
406	 7.30085659493055E-02 
407	 7.34887614588573E-02 
408	 7.36124078728156E-02 
409	 7.41547022104777E-02 
410	 7.44814079260782E-02 
411	 7.49257764410853E-02 
412	 7.58787388932736E-02 
413	 7.64884007461278E-02 
414	 7.66567753473795E-02 
415	 7.68629299369718E-02 
416	 7.79723638005251E-02 
417	 7.89393286487715E-02 
418	 7.98083345291688E-02 
419	 8.06812534392667E-02 
420	 8.12710588425579E-02 
421	 0.082078286006803 
422	 8.31523678509737E-02 
423	 8.43029883141176E-02 
424	 0.08516612305252 
425	 8.61408082927745E-02 
426	 8.73413828776629E-02 
427	 8.84916347098348E-02 
428	 0.089701478200535 
429	 9.10125470035575E-02 
430	 9.23686484241524E-02 
431	 9.34282250426536E-02 
432	 9.47959272135002E-02 
433	 9.64173114209889E-02 
434	 9.78951696508562E-02 
435	 9.94127817116922E-02 
436	 0.10098619591179 
437	 0.102642593146165 
438	 0.104451491531659 
439	 0.106264131934021 
440	 0.108138246037883 
441	 0.110127127056104 
442	 0.111991150701647 
443	 0.113949042137834 
444	 0.116043493253147 
445	 0.11817069891075 
446	 0.120335138382141 
447	 0.122454669559659 
448	 0.124596428960192 
449	 0.127214730923162 
450	 0.129666440177617 
451	 0.132005800574587 
452	 0.134515164649066 
453	 0.137029490363654 
454	 0.139675065745042 
455	 0.142449000167158 
456	 0.145202468380391 
457	 0.147887719406399 
458	 0.150581534211753 
459	 0.15338780143866 
460	 0.156389912369733 
461	 0.159337313521559 
462	 0.16224358090077 
463	 0.165267754296998 
464	 0.168377250993312 
465	 0.171503716766259 
466	 0.17460552116737 
467	 0.177690328466898 
468	 0.180946606300308 
469	 0.184255111166134 
470	 0.187480820183934 
471	 0.1908068180423 
472	 0.194160725850116 
473	 0.197498336895197 
474	 0.200805390458501 
475	 0.204171484273224 
476	 0.207480704601404 
477	 0.210708801884853 
478	 0.214113110910823 
479	 0.217528331992241 
480	 0.220944737380718 
481	 0.224411182104216 
482	 0.227959565500997 
483	 0.231445052782477 
484	 0.234854050199694 
485	 0.238324133813806 
486	 0.241800931671088 
487	 0.245279379128074 
488	 0.248735195313588 
489	 0.252039286705297 
490	 0.255448504615134 
491	 0.258943097324489 
492	 0.26235593286906 
493	 0.265825858469036 
494	 0.269227665697977 
495	 0.272524722982114 
496	 0.275861142139873 
497	 0.279208590368101 
498	 0.282543317973234 
499	 0.285837749359305 
500	 0.28910387821407 
501	 0.292321672361038 
502	 0.295508891541273 
503	 0.2987136668218 
504	 0.301889373980653 
505	 0.305018286536778 
506	 0.308104660793124 
507	 0.31118912874033 
508	 0.314214053416857 
509	 0.317216611783107 
510	 0.320249665750592 
511	 0.323188638498663 
512	 0.326065704082988 
513	 0.328931520001337 
514	 0.331853367893709 
515	 0.33464583738419 
516	 0.337404776990758 
517	 0.340227554246961 
518	 0.342934239862135 
519	 0.345685770825544 
520	 0.348461155028669 
521	 0.351124413555821 
522	 0.353830158113362 
523	 0.356479574173009 
524	 0.35904691694287 
525	 0.361732723021996 
526	 0.364382686868433 
527	 0.366977510370425 
528	 0.369549691989814 
529	 0.372115086555464 
530	 0.374716529439382 
531	 0.377343725293768 
532	 0.379928255914289 
533	 0.382500598960155 
534	 0.385100218552711 
535	 0.387744986791331 
536	 0.390397957251797 
537	 0.393051947743774 
538	 0.395693668587984 
539	 0.39831573005242 
540	 0.400945533064629 
541	 0.403594482701938 
542	 0.406257784854378 
543	 0.408903730917763 
544	 0.41160055149423 
545	 0.414287210108071 
546	 0.416902154790027 
547	 0.41958272937004 
548	 0.422272985759756 
549	 0.42493935408683 
550	 0.427580057648349 
551	 0.430281844371261 
552	 0.432993230625793 
553	 0.435685622682762 
554	 0.438447137276739 
555	 0.441238623816795 
556	 0.444030926511914 
557	 0.446808814697572 
558	 0.449649847077389 
559	 0.452554432608608 
560	 0.455469457070522 
561	 0.458286812773458 
562	 0.461015959334217 
563	 0.463735604648666 
564	 0.46650539964944 
565	 0.469228929675887 
566	 0.471915185734536 
567	 0.474573969588203 
568	 0.477212800719105 
569	 0.479821912927187 
570	 0.482340417137331 
571	 0.484792947706386 
572	 0.487410537323186 
573	 0.489908727693213 
574	 0.492342984306678 
575	 0.494853587696038 
576	 0.497220097221438 
577	 0.499575678693177 
578	 0.50196698222871 
579	 0.504311476662649 
580	 0.506608261462075 
581	 0.508870651925575 
582	 0.511121553465692 
583	 0.513392151448814 
584	 0.515600413458238 
585	 0.517773103782669 
586	 0.519996016393877 
587	 0.522186280496425 
588	 0.524415244559144 
589	 0.526690556950271 
590	 0.5288955624984 
591	 0.53098472240624 
592	 0.532978814304551 
593	 0.534896776939652 
594	 0.536639550653491 
595	 0.538280186336815 
596	 0.539896426506912 
597	 0.541556568153939 
598	 0.543319710222811 
599	 0.545062687591518 
600	 0.546713410337116 
601	 0.548394266850841 
602	 0.550064694616062 
603	 0.551758999347311 
604	 0.553504398616836 
605	 0.555100063854454 
606	 0.556664211124764 
607	 0.558242986870825 
608	 0.559755399419762 
609	 0.561210868898936 
610	 0.562601339935644 
611	 0.563948467802714 
612	 0.565366742455404 
613	 0.56673360767736 
614	 0.568050543289852 
615	 0.569386184547308 
616	 0.570559587501033 
617	 0.571730993226466 
618	 0.572986466857655 
619	 0.574208125181191 
620	 0.575384047031082 
621	 0.576559188141424 
622	 0.577765866288791 
623	 0.578849527961841 
624	 0.579961419539156 
625	 0.581126363236091 
626	 0.582240924120918 
627	 0.583282584577949 
628	 0.58436882639048 
629	 0.585536875322285 
630	 0.586552487479333 
631	 0.587550570108368 
632	 0.588561405314643 
633	 0.589575335962841 
634	 0.59063966881522 
635	 0.591696145995144 
636	 0.592719603610866 
637	 0.593733244248828 
638	 0.594693424057081 
639	 0.595676160636603 
640	 0.596714383742529 
641	 0.597598047094361 
642	 0.598502850173054 
643	 0.599494878295287 
644	 0.600550924276209 
645	 0.601520566726799 
646	 0.602444893448421 
647	 0.603379862534003 
648	 0.604366735739646 
649	 0.605285367513661 
650	 0.606175375510843 
651	 0.60711217349075 
652	 0.6081007891767 
653	 0.6090388960884 
654	 0.609920138448447 
655	 0.610819215597546 
656	 0.611773605605874 
657	 0.612743557688744 
658	 0.613682045603351 
659	 0.614541288082611 
660	 0.615545847881795 
661	 0.616567880516703 
662	 0.617418482800435 
663	 0.618390754415317 
664	 0.619339749107959 
665	 0.620212804779575 
666	 0.621077637882789 
667	 0.622041629798946 
668	 0.623017913435874 
669	 0.623923089707993 
670	 0.624787666331199 
671	 0.625675412653586 
672	 0.626598159560933 
673	 0.627533690751403 
674	 0.628421960364766 
675	 0.629302532084004 
676	 0.630197727069837 
677	 0.631097513766908 
678	 0.632028450836637 
679	 0.632951002450584 
680	 0.633821183365767 
681	 0.634617537135546 
682	 0.635487798963285 
683	 0.636383960229762 
684	 0.637177059811836 
685	 0.638048349299606 
686	 0.638934573958294 
687	 0.639791740860833 
688	 0.6406408381915 
689	 0.641515530792087 
690	 0.642312055070788 
691	 0.643000889811798 
692	 0.643952573392797 
693	 0.644715157373923 
694	 0.645322013840335 
695	 0.646108329727353 
696	 0.647076212330944 
697	 0.647941662418815 
698	 0.648621214186641 
699	 0.649398144300114 
700	 0.650187471068806 
701	 0.650961685275699 
702	 0.651713775345698 
703	 0.652464781156203 
704	 0.653250122738721 
705	 0.653985606169822 
706	 0.654545445708093 
707	 0.655253286695882 
708	 0.656105693365704 
709	 0.656980073477524 
710	 0.657640206932016 
711	 0.65821836170326 
712	 0.658862197488252 
713	 0.659646277915513 
714	 0.660347940563297 
715	 0.660957921017661 
716	 0.661534258966126 
717	 0.66217022360559 
718	 0.662810952207752 
719	 0.663509323494031 
720	 0.664233767424265 
721	 0.664789614873863 
722	 0.665267457677304 
723	 0.665836297236947 
724	 0.666567923197946 
725	 0.667064735453699 
726	 0.667512657003772 
727	 0.668075389317741 
728	 0.668839978115775 
729	 0.669415059646465 
730	 0.669876117092036 
731	 0.670357053524381 
732	 0.670979701800331 
733	 0.671439570597939 
734	 0.671854037039433 
735	 0.672388377608358 
736	 0.672881888031813 
737	 0.673383734663436 
738	 0.673877833133857 
739	 0.674318182429102 
740	 0.67481965455572 
741	 0.675318965861929 
742	 0.675757127309376 
743	 0.676112857398862 
744	 0.676642306587901 
745	 0.677168119736048 
746	 0.677514168560449 
747	 0.677927519337512 
748	 0.678355798122999 
749	 0.678790174677993 
750	 0.67924579461361 
751	 0.679743854777291 
752	 0.680156972370729 
753	 0.680446800461174 
754	 0.680707656686468 
755	 0.681043581264385 
756	 0.68140940172903 
757	 0.681764715087115 
758	 0.682215638701201 
759	 0.682578834778002 
760	 0.682865808066937 
761	 0.683185829623113 
762	 0.683599417052298 
763	 0.68400822192138 
764	 0.684326656082478 
765	 0.684516116686963 
766	 0.684888724110136 
767	 0.685258794944092 
768	 0.685491498299457 
769	 0.685797496787092 
770	 0.686148899963729 
771	 0.686491070763327 
772	 0.68677190367544 
773	 0.687034105920609 
774	 0.68731548267215 
775	 0.687601237929571 
776	 0.687839276552042 
777	 0.688063946254556 
778	 0.68832234215987 
779	 0.688622239299571 
780	 0.688903043591958 
781	 0.689222375656034 
782	 0.689489817768479 
783	 0.689655636572182 
784	 0.689960795037954 
785	 0.690217369786684 
786	 0.690424424728794 
787	 0.6906743583954 
788	 0.69086739024761 
789	 0.691103967692552 
790	 0.691363402097628 
791	 0.69147907831554 
792	 0.691849462837114 
793	 0.692252186460955 
794	 0.692458378762391 
795	 0.692535321231911 
796	 0.69262862943975 
797	 0.692820632591768 
798	 0.693112116080995 
799	 0.693296879910457 
800	 0.693464891616853 
801	 0.693661838273296 
802	 0.69388274301529 
803	 0.694085291620992 
804	 0.694264082143617 
805	 0.694444543288902 
806	 0.694686988553519 
807	 0.694887320866872 
808	 0.695091362931021 
809	 0.6953363205958 
810	 0.695522086104447 
811	 0.695662613809057 
812	 0.695766416714707 
813	 0.695872309568217 
814	 0.696181438918752 
815	 0.696447152949708 
816	 0.696591569788323 
817	 0.69671282784346 
818	 0.696780644828074 
819	 0.696951773556482 
820	 0.69724184384761 
821	 0.697402417783512 
822	 0.697545456856369 
823	 0.697697727994182 
824	 0.697869401361408 
825	 0.698081428790043 
826	 0.698313093272607 
827	 0.698509954651373 
828	 0.698624674279188 
829	 0.698726130308376 
830	 0.698876680432655 
831	 0.699072567814345 
832	 0.699260166100962 
833	 0.699527546028114 
834	 0.699754933273216 
835	 0.699876738285576 
836	 0.699956650222736 
837	 0.700099097968455 
838	 0.70029023713024 
839	 0.700479858079409 
840	 0.700622873362769 
841	 0.700716931253066 
842	 0.700873317134237 
843	 0.701176573563009 
844	 0.701362430912398 
845	 0.701464974754348 
846	 0.701553964505158 
847	 0.701704602490131 
848	 0.701879614602444 
849	 0.702028584777525 
850	 0.702137687987051 
851	 0.702244898705098 
852	 0.702499819295953 
853	 0.702719957810275 
854	 0.702799178375031 
855	 0.70293681853285 
856	 0.703172873574709 
857	 0.703357027622296 
858	 0.703378473276565 
859	 0.703501676562566 
860	 0.703685225932728 
861	 0.703868276060127 
862	 0.704005973535803 
863	 0.70422581922187 
864	 0.704414749895983 
865	 0.704517185068168 
866	 0.704560738469105 
867	 0.704707574097181 
868	 0.704906714300373 
869	 0.705119924702168 
870	 0.705368991153808 
871	 0.705528357733282 
872	 0.705605272193449 
873	 0.705659033699303 
874	 0.705779533961091 
875	 0.706002621447281 
876	 0.706199099979247 
877	 0.706285686007547 
878	 0.706536707288973 
879	 0.706786322726624 
880	 0.706928274516801 
881	 0.706954607606162 
882	 0.707166564859384 
883	 0.707399543984812 
884	 0.707613201787173 
885	 0.707862447696473 
886	 0.707977043847816 
887	 0.708048403300116 
888	 0.70813528769583 
889	 0.708225279857818 
890	 0.708426182655516 
891	 0.708565871564618 
892	 0.708591617367515 
893	 0.708732137231058 
894	 0.708930846478152 
895	 0.709087159604252 
896	 0.709167289914782 
897	 0.709346504781289 
898	 0.709485668459443 
899	 0.709617868995063 
900	 0.709798502321445 
901	 0.709945459694066 
902	 0.71001013870657 
903	 0.71006230248869 
904	 0.710208563328056 
905	 0.710399991622864 
906	 0.710620503001831 
907	 0.710828158090284 
908	 0.710971818110915 
909	 0.711052547184636 
910	 0.711210753051485 
911	 0.711450360530317 
912	 0.711637480668726 
913	 0.711877328889913 
914	 0.712060820628936 
915	 0.712174804076253 
916	 0.712371355488105 
917	 0.712639584742363 
918	 0.712907521106285 
919	 0.71313612750645 
920	 0.713375509856533 
921	 0.713591419734906 
922	 0.713785520588394 
923	 0.713957209981752 
924	 0.714070909712123 
925	 0.71422272817623 
926	 0.714422771905124 
927	 0.714661366505742 
928	 0.714982735934706 
929	 0.71526202628559 
930	 0.71546199564853 
931	 0.715592792903735 
932	 0.715649376050548 
933	 0.715816812540166 
934	 0.716126742098671 
935	 0.716496141087888 
936	 0.716803665666221 
937	 0.717010915673036 
938	 0.717164888623258 
939	 0.717355981201366 
940	 0.71756555461769 
941	 0.717731810419867 
942	 0.717897126190291 
943	 0.718164894595631 
944	 0.718326365349768 
945	 0.718549597278789 
946	 0.718854808707391 
947	 0.719067660052355 
948	 0.719157411387245 
949	 0.719197105634956 
950	 0.719264971815195 
951	 0.719409632033859 
952	 0.719581293069929 
953	 0.719741201842775 
954	 0.719851301258348 
955	 0.719879185893047 
956	 0.719885376276229 
957	 0.720028809891517 
958	 0.720277455071308 
959	 0.720268461786998 
960	 0.720284780054616 
961	 0.720364392911242 
962	 0.720503551915538 
963	 0.72073006035323 
964	 0.720937257782377 
965	 0.721058993547151 
966	 0.721109823424242 
967	 0.721240588557421 
968	 0.721394380733969 
969	 0.721561239017941 
970	 0.721715066307461 
971	 0.72176961809201 
972	 0.721751787715799 
973	 0.721729228605798 
974	 0.721797327082443 
975	 0.722094578993192 
976	 0.722295171090095 
977	 0.722443584814785 
978	 0.722649629750117 
979	 0.722809905181081 
980	 0.723025861693463 
981	 0.723201208091083 
982	 0.72326055239009 
983	 0.723410368571923 
984	 0.723525315996244 
985	 0.723668220208605 
986	 0.723888032080814 
987	 0.723981191964374 
988	 0.724004334021297 
989	 0.724055869523811 
990	 0.72423774894855 
991	 0.724630368617989 
992	 0.724774578299043 
993	 0.724811256698733 
994	 0.725016263044106 
995	 0.725292787415953 
996	 0.725434930697534 
997	 0.725503932347992 
998	 0.725643568180398 
999	 0.72589549045593 
1000	 0.726065384498792 
1001	 0.731721247375794 
1002	 0.731911136569029 
1003	 0.732103434592172 
1004	 0.732263253448993 
1005	 0.732413541036152 
1006	 0.732549367791112 
1007	 0.732651418051414 
1008	 0.73278428152639 
1009	 0.73290633480344 
1010	 0.733060259567763 
1011	 0.733277987353734 
1012	 0.733416933665871 
1013	 0.733514188777196 
1014	 0.733640226252287 
1015	 0.733732797572903 
1016	 0.733841167882341 
1017	 0.73398066214482 
1018	 0.734155785028258 
1019	 0.734324526058107 
1020	 0.734464298126812 
1021	 0.734603393787297 
1022	 0.734724336598611 
1023	 0.734878875100641 
1024	 0.73505140332884 
1025	 0.735189551762913 
1026	 0.735354463422509 
1027	 0.735493924614007 
1028	 0.735592727814519 
1029	 0.735681017423846 
1030	 0.73583641322332 
1031	 0.735950322193518 
1032	 0.736072966848719 
1033	 0.736220984689735 
1034	 0.736296737323172 
1035	 0.736376804743337 
1036	 0.73648346168321 
1037	 0.736583683538004 
1038	 0.736702067430881 
1039	 0.736866473742474 
1040	 0.736978067812797 
1041	 0.73705690059532 
1042	 0.737162795380383 
1043	 0.737256377728987 
1044	 0.737377242156557 
1045	 0.737501796132686 
1046	 0.737653849481415 
1047	 0.73778564804224 
1048	 0.737909128929835 
1049	 0.738078174526551 
1050	 0.73819796519403 
1051	 0.738348847005353 
1052	 0.738564817901129 
1053	 0.73874225936182 
1054	 0.738914790124152 
1055	 0.73909286785301 
1056	 0.739257515246025 
1057	 0.739429226541253 
1058	 0.73960406228089 
1059	 0.739798431191002 
1060	 0.740005873036838 
1061	 0.740161202587906 
1062	 0.740298336308646 
1063	 0.740469674857417 
1064	 0.740647342160947 
1065	 0.740841079178557 
1066	 0.741079175641582 
1067	 0.741329705745877 
1068	 0.741529023749866 
1069	 0.741721179755981 
1070	 0.741936130452602 
1071	 0.742153871337152 
1072	 0.742369916137563 
1073	 0.742581802036987 
1074	 0.742781148062267 
1075	 0.742974035808284 
1076	 0.743126348483274 
1077	 0.743282573780571 
1078	 0.74349267739279 
1079	 0.743678208915757 
1080	 0.743841315161265 
1081	 0.744013363483829 
1082	 0.74416065619369 
1083	 0.744310978773452 
1084	 0.744499728823182 
1085	 0.74472192327352 
1086	 0.744893924496449 
1087	 0.745055312638984 
1088	 0.745181288564174 
1089	 0.745312356443923 
1090	 0.745433076454586 
1091	 0.745578446906208 
1092	 0.745753461993138 
1093	 0.7459194984303 
1094	 0.746051317327631 
1095	 0.746160820159912 
1096	 0.746278066472464 
1097	 0.746399589783479 
1098	 0.746515888564942 
1099	 0.746624276118481 
1100	 0.746722438478795 
1101	 0.746821161814873 
1102	 0.746922951773714 
1103	 0.747005266264153 
1104	 0.747094252379399 
1105	 0.747166964920577 
1106	 0.747198032666592 
1107	 0.747221011041792 
1108	 0.747271453682064 
1109	 0.747344870370348 
1110	 0.747441525929792 
1111	 0.747500115188644 
1112	 0.747513343784425 
1113	 0.747539726293938 
1114	 0.747545174646589 
1115	 0.747535459960137 
1116	 0.747543466622877 
1117	 0.747536343711683 
1118	 0.747531705144109 
1119	 0.747536496984351 
1120	 0.747523071719129 
1121	 0.747510926784025 
1122	 0.74746547361075 
1123	 0.747415414687875 
1124	 0.747325643756827 
1125	 0.747236557151254 
1126	 0.747137158659031 
1127	 0.746985004357684 
1128	 0.746812486228961 
1129	 0.746626369526147 
1130	 0.746444432077844 
1131	 0.746264559446816 
1132	 0.746077208715753 
1133	 0.745856314209416 
1134	 0.745618123198193 
1135	 0.745368759584338 
1136	 0.745086790327579 
1137	 0.744816168038793 
1138	 0.744542027079275 
1139	 0.744270986024174 
1140	 0.744006086238206 
1141	 0.743737509646571 
1142	 0.743434400097179 
1143	 0.743105849546934 
1144	 0.742758184155259 
1145	 0.742401633558393 
1146	 0.742070945597348 
1147	 0.741748773427239 
1148	 0.741423343498384 
1149	 0.741118776362091 
1150	 0.74080108259938 
1151	 0.740460608346179 
1152	 0.740084822333192 
1153	 0.739667466364573 
1154	 0.739252903721583 
1155	 0.738813051775853 
1156	 0.73836338988015 
1157	 0.737914664117907 
1158	 0.73744736942306 
1159	 0.736944207323867 
1160	 0.73645878499738 
1161	 0.735995634874807 
1162	 0.735502601634373 
1163	 0.73500589024449 
1164	 0.734504982699299 
1165	 0.733988583739603 
1166	 0.73349329079211 
1167	 0.732997492916352 
1168	 0.732535358496065 
1169	 0.7320961428228 
1170	 0.731668102997564 
1171	 0.731261144580202 
1172	 0.730881921755825 
1173	 0.73051848239623 
1174	 0.730159374677921 
1175	 0.729852425627598 
1176	 0.729602280111045 
1177	 0.729341391379478 
1178	 0.729101694853358 
1179	 0.728859372023181 
1180	 0.728650324933545 
1181	 0.728460579651147 
1182	 0.728306905805152 
1183	 0.72819219559246 
1184	 0.728081992258136 
1185	 0.728014057547076 
1186	 0.727980731529521 
1187	 0.727992196256972 
1188	 0.728017199033984 
1189	 0.728071442869289 
1190	 0.728139551605417 
1191	 0.728241516378644 
1192	 0.728343490249274 
1193	 0.728454605664422 
1194	 0.728584498663238 
1195	 0.728721921826598 
1196	 0.728877084977588 
1197	 0.729054081038037 
1198	 0.729240865268847 
1199	 0.729439981368412 
1200	 0.72965717644921 
1201	 0.729907724763404 
1202	 0.730173939725166 
1203	 0.730417635040225 
1204	 0.730661039676931 
1205	 0.730906759212399 
1206	 0.731124403794615 
1207	 0.731384590038253 
1208	 0.731671367915821 
1209	 0.731955523234875 
1210	 0.732243069969261 
1211	 0.732550769723293 
1212	 0.732877671908114 
1213	 0.733209487759181 
1214	 0.733561129307913 
1215	 0.733913250219825 
1216	 0.734267359612452 
1217	 0.734621757373262 
1218	 0.734989953160166 
1219	 0.735354028173776 
1220	 0.735687292063139 
1221	 0.736028200034253 
1222	 0.73636466148951 
1223	 0.736701677537018 
1224	 0.737025784536346 
1225	 0.737353572704563 
1226	 0.737665657140134 
1227	 0.737955109643116 
1228	 0.738252098987625 
1229	 0.738555716044589 
1230	 0.738844132413545 
1231	 0.739117037010855 
1232	 0.739397943182459 
1233	 0.739687749263211 
1234	 0.739950675104837 
1235	 0.740193750688135 
1236	 0.740449617837171 
1237	 0.740698377382202 
1238	 0.740936656973663 
1239	 0.741190553252058 
1240	 0.74143264215546 
1241	 0.741622715078932 
1242	 0.741792681928509 
1243	 0.741965266587399 
1244	 0.7421204951726 
1245	 0.742273175856051 
1246	 0.742426705045882 
1247	 0.742564026186108 
1248	 0.742691787566008 
1249	 0.742799262991091 
1250	 0.742891236569293 
1251	 0.742977322450405 
1252	 0.743048031808975 
1253	 0.743108748894453 
1254	 0.743178179680882 
1255	 0.743207500421794 
1256	 0.743206448875525 
1257	 0.743190740079308 
1258	 0.743136961814081 
1259	 0.743089141727356 
1260	 0.743022637740355 
1261	 0.74296802181361 
1262	 0.74291557887125 
1263	 0.74285882135045 
1264	 0.742822096794149 
1265	 0.742796695565717 
1266	 0.742772230761507 
1267	 0.742762112505275 
1268	 0.742744152350946 
1269	 0.742720107434906 
1270	 0.742711734977278 
1271	 0.742715640548674 
1272	 0.742708904504371 
1273	 0.742702058946163 
1274	 0.742702090797064 
1275	 0.742696276426201 
1276	 0.742698939178442 
1277	 0.742705288885796 
1278	 0.742728955143019 
1279	 0.742761500735719 
1280	 0.742798790875288 
1281	 0.742850713750937 
1282	 0.7429099981406 
1283	 0.742973360056169 
1284	 0.743041033238948 
1285	 0.743116014280109 
1286	 0.743203412760967 
1287	 0.743294202593501 
1288	 0.743390265749135 
1289	 0.743481844194469 
1290	 0.743579238732406 
1291	 0.743676661793133 
1292	 0.743770834308225 
1293	 0.743864993185777 
1294	 0.743973851278064 
1295	 0.744058376274133 
1296	 0.744127539081499 
1297	 0.744196589481025 
1298	 0.744259677695486 
1299	 0.744312593654417 
1300	 0.744371925480762 
1301	 0.744401825870323 
1302	 0.744401061626039 
1303	 0.744407657125969 
1304	 0.744400411797566 
1305	 0.744391719171268 
1306	 0.744383728027161 
1307	 0.744374059423894 
1308	 0.744351405092819 
1309	 0.744337479008568 
1310	 0.744324101311487 
1311	 0.744333770372138 
1312	 0.744278709763471 
1313	 0.744206101028132 
1314	 0.744111204548525 
1315	 0.743962908937894 
1316	 0.743841533200174 
1317	 0.743725885426615 
1318	 0.743594464435097 
1319	 0.743450074649671 
1320	 0.743312226513657 
1321	 0.743176847528251 
1322	 0.743026202169595 
1323	 0.742882880344013 
1324	 0.742713057867089 
1325	 0.742516629461828 
1326	 0.742320270599932 
1327	 0.742132564291007 
1328	 0.741903398261719 
1329	 0.741655328858616 
1330	 0.741388037886782 
1331	 0.741092282387205 
1332	 0.740773767945675 
1333	 0.740434617644211 
1334	 0.740082786441876 
1335	 0.739714568133707 
1336	 0.739323538773054 
1337	 0.738912752902107 
1338	 0.738491419139046 
1339	 0.738050786896406 
1340	 0.737581394863561 
1341	 0.737107575283048 
1342	 0.736625694853982 
1343	 0.736127661252495 
1344	 0.735613069995933 
1345	 0.735085864045382 
1346	 0.734552434338466 
1347	 0.733996859435035 
1348	 0.733422682347713 
1349	 0.732833804380949 
1350	 0.732211787193449 
1351	 0.731604316444295 
1352	 0.730978988565523 
1353	 0.730372266607496 
1354	 0.729769256648492 
1355	 0.729186060822066 
1356	 0.728611018638603 
1357	 0.72805360054978 
1358	 0.727512714733286 
1359	 0.726985279466478 
1360	 0.726480338983213 
1361	 0.725980316232434 
1362	 0.72545707318607 
1363	 0.724980342003588 
1364	 0.724483303434914 
1365	 0.723977963801205 
1366	 0.723485200806027 
1367	 0.723004007277541 
1368	 0.722517016868472 
1369	 0.722035406312623 
1370	 0.721541289017456 
1371	 0.72104835696716 
1372	 0.720543816065306 
1373	 0.720040750490742 
1374	 0.719502036975354 
1375	 0.718967490901813 
1376	 0.718362553659652 
1377	 0.717727107405358 
1378	 0.717021128361028 
1379	 0.716263556526609 
1380	 0.715442837914936 
1381	 0.714567017768044 
1382	 0.71362233358757 
1383	 0.712619320460111 
1384	 0.711546069564036 
1385	 0.710413760061301 
1386	 0.709209319346956 
1387	 0.707908431607481 
1388	 0.706603445837187 
1389	 0.705248186988744 
1390	 0.703860738180362 
1391	 0.702482418459102 
1392	 0.700994174853531 
1393	 0.699521332710903 
1394	 0.697984264332125 
1395	 0.696444978637841 
1396	 0.694895681870517 
1397	 0.69331308990881 
1398	 0.691723982383682 
1399	 0.690044260365748 
1400	 0.688325765652679 
1401	 0.686528619286649 
1402	 0.68464979089403 
1403	 0.682725674007593 
1404	 0.680738798094499 
1405	 0.678740037781874 
1406	 0.676686471883346 
1407	 0.674612884940085 
1408	 0.672461980696134 
1409	 0.670391329942704 
1410	 0.66828457775276 
1411	 0.666272580066441 
1412	 0.664295503451771 
1413	 0.662451796981447 
1414	 0.660668351342981 
1415	 0.658992119784324 
1416	 0.657449782423583 
1417	 0.655961620011331 
1418	 0.65457618076181 
1419	 0.653210643075488 
1420	 0.651922789285182 
1421	 0.65066238974545 
1422	 0.649437853423167 
1423	 0.648230685920697 
1424	 0.647085644778612 
1425	 0.64590054616622 
1426	 0.644780334541812 
1427	 0.643677799338851 
1428	 0.642604198033492 
1429	 0.641636761307871 
1430	 0.640672248661408 
1431	 0.63973937602946 
1432	 0.638849954846967 
1433	 0.637989978152253 
1434	 0.637192867580879 
1435	 0.636450208153161 
1436	 0.635725740664599 
1437	 0.635058770448119 
1438	 0.634400642760785 
1439	 0.633758277281583 
1440	 0.633146625719671 
1441	 0.632568021558417 
1442	 0.632002196794916 
1443	 0.631457278012834 
1444	 0.630927241540068 
1445	 0.63041276288475 
1446	 0.629927800041031 
1447	 0.629465573207897 
1448	 0.629020410321659 
1449	 0.628600067241171 
1450	 0.628195228199751 
1451	 0.627801735704691 
1452	 0.627434247517164 
1453	 0.627099788117329 
1454	 0.626771388993209 
1455	 0.626466554520995 
1456	 0.626161426426832 
1457	 0.625858673517292 
1458	 0.625568854259663 
1459	 0.625294242536296 
1460	 0.625017532926759 
1461	 0.624751516351903 
1462	 0.624486224581535 
1463	 0.62420243630608 
1464	 0.62394867874142 
1465	 0.623715906000496 
1466	 0.623482154958959 
1467	 0.623291910948454 
1468	 0.623120209230807 
1469	 0.622936206899149 
1470	 0.622765619916722 
1471	 0.622564487740067 
1472	 0.622355891834192 
1473	 0.622109971691183 
1474	 0.621845329212005 
1475	 0.621548594398321 
1476	 0.621222650713402 
1477	 0.620863653386137 
1478	 0.620480189668452 
1479	 0.620062498277067 
1480	 0.619602862414385 
1481	 0.619127545961196 
1482	 0.618613313326401 
1483	 0.618104466863418 
1484	 0.617571654868416 
1485	 0.617048681360224 
1486	 0.6165232041885 
1487	 0.616005178382129 
1488	 0.615470861381784 
1489	 0.614978014600499 
1490	 0.614479916903937 
1491	 0.614047954697319 
1492	 0.613648199732012 
1493	 0.613305749251004 
1494	 0.613011689887234 
1495	 0.612776677071389 
1496	 0.612591146074935 
1497	 0.612467214450264 
1498	 0.612408402722015 
1499	 0.612396105856066 
1500	 0.612438348630845 
1501	 0.612534172778528 
1502	 0.61269980677738 
1503	 0.612885695118239 
1504	 0.613126241225235 
1505	 0.613385645508073 
1506	 0.613666234841654 
1507	 0.613982332154761 
1508	 0.614343058610156 
1509	 0.614714098151967 
1510	 0.615107602116527 
1511	 0.615524548747255 
1512	 0.615974885417683 
1513	 0.616422037575066 
1514	 0.616895231328802 
1515	 0.617363914972618 
1516	 0.617818550231713 
1517	 0.618292442780256 
1518	 0.61877206088665 
1519	 0.619267160154604 
1520	 0.619776622874281 
1521	 0.620300597261439 
1522	 0.620817564870089 
1523	 0.621386349007862 
1524	 0.621964606854697 
1525	 0.622561756962664 
1526	 0.623177164839625 
1527	 0.623815541302734 
1528	 0.624473536847855 
1529	 0.625139078697175 
1530	 0.6258556278547 
1531	 0.626613290152833 
1532	 0.627378958313128 
1533	 0.628184261450891 
1534	 0.628980880578208 
1535	 0.629796006520069 
1536	 0.630582526987921 
1537	 0.631378445657181 
1538	 0.632134357321392 
1539	 0.632867432681352 
1540	 0.633575405250119 
1541	 0.634262415248551 
1542	 0.634921813843164 
1543	 0.635571511394393 
1544	 0.636146510508221 
1545	 0.636687482622458 
1546	 0.63716540483271 
1547	 0.637584485654124 
1548	 0.637940098474776 
1549	 0.638237442086117 
1550	 0.638488584790568 
1551	 0.638658397222176 
1552	 0.638819625929338 
1553	 0.638934626806999 
1554	 0.639049855677652 
1555	 0.639129431417004 
1556	 0.639220325503308 
1557	 0.639281652485921 
1558	 0.63940071867515 
1559	 0.639529183169999 
1560	 0.639695224703452 
1561	 0.639912439101159 
1562	 0.640135426003849 
1563	 0.640368377686039 
1564	 0.640636126971328 
1565	 0.640929645756199 
1566	 0.641252455533663 
1567	 0.641622322545632 
1568	 0.641980508018537 
1569	 0.642359039038267 
1570	 0.642737989585982 
1571	 0.643119306996915 
1572	 0.643500492256937 
1573	 0.643888960011875 
1574	 0.644279715690765 
1575	 0.644672616418339 
1576	 0.645059717508539 
1577	 0.645455945016827 
1578	 0.645839644599077 
1579	 0.646209796817292 
1580	 0.646579449981319 
1581	 0.646945146563212 
1582	 0.647309262387826 
1583	 0.647667112206382 
1584	 0.648027569347521 
1585	 0.648392790212215 
1586	 0.648748458853984 
1587	 0.649083159540866 
1588	 0.649446884968338 
1589	 0.649807636261052 
1590	 0.650195228971494 
1591	 0.65062196448219 
1592	 0.651041959789257 
1593	 0.651464482217978 
1594	 0.651904692268079 
1595	 0.652364929104924 
1596	 0.652813065579137 
1597	 0.653256288935992 
1598	 0.653723399520059 
1599	 0.654198527148019 
1600	 0.654674872913125 
1601	 0.655192160934676 
1602	 0.655673554821848 
1603	 0.656130957729112 
1604	 0.656582823995961 
1605	 0.657008295353413 
1606	 0.657450272135906 
1607	 0.657909429085135 
1608	 0.658341907608071 
1609	 0.658778251807669 
1610	 0.659190055191203 
1611	 0.65956113006616 
1612	 0.659940191400746 
1613	 0.660303609415122 
1614	 0.660678741814665 
1615	 0.661069482383488 
1616	 0.661441253069334 
1617	 0.661820907998004 
1618	 0.662176397770896 
1619	 0.662509297953242 
1620	 0.662827362178856 
1621	 0.663118177376906 
1622	 0.663415088798001 
1623	 0.663704953454714 
1624	 0.663990417278395 
1625	 0.664273598313649 
1626	 0.664554928807617 
1627	 0.664824397105031 
1628	 0.665096256211314 
1629	 0.665380600537776 
1630	 0.66564760339907 
1631	 0.665909228444267 
1632	 0.666159162096482 
1633	 0.66639534640314 
1634	 0.666621113939914 
1635	 0.666846320997504 
1636	 0.66704446109012 
1637	 0.667214408371268 
1638	 0.667384811263159 
1639	 0.667543524647773 
1640	 0.667685483066257 
1641	 0.667818898625897 
1642	 0.667944552631459 
1643	 0.668055667984559 
1644	 0.668149232232772 
1645	 0.668246865453584 
1646	 0.668308072504619 
1647	 0.668344914925119 
1648	 0.66835025934705 
1649	 0.668319950897242 
1650	 0.668273253276283 
1651	 0.668210854740436 
1652	 0.668105756590386 
1653	 0.667984686372377 
1654	 0.667808535403689 
1655	 0.667575970870697 
1656	 0.667313484109026 
1657	 0.667033671177432 
1658	 0.666670511781241 
1659	 0.666252905978044 
1660	 0.665779193942102 
1661	 0.665252901878303 
1662	 0.664633783466436 
1663	 0.66397312795814 
1664	 0.663175349155926 
1665	 0.66226452542925 
1666	 0.661244520590002 
1667	 0.660111877670643 
1668	 0.65889030835079 
1669	 0.657556320577805 
1670	 0.656135065347468 
1671	 0.654598313953497 
1672	 0.652987287786165 
1673	 0.651281169260317 
1674	 0.649502233345975 
1675	 0.647614457385827 
1676	 0.645752270315165 
1677	 0.643825782866329 
1678	 0.641907625844572 
1679	 0.639945336675023 
1680	 0.638040159063084 
1681	 0.636097936274832 
1682	 0.634270307623894 
1683	 0.632485151194464 
1684	 0.630871950290067 
1685	 0.62933359484735 
1686	 0.627977492691368 
1687	 0.62679995382768 
1688	 0.625711089601063 
1689	 0.624754657759104 
1690	 0.623910793818355 
1691	 0.623217103816038 
1692	 0.622590508658829 
1693	 0.622124105849695 
1694	 0.621607114731793 
1695	 0.621153757311933 
1696	 0.620656791703239 
1697	 0.620147069215388 
1698	 0.619631995195101 
1699	 0.619120947496343 
1700	 0.618589288578721 
1701	 0.618047464229919 
1702	 0.617489610167094 
1703	 0.616906621233604 
1704	 0.616313545642823 
1705	 0.615727792515354 
1706	 0.615052232287569 
1707	 0.614399870858321 
1708	 0.613678439191252 
1709	 0.612890180984519 
1710	 0.612074263407209 
1711	 0.611111284141144 
1712	 0.610069269234474 
1713	 0.608918748497226 
1714	 0.607630154542426 
1715	 0.606325946303486 
1716	 0.604884001886916 
1717	 0.603397549997549 
1718	 0.6018964361235 
1719	 0.600284004291602 
1720	 0.598730962456917 
1721	 0.597221033929514 
1722	 0.595765796862224 
1723	 0.594543181506566 
1724	 0.593495659924386 
1725	 0.592592166595584 
1726	 0.591916036047689 
1727	 0.59141608619733 
1728	 0.591101840580454 
1729	 0.591028457203359 
1730	 0.591160471583487 
1731	 0.591431136051309 
1732	 0.59187489047334 
1733	 0.592388279214495 
1734	 0.592977972788334 
1735	 0.593666172315576 
1736	 0.594331075181952 
1737	 0.595010013930742 
1738	 0.595654117052106 
1739	 0.596282888792425 
1740	 0.596896562130327 
1741	 0.597518164130961 
1742	 0.598151885544467 
1743	 0.598771830284907 
1744	 0.59938730522044 
1745	 0.600004603116439 
1746	 0.600600423000456 
1747	 0.601180151437955 
1748	 0.601765905882237 
1749	 0.602337610339624 
1750	 0.602927500770062 
1751	 0.603456047336772 
1752	 0.603962911712715 
1753	 0.604393109856761 
1754	 0.604717059938804 
1755	 0.605076730559217 
1756	 0.605401466955649 
1757	 0.605772141551942 
1758	 0.606158824155911 
1759	 0.60656736734631 
1760	 0.607015722041188 
1761	 0.607530852708982 
1762	 0.60808037781284 
1763	 0.608698677606507 
1764	 0.609362925488151 
1765	 0.61004688690329 
1766	 0.610810911752962 
1767	 0.611551884822287 
1768	 0.612289403585122 
1769	 0.613035115270052 
1770	 0.613706724391238 
1771	 0.614390566157166 
1772	 0.61503449417854 
1773	 0.615626424406886 
1774	 0.616212881267706 
1775	 0.616735831270179 
1776	 0.617238697020915 
1777	 0.617684791425801 
1778	 0.618057739529136 
1779	 0.618401571336938 
1780	 0.618681245264936 
1781	 0.618951921804222 
1782	 0.619211831371951 
1783	 0.619418935496394 
1784	 0.619637866733221 
1785	 0.619846862339026 
1786	 0.620019600634788 
1787	 0.620168222506567 
1788	 0.620320756138458 
1789	 0.620445307263477 
1790	 0.620583974949521 
1791	 0.620737736837398 
1792	 0.62087621862361 
1793	 0.620994816118746 
1794	 0.621111700275754 
1795	 0.62125246888205 
1796	 0.621403596530173 
1797	 0.621568863174787 
1798	 0.621764114379852 
1799	 0.621954974152034 
1800	 0.622169897859643 
1801	 0.622154280383947 
1802	 0.622427864464413 
1803	 0.622683750289832 
1804	 0.622939799771198 
1805	 0.623197197882802 
1806	 0.623461774211982 
1807	 0.623731790223171 
1808	 0.624002706898387 
1809	 0.624296545028083 
1810	 0.624556692960969 
1811	 0.624786974089029 
1812	 0.62504179554607 
1813	 0.625276136699957 
1814	 0.625558096139212 
1815	 0.625824721342818 
1816	 0.626103883318412 
1817	 0.626368241442243 
1818	 0.626609194935038 
1819	 0.62685473968047 
1820	 0.627100915393421 
1821	 0.627355374302515 
1822	 0.627598017404219 
1823	 0.627871460914308 
1824	 0.628137337136929 
1825	 0.628379483123605 
1826	 0.628636817822011 
1827	 0.628879505073007 
1828	 0.6291365542194 
1829	 0.629436086357111 
1830	 0.629687443704745 
1831	 0.629911097488542 
1832	 0.630145744581381 
1833	 0.630370953941093 
1834	 0.630594295772861 
1835	 0.630854887684349 
1836	 0.631112354005243 
1837	 0.631360345879775 
1838	 0.631606054780292 
1839	 0.631843065267846 
1840	 0.632089539860352 
1841	 0.632303865544022 
1842	 0.632504033863995 
1843	 0.632699172485181 
1844	 0.632856971547873 
1845	 0.632973240794335 
1846	 0.633077492628642 
1847	 0.633133583437186 
1848	 0.633145770198104 
1849	 0.633117040965481 
1850	 0.633056450226475 
1851	 0.632964949530826 
1852	 0.632819658708182 
1853	 0.632608842453587 
1854	 0.632383723581154 
1855	 0.632110717985219 
1856	 0.631755409673497 
1857	 0.631351107423497 
1858	 0.630872705539681 
1859	 0.630330091207678 
1860	 0.629710173218744 
1861	 0.629022569805259 
1862	 0.628277612886102 
1863	 0.627474136030563 
1864	 0.626553673386701 
1865	 0.625584559507031 
1866	 0.62455405057919 
1867	 0.623357594113243 
1868	 0.622115320538924 
1869	 0.62071178395406 
1870	 0.619179258036026 
1871	 0.617551747740469 
1872	 0.615811821428773 
1873	 0.613939515585691 
1874	 0.611977446536197 
1875	 0.609917061107057 
1876	 0.607565263734643 
1877	 0.605167804141523 
1878	 0.602518548485394 
1879	 0.599607386415507 
1880	 0.596711970212052 
1881	 0.593530418303522 
1882	 0.590077390960618 
1883	 0.586522182270283 
1884	 0.582779095825765 
1885	 0.57850982403466 
1886	 0.574161191577107 
1887	 0.569447355813206 
1888	 0.564310212547342 
1889	 0.559357142721168 
1890	 0.554055791849379 
1891	 0.548635516967817 
1892	 0.543199656611425 
1893	 0.537473455680474 
1894	 0.531388431572186 
1895	 0.525450837773865 
1896	 0.519318692205266 
1897	 0.513045316444315 
1898	 0.50724626498938 
1899	 0.501231916279097 
1900	 0.495287252330128 
1901	 0.489566573434522 
1902	 0.483478283691351 
1903	 0.477643067746571 
1904	 0.471927134053568 
1905	 0.46624554575814 
1906	 0.460657944687589 
1907	 0.455647765967416 
1908	 0.450604660424113 
1909	 0.445748915246324 
1910	 0.44116750474557 
1911	 0.436385235013181 
1912	 0.431884009285633 
1913	 0.427493044602398 
1914	 0.423142717977281 
1915	 0.419126538571737 
1916	 0.41545000946876 
1917	 0.411752542953448 
1918	 0.408244646127044 
1919	 0.404936045948419 
1920	 0.401488750803375 
1921	 0.3982923757021 
1922	 0.395190674699639 
1923	 0.392156642325875 
1924	 0.389496030683753 
1925	 0.386883810328419 
1926	 0.384409971913535 
1927	 0.382149966310092 
1928	 0.379937759482142 
1929	 0.37775864067098 
1930	 0.375800506149236 
1931	 0.37398225901078 
1932	 0.372274813605212 
1933	 0.370864547405262 
1934	 0.369562304934716 
1935	 0.368394711664984 
1936	 0.367417802750517 
1937	 0.366537059663177 
1938	 0.365753077420785 
1939	 0.365163533867032 
1940	 0.364720858478152 
1941	 0.364428033401713 
1942	 0.364302268299588 
1943	 0.364305689136565 
1944	 0.364416455934222 
1945	 0.364658606850249 
1946	 0.36505831251312 
1947	 0.365558745346406 
1948	 0.366167432347954 
1949	 0.36688651543976 
1950	 0.367653703837853 
1951	 0.368489426459464 
1952	 0.369416710424651 
1953	 0.370422357107719 
1954	 0.371491243424332 
1955	 0.372692969690382 
1956	 0.373908156895145 
1957	 0.375196585538021 
1958	 0.376534524687311 
1959	 0.377786916507069 
1960	 0.379112422648814 
1961	 0.380436997176826 
1962	 0.381728400171134 
1963	 0.383085423827914 
1964	 0.384503683668334 
1965	 0.385889250597124 
1966	 0.387287574383225 
1967	 0.388732141316337 
1968	 0.390092420494275 
1969	 0.391509545296764 
1970	 0.392893930589139 
1971	 0.394236463889408 
1972	 0.395672198780136 
1973	 0.397104965088124 
1974	 0.398561528098097 
1975	 0.400116927759573 
1976	 0.401571592500418 
1977	 0.402978774031485 
1978	 0.404401156167136 
1979	 0.405780205299045 
1980	 0.407167957290776 
1981	 0.408650180415643 
1982	 0.410084702754821 
1983	 0.411561034776233 
1984	 0.413040685464767 
1985	 0.414390872477813 
1986	 0.415780946343787 
1987	 0.417154776072534 
1988	 0.418460144876855 
1989	 0.419832608881815 
1990	 0.421267410813363 
1991	 0.422642768588016 
1992	 0.424013818654432 
1993	 0.425410751977678 
1994	 0.426693677200387 
1995	 0.427995499892689 
1996	 0.429271900497719 
1997	 0.430490114013008 
1998	 0.431744370198946 
1999	 0.43299982670739 
2000	 0.434228602068536 
2001	 0.435506821453681 
2002	 0.436685647275288 
2003	 0.437821596295798 
2004	 0.438911717629126 
2005	 0.439929892408001 
2006	 0.440911999665681 
2007	 0.441884182692464 
2008	 0.442753486460283 
2009	 0.443568397913271 
2010	 0.444338389545483 
2011	 0.444973657990369 
2012	 0.445572310177745 
2013	 0.446072122949398 
2014	 0.446505328236479 
2015	 0.446809085540679 
2016	 0.447031181195791 
2017	 0.447120956467872 
2018	 0.447084919563879 
2019	 0.446940985658036 
2020	 0.446702525110592 
2021	 0.446314373563263 
2022	 0.445792742834571 
2023	 0.445145347481951 
2024	 0.444315866563685 
2025	 0.443363710414605 
2026	 0.442281787325707 
2027	 0.441002435360159 
2028	 0.439720094143397 
2029	 0.438284521068299 
2030	 0.436883181589739 
2031	 0.435440197333201 
2032	 0.43399868272854 
2033	 0.432429344776655 
2034	 0.431058575706628 
2035	 0.429711519399492 
2036	 0.428460139713018 
2037	 0.42747418821318 
2038	 0.426618930961884 
2039	 0.425909972514594 
2040	 0.425358805015381 
2041	 0.424973413948288 
2042	 0.424731732776396 
2043	 0.424661897095391 
2044	 0.424807012315685 
2045	 0.425036408321082 
2046	 0.425424948777097 
2047	 0.425901050737486 
2048	 0.426495689761207 
2049	 0.427186256398975 
2050	 0.428002409557128 
2051	 0.428898780072695 
2052	 0.429888290355525 
2053	 0.430960923906535 
2054	 0.43207917427497 
2055	 0.433264208211032 
2056	 0.434524243577452 
2057	 0.43583379684973 
2058	 0.437245966496002 
2059	 0.438793159616226 
2060	 0.440307834205747 
2061	 0.441949682944215 
2062	 0.443494392845247 
2063	 0.444992114414897 
2064	 0.446505109648232 
2065	 0.448002383737444 
2066	 0.449447424381205 
2067	 0.45102943584217 
2068	 0.452546227249381 
2069	 0.454047875204853 
2070	 0.455607739453467 
2071	 0.457031726038586 
2072	 0.458370626945268 
2073	 0.459686402944845 
2074	 0.460922847863512 
2075	 0.462157780729694 
2076	 0.463393534857693 
2077	 0.464533399509544 
2078	 0.46565806570586 
2079	 0.466674595190211 
2080	 0.467564963771274 
2081	 0.468436980023562 
2082	 0.469258389632033 
2083	 0.46999546887104 
2084	 0.47072070073991 
2085	 0.471385428047836 
2086	 0.471992190560667 
2087	 0.472541982350919 
2088	 0.473037450071625 
2089	 0.473463066722449 
2090	 0.473864257969316 
2091	 0.474206367877371 
2092	 0.474528425565918 
2093	 0.474836419201773 
2094	 0.475072552389541 
2095	 0.475245766509512 
2096	 0.475401127157228 
2097	 0.475502288561137 
2098	 0.475572426631079 
2099	 0.475632930080054 
2100	 0.475684823934232 
2101	 0.4757199560611 
2102	 0.475741953148142 
2103	 0.475722233295072 
2104	 0.475677476839023 
2105	 0.475620582226057 
2106	 0.475526593029849 
2107	 0.475426504417955 
2108	 0.475324466734668 
2109	 0.475194352576054 
2110	 0.475031435577387 
2111	 0.474861984959276 
2112	 0.474679261968861 
2113	 0.47448244327266 
2114	 0.47427847612297 
2115	 0.474043351937654 
2116	 0.473786812223825 
2117	 0.473525157894892 
2118	 0.473204481082515 
2119	 0.472850003156145 
2120	 0.472457313700339 
2121	 0.472009393645836 
2122	 0.47155313358248 
2123	 0.471087033989969 
2124	 0.470554254072995 
2125	 0.470012054068452 
2126	 0.469367739083076 
2127	 0.468652648060834 
2128	 0.467869209268289 
2129	 0.466990943939687 
2130	 0.466079072003768 
2131	 0.465124748988935 
2132	 0.464085546247989 
2133	 0.462994513532406 
2134	 0.461835820309754 
2135	 0.460522636674038 
2136	 0.459164542020014 
2137	 0.45772842669487 
2138	 0.45615763512088 
2139	 0.454633944074636 
2140	 0.453081896371814 
2141	 0.451494988381845 
2142	 0.449928547170922 
2143	 0.448246778756877 
2144	 0.446482624564196 
2145	 0.444702223560811 
2146	 0.442792691203585 
2147	 0.440964166343983 
2148	 0.439170525910139 
2149	 0.437331307768448 
2150	 0.435558296507016 
2151	 0.433678346103642 
2152	 0.431666006384756 
2153	 0.429713110712116 
2154	 0.427737527301561 
2155	 0.425734713300228 
2156	 0.42383953995081 
2157	 0.422024949928677 
2158	 0.42018429794651 
2159	 0.418384404374896 
2160	 0.416577173895713 
2161	 0.414723478518137 
2162	 0.413015951952507 
2163	 0.411300362331639 
2164	 0.409778876161237 
2165	 0.408406010346024 
2166	 0.407108447626495 
2167	 0.405941383534594 
2168	 0.404857567473479 
2169	 0.403836956600603 
2170	 0.402965987581213 
2171	 0.402211406700165 
2172	 0.401577344834729 
2173	 0.401111818278682 
2174	 0.40070579157162 
2175	 0.400354654692422 
2176	 0.40015593201155 
2177	 0.400047050350397 
2178	 0.400024803094196 
2179	 0.400104917944488 
2180	 0.400336843882802 
2181	 0.400585011177281 
2182	 0.400881279284385 
2183	 0.401297011123238 
2184	 0.401791303984861 
2185	 0.402383778122841 
2186	 0.403121505122711 
2187	 0.403865161993585 
2188	 0.404709848984663 
2189	 0.405540513728212 
2190	 0.406402348125588 
2191	 0.407284719530609 
2192	 0.408188569755377 
2193	 0.409106367708234 
2194	 0.410062709455556 
2195	 0.41100221496128 
2196	 0.411956749885762 
2197	 0.412912620637843 
2198	 0.413786618214244 
2199	 0.414697500849428 
2200	 0.415552978404229 
2201	 0.416349171882929 
2202	 0.417181804730031 
2203	 0.418023994068519 
2204	 0.418819126364503 
2205	 0.419627499372624 
2206	 0.420358746973271 
2207	 0.421003478897594 
2208	 0.421689934006026 
2209	 0.422323836953354 
2210	 0.423020862762122 
2211	 0.423779376204804 
2212	 0.424488033749431 
2213	 0.425216374906117 
2214	 0.425901357502893 
2215	 0.42654008076219 
2216	 0.427179850697322 
2217	 0.427821992885941 
2218	 0.428420810908745 
2219	 0.429025634936443 
2220	 0.429547699841854 
2221	 0.430007737738139 
2222	 0.430436568333719 
2223	 0.430796536973409 
2224	 0.431064413618716 
2225	 0.431268222885788 
2226	 0.431375557715562 
2227	 0.43139408149636 
2228	 0.431332259650608 
2229	 0.431135823539992 
2230	 0.430840145950207 
2231	 0.430421878597593 
2232	 0.42987363750694 
2233	 0.429196053303007 
2234	 0.428448174167117 
2235	 0.427473709652591 
2236	 0.426320387349371 
2237	 0.425023819684873 
2238	 0.423484786845071 
2239	 0.421904000504923 
2240	 0.420238966935906 
2241	 0.418388272550448 
2242	 0.416476514489744 
2243	 0.414310411114553 
2244	 0.41184663590768 
2245	 0.409355005856643 
2246	 0.406603144411875 
2247	 0.403902171823904 
2248	 0.401181209123524 
2249	 0.398395831860142 
2250	 0.395583988173089 
2251	 0.39273006263071 
2252	 0.389668328787213 
2253	 0.386747486867272 
2254	 0.383810248627524 
2255	 0.380926081831896 
2256	 0.378377872355923 
2257	 0.375818964605467 
2258	 0.373436413501264 
2259	 0.371207382066299 
2260	 0.369124181715095 
2261	 0.367155969248184 
2262	 0.365384031876588 
2263	 0.363792995395418 
2264	 0.362337043127254 
2265	 0.361074110258263 
2266	 0.359867275077829 
2267	 0.358855848926565 
2268	 0.357823909435471 
2269	 0.356876555204395 
2270	 0.355928488289643 
2271	 0.35500622806522 
2272	 0.354104604768958 
2273	 0.353245762620822 
2274	 0.352373985015461 
2275	 0.351534274209017 
2276	 0.350672165359336 
2277	 0.349748268536104 
2278	 0.348918735484698 
2279	 0.348084486158864 
2280	 0.347347597389613 
2281	 0.346690967227072 
2282	 0.346106736609813 
2283	 0.345583153192802 
2284	 0.345157402317433 
2285	 0.344809150719479 
2286	 0.344587698309611 
2287	 0.3444550912 
2288	 0.3443916042853 
2289	 0.344368032541612 
2290	 0.344404356855017 
2291	 0.344494406276802 
2292	 0.344593149972928 
2293	 0.344814401106015 
2294	 0.345068642592796 
2295	 0.34529966521237 
2296	 0.345625397571179 
2297	 0.345964374594502 
2298	 0.346334608234108 
2299	 0.346695069049933 
2300	 0.347078679588227 
2301	 0.347496061421768 
2302	 0.347884892538418 
2303	 0.348359513091699 
2304	 0.348930156741567 
2305	 0.349513166474579 
2306	 0.350120024928898 
2307	 0.350776901971825 
2308	 0.351472018209131 
2309	 0.35220705873121 
2310	 0.35296999006721 
2311	 0.353823729430063 
2312	 0.354799753256091 
2313	 0.355722476576137 
2314	 0.35672014728324 
2315	 0.357642977587261 
2316	 0.358521358797139 
2317	 0.359360939730774 
2318	 0.360232401354977 
2319	 0.360942047371902 
2320	 0.361566052412273 
2321	 0.362094955249339 
2322	 0.362482620800876 
2323	 0.362805129021642 
2324	 0.36306997071766 
2325	 0.363199146495229 
2326	 0.363153866129013 
2327	 0.363112107162002 
2328	 0.362977160072583 
2329	 0.362805340746564 
2330	 0.362598540904499 
2331	 0.362366484536738 
2332	 0.362064805080494 
2333	 0.361689082046736 
2334	 0.361232560457843 
2335	 0.36072306658616 
2336	 0.360124706918243 
2337	 0.359470715826669 
2338	 0.358895038519576 
2339	 0.358276445978828 
2340	 0.357659976547953 
2341	 0.357083604213137 
2342	 0.356393419903251 
2343	 0.355774136333449 
2344	 0.35531276594457 
2345	 0.354933322889178 
2346	 0.354772941767017 
2347	 0.354774458480786 
2348	 0.35481734821634 
2349	 0.354968822735245 
2350	 0.355226825519256 
2351	 0.355703509622783 
2352	 0.356350292882309 
2353	 0.357074491051835 
2354	 0.35783832251192 
2355	 0.358574785198815 
2356	 0.359257400128837 
2357	 0.359891477819291 
2358	 0.360484112890664 
2359	 0.360969058996037 
2360	 0.361425508857269 
2361	 0.361844484521367 
2362	 0.362181601269185 
2363	 0.362526105467001 
2364	 0.362810894604529 
2365	 0.362989642752736 
2366	 0.363187080636065 
2367	 0.363396002996493 
2368	 0.363552324087465 
2369	 0.363725310497349 
2370	 0.363908097124264 
2371	 0.364005446525522 
2372	 0.364036498452054 
2373	 0.364110683987812 
2374	 0.36414061123992 
2375	 0.364069166190798 
2376	 0.364167934602906 
2377	 0.364261793198016 
2378	 0.364162238534697 
2379	 0.364223548631805 
2380	 0.364355518615321 
2381	 0.364335883594529 
2382	 0.364362364832407 
2383	 0.364521563525934 
2384	 0.364587144196968 
2385	 0.364512537912199 
2386	 0.364524133599541 
2387	 0.364611422531967 
2388	 0.364657443800412 
2389	 0.364659373759149 
2390	 0.364745649638411 
2391	 0.364917673116183 
2392	 0.364941336100716 
2393	 0.364922253803019 
2394	 0.364917246354432 
2395	 0.364848018385315 
2396	 0.3647737991931 
2397	 0.364746736877268 
2398	 0.364610736196432 
2399	 0.364369033492139 
2400	 0.364150384192209 
2401	 0.363857639883714 
2402	 0.363614248776213 
2403	 0.363450430788187 
2404	 0.363174756367031 
2405	 0.362956250565172 
2406	 0.362763272061729 
2407	 0.362420163137387 
2408	 0.362158105865043 
2409	 0.361961077774657 
2410	 0.361682380169843 
2411	 0.361432498170853 
2412	 0.36123734808696 
2413	 0.361007778324158 
2414	 0.360664786059435 
2415	 0.360329526775379 
2416	 0.359881416042461 
2417	 0.359269680509896 
2418	 0.358818464118807 
2419	 0.358438213481585 
2420	 0.35797650386569 
2421	 0.357557122384364 
2422	 0.357150926815527 
2423	 0.356571812589663 
2424	 0.355959919242624 
2425	 0.355465643441152 
2426	 0.354772959308598 
2427	 0.354091124738106 
2428	 0.353594163178441 
2429	 0.352823140213651 
2430	 0.352037667975032 
2431	 0.35138891253274 
2432	 0.350474461896868 
2433	 0.349490862234096 
2434	 0.348484063355653 
2435	 0.347295418675118 
2436	 0.346186011462949 
2437	 0.345058714588715 
2438	 0.343919389465876 
2439	 0.342830107967225 
2440	 0.341552855346988 
2441	 0.340296657138656 
2442	 0.339192355875477 
2443	 0.338024590265341 
2444	 0.336823038124936 
2445	 0.335592631675674 
2446	 0.334169661687128 
2447	 0.332806676560985 
2448	 0.331585153674057 
2449	 0.330464219697502 
2450	 0.329527994032427 
2451	 0.328361572532972 
2452	 0.327039628355043 
2453	 0.325788969085426 
2454	 0.324433032593396 
2455	 0.323366017632497 
2456	 0.322474660509073 
2457	 0.321453170659816 
2458	 0.320519721249715 
2459	 0.319473023414932 
2460	 0.318487286396779 
2461	 0.317753037547103 
2462	 0.317129233097526 
2463	 0.316644527211581 
2464	 0.315971241597795 
2465	 0.315208049865854 
2466	 0.314579136887126 
2467	 0.313700518688039 
2468	 0.313059886260296 
2469	 0.312704763745228 
2470	 0.311978012833244 
2471	 0.311431587216926 
2472	 0.310989971668063 
2473	 0.310511377402742 
2474	 0.31023200198873 
2475	 0.309861679959618 
2476	 0.309583731163998 
2477	 0.309131043798866 
2478	 0.308630466558208 
2479	 0.308484379620525 
2480	 0.308109969395359 
2481	 0.307785967379586 
2482	 0.307399750491302 
2483	 0.306859800145956 
2484	 0.306542944715274 
2485	 0.30609920899944 
2486	 0.305781029310502 
2487	 0.30578334118596 
2488	 0.30551030318581 
2489	 0.304895207005354 
2490	 0.304409735728972 
2491	 0.303979148183894 
2492	 0.30383684467332 
2493	 0.303980523122101 
2494	 0.30383505460348 
2495	 0.303473853790629 
2496	 0.302847961862465 
2497	 0.302260811620294 
2498	 0.30199936602913 
2499	 0.301869664147618 
2500	 0.30160985270806 
