Wavelength	spectrum00024.asd
350	 0.107005204081245 
351	 0.102744406018432 
352	 0.100818378447955 
353	 0.101462655313473 
354	 9.82586902120692E-02 
355	 9.45782819620386E-02 
356	 9.22318518298892E-02 
357	 9.12743952413338E-02 
358	 0.087467568484719 
359	 8.61125831158989E-02 
360	 8.60262716495003E-02 
361	 8.34895876924276E-02 
362	 8.40695943143664E-02 
363	 8.38355636375605E-02 
364	 8.15503296263753E-02 
365	 8.05859630540897E-02 
366	 8.02845568729289E-02 
367	 7.93837637315255E-02 
368	 7.74606817765715E-02 
369	 7.74356818006143E-02 
370	 7.69876826244235E-02 
371	 7.61294088304621E-02 
372	 7.60817390358653E-02 
373	 7.57744294061431E-02 
374	 7.57955482254419E-02 
375	 7.61134069019042E-02 
376	 7.56050659356854E-02 
377	 7.44777179988716E-02 
378	 7.36484969575611E-02 
379	 7.37357744615367E-02 
380	 0.073744728283098 
381	 7.34937959366171E-02 
382	 7.28879358598489E-02 
383	 7.20171779418809E-02 
384	 7.19929069732771E-02 
385	 7.20492601394798E-02 
386	 7.15795582503068E-02 
387	 7.05305670073454E-02 
388	 7.00230546893527E-02 
389	 6.99571379424269E-02 
390	 6.98469249224427E-02 
391	 0.069214213141154 
392	 6.88558540425148E-02 
393	 6.86867072756799E-02 
394	 0.0681053676768 
395	 6.78497810831345E-02 
396	 6.74049014995459E-02 
397	 6.66864754484546E-02 
398	 6.65599418086988E-02 
399	 6.67214884931676E-02 
400	 6.65588210118429E-02 
401	 0.065732242840295 
402	 6.52839492044286E-02 
403	 6.54557077971892E-02 
404	 6.57320273447199E-02 
405	 0.065178743551841 
406	 6.47315181005984E-02 
407	 6.42878806610969E-02 
408	 0.063883998045736 
409	 6.42164756255861E-02 
410	 6.41324159346829E-02 
411	 6.37787926656267E-02 
412	 6.36922452548016E-02 
413	 6.40212692768792E-02 
414	 6.40435296370878E-02 
415	 6.37993415497414E-02 
416	 6.40016324486388E-02 
417	 6.39257425642135E-02 
418	 6.39825921275999E-02 
419	 6.43773854289329E-02 
420	 6.43804949137767E-02 
421	 6.43755674447149E-02 
422	 6.45410902011722E-02 
423	 6.48987275829237E-02 
424	 6.50420011781905E-02 
425	 6.52200842674627E-02 
426	 6.55161779892827E-02 
427	 0.065765750331404 
428	 6.59691726905219E-02 
429	 6.63251966822898E-02 
430	 0.066891309579073 
431	 6.71477785077312E-02 
432	 6.76590140494457E-02 
433	 6.82714670487063E-02 
434	 0.068520124484322 
435	 6.90961730816042E-02 
436	 6.97353195207554E-02 
437	 7.02429882165707E-02 
438	 7.06810036319926E-02 
439	 7.14663953595535E-02 
440	 7.22841716563336E-02 
441	 7.28052557765227E-02 
442	 7.36168481718209E-02 
443	 7.45305907052223E-02 
444	 7.53890452776999E-02 
445	 7.61068160747926E-02 
446	 7.69779205772935E-02 
447	 7.79260553277855E-02 
448	 7.88831376607536E-02 
449	 7.99437615452119E-02 
450	 8.10263674411291E-02 
451	 8.20891182859076E-02 
452	 0.083142048273298 
453	 8.44150987949688E-02 
454	 8.56450976895354E-02 
455	 8.68105019521612E-02 
456	 8.81936382778423E-02 
457	 8.95326933007973E-02 
458	 9.08855249666356E-02 
459	 9.23592087097117E-02 
460	 9.39949841490452E-02 
461	 9.56333698063245E-02 
462	 9.71524159407183E-02 
463	 9.85306569500721E-02 
464	 0.100332027414008 
465	 0.102261535512214 
466	 0.104084059711669 
467	 0.105813285607848 
468	 0.107689901620411 
469	 0.109711943520009 
470	 0.11179982116292 
471	 0.113892349132083 
472	 0.116017915631874 
473	 0.118188196546987 
474	 0.120396655102066 
475	 0.122663121755459 
476	 0.124962628152945 
477	 0.127318493478767 
478	 0.129899228936826 
479	 0.132397843521793 
480	 0.134881029362822 
481	 0.137535201391474 
482	 0.14027009340125 
483	 0.143085726934288 
484	 0.145940888196904 
485	 0.148739574864571 
486	 0.151672479635449 
487	 0.15464882499818 
488	 0.157594706488849 
489	 0.160690394117403 
490	 0.163938212358474 
491	 0.167262927157939 
492	 0.170539350864876 
493	 0.173627667581017 
494	 0.17683974606512 
495	 0.180313209879717 
496	 0.183810602532954 
497	 0.187311209469447 
498	 0.190788111359232 
499	 0.194246831735175 
500	 0.197823481976464 
501	 0.201416083834603 
502	 0.204995502136645 
503	 0.208608647915912 
504	 0.21225837433241 
505	 0.215957106063552 
506	 0.21969676832277 
507	 0.223422645475075 
508	 0.227082706136711 
509	 0.230736673321453 
510	 0.234471814355993 
511	 0.238202034425481 
512	 0.241899658292568 
513	 0.245559422752348 
514	 0.24920806536913 
515	 0.252856891672071 
516	 0.256502020479219 
517	 0.260130257147259 
518	 0.263700531247825 
519	 0.267261123253474 
520	 0.27081045994285 
521	 0.274310389785699 
522	 0.277773735986441 
523	 0.28122434049527 
524	 0.284667173983152 
525	 0.288069539126279 
526	 0.291484653099263 
527	 0.294892124089133 
528	 0.298249242267687 
529	 0.301538097607934 
530	 0.304802073736184 
531	 0.30807437738393 
532	 0.311365077534733 
533	 0.314519637346128 
534	 0.317677684059158 
535	 0.320945433764439 
536	 0.324154612958197 
537	 0.327339700752865 
538	 0.330492376627286 
539	 0.333592397474724 
540	 0.336682260514245 
541	 0.339797571938309 
542	 0.3429226754188 
543	 0.345961940353612 
544	 0.348967851973012 
545	 0.351944814749184 
546	 0.354897615398713 
547	 0.357905442601532 
548	 0.360842430291755 
549	 0.363735492333449 
550	 0.366742886362298 
551	 0.369739623243977 
552	 0.372681909801378 
553	 0.375573894035395 
554	 0.378486227522941 
555	 0.38141105206295 
556	 0.384360779999545 
557	 0.387345843293229 
558	 0.390334467273821 
559	 0.393272302254037 
560	 0.396159643126479 
561	 0.399077644815976 
562	 0.401970368646438 
563	 0.404887146106934 
564	 0.407868149735727 
565	 0.410808510609153 
566	 0.41376323962819 
567	 0.416724760689486 
568	 0.4196411275166 
569	 0.422568099695891 
570	 0.425535882532553 
571	 0.428553742718297 
572	 0.431599793611534 
573	 0.434601324666041 
574	 0.437484540080676 
575	 0.440213456743683 
576	 0.442921419256833 
577	 0.445595873379246 
578	 0.448261485069964 
579	 0.450990963499682 
580	 0.453700704786745 
581	 0.456357008176464 
582	 0.45897124378666 
583	 0.461638520876529 
584	 0.464317068702484 
585	 0.46698504574975 
586	 0.469641821591393 
587	 0.472326732470092 
588	 0.47504795209893 
589	 0.477773677989294 
590	 0.480414879931235 
591	 0.482982682787639 
592	 0.485519852562218 
593	 0.48805121078228 
594	 0.490494551495459 
595	 0.492852364987992 
596	 0.495169834574603 
597	 0.497513240874117 
598	 0.4998422978368 
599	 0.502126985793389 
600	 0.504372324736712 
601	 0.506644411945103 
602	 0.508930839095226 
603	 0.511168622191081 
604	 0.51329754129454 
605	 0.515476683592179 
606	 0.517648949400181 
607	 0.519769649256032 
608	 0.521831325359885 
609	 0.523827625421907 
610	 0.525782028870801 
611	 0.527731517147338 
612	 0.529716583598645 
613	 0.531636641475592 
614	 0.533519695519763 
615	 0.5354665844395 
616	 0.537341235104288 
617	 0.539121657301151 
618	 0.540843660181003 
619	 0.542619360540533 
620	 0.54442007362987 
621	 0.546188643926466 
622	 0.547891645789727 
623	 0.549674636897688 
624	 0.551391206850498 
625	 0.553030187209655 
626	 0.554715787530189 
627	 0.556352320208536 
628	 0.557988500770282 
629	 0.559641159453609 
630	 0.561172410550636 
631	 0.562710755325047 
632	 0.564295634571824 
633	 0.565902996595879 
634	 0.567393559047772 
635	 0.568883554978535 
636	 0.570423779546085 
637	 0.571947765240198 
638	 0.57343412907391 
639	 0.574877416619601 
640	 0.576297174559715 
641	 0.57777849687398 
642	 0.579222891246415 
643	 0.580631338515346 
644	 0.582065101489044 
645	 0.583499914023703 
646	 0.58483705724803 
647	 0.58609080329398 
648	 0.587475515471462 
649	 0.588836244978759 
650	 0.590153330878614 
651	 0.591460242570917 
652	 0.592846522181665 
653	 0.594166020646561 
654	 0.595428804663952 
655	 0.596764970902124 
656	 0.598059762135747 
657	 0.599279939703022 
658	 0.600468058383991 
659	 0.601805270866131 
660	 0.603109281645346 
661	 0.604358035816447 
662	 0.605588664192957 
663	 0.606819062796189 
664	 0.608036187164271 
665	 0.609257148034759 
666	 0.610523006335167 
667	 0.611669957959684 
668	 0.612790904585395 
669	 0.614007038563738 
670	 0.615407459224053 
671	 0.616655082225401 
672	 0.617731539009573 
673	 0.618791407428819 
674	 0.619972153612232 
675	 0.62116352133897 
676	 0.622300141569772 
677	 0.623401428464482 
678	 0.624540939108434 
679	 0.625724623719458 
680	 0.626914729447944 
681	 0.628003274738584 
682	 0.629069449250688 
683	 0.630119562795486 
684	 0.631134716600316 
685	 0.632231143064885 
686	 0.63329853245728 
687	 0.634334710602332 
688	 0.635524729355148 
689	 0.636587276007257 
690	 0.637553981024615 
691	 0.638529359339623 
692	 0.63953836134269 
693	 0.640579515360415 
694	 0.641638008058067 
695	 0.642688872066074 
696	 0.643728590681368 
697	 0.644722508924492 
698	 0.645676143125675 
699	 0.646660160099297 
700	 0.647677042214723 
701	 0.648669652560741 
702	 0.649602461664984 
703	 0.650588685824187 
704	 0.651559925594709 
705	 0.652512106964321 
706	 0.653486031037091 
707	 0.654460008054026 
708	 0.655392288367847 
709	 0.656295065478124 
710	 0.657273854356013 
711	 0.658208423337854 
712	 0.659103882930918 
713	 0.659990702549425 
714	 0.660820674208079 
715	 0.661780427434344 
716	 0.662756479201478 
717	 0.663467016528224 
718	 0.664322586013964 
719	 0.665278525498668 
720	 0.666202682163223 
721	 0.666918359802846 
722	 0.66776056956097 
723	 0.668653105219371 
724	 0.669438240621723 
725	 0.670176621271307 
726	 0.670930320598414 
727	 0.671723893753163 
728	 0.672544795759365 
729	 0.673321617917125 
730	 0.674087831622464 
731	 0.67487041358209 
732	 0.675664148352321 
733	 0.67636497352404 
734	 0.677024809506359 
735	 0.677728225339959 
736	 0.678496297408424 
737	 0.679153108734422 
738	 0.679777321288122 
739	 0.680581240039747 
740	 0.681326849418494 
741	 0.682025684239499 
742	 0.682681523309061 
743	 0.683238601274324 
744	 0.683923555961712 
745	 0.684629182094136 
746	 0.68522782908772 
747	 0.6858445287328 
748	 0.686525554367338 
749	 0.687214035761199 
750	 0.687811072510937 
751	 0.688410694225409 
752	 0.688978440336524 
753	 0.689530016059896 
754	 0.69015736655115 
755	 0.690754103237508 
756	 0.691261499964339 
757	 0.691712941739098 
758	 0.692371519227009 
759	 0.692941889765835 
760	 0.693444642423291 
761	 0.694025001504599 
762	 0.694578815582161 
763	 0.69507802916475 
764	 0.695584270722731 
765	 0.696232375635075 
766	 0.696754984003051 
767	 0.697190327086431 
768	 0.697637612478969 
769	 0.698192014935089 
770	 0.69873471242157 
771	 0.699227092043247 
772	 0.69967804774508 
773	 0.700161592146856 
774	 0.700665857073736 
775	 0.701164620217409 
776	 0.701626170396167 
777	 0.702044206595329 
778	 0.702496130506158 
779	 0.702998134552094 
780	 0.703445859732987 
781	 0.703841948944517 
782	 0.704269033700562 
783	 0.704770712324051 
784	 0.705164015225057 
785	 0.705574092503868 
786	 0.70602935322605 
787	 0.706486412324537 
788	 0.706838419603722 
789	 0.707225989686879 
790	 0.707710280563221 
791	 0.708224113463001 
792	 0.708554615760976 
793	 0.708901434654357 
794	 0.709386077423776 
795	 0.709716288588736 
796	 0.710071306348334 
797	 0.710470965432474 
798	 0.710868655521651 
799	 0.711183823056485 
800	 0.711564781020332 
801	 0.711998918535732 
802	 0.712349453985439 
803	 0.712629237222848 
804	 0.713042312119245 
805	 0.713584596244124 
806	 0.713914587226067 
807	 0.714197274793612 
808	 0.714518925555971 
809	 0.714902675125464 
810	 0.715241688473311 
811	 0.715557880164256 
812	 0.715883161857584 
813	 0.716245985838477 
814	 0.716619658374755 
815	 0.71697736507417 
816	 0.717319028086721 
817	 0.717666775764406 
818	 0.718014224120354 
819	 0.718326773144605 
820	 0.71860777329891 
821	 0.718925977890148 
822	 0.719315550677667 
823	 0.719693284196516 
824	 0.720004465833076 
825	 0.720393569358507 
826	 0.720748545774633 
827	 0.721002393023858 
828	 0.721173011700697 
829	 0.721599962251973 
830	 0.721976649927215 
831	 0.722240025050145 
832	 0.722564200365933 
833	 0.722849073822098 
834	 0.723150252303129 
835	 0.723472700535956 
836	 0.723714990542304 
837	 0.724009423442867 
838	 0.724355266637763 
839	 0.724709396140637 
840	 0.725017516190954 
841	 0.725289306365819 
842	 0.725566270151764 
843	 0.725885916049736 
844	 0.726192478795339 
845	 0.726498782722064 
846	 0.726829910105155 
847	 0.727200202840279 
848	 0.727478049524394 
849	 0.727706381031449 
850	 0.727936415181674 
851	 0.728197235903084 
852	 0.728467022535115 
853	 0.728730645653829 
854	 0.729007126678659 
855	 0.72939239745961 
856	 0.729649799421233 
857	 0.729918837387689 
858	 0.730312974962799 
859	 0.730385624993008 
860	 0.730554924317537 
861	 0.730873486904717 
862	 0.731188610121882 
863	 0.731433799056571 
864	 0.731661763100301 
865	 0.731913338234726 
866	 0.732202908255489 
867	 0.732480304554702 
868	 0.732788996474779 
869	 0.73310180006839 
870	 0.733288703176769 
871	 0.733547542664464 
872	 0.733813097454763 
873	 0.734043533122565 
874	 0.734382895144265 
875	 0.734698084625709 
876	 0.734918558359081 
877	 0.735057802607042 
878	 0.735331776067695 
879	 0.735578520828694 
880	 0.735773747785129 
881	 0.735972979594309 
882	 0.736247875763358 
883	 0.736538670628666 
884	 0.736756506160494 
885	 0.736846992862152 
886	 0.737146620134193 
887	 0.73744130401539 
888	 0.737618818147071 
889	 0.737762095981074 
890	 0.737887990547529 
891	 0.738001838979305 
892	 0.738129562634037 
893	 0.738334942938034 
894	 0.738574200390013 
895	 0.738851968667714 
896	 0.739122509315823 
897	 0.739175854849301 
898	 0.739262618270962 
899	 0.73938770443093 
900	 0.739486228268374 
901	 0.739572484338087 
902	 0.739718697995566 
903	 0.739940999338071 
904	 0.740195624539608 
905	 0.740320966396113 
906	 0.74044874877159 
907	 0.74060799076626 
908	 0.740749956184717 
909	 0.74093576516032 
910	 0.741156916781378 
911	 0.741379560043881 
912	 0.741561630475455 
913	 0.741763751545536 
914	 0.741999199095364 
915	 0.742259470730276 
916	 0.742517644887667 
917	 0.742750857638434 
918	 0.742937430157352 
919	 0.743091512418124 
920	 0.743284450585569 
921	 0.743465264297865 
922	 0.743680812615348 
923	 0.74396392893222 
924	 0.744250222927089 
925	 0.744586555554395 
926	 0.744924618114225 
927	 0.745207272602773 
928	 0.745452651463354 
929	 0.745683415681166 
930	 0.745924099032925 
931	 0.746191214821254 
932	 0.746473139039906 
933	 0.74676231226922 
934	 0.747039119250227 
935	 0.747288681223582 
936	 0.747553238188426 
937	 0.747782621908969 
938	 0.747985250790635 
939	 0.748214067714306 
940	 0.748504177714499 
941	 0.748779942906508 
942	 0.749001938863823 
943	 0.749180062378558 
944	 0.749362181315613 
945	 0.749505137545086 
946	 0.749589484496292 
947	 0.749647018223402 
948	 0.749858675501634 
949	 0.75008215891706 
950	 0.750210274000811 
951	 0.750260314693828 
952	 0.750411407468788 
953	 0.750509865889847 
954	 0.750488608990938 
955	 0.750496048875274 
956	 0.750547062680908 
957	 0.750573634375004 
958	 0.750545370894122 
959	 0.750529762718877 
960	 0.750494704465706 
961	 0.750537893142892 
962	 0.750671624937659 
963	 0.750696642176757 
964	 0.750589533561445 
965	 0.750453843147083 
966	 0.750408704326164 
967	 0.750513289215575 
968	 0.750586707875711 
969	 0.750552183386608 
970	 0.750457133998419 
971	 0.750556329066658 
972	 0.750607227550666 
973	 0.750593277635472 
974	 0.750594658331129 
975	 0.750758530131711 
976	 0.750766519811024 
977	 0.750831606168453 
978	 0.751117459184216 
979	 0.75109574996481 
980	 0.751139328838352 
981	 0.751222017443586 
982	 0.751251467823114 
983	 0.751369150791615 
984	 0.751487622552559 
985	 0.751591017939316 
986	 0.75168826308618 
987	 0.751767833234246 
988	 0.751989410376506 
989	 0.752240691385614 
990	 0.752383037056475 
991	 0.752566991236129 
992	 0.752588262137668 
993	 0.752660350896289 
994	 0.752982719359952 
995	 0.753197451839161 
996	 0.753277326229218 
997	 0.753352130825847 
998	 0.75354884794779 
999	 0.753750942527457 
1000	 0.754067515467438 
1001	 0.758708260764081 
1002	 0.758888673305447 
1003	 0.759074517560163 
1004	 0.759239289067424 
1005	 0.759367387087811 
1006	 0.759549197262665 
1007	 0.759743034070994 
1008	 0.75992441583675 
1009	 0.76014980496792 
1010	 0.760326363121482 
1011	 0.760458238584681 
1012	 0.76061096607062 
1013	 0.760727607676938 
1014	 0.760897610753251 
1015	 0.761122840948733 
1016	 0.761308177553814 
1017	 0.761468972780169 
1018	 0.761652346190793 
1019	 0.761808677412244 
1020	 0.761971790369735 
1021	 0.762152381908963 
1022	 0.762380961791757 
1023	 0.762566550637811 
1024	 0.76272919191304 
1025	 0.762915847316082 
1026	 0.763113162765628 
1027	 0.763291086395191 
1028	 0.763472168429084 
1029	 0.763646671905385 
1030	 0.763771074220345 
1031	 0.763931902302561 
1032	 0.76410919718276 
1033	 0.764245865165973 
1034	 0.764420132769169 
1035	 0.7646121756109 
1036	 0.764771451961567 
1037	 0.764921128492053 
1038	 0.765065374930402 
1039	 0.765167542994349 
1040	 0.765310176215698 
1041	 0.76546763484959 
1042	 0.76563981992615 
1043	 0.765832116862573 
1044	 0.76603591826818 
1045	 0.766225383891713 
1046	 0.766434598675877 
1047	 0.766634986059866 
1048	 0.766829996055826 
1049	 0.767029513035908 
1050	 0.76723296458593 
1051	 0.767413513387955 
1052	 0.767571770640352 
1053	 0.767801049800922 
1054	 0.768086952112405 
1055	 0.768322004543588 
1056	 0.768597074264651 
1057	 0.768852572681575 
1058	 0.769057620883701 
1059	 0.769284403172874 
1060	 0.769577009828381 
1061	 0.769821216088475 
1062	 0.770055422780396 
1063	 0.77027751388924 
1064	 0.770476932694627 
1065	 0.770725412450261 
1066	 0.770992107502024 
1067	 0.771263675427519 
1068	 0.771530069969353 
1069	 0.771742053996546 
1070	 0.771961949785174 
1071	 0.772174336982272 
1072	 0.772375287615356 
1073	 0.772565088874874 
1074	 0.772794496866661 
1075	 0.773027470129325 
1076	 0.773269225325694 
1077	 0.773528072529259 
1078	 0.773764891107612 
1079	 0.774021518145775 
1080	 0.774280394828318 
1081	 0.774502424628969 
1082	 0.77474592839233 
1083	 0.774974995959947 
1084	 0.775188517204874 
1085	 0.775403676025462 
1086	 0.775576650051592 
1087	 0.775719552973132 
1088	 0.775861795199826 
1089	 0.775993417940261 
1090	 0.776095307207992 
1091	 0.776255507528891 
1092	 0.776427220037939 
1093	 0.776579754504391 
1094	 0.776760821694811 
1095	 0.776922225457389 
1096	 0.777054930940291 
1097	 0.777190617494188 
1098	 0.777307509413487 
1099	 0.777406431429531 
1100	 0.777509892987177 
1101	 0.777577702393784 
1102	 0.777590127383348 
1103	 0.777630205543554 
1104	 0.777671696531713 
1105	 0.777716044767683 
1106	 0.777737538477823 
1107	 0.777790210441601 
1108	 0.777831278274722 
1109	 0.777827103969008 
1110	 0.777824384139057 
1111	 0.777820580042102 
1112	 0.777804962306326 
1113	 0.777780267270542 
1114	 0.777740061150537 
1115	 0.777651898242116 
1116	 0.77752228609978 
1117	 0.777391612505733 
1118	 0.777245566709078 
1119	 0.77707516384443 
1120	 0.776914550089786 
1121	 0.776767634653232 
1122	 0.776569240371508 
1123	 0.776361216726304 
1124	 0.776133258459382 
1125	 0.775855752775083 
1126	 0.775552766750267 
1127	 0.775212145876428 
1128	 0.774837977766027 
1129	 0.774424724720141 
1130	 0.773967529183716 
1131	 0.773499077157524 
1132	 0.773034936583018 
1133	 0.772558851221313 
1134	 0.772074766977618 
1135	 0.771551654390014 
1136	 0.770974808393271 
1137	 0.770412675788937 
1138	 0.769840277712712 
1139	 0.769255929855065 
1140	 0.768661626810121 
1141	 0.768089060338877 
1142	 0.767473414380065 
1143	 0.766837065115631 
1144	 0.766199151739799 
1145	 0.765495434085611 
1146	 0.764803147189338 
1147	 0.764114310272627 
1148	 0.763390121901733 
1149	 0.762716258929268 
1150	 0.762054933471251 
1151	 0.761364500040753 
1152	 0.760632250414927 
1153	 0.759888464857559 
1154	 0.75910088696885 
1155	 0.758242724386582 
1156	 0.757400476541768 
1157	 0.756552752885972 
1158	 0.755703983950597 
1159	 0.754844336406699 
1160	 0.753973429230357 
1161	 0.753107275409894 
1162	 0.752216083276697 
1163	 0.751360681804408 
1164	 0.750507005613095 
1165	 0.749665240873155 
1166	 0.748884395629104 
1167	 0.748096462967673 
1168	 0.747329929529167 
1169	 0.746595813709733 
1170	 0.745879583269134 
1171	 0.74519631109574 
1172	 0.744547569567341 
1173	 0.743920775766106 
1174	 0.743328787877108 
1175	 0.74275730195514 
1176	 0.742206649931854 
1177	 0.741678939377838 
1178	 0.741193556660245 
1179	 0.74068032698131 
1180	 0.740205799548869 
1181	 0.739742029081692 
1182	 0.739251281980839 
1183	 0.738819689131908 
1184	 0.738413522497555 
1185	 0.738025487235084 
1186	 0.737707949316705 
1187	 0.737455594790442 
1188	 0.737224549510579 
1189	 0.73704188379064 
1190	 0.736879573198747 
1191	 0.736732496430314 
1192	 0.736643780120404 
1193	 0.736614397920402 
1194	 0.736586024132886 
1195	 0.736597480420024 
1196	 0.736621868976745 
1197	 0.736656036113221 
1198	 0.736704892579534 
1199	 0.736785865937633 
1200	 0.736886943786824 
1201	 0.736970872795778 
1202	 0.737074349600591 
1203	 0.737205122583037 
1204	 0.737342828141821 
1205	 0.737522009745087 
1206	 0.737734008115371 
1207	 0.737975770094194 
1208	 0.738234496775549 
1209	 0.738549300194511 
1210	 0.738897249176028 
1211	 0.739296802819583 
1212	 0.739766608058386 
1213	 0.740243849386378 
1214	 0.740750757373731 
1215	 0.741295248546713 
1216	 0.741887914930395 
1217	 0.742465274883393 
1218	 0.743065214417083 
1219	 0.743682773738663 
1220	 0.744287190154203 
1221	 0.744917904585819 
1222	 0.745511869014392 
1223	 0.746140976428409 
1224	 0.746759352408188 
1225	 0.747359814782433 
1226	 0.74795629203259 
1227	 0.748583584624359 
1228	 0.74915831617536 
1229	 0.749713742033383 
1230	 0.750233355642572 
1231	 0.75071548047578 
1232	 0.751192183072252 
1233	 0.751621700530721 
1234	 0.752064253789526 
1235	 0.752507265140474 
1236	 0.75294681313234 
1237	 0.753404251095062 
1238	 0.753821232509418 
1239	 0.754222291144082 
1240	 0.75460330003635 
1241	 0.754958543343443 
1242	 0.755271565615141 
1243	 0.755591599575953 
1244	 0.755909237465714 
1245	 0.756193061886151 
1246	 0.756460927820822 
1247	 0.756705001098712 
1248	 0.756923353365925 
1249	 0.757123018312592 
1250	 0.757303140646085 
1251	 0.757460129328278 
1252	 0.757586433647253 
1253	 0.757709479643673 
1254	 0.757822910620172 
1255	 0.757912942671174 
1256	 0.757981997681421 
1257	 0.758044458145333 
1258	 0.758096566807997 
1259	 0.75812181602197 
1260	 0.758121400088323 
1261	 0.758123903694967 
1262	 0.758097624667591 
1263	 0.758076225891714 
1264	 0.758062408355219 
1265	 0.758059408961147 
1266	 0.758051024784668 
1267	 0.758032199958175 
1268	 0.758037367360984 
1269	 0.758043356745065 
1270	 0.758080257442366 
1271	 0.758156902949443 
1272	 0.758205719641039 
1273	 0.758248318115832 
1274	 0.7583167872676 
1275	 0.758386760529582 
1276	 0.758461232348764 
1277	 0.758557956077491 
1278	 0.758659285792287 
1279	 0.758737601450683 
1280	 0.758855474515379 
1281	 0.759006497015618 
1282	 0.759167561127367 
1283	 0.759367796618129 
1284	 0.759547428804419 
1285	 0.759725033721885 
1286	 0.759913996452117 
1287	 0.760075257936262 
1288	 0.76020973425235 
1289	 0.760368996878699 
1290	 0.760529281411823 
1291	 0.760685595425075 
1292	 0.760852581087189 
1293	 0.761006489315978 
1294	 0.761145041058652 
1295	 0.761292645945131 
1296	 0.761469399830368 
1297	 0.761586287806852 
1298	 0.761688760229844 
1299	 0.761759154573874 
1300	 0.76177559935719 
1301	 0.761795117849315 
1302	 0.76182303538934 
1303	 0.761801011400064 
1304	 0.761753112205896 
1305	 0.761676047996808 
1306	 0.761543115791669 
1307	 0.76141334969833 
1308	 0.761279535471226 
1309	 0.761113091021606 
1310	 0.760949006717437 
1311	 0.760775560272176 
1312	 0.760599001355856 
1313	 0.760428717784357 
1314	 0.760207513792283 
1315	 0.759967825791827 
1316	 0.759709623448353 
1317	 0.759415458424415 
1318	 0.75910879236071 
1319	 0.758794951317854 
1320	 0.758458537816094 
1321	 0.758099131678907 
1322	 0.757716320780398 
1323	 0.757330132696457 
1324	 0.756900618710989 
1325	 0.756429611476722 
1326	 0.755944326198509 
1327	 0.75545886123608 
1328	 0.754908755655158 
1329	 0.75431695986691 
1330	 0.753699316104394 
1331	 0.7530236215037 
1332	 0.752335845367433 
1333	 0.751654679357419 
1334	 0.750903612516446 
1335	 0.750158658151813 
1336	 0.749395444661838 
1337	 0.748596027047527 
1338	 0.747783989571147 
1339	 0.746926770787252 
1340	 0.746023455409938 
1341	 0.745112851458999 
1342	 0.744173087310802 
1343	 0.74322125606511 
1344	 0.742258086728929 
1345	 0.741263073422961 
1346	 0.74022773604974 
1347	 0.739214155844995 
1348	 0.738197998815574 
1349	 0.737156375300796 
1350	 0.736089078657021 
1351	 0.735051180702545 
1352	 0.733993201790005 
1353	 0.732955474370601 
1354	 0.731952545808243 
1355	 0.730949635023711 
1356	 0.729936236193293 
1357	 0.72894002555398 
1358	 0.727970662586023 
1359	 0.726992854547725 
1360	 0.726037361752722 
1361	 0.725051141711839 
1362	 0.724032615954726 
1363	 0.723047021484588 
1364	 0.722023144555376 
1365	 0.720990580639141 
1366	 0.719913020287508 
1367	 0.718807003935999 
1368	 0.717697375905704 
1369	 0.716562466427093 
1370	 0.715398627368171 
1371	 0.71424045629762 
1372	 0.713033869008742 
1373	 0.711794299261182 
1374	 0.710498326256311 
1375	 0.70917287568936 
1376	 0.707777725660289 
1377	 0.706356786245973 
1378	 0.704788216585222 
1379	 0.703143620825958 
1380	 0.701393034177603 
1381	 0.699528897327439 
1382	 0.697548694730234 
1383	 0.695469786580665 
1384	 0.693297005464205 
1385	 0.691003720122001 
1386	 0.688635097530451 
1387	 0.686180332570216 
1388	 0.683681516349112 
1389	 0.681095753783643 
1390	 0.678455547096296 
1391	 0.67581442866862 
1392	 0.672985603953037 
1393	 0.670213642619751 
1394	 0.667342941914563 
1395	 0.664444624598866 
1396	 0.661525187930975 
1397	 0.658554040650375 
1398	 0.655540682042414 
1399	 0.652434821707906 
1400	 0.649260800740283 
1401	 0.646052584181179 
1402	 0.642766330992009 
1403	 0.639430640011463 
1404	 0.63605923006613 
1405	 0.632679357514963 
1406	 0.62920428290161 
1407	 0.625784380667829 
1408	 0.622309593267698 
1409	 0.618977384328 
1410	 0.615641215086684 
1411	 0.612469454172662 
1412	 0.609394902135141 
1413	 0.60651263038357 
1414	 0.60375907140711 
1415	 0.601145937987681 
1416	 0.598716811802218 
1417	 0.596381077074079 
1418	 0.594184271820942 
1419	 0.592052727297309 
1420	 0.590036993498153 
1421	 0.588111275694189 
1422	 0.586265068925795 
1423	 0.584493802782175 
1424	 0.582855068137857 
1425	 0.581197425613834 
1426	 0.579704137884871 
1427	 0.578279071289361 
1428	 0.576917006670404 
1429	 0.575734385273992 
1430	 0.574563163918413 
1431	 0.573450309325788 
1432	 0.572403313408196 
1433	 0.571428823052056 
1434	 0.570511961436337 
1435	 0.569651247740287 
1436	 0.568851478940166 
1437	 0.568128854986914 
1438	 0.567448404532408 
1439	 0.566823465690005 
1440	 0.566237247035825 
1441	 0.565705121295594 
1442	 0.56520429636095 
1443	 0.564742588377851 
1444	 0.564317189687135 
1445	 0.563933196950988 
1446	 0.563587221276313 
1447	 0.56329086758138 
1448	 0.563003961507716 
1449	 0.562755585337307 
1450	 0.562512491810114 
1451	 0.562292731757029 
1452	 0.562067897593906 
1453	 0.561851255740153 
1454	 0.561647330848049 
1455	 0.561433186962338 
1456	 0.561249744663004 
1457	 0.561098360024388 
1458	 0.56094780822227 
1459	 0.560814792238711 
1460	 0.560684992218058 
1461	 0.560553800005048 
1462	 0.560439116886044 
1463	 0.560325640984791 
1464	 0.560240565945851 
1465	 0.560176726556972 
1466	 0.56013156161847 
1467	 0.560105480853064 
1468	 0.560098558730109 
1469	 0.56010372388037 
1470	 0.560110726355883 
1471	 0.560119355219554 
1472	 0.56014797196282 
1473	 0.560134196926009 
1474	 0.560114753288218 
1475	 0.560059531760598 
1476	 0.559972532952398 
1477	 0.559874246698458 
1478	 0.559754405064459 
1479	 0.559619031191446 
1480	 0.559468621048926 
1481	 0.559295284908609 
1482	 0.559094215606572 
1483	 0.558892244833434 
1484	 0.558672431938466 
1485	 0.558445367283484 
1486	 0.558199370639308 
1487	 0.55797595169106 
1488	 0.557733012041023 
1489	 0.557535476270371 
1490	 0.557352858151602 
1491	 0.557215360573571 
1492	 0.557099901750341 
1493	 0.557036717274045 
1494	 0.557011704902805 
1495	 0.557043787538493 
1496	 0.55712381134325 
1497	 0.557253966734236 
1498	 0.557448681645424 
1499	 0.557671081257517 
1500	 0.557934478424205 
1501	 0.558240003440082 
1502	 0.558586360985387 
1503	 0.55896894306465 
1504	 0.559410092791729 
1505	 0.559858317158188 
1506	 0.560338195036044 
1507	 0.560834008260851 
1508	 0.561343160821486 
1509	 0.561878060434615 
1510	 0.562452460781911 
1511	 0.56301860172779 
1512	 0.563604087915497 
1513	 0.564185252923307 
1514	 0.564760711840245 
1515	 0.565343516512945 
1516	 0.565929972396083 
1517	 0.566522305387034 
1518	 0.567121725842425 
1519	 0.567718420026762 
1520	 0.568314405726462 
1521	 0.568910228792012 
1522	 0.56952156782791 
1523	 0.570185591972564 
1524	 0.570836866132434 
1525	 0.57150992248155 
1526	 0.572203399026341 
1527	 0.572901149505408 
1528	 0.573614019246918 
1529	 0.574358374885033 
1530	 0.57510411100198 
1531	 0.575846932090372 
1532	 0.576616056390458 
1533	 0.577418618300954 
1534	 0.57820483641653 
1535	 0.578998723999098 
1536	 0.579776263904037 
1537	 0.580560500594535 
1538	 0.581308498824131 
1539	 0.582049929534972 
1540	 0.58274063371414 
1541	 0.583395543879456 
1542	 0.584028056947417 
1543	 0.584634244826891 
1544	 0.5851903094746 
1545	 0.58572402609373 
1546	 0.586195594055421 
1547	 0.586599609533683 
1548	 0.586989548604741 
1549	 0.587346507007262 
1550	 0.587661088987589 
1551	 0.587945394562499 
1552	 0.588182008731123 
1553	 0.58835795330283 
1554	 0.588529000809534 
1555	 0.588643146880319 
1556	 0.588796616117392 
1557	 0.588946503346341 
1558	 0.58910672465639 
1559	 0.589278232143977 
1560	 0.589461809289848 
1561	 0.589634806300856 
1562	 0.589851830603523 
1563	 0.590096382347657 
1564	 0.590363247493464 
1565	 0.590661417031071 
1566	 0.590973867667246 
1567	 0.591315537408869 
1568	 0.591658096972029 
1569	 0.592021111909358 
1570	 0.592380648010576 
1571	 0.592739313785908 
1572	 0.593110918584461 
1573	 0.593486853737395 
1574	 0.593876632407039 
1575	 0.594295000769789 
1576	 0.594690208691292 
1577	 0.595091625675004 
1578	 0.595474133091574 
1579	 0.595840968529743 
1580	 0.596195182346572 
1581	 0.596525408213178 
1582	 0.596870641245968 
1583	 0.597206636985636 
1584	 0.597550516306449 
1585	 0.597905082341692 
1586	 0.598262991155838 
1587	 0.598606436690719 
1588	 0.598981536888175 
1589	 0.599370522795898 
1590	 0.599782355137181 
1591	 0.600233762220249 
1592	 0.600673456196608 
1593	 0.601129273918418 
1594	 0.601576929435777 
1595	 0.602018086735222 
1596	 0.602458628336219 
1597	 0.60289318905938 
1598	 0.603338986264995 
1599	 0.603773082408799 
1600	 0.604237846193825 
1601	 0.604739672011696 
1602	 0.605222624414737 
1603	 0.605718034232628 
1604	 0.606203071505339 
1605	 0.606678588113261 
1606	 0.607143360028815 
1607	 0.607606464217628 
1608	 0.608059397151175 
1609	 0.608503439716099 
1610	 0.608929707177446 
1611	 0.609347708742541 
1612	 0.609747677841404 
1613	 0.610115129442401 
1614	 0.610489996096732 
1615	 0.610868152999305 
1616	 0.611227489911636 
1617	 0.611575528602936 
1618	 0.611919236368453 
1619	 0.612248658220039 
1620	 0.612570895978515 
1621	 0.61290119437801 
1622	 0.61320014572839 
1623	 0.613467540996667 
1624	 0.613736805502381 
1625	 0.61399045719667 
1626	 0.614243761227439 
1627	 0.614512539252402 
1628	 0.614743185846556 
1629	 0.614941466508347 
1630	 0.615137724475731 
1631	 0.615311217355343 
1632	 0.615482903257705 
1633	 0.615652114998492 
1634	 0.61581683496815 
1635	 0.615986664794473 
1636	 0.616121926257916 
1637	 0.616235173365757 
1638	 0.61634401914127 
1639	 0.616440587911571 
1640	 0.616506645016158 
1641	 0.616578280565644 
1642	 0.616596079768937 
1643	 0.616551620746393 
1644	 0.616503859044901 
1645	 0.616427758046418 
1646	 0.616338808333264 
1647	 0.616247184925527 
1648	 0.616113538105062 
1649	 0.615954496763536 
1650	 0.615758912451601 
1651	 0.615519755685709 
1652	 0.615266631193505 
1653	 0.615015276463983 
1654	 0.614685432086679 
1655	 0.614325144331087 
1656	 0.613885065928807 
1657	 0.613354610740495 
1658	 0.612787569135685 
1659	 0.612181670587589 
1660	 0.61150070293436 
1661	 0.610770045499149 
1662	 0.60995152099234 
1663	 0.609058847682874 
1664	 0.608067996064902 
1665	 0.607003482733742 
1666	 0.605819495584236 
1667	 0.604538274372895 
1668	 0.603155021023698 
1669	 0.601658571305136 
1670	 0.600068672093634 
1671	 0.598341214451799 
1672	 0.596564183542534 
1673	 0.594701916864029 
1674	 0.592770008199302 
1675	 0.590762474762778 
1676	 0.588743749803785 
1677	 0.586647889792996 
1678	 0.584542613886357 
1679	 0.5823630479539 
1680	 0.580246597534757 
1681	 0.578098632617884 
1682	 0.576036698526388 
1683	 0.57402490714567 
1684	 0.572125592147197 
1685	 0.570271605585772 
1686	 0.568535539963726 
1687	 0.566909300483518 
1688	 0.565365220837255 
1689	 0.563915638710359 
1690	 0.562541152950276 
1691	 0.561285296948698 
1692	 0.560084607833654 
1693	 0.558998451832292 
1694	 0.557876458097703 
1695	 0.556808223555252 
1696	 0.555697369014705 
1697	 0.554584870440712 
1698	 0.553402757522579 
1699	 0.552209262913227 
1700	 0.550989482309145 
1701	 0.549684263370983 
1702	 0.548434978025928 
1703	 0.547179335791507 
1704	 0.545954226637389 
1705	 0.544757059239535 
1706	 0.543527588740328 
1707	 0.542373193538722 
1708	 0.541155474025549 
1709	 0.539904239977004 
1710	 0.538644594049 
1711	 0.537259775184249 
1712	 0.535887278860857 
1713	 0.534456052986804 
1714	 0.532911090898587 
1715	 0.531404141884859 
1716	 0.529778303362647 
1717	 0.528122966642752 
1718	 0.526494435432534 
1719	 0.524803137978999 
1720	 0.523218444016943 
1721	 0.52171639340579 
1722	 0.520320721762871 
1723	 0.519161852306666 
1724	 0.518144692480079 
1725	 0.517303129406062 
1726	 0.516725798096974 
1727	 0.516364456320101 
1728	 0.516254010101403 
1729	 0.516386559267238 
1730	 0.516731023032216 
1731	 0.517224471909129 
1732	 0.517873888921322 
1733	 0.518617268913254 
1734	 0.5194411029185 
1735	 0.520340994836737 
1736	 0.521220460791226 
1737	 0.52208832282433 
1738	 0.522922883716001 
1739	 0.523664901378266 
1740	 0.524365443177565 
1741	 0.524982026164791 
1742	 0.525491910510931 
1743	 0.525992470369139 
1744	 0.526438455045071 
1745	 0.526853526773924 
1746	 0.527234306952228 
1747	 0.52757512159345 
1748	 0.527859985823156 
1749	 0.528129562019029 
1750	 0.528372013611965 
1751	 0.528586789670928 
1752	 0.528758363420907 
1753	 0.528967416783113 
1754	 0.529152753209676 
1755	 0.529365217647436 
1756	 0.529580327772066 
1757	 0.529824265812945 
1758	 0.530141361725396 
1759	 0.530490856882497 
1760	 0.530932819779584 
1761	 0.531496898936756 
1762	 0.532114974369686 
1763	 0.53284208063691 
1764	 0.533630366755739 
1765	 0.534440591209043 
1766	 0.535331080603638 
1767	 0.536222120958076 
1768	 0.537124411502943 
1769	 0.538034344122462 
1770	 0.538864749201795 
1771	 0.539691403715427 
1772	 0.540487284057485 
1773	 0.541176776723877 
1774	 0.541846304440055 
1775	 0.542428155772258 
1776	 0.54293906738416 
1777	 0.543467204542439 
1778	 0.543906317681879 
1779	 0.544318672151677 
1780	 0.544744227797796 
1781	 0.545099442656852 
1782	 0.545429605756707 
1783	 0.545714625614723 
1784	 0.545938920078575 
1785	 0.546110003465109 
1786	 0.546280862253095 
1787	 0.546437507106993 
1788	 0.546573651950922 
1789	 0.546676018782023 
1790	 0.546803354400266 
1791	 0.546920033522468 
1792	 0.547048053838166 
1793	 0.547188372089561 
1794	 0.547317199365459 
1795	 0.547488896462165 
1796	 0.547675256831021 
1797	 0.547852720889778 
1798	 0.548062630672289 
1799	 0.548267365856007 
1800	 0.548493650763458 
1801	 0.548824955521095 
1802	 0.549101705493496 
1803	 0.54936000724101 
1804	 0.549596790788521 
1805	 0.549843737622602 
1806	 0.550100661746257 
1807	 0.550354782173504 
1808	 0.550623995757805 
1809	 0.550911838665513 
1810	 0.551194765100525 
1811	 0.551478938385564 
1812	 0.551771404847645 
1813	 0.552067756932089 
1814	 0.55237573334619 
1815	 0.552694110097108 
1816	 0.553018001241818 
1817	 0.553329052090944 
1818	 0.553649089736534 
1819	 0.553947782021166 
1820	 0.55422041466139 
1821	 0.554507083759132 
1822	 0.554783851536366 
1823	 0.555072846709294 
1824	 0.555366199471292 
1825	 0.555678735369154 
1826	 0.556005747652416 
1827	 0.556357047402331 
1828	 0.556683308305413 
1829	 0.557023802361696 
1830	 0.557346350822576 
1831	 0.557643439244806 
1832	 0.557955644078362 
1833	 0.558282667476806 
1834	 0.558612039534287 
1835	 0.558929852148286 
1836	 0.559231198744682 
1837	 0.55952086765664 
1838	 0.559795578163992 
1839	 0.560048564192307 
1840	 0.560302371364121 
1841	 0.560519266485357 
1842	 0.560706500367032 
1843	 0.560872364607423 
1844	 0.561027376899626 
1845	 0.561152644625908 
1846	 0.561257308443642 
1847	 0.561336516525578 
1848	 0.561342347384718 
1849	 0.56129441304909 
1850	 0.561201829313336 
1851	 0.56106508994106 
1852	 0.560857471432268 
1853	 0.560605728684321 
1854	 0.560325835820227 
1855	 0.559962921184973 
1856	 0.55955300002589 
1857	 0.559079201484635 
1858	 0.558519979967391 
1859	 0.557911470202521 
1860	 0.5572699740571 
1861	 0.556500656991739 
1862	 0.555649825971464 
1863	 0.554727502166591 
1864	 0.553682377284033 
1865	 0.55257987970101 
1866	 0.551376327465214 
1867	 0.549989433719605 
1868	 0.548535111045669 
1869	 0.546855907977083 
1870	 0.545050833523226 
1871	 0.543153544114181 
1872	 0.541116733767945 
1873	 0.538926403780827 
1874	 0.536639937754723 
1875	 0.534228580755934 
1876	 0.531440035610482 
1877	 0.528572385336089 
1878	 0.525431829548998 
1879	 0.521998837583701 
1880	 0.518596343123086 
1881	 0.514899708314185 
1882	 0.510944511791645 
1883	 0.506838964951453 
1884	 0.502475975861087 
1885	 0.497577390656157 
1886	 0.492600951445422 
1887	 0.487253326985149 
1888	 0.481539629824878 
1889	 0.476015489333186 
1890	 0.470098928300588 
1891	 0.464061247345443 
1892	 0.457975561159411 
1893	 0.451589343690651 
1894	 0.444826324895315 
1895	 0.438200978789173 
1896	 0.43137056611103 
1897	 0.424447765370312 
1898	 0.418023596334889 
1899	 0.411399713423304 
1900	 0.404923735329402 
1901	 0.398686871223017 
1902	 0.392084548784849 
1903	 0.385827813466967 
1904	 0.379712127734373 
1905	 0.373653625588111 
1906	 0.367716552389227 
1907	 0.36244231271766 
1908	 0.357167269137955 
1909	 0.352141908371452 
1910	 0.347473510472452 
1911	 0.342652633229591 
1912	 0.338167454123753 
1913	 0.333837150238447 
1914	 0.329585903499572 
1915	 0.325703256142433 
1916	 0.322203925243725 
1917	 0.318721466956401 
1918	 0.315443896180568 
1919	 0.312394252512945 
1920	 0.309233479833008 
1921	 0.306315758059604 
1922	 0.303522582674071 
1923	 0.300829550058728 
1924	 0.298498479643806 
1925	 0.296242235459903 
1926	 0.294130094025853 
1927	 0.292229539731332 
1928	 0.290394470149733 
1929	 0.288627408405046 
1930	 0.287059114576409 
1931	 0.285603474680122 
1932	 0.284247928933338 
1933	 0.283114319734596 
1934	 0.282056864544877 
1935	 0.281120921466986 
1936	 0.280335581674705 
1937	 0.279654919500055 
1938	 0.279081764003777 
1939	 0.278649875492265 
1940	 0.278344271390288 
1941	 0.278167145859112 
1942	 0.278111045073794 
1943	 0.278158675022765 
1944	 0.278287312362286 
1945	 0.278514854783651 
1946	 0.278876143149848 
1947	 0.279292375048941 
1948	 0.279814579358637 
1949	 0.280447842135853 
1950	 0.281094524148664 
1951	 0.281788405250771 
1952	 0.282548807133966 
1953	 0.283363775143527 
1954	 0.284209031767807 
1955	 0.285168309670984 
1956	 0.286134151347483 
1957	 0.287148847921479 
1958	 0.288226726157329 
1959	 0.289242125672709 
1960	 0.290289827998423 
1961	 0.291351968555282 
1962	 0.292390786685133 
1963	 0.29348921547426 
1964	 0.294657080835776 
1965	 0.295783151939103 
1966	 0.296928101380139 
1967	 0.298088060486152 
1968	 0.299153939513974 
1969	 0.300255595235818 
1970	 0.301344113803009 
1971	 0.302410112263565 
1972	 0.303572794647905 
1973	 0.304714370462559 
1974	 0.305870941695521 
1975	 0.307091773316228 
1976	 0.308251650954303 
1977	 0.309366218124655 
1978	 0.310522985634591 
1979	 0.311670743940461 
1980	 0.31281965707891 
1981	 0.314071321706168 
1982	 0.315274221557693 
1983	 0.316512220385749 
1984	 0.317801716612912 
1985	 0.318987340906073 
1986	 0.320202327361243 
1987	 0.321412320371322 
1988	 0.322555905522036 
1989	 0.323793386665174 
1990	 0.325098441417075 
1991	 0.326375710137831 
1992	 0.327682975301115 
1993	 0.329021790366031 
1994	 0.330269180783117 
1995	 0.331561478414136 
1996	 0.332842865848285 
1997	 0.334108530995137 
1998	 0.33543634294289 
1999	 0.336806207311863 
2000	 0.338142230361731 
2001	 0.339555311435488 
2002	 0.34086669507779 
2003	 0.342126610005116 
2004	 0.3433658250037 
2005	 0.344545606012891 
2006	 0.345714301427746 
2007	 0.346896377576393 
2008	 0.347992516236383 
2009	 0.34905079570557 
2010	 0.350052947109108 
2011	 0.350895986662779 
2012	 0.351704501358128 
2013	 0.35243385862342 
2014	 0.353076006139367 
2015	 0.353656122903537 
2016	 0.354215053911226 
2017	 0.354609242109373 
2018	 0.35491868065976 
2019	 0.355089050491996 
2020	 0.355109848064841 
2021	 0.355025406838206 
2022	 0.354876994234526 
2023	 0.354588253161733 
2024	 0.354169868668045 
2025	 0.353676204816508 
2026	 0.353063919684551 
2027	 0.352277553350257 
2028	 0.351491481626002 
2029	 0.350602949939459 
2030	 0.349712238047566 
2031	 0.348747531724142 
2032	 0.347812931377709 
2033	 0.346802334278247 
2034	 0.345908878292864 
2035	 0.345030335040962 
2036	 0.344224180049377 
2037	 0.343569451705827 
2038	 0.342976790619596 
2039	 0.342509019034981 
2040	 0.342158519930307 
2041	 0.341904150242252 
2042	 0.341744540835333 
2043	 0.341711337197133 
2044	 0.34179732263602 
2045	 0.341983721198289 
2046	 0.342331619574257 
2047	 0.342697652309198 
2048	 0.34312490134873 
2049	 0.343648416900455 
2050	 0.344264495576496 
2051	 0.344914692308203 
2052	 0.34567139879107 
2053	 0.346493589775469 
2054	 0.347307069460259 
2055	 0.348135735810746 
2056	 0.349026263366533 
2057	 0.349937862927998 
2058	 0.350916732100688 
2059	 0.351983476364477 
2060	 0.353030712886293 
2061	 0.354151297238619 
2062	 0.355220308817674 
2063	 0.356268813492046 
2064	 0.35732093652155 
2065	 0.358358709781437 
2066	 0.359383052855936 
2067	 0.360473452443181 
2068	 0.361514194925599 
2069	 0.36253335031222 
2070	 0.363578340930331 
2071	 0.364528732721477 
2072	 0.365417142491861 
2073	 0.366276983216387 
2074	 0.367070510914739 
2075	 0.367857219582241 
2076	 0.36861732801886 
2077	 0.369343054476907 
2078	 0.370065124497282 
2079	 0.370722231073142 
2080	 0.371313662312451 
2081	 0.371892903480026 
2082	 0.372431519624353 
2083	 0.372928313321948 
2084	 0.373446551588693 
2085	 0.373916431922509 
2086	 0.374371035165298 
2087	 0.374807141325014 
2088	 0.375219153169316 
2089	 0.375597028460712 
2090	 0.375969903650563 
2091	 0.376339445774983 
2092	 0.376663949107936 
2093	 0.376986155353403 
2094	 0.377236044946614 
2095	 0.377414250992924 
2096	 0.377584912907034 
2097	 0.377712104634423 
2098	 0.377813813145928 
2099	 0.377902811946102 
2100	 0.377968192052421 
2101	 0.378000866885161 
2102	 0.378007899602209 
2103	 0.377964698480897 
2104	 0.37788167548487 
2105	 0.37777996162764 
2106	 0.377622397713767 
2107	 0.377468640081297 
2108	 0.377312879567316 
2109	 0.37711750212969 
2110	 0.376890380267566 
2111	 0.37665307501699 
2112	 0.376381580582437 
2113	 0.376107667184634 
2114	 0.375825985706216 
2115	 0.375525642143675 
2116	 0.375214980483847 
2117	 0.374904695588332 
2118	 0.374520139531842 
2119	 0.374099136538624 
2120	 0.373653067473663 
2121	 0.373145057429897 
2122	 0.372634658019822 
2123	 0.372138320177287 
2124	 0.371551543351404 
2125	 0.37092670299672 
2126	 0.370231466994463 
2127	 0.369466302941271 
2128	 0.368658538258703 
2129	 0.367760094656707 
2130	 0.3668674010875 
2131	 0.365965936185284 
2132	 0.364988884334552 
2133	 0.363973507059047 
2134	 0.362947868116153 
2135	 0.361732580877022 
2136	 0.360515362053619 
2137	 0.359248485593505 
2138	 0.357884374686961 
2139	 0.356552331008978 
2140	 0.355214477496992 
2141	 0.3538450566807 
2142	 0.352461733983389 
2143	 0.351048906200551 
2144	 0.349590633240491 
2145	 0.348158174391572 
2146	 0.346679464914969 
2147	 0.345259590555611 
2148	 0.343899445424491 
2149	 0.342497241468207 
2150	 0.341135436807382 
2151	 0.339722166741838 
2152	 0.338241138355206 
2153	 0.336789223651264 
2154	 0.335321458283881 
2155	 0.333823277431007 
2156	 0.332432301766961 
2157	 0.331081541371082 
2158	 0.329766941603994 
2159	 0.328550956748077 
2160	 0.327270390798993 
2161	 0.325942428632991 
2162	 0.324739145076395 
2163	 0.323521160026282 
2164	 0.322443416168503 
2165	 0.321503876914909 
2166	 0.320588263057549 
2167	 0.319736821149999 
2168	 0.318954885916407 
2169	 0.318201829167424 
2170	 0.31757785615853 
2171	 0.317070246075212 
2172	 0.316613625383333 
2173	 0.316267052281445 
2174	 0.315960857887539 
2175	 0.315711771894286 
2176	 0.315560276195782 
2177	 0.315470720284134 
2178	 0.315473844844227 
2179	 0.315519391535586 
2180	 0.315624630693564 
2181	 0.31579130048558 
2182	 0.316034656795031 
2183	 0.316313911693178 
2184	 0.31663767704246 
2185	 0.317035251270165 
2186	 0.317500271322247 
2187	 0.31799964851138 
2188	 0.318603588151972 
2189	 0.319178115535066 
2190	 0.319754155833515 
2191	 0.320376525346599 
2192	 0.321010220759905 
2193	 0.321679532984751 
2194	 0.322436512104759 
2195	 0.323148950632115 
2196	 0.323863482778886 
2197	 0.324588827470888 
2198	 0.325254946767721 
2199	 0.325899166618598 
2200	 0.326530808344947 
2201	 0.327120057479664 
2202	 0.327761264301653 
2203	 0.328423657530858 
2204	 0.329039574070017 
2205	 0.329658426822068 
2206	 0.330271729815627 
2207	 0.330840088812911 
2208	 0.331437904782526 
2209	 0.332057211593422 
2210	 0.332678564129061 
2211	 0.333302307179666 
2212	 0.333911255991331 
2213	 0.334562337058683 
2214	 0.335145481979993 
2215	 0.335679852433531 
2216	 0.336205733888529 
2217	 0.336681397406085 
2218	 0.337165415967912 
2219	 0.337692242001912 
2220	 0.338125090196989 
2221	 0.338517388888359 
2222	 0.338880999963244 
2223	 0.339141506123982 
2224	 0.339328467843266 
2225	 0.339507882818547 
2226	 0.339637246249131 
2227	 0.339658310950175 
2228	 0.339623054534606 
2229	 0.339473073027403 
2230	 0.339212627424485 
2231	 0.3388687116987 
2232	 0.338454033785351 
2233	 0.337892465849145 
2234	 0.337236820895524 
2235	 0.336416871011065 
2236	 0.335461403851335 
2237	 0.334359701123224 
2238	 0.333068605760806 
2239	 0.331702919463491 
2240	 0.330189946016087 
2241	 0.328595290308625 
2242	 0.326961985634123 
2243	 0.325132963080336 
2244	 0.323131085417542 
2245	 0.32104945973098 
2246	 0.318691468599842 
2247	 0.316426444371508 
2248	 0.314173262168256 
2249	 0.311840986740585 
2250	 0.309487222954379 
2251	 0.307145370159037 
2252	 0.304566060977744 
2253	 0.3020370343106 
2254	 0.299505925440125 
2255	 0.297003357001417 
2256	 0.294695156067646 
2257	 0.292422968184135 
2258	 0.290314499121733 
2259	 0.2883511435724 
2260	 0.286446514590177 
2261	 0.284655301485566 
2262	 0.282972623327695 
2263	 0.281356409331392 
2264	 0.279896476346598 
2265	 0.278606493749325 
2266	 0.277351681716611 
2267	 0.276262896000287 
2268	 0.275126798687969 
2269	 0.274024454226537 
2270	 0.272956750863515 
2271	 0.271884072762397 
2272	 0.270872338029973 
2273	 0.269953389319737 
2274	 0.269006048699648 
2275	 0.268131656527461 
2276	 0.267166332244723 
2277	 0.266121604781945 
2278	 0.265133640691816 
2279	 0.264077820633795 
2280	 0.263108931379706 
2281	 0.262200848901629 
2282	 0.261337366167608 
2283	 0.260523570118611 
2284	 0.259762988994104 
2285	 0.258982759994278 
2286	 0.258285905661907 
2287	 0.257588895876199 
2288	 0.256873981280747 
2289	 0.256294486317684 
2290	 0.255746120697831 
2291	 0.255201760027349 
2292	 0.254704377520387 
2293	 0.254142329130536 
2294	 0.25353639836364 
2295	 0.252960915909929 
2296	 0.252420704126217 
2297	 0.251987096055378 
2298	 0.251634916525158 
2299	 0.251337045042297 
2300	 0.251116620793396 
2301	 0.250978590905471 
2302	 0.250890494637999 
2303	 0.250933281567742 
2304	 0.251068150484007 
2305	 0.251331927285831 
2306	 0.25172494975558 
2307	 0.252209935942448 
2308	 0.252821305270649 
2309	 0.25353524204723 
2310	 0.254396375484351 
2311	 0.255265481338053 
2312	 0.256282697127244 
2313	 0.257238073150933 
2314	 0.258218348882421 
2315	 0.259158421596606 
2316	 0.260136801725991 
2317	 0.260978083684368 
2318	 0.261788302164788 
2319	 0.262451005656309 
2320	 0.263001282841608 
2321	 0.263418362315124 
2322	 0.263708180920269 
2323	 0.263870795973558 
2324	 0.263843000605578 
2325	 0.263791543587301 
2326	 0.263612307247576 
2327	 0.2634079919399 
2328	 0.263174473489873 
2329	 0.262836533731032 
2330	 0.262427771092311 
2331	 0.261935875419034 
2332	 0.261335415689953 
2333	 0.260664118262628 
2334	 0.259868669241157 
2335	 0.259012182693332 
2336	 0.258101001280769 
2337	 0.257132539553385 
2338	 0.256195137862169 
2339	 0.255220730768978 
2340	 0.254243069970463 
2341	 0.253314041450581 
2342	 0.252447825734556 
2343	 0.251625022453864 
2344	 0.250842628548082 
2345	 0.250252107693086 
2346	 0.249837001022701 
2347	 0.249637533607549 
2348	 0.249667629346879 
2349	 0.2498649626692 
2350	 0.250206693817402 
2351	 0.250701570898005 
2352	 0.251312095780096 
2353	 0.252001056789365 
2354	 0.25269633933233 
2355	 0.253378991695008 
2356	 0.253975391066976 
2357	 0.254458883784054 
2358	 0.254926386272687 
2359	 0.255216331683894 
2360	 0.255417558546955 
2361	 0.25560494569644 
2362	 0.255656118001507 
2363	 0.255703469924569 
2364	 0.25574792345071 
2365	 0.255749683545748 
2366	 0.255798998729324 
2367	 0.255782563516007 
2368	 0.255753868508398 
2369	 0.255732136204876 
2370	 0.255650044193928 
2371	 0.255601915280586 
2372	 0.255453969188802 
2373	 0.255275488369426 
2374	 0.255123620792754 
2375	 0.25495264491388 
2376	 0.254823146530057 
2377	 0.254640571143324 
2378	 0.254443967533861 
2379	 0.254281738358221 
2380	 0.254145913036462 
2381	 0.254019634310169 
2382	 0.253868616770034 
2383	 0.253681584213589 
2384	 0.253542166386306 
2385	 0.253412679236107 
2386	 0.253303323145682 
2387	 0.253242428235499 
2388	 0.253160031045148 
2389	 0.253078954272465 
2390	 0.252959969563972 
2391	 0.252867815336065 
2392	 0.252702588967505 
2393	 0.252444184123453 
2394	 0.252216315430516 
2395	 0.251941769249203 
2396	 0.251741015947455 
2397	 0.251593588129307 
2398	 0.251421105918237 
2399	 0.251319416459172 
2400	 0.251053762450646 
2401	 0.250690325555228 
2402	 0.250307619376646 
2403	 0.24985195114161 
2404	 0.249512477542437 
2405	 0.249202338404014 
2406	 0.248843938392808 
2407	 0.248579506796272 
2408	 0.248262230781727 
2409	 0.247788533999092 
2410	 0.247247138887677 
2411	 0.246745267140367 
2412	 0.246247269542649 
2413	 0.245799272687512 
2414	 0.245410610610975 
2415	 0.24497609760709 
2416	 0.24451423573103 
2417	 0.243982726082835 
2418	 0.243565938577591 
2419	 0.243130901935843 
2420	 0.242585040388867 
2421	 0.242111841151467 
2422	 0.241392193515634 
2423	 0.240627543225189 
2424	 0.240029819662088 
2425	 0.239335968122986 
2426	 0.238873059407137 
2427	 0.238535488342721 
2428	 0.238026852251296 
2429	 0.237562665919488 
2430	 0.236936918392756 
2431	 0.236136934799656 
2432	 0.235350442229243 
2433	 0.234639591925048 
2434	 0.233964368927966 
2435	 0.233266742836514 
2436	 0.232614808973587 
2437	 0.231754110629931 
2438	 0.230828994539476 
2439	 0.229964304928506 
2440	 0.228871013676309 
2441	 0.227818930148101 
2442	 0.226758065209122 
2443	 0.225595562528983 
2444	 0.224776630581722 
2445	 0.223916107331869 
2446	 0.223012127713988 
2447	 0.222239057823673 
2448	 0.221171506745976 
2449	 0.220211434687363 
2450	 0.219301660569649 
2451	 0.218163197594169 
2452	 0.217252810851322 
2453	 0.216431397207147 
2454	 0.215546988015712 
2455	 0.214916439789201 
2456	 0.21421949995556 
2457	 0.213279703591179 
2458	 0.212330889442474 
2459	 0.21121174217196 
2460	 0.210181729944447 
2461	 0.209457227938301 
2462	 0.208909417119825 
2463	 0.208519641911901 
2464	 0.208026126279899 
2465	 0.207309514627296 
2466	 0.206504940856931 
2467	 0.205886940314469 
2468	 0.205308878878387 
2469	 0.204674651280848 
2470	 0.204141484375031 
2471	 0.203453005439241 
2472	 0.202912244692127 
2473	 0.20269936963789 
2474	 0.202370944337165 
2475	 0.201955644441404 
2476	 0.201594445708563 
2477	 0.201167457787039 
2478	 0.200690591439633 
2479	 0.200362103672759 
2480	 0.200131860428886 
2481	 0.199789156002224 
2482	 0.199583688660019 
2483	 0.199097743782347 
2484	 0.198434298390619 
2485	 0.197746167524939 
2486	 0.197233455817279 
2487	 0.196967135085588 
2488	 0.196899965637453 
2489	 0.19700357386912 
2490	 0.197098272470257 
2491	 0.196788331258924 
2492	 0.196365978480541 
2493	 0.195909778371096 
2494	 0.195193290752287 
2495	 0.195052466326494 
2496	 0.19511487567567 
2497	 0.194775555681573 
2498	 0.194515260004521 
2499	 0.194031012738412 
2500	 0.193659080299968 
