Wavelength	spectrum00015.asd
350	 0.069472385714043 
351	 6.47203033095325E-02 
352	 6.11054919294328E-02 
353	 5.94991887936415E-02 
354	 5.96686682351185E-02 
355	 5.75170115109713E-02 
356	 5.43962201962131E-02 
357	 5.19659914336133E-02 
358	 0.048635710202992 
359	 4.65797725780826E-02 
360	 4.60991789351101E-02 
361	 4.62224675412945E-02 
362	 4.49611726974615E-02 
363	 4.30396187098298E-02 
364	 4.15992965652559E-02 
365	 4.18928552599204E-02 
366	 4.23727990888804E-02 
367	 4.15354381999749E-02 
368	 3.91282830059823E-02 
369	 3.83753885054976E-02 
370	 3.95155862453701E-02 
371	 4.03849572753754E-02 
372	 3.82481969476149E-02 
373	 3.81310537108145E-02 
374	 0.03851860222068 
375	 3.80596340154474E-02 
376	 3.66611215183735E-02 
377	 3.68872266656249E-02 
378	 3.71493974080987E-02 
379	 3.58977690724748E-02 
380	 3.56906918072982E-02 
381	 3.58960477029658E-02 
382	 3.57821996437229E-02 
383	 3.48135180067513E-02 
384	 3.45937712028205E-02 
385	 3.47218139073293E-02 
386	 3.45943395698318E-02 
387	 3.36730096568881E-02 
388	 3.31683496174261E-02 
389	 3.27646773390276E-02 
390	 3.20432985087399E-02 
391	 3.18164861716378E-02 
392	 3.21019173985118E-02 
393	 3.24087935223576E-02 
394	 3.20452151378888E-02 
395	 3.17239427920498E-02 
396	 3.16336229823574E-02 
397	 3.17232983526162E-02 
398	 3.17168523512563E-02 
399	 3.11748180118467E-02 
400	 3.07304858408072E-02 
401	 3.09512849326093E-02 
402	 3.07510636062272E-02 
403	 3.06284891802234E-02 
404	 3.06854650249788E-02 
405	 3.07019802863491E-02 
406	 3.08583689243479E-02 
407	 3.10864711520106E-02 
408	 0.03130649594282 
409	 3.14964069780728E-02 
410	 3.15279783356061E-02 
411	 3.15831952835162E-02 
412	 3.19184860886873E-02 
413	 3.26869900938488E-02 
414	 3.29799117931822E-02 
415	 3.29301612228915E-02 
416	 3.35747781707411E-02 
417	 3.39562360207351E-02 
418	 3.44592378975816E-02 
419	 3.52972952179044E-02 
420	 3.57297919700701E-02 
421	 3.62560509844111E-02 
422	 3.71152274926158E-02 
423	 3.83000027550061E-02 
424	 3.89993409694617E-02 
425	 3.98012952730787E-02 
426	 4.08801154613613E-02 
427	 4.18165670638589E-02 
428	 4.27192141872185E-02 
429	 4.37456212380397E-02 
430	 4.49633296805378E-02 
431	 4.61332756829407E-02 
432	 4.74430126653821E-02 
433	 4.88193824844715E-02 
434	 5.00823792013494E-02 
435	 5.14675975271036E-02 
436	 0.052970840696582 
437	 5.45183259410536E-02 
438	 5.59627823430433E-02 
439	 5.75234486232916E-02 
440	 0.059174770809796 
441	 6.08414759782918E-02 
442	 6.25633052946848E-02 
443	 6.43815370753459E-02 
444	 6.63083439991543E-02 
445	 6.83260357454077E-02 
446	 7.02472882410871E-02 
447	 7.22059952404872E-02 
448	 7.43116389021004E-02 
449	 7.64872992014553E-02 
450	 7.88356963302403E-02 
451	 0.081182436748881 
452	 8.33413534936811E-02 
453	 8.57244392243834E-02 
454	 0.088253799023282 
455	 9.08166447104514E-02 
456	 9.33214325370434E-02 
457	 9.59431825636825E-02 
458	 9.85813662074064E-02 
459	 0.101202115232627 
460	 0.104168137690629 
461	 0.106999821248452 
462	 0.109733126458142 
463	 0.112679506128831 
464	 0.115767019119292 
465	 0.118806020074324 
466	 0.121781693651699 
467	 0.124978367600868 
468	 0.12817897528764 
469	 0.131360073606665 
470	 0.134591299992484 
471	 0.138068329119981 
472	 0.141405119022988 
473	 0.144658226287607 
474	 0.148211703048743 
475	 0.15165190418412 
476	 0.155178154449675 
477	 0.158882634856252 
478	 0.162401677284546 
479	 0.165944373777716 
480	 0.169584576124939 
481	 0.173322918810015 
482	 0.177021391286021 
483	 0.180740304316759 
484	 0.184515704463341 
485	 0.188327083498745 
486	 0.192116479358215 
487	 0.195904109660118 
488	 0.199715471321079 
489	 0.20351988497532 
490	 0.207425117604542 
491	 0.211375024791957 
492	 0.215229554303832 
493	 0.219020861745279 
494	 0.222863382432928 
495	 0.226774803477293 
496	 0.230582774871461 
497	 0.234421886074724 
498	 0.238282109742927 
499	 0.242115678691899 
500	 0.245979617913738 
501	 0.249711940827216 
502	 0.253375101147717 
503	 0.257216372128284 
504	 0.260973501114049 
505	 0.264709214090787 
506	 0.268465785139218 
507	 0.272072620649093 
508	 0.275729127874006 
509	 0.279394472467653 
510	 0.282949115600374 
511	 0.286580471086292 
512	 0.290150766319264 
513	 0.29362079544676 
514	 0.297126471119967 
515	 0.300588176175485 
516	 0.303999094943489 
517	 0.307374706983257 
518	 0.310740365612467 
519	 0.314095021606553 
520	 0.317418108638423 
521	 0.320680851284095 
522	 0.323927607271601 
523	 0.327163230180637 
524	 0.330380267134887 
525	 0.333565550803669 
526	 0.336748334607585 
527	 0.3399036757948 
528	 0.342999247635787 
529	 0.346058237891188 
530	 0.349093602884632 
531	 0.35211708028727 
532	 0.355135038655683 
533	 0.358123852301705 
534	 0.361112516104086 
535	 0.36411950846961 
536	 0.367115716542086 
537	 0.370065240510483 
538	 0.373007326726616 
539	 0.376005647292479 
540	 0.378889763319303 
541	 0.381727310026031 
542	 0.38457605471262 
543	 0.387431894340849 
544	 0.390237309307496 
545	 0.392978784588146 
546	 0.39567391740817 
547	 0.398416193864977 
548	 0.401118133817982 
549	 0.40375918144602 
550	 0.406383849670212 
551	 0.408957965082627 
552	 0.411518286314068 
553	 0.414086380224459 
554	 0.416605013908273 
555	 0.419083781330486 
556	 0.421565633866812 
557	 0.424088705488669 
558	 0.426531694120672 
559	 0.429021626671247 
560	 0.431553700319193 
561	 0.433916343787753 
562	 0.436185923234077 
563	 0.438455287452747 
564	 0.440804877519469 
565	 0.443248328058301 
566	 0.445625132602683 
567	 0.447901680636859 
568	 0.450149579248458 
569	 0.452418032904467 
570	 0.454700969594363 
571	 0.45698808464927 
572	 0.45929612767968 
573	 0.461455239123744 
574	 0.463498508321548 
575	 0.465536456919053 
576	 0.467558777610515 
577	 0.469592542555969 
578	 0.471668388746245 
579	 0.473812024966089 
580	 0.475887415004993 
581	 0.477875294736308 
582	 0.479822687211635 
583	 0.481878404474537 
584	 0.483870885957286 
585	 0.485767872404434 
586	 0.487639724507113 
587	 0.489610606936108 
588	 0.49154245964811 
589	 0.493368527672904 
590	 0.495189366889984 
591	 0.497003515677918 
592	 0.498798178383718 
593	 0.500535277219589 
594	 0.502111133121854 
595	 0.503630493794354 
596	 0.505153868052393 
597	 0.506687908981975 
598	 0.508240114265003 
599	 0.509761607476515 
600	 0.511209116722372 
601	 0.512554225187231 
602	 0.513946175365359 
603	 0.515377589949828 
604	 0.516757196137935 
605	 0.517986673824748 
606	 0.519195640013654 
607	 0.520450333103329 
608	 0.521709703004975 
609	 0.522911044067174 
610	 0.524057170968618 
611	 0.525173932015995 
612	 0.526275364697569 
613	 0.52739720646481 
614	 0.528531732809577 
615	 0.529636734288928 
616	 0.530611410732936 
617	 0.531586900715857 
618	 0.532636902788078 
619	 0.533685393688583 
620	 0.534684543773917 
621	 0.535679812063533 
622	 0.536713598176952 
623	 0.537629565410514 
624	 0.538564870257226 
625	 0.539513822057703 
626	 0.540339318416196 
627	 0.541219379939593 
628	 0.542163256483205 
629	 0.543114645701138 
630	 0.543927390406582 
631	 0.544797545218226 
632	 0.545696600055387 
633	 0.546516342496776 
634	 0.547368534428695 
635	 0.548226224269231 
636	 0.549064983379299 
637	 0.549875074868116 
638	 0.550645942312966 
639	 0.551443868060868 
640	 0.552288787320242 
641	 0.552982104068672 
642	 0.553705169149959 
643	 0.554501292361092 
644	 0.555320236132169 
645	 0.556122269623945 
646	 0.55688147578841 
647	 0.557603940454141 
648	 0.558341635431826 
649	 0.559073719854962 
650	 0.559794511945448 
651	 0.560501929013799 
652	 0.561192897304934 
653	 0.56188869029746 
654	 0.562595356746568 
655	 0.563303676633416 
656	 0.56399863405562 
657	 0.564716513063163 
658	 0.565444203671749 
659	 0.566033562188687 
660	 0.566715579586288 
661	 0.567462029958395 
662	 0.568157879887466 
663	 0.56881431232307 
664	 0.569455136501491 
665	 0.570093846022656 
666	 0.570729911018958 
667	 0.5713554504427 
668	 0.571976193876988 
669	 0.5726024993437 
670	 0.573257869046054 
671	 0.573862391707342 
672	 0.574460376065643 
673	 0.575128876975749 
674	 0.575740561057682 
675	 0.576295603696128 
676	 0.576832130737044 
677	 0.577417544271827 
678	 0.578090797356024 
679	 0.578731701393192 
680	 0.579251020117476 
681	 0.579754078128672 
682	 0.580374441448529 
683	 0.581009560720447 
684	 0.581466085710617 
685	 0.581988461805178 
686	 0.582510272490774 
687	 0.583029228742782 
688	 0.583678623463582 
689	 0.584337925526258 
690	 0.58485797567263 
691	 0.585216426370052 
692	 0.585845943458511 
693	 0.58633348721418 
694	 0.586730208138993 
695	 0.587350015521426 
696	 0.587971475898956 
697	 0.588489880514529 
698	 0.588910143907442 
699	 0.589379255760249 
700	 0.589939755908318 
701	 0.590518351009832 
702	 0.591015180889296 
703	 0.591366770358072 
704	 0.591832626495216 
705	 0.592363722387897 
706	 0.592727512636191 
707	 0.593203806933926 
708	 0.593797228732029 
709	 0.594394585582063 
710	 0.594748966190128 
711	 0.59512618064283 
712	 0.595593835927719 
713	 0.596114189325155 
714	 0.596494834060511 
715	 0.596877353886904 
716	 0.597312362556054 
717	 0.597773148589369 
718	 0.598227466052114 
719	 0.598709346369611 
720	 0.599203270498491 
721	 0.599595762796579 
722	 0.599906606252048 
723	 0.600271112362749 
724	 0.600778015849146 
725	 0.601205808709371 
726	 0.601507262620349 
727	 0.601805731077102 
728	 0.602306704553674 
729	 0.602763953687971 
730	 0.603183898844479 
731	 0.60358278274749 
732	 0.60393596200565 
733	 0.604229478929561 
734	 0.604544182794692 
735	 0.60494804401563 
736	 0.605361933886585 
737	 0.605735532903772 
738	 0.606035617368141 
739	 0.606263190916485 
740	 0.60658079120517 
741	 0.606981212208175 
742	 0.6073636602485 
743	 0.60752462105009 
744	 0.607893090022366 
745	 0.608303132904235 
746	 0.608548935363293 
747	 0.608860889350366 
748	 0.60923420993471 
749	 0.609612273100793 
750	 0.60993011904714 
751	 0.610340636696813 
752	 0.610662190666241 
753	 0.61086035427963 
754	 0.611129379727376 
755	 0.611480722797477 
756	 0.611821620087896 
757	 0.612099201520118 
758	 0.612460270638668 
759	 0.612790732517379 
760	 0.613125654504493 
761	 0.613541710547134 
762	 0.613910865706588 
763	 0.614235119165144 
764	 0.614520772921314 
765	 0.614774112683974 
766	 0.615128157419466 
767	 0.615477309263349 
768	 0.615741741059171 
769	 0.616000552073556 
770	 0.616362467369289 
771	 0.616734095600865 
772	 0.616987089342105 
773	 0.617237801184336 
774	 0.617541071208211 
775	 0.617859183073379 
776	 0.618090682388581 
777	 0.618282411222643 
778	 0.618567986945912 
779	 0.61893957163782 
780	 0.619132262916298 
781	 0.619439995882608 
782	 0.619740665624756 
783	 0.619897174311729 
784	 0.620150746218831 
785	 0.62039683547671 
786	 0.620641822295468 
787	 0.620930668630867 
788	 0.621087799219155 
789	 0.621306834077302 
790	 0.621596614454438 
791	 0.62172549314421 
792	 0.622080929463237 
793	 0.622468179308282 
794	 0.622685546759894 
795	 0.622802873170272 
796	 0.622968019833074 
797	 0.62319638742014 
798	 0.623440355077019 
799	 0.623653506462379 
800	 0.623874555172612 
801	 0.624108388328312 
802	 0.624329758507307 
803	 0.624514723471979 
804	 0.624752460750406 
805	 0.625056993804641 
806	 0.625311754064251 
807	 0.625482845875521 
808	 0.625688834208964 
809	 0.62600340431629 
810	 0.626256888752849 
811	 0.62642886336783 
812	 0.626563347034384 
813	 0.626734416548971 
814	 0.626967072761154 
815	 0.627199040339958 
816	 0.627414757956899 
817	 0.627639828741377 
818	 0.627798752399236 
819	 0.627951974879033 
820	 0.628132918317319 
821	 0.628295560632612 
822	 0.628495811744617 
823	 0.628703246395123 
824	 0.628887790697964 
825	 0.629090684110816 
826	 0.62934601398143 
827	 0.629585526947001 
828	 0.6297127300858 
829	 0.62975637548887 
830	 0.629879543002704 
831	 0.630133985663276 
832	 0.630449237596964 
833	 0.630670357156616 
834	 0.630820695536412 
835	 0.630935887114097 
836	 0.631020662997406 
837	 0.631243072343016 
838	 0.631447199772073 
839	 0.631516395919278 
840	 0.631677865971237 
841	 0.631892045311898 
842	 0.632119984548766 
843	 0.63232630773292 
844	 0.632525932250609 
845	 0.632701818978182 
846	 0.632865132340224 
847	 0.633045776710386 
848	 0.633241227765096 
849	 0.633417708690733 
850	 0.63355379772812 
851	 0.633654758292614 
852	 0.633903006918 
853	 0.63416681749185 
854	 0.634339141378358 
855	 0.634513775766874 
856	 0.634644842169005 
857	 0.634767312700185 
858	 0.634915433414371 
859	 0.635026364617008 
860	 0.635175060677362 
861	 0.63536726089462 
862	 0.63555982958683 
863	 0.635678960399619 
864	 0.635768253557352 
865	 0.635858510840397 
866	 0.635957896648159 
867	 0.636044879514661 
868	 0.636135859528994 
869	 0.6362628782564 
870	 0.636465118583995 
871	 0.636567053926786 
872	 0.63660838525855 
873	 0.636645870856599 
874	 0.636648585309765 
875	 0.636782321990628 
876	 0.636922932905158 
877	 0.636943905726127 
878	 0.63706147311412 
879	 0.63716782732739 
880	 0.637188164076775 
881	 0.637127803615069 
882	 0.637293816508079 
883	 0.637469812212419 
884	 0.63755526990776 
885	 0.637575823823839 
886	 0.637591201051148 
887	 0.637556413162635 
888	 0.637481366627194 
889	 0.637446398745219 
890	 0.637416009157403 
891	 0.637320807418436 
892	 0.637177889294681 
893	 0.637153576849665 
894	 0.637132930112591 
895	 0.637115422053386 
896	 0.637104312455494 
897	 0.637042825410497 
898	 0.636929990240117 
899	 0.636830064389091 
900	 0.636794976406085 
901	 0.636738184526006 
902	 0.636696400218316 
903	 0.63667812313917 
904	 0.636668886454106 
905	 0.636611101074475 
906	 0.636630806073184 
907	 0.636722931282884 
908	 0.636783515439502 
909	 0.636795991749566 
910	 0.636816333766546 
911	 0.636910168386331 
912	 0.63711920744524 
913	 0.637245112731671 
914	 0.637326639217595 
915	 0.63743083179904 
916	 0.637603569294689 
917	 0.637816815773306 
918	 0.638037763385708 
919	 0.638244111825109 
920	 0.63843649945395 
921	 0.638612550451687 
922	 0.638799632979209 
923	 0.639005540058294 
924	 0.639161102532602 
925	 0.639449200110781 
926	 0.63977141153531 
927	 0.640007985464747 
928	 0.640309728079632 
929	 0.64055034386641 
930	 0.640745474543811 
931	 0.640971751982434 
932	 0.641273022096324 
933	 0.641617077217661 
934	 0.642004610351274 
935	 0.64243218626934 
936	 0.642777807728551 
937	 0.643097045043407 
938	 0.6434305213734 
939	 0.643779712964845 
940	 0.6440274427807 
941	 0.644230913302128 
942	 0.64442918145043 
943	 0.644641553688848 
944	 0.64499241578548 
945	 0.645331187570644 
946	 0.645589183485385 
947	 0.645814535418179 
948	 0.64591445297961 
949	 0.646009173553409 
950	 0.646186771279057 
951	 0.646437829517187 
952	 0.646569296521417 
953	 0.646660188527032 
954	 0.646755789229948 
955	 0.646780456531385 
956	 0.646893980519601 
957	 0.646923167335005 
958	 0.646832459422778 
959	 0.646924853464659 
960	 0.647049615333086 
961	 0.647130717650608 
962	 0.647139368301053 
963	 0.64710941196645 
964	 0.647079687058062 
965	 0.647077244175071 
966	 0.647107474773151 
967	 0.647144166912228 
968	 0.647148826689256 
969	 0.647142823320681 
970	 0.647140295259426 
971	 0.647086528454331 
972	 0.647052196190361 
973	 0.647059039119527 
974	 0.647123485848034 
975	 0.647309669288921 
976	 0.647342226825857 
977	 0.647293473654682 
978	 0.647330509948367 
979	 0.647525697967876 
980	 0.647643021872898 
981	 0.647652047920581 
982	 0.647615631392255 
983	 0.647612977822897 
984	 0.64767506651968 
985	 0.647872552429115 
986	 0.648159918951729 
987	 0.648112479717327 
988	 0.648010842667773 
989	 0.648017660679492 
990	 0.648182568921285 
991	 0.648360297538468 
992	 0.648472904040732 
993	 0.648576944377021 
994	 0.648724915257405 
995	 0.64875874827897 
996	 0.648832428174979 
997	 0.648862110046952 
998	 0.64882977453984 
999	 0.649239670581817 
1000	 0.649402566241286 
1001	 0.645065092256288 
1002	 0.645157181547016 
1003	 0.645235080691447 
1004	 0.645303508947416 
1005	 0.645345269600006 
1006	 0.645414421059753 
1007	 0.645502057423368 
1008	 0.645562781339893 
1009	 0.645607948587706 
1010	 0.645669469272853 
1011	 0.645717818112684 
1012	 0.645782056442385 
1013	 0.645862661237928 
1014	 0.645947767455671 
1015	 0.646039873572471 
1016	 0.646139072292337 
1017	 0.646207893098034 
1018	 0.646275526680926 
1019	 0.646373286480937 
1020	 0.646477121893757 
1021	 0.646599370071692 
1022	 0.646773564462502 
1023	 0.646919575064861 
1024	 0.647045041316468 
1025	 0.647200896240857 
1026	 0.647387341327758 
1027	 0.647550807041872 
1028	 0.647720870787115 
1029	 0.647866277955095 
1030	 0.648023813289346 
1031	 0.648184331777981 
1032	 0.64833578616977 
1033	 0.648505715404495 
1034	 0.648662102159665 
1035	 0.648794247378778 
1036	 0.648950350298043 
1037	 0.64912306080045 
1038	 0.649281654650114 
1039	 0.649443859944778 
1040	 0.649614496519886 
1041	 0.649790095702415 
1042	 0.649953345696486 
1043	 0.650122359282711 
1044	 0.650258191525125 
1045	 0.650425172720986 
1046	 0.650623608791624 
1047	 0.650818849152291 
1048	 0.651015138716338 
1049	 0.651173753280688 
1050	 0.651291944437135 
1051	 0.651454648554611 
1052	 0.651627197961762 
1053	 0.651766549650935 
1054	 0.651909560310547 
1055	 0.652038410774115 
1056	 0.652124939318727 
1057	 0.652225199246166 
1058	 0.65234011853179 
1059	 0.652427432210858 
1060	 0.652504601528429 
1061	 0.65258840762682 
1062	 0.652697530301871 
1063	 0.652815402724446 
1064	 0.652929207149561 
1065	 0.653075808417746 
1066	 0.653203515929875 
1067	 0.653343984659038 
1068	 0.65348003648256 
1069	 0.653563974390216 
1070	 0.65369569834863 
1071	 0.653845122118442 
1072	 0.653991003298762 
1073	 0.654110819201074 
1074	 0.654246657944918 
1075	 0.654328321380308 
1076	 0.654377280621881 
1077	 0.654458562779236 
1078	 0.654567846227454 
1079	 0.654680292212744 
1080	 0.654768662841928 
1081	 0.654848184536344 
1082	 0.654900201580146 
1083	 0.654962058955203 
1084	 0.655063609407484 
1085	 0.655170195856601 
1086	 0.655272543467595 
1087	 0.655400034081849 
1088	 0.655488288395117 
1089	 0.655535386999573 
1090	 0.65559461157497 
1091	 0.655672542814114 
1092	 0.655759655745878 
1093	 0.655842284706318 
1094	 0.655929003530392 
1095	 0.655999820111246 
1096	 0.656061840089385 
1097	 0.656115895330098 
1098	 0.656152857100037 
1099	 0.656182471225743 
1100	 0.656185025303801 
1101	 0.656219981586513 
1102	 0.656252695253031 
1103	 0.656253419793551 
1104	 0.656223086554442 
1105	 0.656227120460052 
1106	 0.6562097836624 
1107	 0.656189307205711 
1108	 0.656205896740688 
1109	 0.656186530229521 
1110	 0.656142466500524 
1111	 0.656076242648328 
1112	 0.655999290034774 
1113	 0.655914911964031 
1114	 0.655807277392167 
1115	 0.655710850575739 
1116	 0.655615472254593 
1117	 0.65551301009314 
1118	 0.65539259447805 
1119	 0.655293604057525 
1120	 0.655126120247862 
1121	 0.654932317637723 
1122	 0.654670891236455 
1123	 0.654382154048222 
1124	 0.65409398500592 
1125	 0.653758300377068 
1126	 0.653404811312027 
1127	 0.653014649614336 
1128	 0.652530924430667 
1129	 0.652038554813001 
1130	 0.651488638613636 
1131	 0.650858447382954 
1132	 0.650221719197356 
1133	 0.649520425710381 
1134	 0.648810229224425 
1135	 0.648049078120702 
1136	 0.647251450436689 
1137	 0.646415088096902 
1138	 0.64551019895886 
1139	 0.6446076265578 
1140	 0.643679270001412 
1141	 0.642786770279023 
1142	 0.641812116825994 
1143	 0.640832532064208 
1144	 0.639848333877511 
1145	 0.638809164763787 
1146	 0.637826944182719 
1147	 0.63684388406633 
1148	 0.635845698133141 
1149	 0.634904783156234 
1150	 0.633929077902658 
1151	 0.632973328090322 
1152	 0.631982061548646 
1153	 0.630971457020334 
1154	 0.629927947877537 
1155	 0.628891346176942 
1156	 0.627759335873128 
1157	 0.626587644299805 
1158	 0.625383106520664 
1159	 0.624103439429412 
1160	 0.622805367476918 
1161	 0.621493501560203 
1162	 0.62006906698586 
1163	 0.618659003608646 
1164	 0.61717245541081 
1165	 0.615627054184781 
1166	 0.614157812589729 
1167	 0.612617598059503 
1168	 0.611083065777442 
1169	 0.609506372645487 
1170	 0.607903562932767 
1171	 0.606265514409742 
1172	 0.604573328254066 
1173	 0.602887276706361 
1174	 0.601191226067027 
1175	 0.599522769296369 
1176	 0.597833143078651 
1177	 0.59617841988606 
1178	 0.594558422928771 
1179	 0.592879185536914 
1180	 0.59133037974192 
1181	 0.589823899976047 
1182	 0.588382151112086 
1183	 0.587159774484811 
1184	 0.586008847933621 
1185	 0.584982603276137 
1186	 0.58410805101854 
1187	 0.58338033967743 
1188	 0.5827740366098 
1189	 0.582301733955273 
1190	 0.581945154655743 
1191	 0.5817502554302 
1192	 0.581611083784786 
1193	 0.581585082554211 
1194	 0.581617260346594 
1195	 0.581741364407007 
1196	 0.581912614078337 
1197	 0.582145898781175 
1198	 0.582451634327872 
1199	 0.58280726889359 
1200	 0.583177889034501 
1201	 0.583615282928874 
1202	 0.584085367888917 
1203	 0.584567462588541 
1204	 0.585132011372198 
1205	 0.585757740708615 
1206	 0.586409392755263 
1207	 0.587190021802257 
1208	 0.588041395285117 
1209	 0.589013620659383 
1210	 0.590065703010735 
1211	 0.591269122777664 
1212	 0.592616127603839 
1213	 0.59406649037229 
1214	 0.595658398356145 
1215	 0.597332859240883 
1216	 0.599144143501478 
1217	 0.600970240319782 
1218	 0.602891654140185 
1219	 0.604848055105405 
1220	 0.606802385078505 
1221	 0.608872194864097 
1222	 0.610854147744552 
1223	 0.612834367133517 
1224	 0.614750903881692 
1225	 0.61662541002478 
1226	 0.618402042133536 
1227	 0.620156258666437 
1228	 0.621783317649672 
1229	 0.623304945687726 
1230	 0.624756143663394 
1231	 0.626108515637405 
1232	 0.627412900208963 
1233	 0.628645679543265 
1234	 0.629790801266329 
1235	 0.630856938776122 
1236	 0.631870840195781 
1237	 0.632790596631884 
1238	 0.633675659631553 
1239	 0.634514308469919 
1240	 0.635301407545582 
1241	 0.636058869187538 
1242	 0.63675022113638 
1243	 0.637415985403263 
1244	 0.63804671266171 
1245	 0.638646992094885 
1246	 0.63920287983356 
1247	 0.63973888212417 
1248	 0.640245463812209 
1249	 0.640736319851687 
1250	 0.641190396344668 
1251	 0.64163906734548 
1252	 0.642083448254539 
1253	 0.642498029919488 
1254	 0.642888182974281 
1255	 0.643266686315922 
1256	 0.643626542773765 
1257	 0.643968604164037 
1258	 0.644282204440622 
1259	 0.64459981031113 
1260	 0.644900505554669 
1261	 0.645201962479676 
1262	 0.645501905605035 
1263	 0.645818331223688 
1264	 0.64609300702922 
1265	 0.646350612800908 
1266	 0.646598039777607 
1267	 0.646817343356761 
1268	 0.64704291222805 
1269	 0.647264904633598 
1270	 0.647478077240798 
1271	 0.647686284627431 
1272	 0.64788167375386 
1273	 0.648064448177727 
1274	 0.64824548393883 
1275	 0.648421279402659 
1276	 0.648582160481191 
1277	 0.648737819627788 
1278	 0.64888092273462 
1279	 0.648996664695571 
1280	 0.649123115966198 
1281	 0.649263743237656 
1282	 0.649375449245482 
1283	 0.649473347177127 
1284	 0.649565791459939 
1285	 0.649645481410656 
1286	 0.649696684037347 
1287	 0.649767060132167 
1288	 0.649840371303391 
1289	 0.64991163110802 
1290	 0.649979741805953 
1291	 0.650053562512592 
1292	 0.650136206459866 
1293	 0.650203893366672 
1294	 0.650268899421728 
1295	 0.650329306759148 
1296	 0.650376736077064 
1297	 0.650429727193118 
1298	 0.650490040087103 
1299	 0.650536965097028 
1300	 0.65059567578523 
1301	 0.650616584411036 
1302	 0.650602640154215 
1303	 0.650599548180674 
1304	 0.650580478227197 
1305	 0.650557300356665 
1306	 0.650531506755861 
1307	 0.650512347565343 
1308	 0.6504888180782 
1309	 0.650454005102588 
1310	 0.650448408063132 
1311	 0.650480951124406 
1312	 0.650448012071588 
1313	 0.650407340351954 
1314	 0.650341727987658 
1315	 0.650233970269222 
1316	 0.650130056519189 
1317	 0.650026299282416 
1318	 0.649899038220725 
1319	 0.649747898814827 
1320	 0.649592992334312 
1321	 0.649424965707819 
1322	 0.649254068706734 
1323	 0.649092126806198 
1324	 0.648888870537167 
1325	 0.648671936175057 
1326	 0.648429137314713 
1327	 0.648171766583336 
1328	 0.647864032533487 
1329	 0.647537687568804 
1330	 0.647163057793948 
1331	 0.646736406246369 
1332	 0.646273354212812 
1333	 0.645788544125139 
1334	 0.645246644563018 
1335	 0.644653240308068 
1336	 0.644027808212468 
1337	 0.643303971062792 
1338	 0.642513958877937 
1339	 0.641668255399839 
1340	 0.640767848507075 
1341	 0.639763698616128 
1342	 0.638693419586194 
1343	 0.637542512906177 
1344	 0.636299824166456 
1345	 0.634979772346664 
1346	 0.633583135436921 
1347	 0.63213966826878 
1348	 0.630603335426873 
1349	 0.629035506278331 
1350	 0.627379931932356 
1351	 0.625764441132475 
1352	 0.62408216253892 
1353	 0.622464491829694 
1354	 0.620871612304758 
1355	 0.619330427231151 
1356	 0.617834932878937 
1357	 0.616346829433953 
1358	 0.614901928138268 
1359	 0.613462482016384 
1360	 0.612046325821027 
1361	 0.610619281108455 
1362	 0.609160154557041 
1363	 0.607780631683639 
1364	 0.606330427604854 
1365	 0.604872536487023 
1366	 0.603349943181288 
1367	 0.60178746744636 
1368	 0.600221111499558 
1369	 0.598615255233554 
1370	 0.596989093946412 
1371	 0.595345836053919 
1372	 0.593719840041871 
1373	 0.592045926027406 
1374	 0.590419571735561 
1375	 0.588800895355081 
1376	 0.587224217272848 
1377	 0.585652391650387 
1378	 0.584117008577252 
1379	 0.582635570512212 
1380	 0.581158906390503 
1381	 0.579675316311891 
1382	 0.578247574446134 
1383	 0.576831393417467 
1384	 0.575490168306939 
1385	 0.574196774702674 
1386	 0.57297651036244 
1387	 0.571814061289336 
1388	 0.570740626459376 
1389	 0.569766897437641 
1390	 0.568821966491581 
1391	 0.56798383346811 
1392	 0.567122546576968 
1393	 0.566314857658318 
1394	 0.565455321822661 
1395	 0.564491711311985 
1396	 0.563530394427227 
1397	 0.562355502473131 
1398	 0.561100728672924 
1399	 0.559583890911356 
1400	 0.557886338896538 
1401	 0.556017845100031 
1402	 0.553933699865013 
1403	 0.55171156852953 
1404	 0.549303073121804 
1405	 0.546846305740882 
1406	 0.544225292195406 
1407	 0.54155937203906 
1408	 0.538759773268258 
1409	 0.536018916111219 
1410	 0.533162768937207 
1411	 0.530429012709389 
1412	 0.527716480487059 
1413	 0.525148845508146 
1414	 0.522631506566958 
1415	 0.520245053587352 
1416	 0.517974859031525 
1417	 0.515819273124515 
1418	 0.513786445910439 
1419	 0.511824591426849 
1420	 0.509982660904113 
1421	 0.508226570747019 
1422	 0.506536879987 
1423	 0.504939990146143 
1424	 0.503479828393595 
1425	 0.502023228842256 
1426	 0.500690351995824 
1427	 0.499437700725463 
1428	 0.498245206035301 
1429	 0.497209518328301 
1430	 0.496244914447337 
1431	 0.495359157488694 
1432	 0.494598750301436 
1433	 0.493945626066424 
1434	 0.493402220540365 
1435	 0.492974395641646 
1436	 0.492631431727097 
1437	 0.49240443076921 
1438	 0.492244180069751 
1439	 0.492174555653097 
1440	 0.492171705197328 
1441	 0.492255774465564 
1442	 0.492396089847805 
1443	 0.492603983483159 
1444	 0.492882723610403 
1445	 0.493233298415236 
1446	 0.493641208178341 
1447	 0.49412658093626 
1448	 0.494652355762991 
1449	 0.495250903333663 
1450	 0.495870168246112 
1451	 0.49654125309201 
1452	 0.49723049432274 
1453	 0.497969420443714 
1454	 0.49869029025165 
1455	 0.499423912889874 
1456	 0.500166320513446 
1457	 0.500914061209725 
1458	 0.501660200000629 
1459	 0.502409542541664 
1460	 0.50317573404597 
1461	 0.503928332213822 
1462	 0.504709739368325 
1463	 0.50552065849101 
1464	 0.506344871497491 
1465	 0.507169666829544 
1466	 0.508048209511834 
1467	 0.508902419439808 
1468	 0.509809704731065 
1469	 0.51075234084921 
1470	 0.511639777415813 
1471	 0.512550060672041 
1472	 0.513478553456483 
1473	 0.514377899575591 
1474	 0.515272929517727 
1475	 0.516137070455093 
1476	 0.516981727147963 
1477	 0.51782058426348 
1478	 0.51863339568346 
1479	 0.519438521067129 
1480	 0.520242074356696 
1481	 0.521024027601045 
1482	 0.521794751804591 
1483	 0.522532525057943 
1484	 0.523246239901687 
1485	 0.52395273277922 
1486	 0.524630812080364 
1487	 0.525296279353831 
1488	 0.525946672382443 
1489	 0.526600847524707 
1490	 0.527236075457452 
1491	 0.527875217176811 
1492	 0.528522164424309 
1493	 0.529163259388674 
1494	 0.529786876997832 
1495	 0.530421643542679 
1496	 0.531067025399213 
1497	 0.531706808401269 
1498	 0.532348916701317 
1499	 0.532985944587275 
1500	 0.53362399388047 
1501	 0.534252194115506 
1502	 0.534885436596518 
1503	 0.535488718738406 
1504	 0.536066092394904 
1505	 0.536646822358011 
1506	 0.537216873387518 
1507	 0.537772458687868 
1508	 0.538333918426374 
1509	 0.538868042789333 
1510	 0.539373687027374 
1511	 0.539866457427297 
1512	 0.540343729401463 
1513	 0.540804462861653 
1514	 0.541255326702686 
1515	 0.541680055461211 
1516	 0.542084601355585 
1517	 0.542467955042855 
1518	 0.542824931527986 
1519	 0.543161135613229 
1520	 0.543471335622994 
1521	 0.543770248251562 
1522	 0.544048739867379 
1523	 0.544319301286726 
1524	 0.544568658618351 
1525	 0.544801093824174 
1526	 0.545032310801478 
1527	 0.545250190284393 
1528	 0.545452322311522 
1529	 0.545648091565822 
1530	 0.545833751692798 
1531	 0.545990934246542 
1532	 0.54617051442526 
1533	 0.546359609421125 
1534	 0.546537390716755 
1535	 0.546715877601057 
1536	 0.546885370852576 
1537	 0.547045851086637 
1538	 0.54720806492266 
1539	 0.547369389109552 
1540	 0.547522635095366 
1541	 0.547674774027224 
1542	 0.547815183954097 
1543	 0.547954107241493 
1544	 0.548065968210478 
1545	 0.548171935861241 
1546	 0.548240595615404 
1547	 0.548274667895067 
1548	 0.548303061108351 
1549	 0.548293110358503 
1550	 0.548310586645253 
1551	 0.548333654404709 
1552	 0.548345713011467 
1553	 0.548362775819322 
1554	 0.548372110769806 
1555	 0.548350072109701 
1556	 0.548372700733624 
1557	 0.548407630552014 
1558	 0.548466038662156 
1559	 0.548563337002952 
1560	 0.548647250466884 
1561	 0.548735267243307 
1562	 0.548836956563326 
1563	 0.54893380743193 
1564	 0.549060322555117 
1565	 0.549220356289831 
1566	 0.549369431897902 
1567	 0.549527741146594 
1568	 0.54969135597789 
1569	 0.549846248399979 
1570	 0.550026084270826 
1571	 0.55023302280742 
1572	 0.550429736402706 
1573	 0.550639294206319 
1574	 0.550838804217665 
1575	 0.551033480960167 
1576	 0.551224195482268 
1577	 0.551412736800016 
1578	 0.551596743832602 
1579	 0.551772078587776 
1580	 0.551949124259736 
1581	 0.552117474134352 
1582	 0.552299124315306 
1583	 0.552494818274282 
1584	 0.552676748761412 
1585	 0.552873341903488 
1586	 0.553040367264477 
1587	 0.553180399692635 
1588	 0.553322046923278 
1589	 0.553437286536418 
1590	 0.553574402114951 
1591	 0.553725702690812 
1592	 0.553866406201788 
1593	 0.554018047117061 
1594	 0.554155500436401 
1595	 0.554293506610293 
1596	 0.554401169167277 
1597	 0.554486652870353 
1598	 0.554567331586485 
1599	 0.554619146420455 
1600	 0.554675618255458 
1601	 0.554748532187451 
1602	 0.55478713343719 
1603	 0.554806087577924 
1604	 0.554809767450276 
1605	 0.554796826065221 
1606	 0.55475775391959 
1607	 0.554696346367259 
1608	 0.554622473615918 
1609	 0.55452522815408 
1610	 0.554408769932716 
1611	 0.554280612490781 
1612	 0.554131706551298 
1613	 0.553964433363644 
1614	 0.5537686393398 
1615	 0.553545310533346 
1616	 0.553308766480407 
1617	 0.553059371900635 
1618	 0.552767459281369 
1619	 0.552447930875909 
1620	 0.552109373464949 
1621	 0.551724236730404 
1622	 0.551332906159154 
1623	 0.550928176026821 
1624	 0.550512704186074 
1625	 0.550077599465605 
1626	 0.549631347116828 
1627	 0.549165244518554 
1628	 0.54871104497197 
1629	 0.548233390757818 
1630	 0.547786367447055 
1631	 0.547341885688652 
1632	 0.546938066288202 
1633	 0.546563128710421 
1634	 0.546212775144125 
1635	 0.545916124686731 
1636	 0.545612516832934 
1637	 0.545337582647962 
1638	 0.545039392044029 
1639	 0.544741472983008 
1640	 0.544424440565927 
1641	 0.544114224406499 
1642	 0.54374719162687 
1643	 0.543363457821312 
1644	 0.542923855857623 
1645	 0.542451746562175 
1646	 0.541897722650243 
1647	 0.541295540293584 
1648	 0.540603174509257 
1649	 0.539838620908112 
1650	 0.53896583870969 
1651	 0.538010289673695 
1652	 0.536961550377111 
1653	 0.535840752194803 
1654	 0.5345632151122 
1655	 0.533167418811324 
1656	 0.53163643466242 
1657	 0.52998992960871 
1658	 0.528136913932205 
1659	 0.52615891416576 
1660	 0.523979995766497 
1661	 0.521635776734664 
1662	 0.519016863363192 
1663	 0.516190846039835 
1664	 0.513076228534057 
1665	 0.509705402031552 
1666	 0.505997867071305 
1667	 0.501991465735053 
1668	 0.4977773112969 
1669	 0.493247584979827 
1670	 0.488497183370381 
1671	 0.483449847627184 
1672	 0.478251783907388 
1673	 0.472775112889499 
1674	 0.467201359810249 
1675	 0.461436353217675 
1676	 0.455767082748131 
1677	 0.449969187238446 
1678	 0.444240580052998 
1679	 0.438477803692059 
1680	 0.43283027929274 
1681	 0.427177141635938 
1682	 0.421667525822484 
1683	 0.416319544812861 
1684	 0.411121040112119 
1685	 0.406007674347848 
1686	 0.401034995523992 
1687	 0.396166112948293 
1688	 0.391471814241399 
1689	 0.386886230873943 
1690	 0.38251451619596 
1691	 0.37835971011208 
1692	 0.374469127684295 
1693	 0.37078807080248 
1694	 0.367309182364932 
1695	 0.364095304742755 
1696	 0.36097860431725 
1697	 0.358050785614162 
1698	 0.35519014953714 
1699	 0.352513171938307 
1700	 0.349918619272722 
1701	 0.347406053480896 
1702	 0.345013450937029 
1703	 0.342707052692873 
1704	 0.340554202478771 
1705	 0.338507763080291 
1706	 0.336581589631311 
1707	 0.334946891920854 
1708	 0.333389947969468 
1709	 0.331949876834266 
1710	 0.330686371633291 
1711	 0.329433201017305 
1712	 0.328283535481977 
1713	 0.327188589181198 
1714	 0.326108687378708 
1715	 0.325158741004385 
1716	 0.324227822123103 
1717	 0.323374684229065 
1718	 0.322604323754343 
1719	 0.321843364873881 
1720	 0.32118828379884 
1721	 0.320655992163006 
1722	 0.320263263860499 
1723	 0.320064823888823 
1724	 0.320071647359189 
1725	 0.320263416268568 
1726	 0.320690552185654 
1727	 0.321385827419228 
1728	 0.322274938241305 
1729	 0.323441357901067 
1730	 0.32487407919969 
1731	 0.326391627738548 
1732	 0.328081835163818 
1733	 0.329820503660324 
1734	 0.331580790386674 
1735	 0.333403257446099 
1736	 0.335125511897847 
1737	 0.336772181548966 
1738	 0.338219339670873 
1739	 0.339467317550523 
1740	 0.340531935075828 
1741	 0.341479069735545 
1742	 0.342223183018074 
1743	 0.342927547025334 
1744	 0.34350134954773 
1745	 0.344058177980832 
1746	 0.344491306160186 
1747	 0.344980300441086 
1748	 0.345414434665166 
1749	 0.345970427162266 
1750	 0.346564181890597 
1751	 0.347286037326964 
1752	 0.348089525278075 
1753	 0.349034345130862 
1754	 0.350074098765289 
1755	 0.351241474667167 
1756	 0.352521595524412 
1757	 0.353942569346392 
1758	 0.355609733558299 
1759	 0.357392971592873 
1760	 0.3594162079125 
1761	 0.361682222572802 
1762	 0.363983119495403 
1763	 0.366546367317909 
1764	 0.369226443373167 
1765	 0.371980808055245 
1766	 0.375043344443282 
1767	 0.378069797322958 
1768	 0.381162162417836 
1769	 0.384339770552428 
1770	 0.38724548569603 
1771	 0.390140279245037 
1772	 0.392931168136386 
1773	 0.395502934170631 
1774	 0.398059383012894 
1775	 0.400403545350582 
1776	 0.402638855746228 
1777	 0.404732981406843 
1778	 0.406542289326315 
1779	 0.408278756944892 
1780	 0.409820403906257 
1781	 0.411162541972566 
1782	 0.412457117053082 
1783	 0.413562594396821 
1784	 0.414559278629403 
1785	 0.415403250701269 
1786	 0.41618465634209 
1787	 0.416877246118366 
1788	 0.417502005327005 
1789	 0.418038300326884 
1790	 0.418562376016345 
1791	 0.419006462801551 
1792	 0.419438773587289 
1793	 0.419832567744847 
1794	 0.42021248349447 
1795	 0.420600666059966 
1796	 0.42099419325545 
1797	 0.421376948167066 
1798	 0.421736949719196 
1799	 0.422080942274102 
1800	 0.422424523911876 
1801	 0.424183018616796 
1802	 0.424548094790214 
1803	 0.424893155273003 
1804	 0.425195803972633 
1805	 0.425515203144955 
1806	 0.42582486748222 
1807	 0.4261288196539 
1808	 0.426446582403494 
1809	 0.426768095223435 
1810	 0.42707811894005 
1811	 0.427378273122562 
1812	 0.427702919850025 
1813	 0.428002523889753 
1814	 0.428364036573326 
1815	 0.428743981215771 
1816	 0.429144415583368 
1817	 0.429554021157163 
1818	 0.429981574966431 
1819	 0.430403045350246 
1820	 0.43083880386186 
1821	 0.431271708467324 
1822	 0.431688618768846 
1823	 0.432139406449729 
1824	 0.432596445622121 
1825	 0.433075582196636 
1826	 0.433557158755705 
1827	 0.434051993694059 
1828	 0.434543070858828 
1829	 0.435029400776595 
1830	 0.435545728048216 
1831	 0.436068109122885 
1832	 0.436628335490807 
1833	 0.43717874261088 
1834	 0.43773367069734 
1835	 0.438317273858368 
1836	 0.438871420870413 
1837	 0.43946385180842 
1838	 0.440091273251784 
1839	 0.440709978725756 
1840	 0.441339753690036 
1841	 0.441978654102423 
1842	 0.442629916241265 
1843	 0.443278755434648 
1844	 0.443938506235481 
1845	 0.444540664344946 
1846	 0.445135461933834 
1847	 0.445697116043865 
1848	 0.446246056322662 
1849	 0.446797656784202 
1850	 0.447295428697961 
1851	 0.447763628596177 
1852	 0.448208092320009 
1853	 0.448606042734818 
1854	 0.448925297421949 
1855	 0.44921844150799 
1856	 0.449472949511021 
1857	 0.449678485345362 
1858	 0.449847547834037 
1859	 0.449961700811578 
1860	 0.450032484719319 
1861	 0.450052733443662 
1862	 0.45003206845899 
1863	 0.449946352931143 
1864	 0.449789550148535 
1865	 0.449588913149807 
1866	 0.449290761927539 
1867	 0.44888804994294 
1868	 0.448444055039376 
1869	 0.447898627204674 
1870	 0.447269840256779 
1871	 0.44657866310499 
1872	 0.445796449519245 
1873	 0.444934390744387 
1874	 0.443982953093824 
1875	 0.442951366956669 
1876	 0.441697313713593 
1877	 0.440356794176157 
1878	 0.438814544575478 
1879	 0.437033433937064 
1880	 0.435185624938875 
1881	 0.433049762225659 
1882	 0.430673994936359 
1883	 0.428109314355208 
1884	 0.425264944051792 
1885	 0.421955884147378 
1886	 0.418478434770308 
1887	 0.414644966601399 
1888	 0.410414314589344 
1889	 0.406300482949146 
1890	 0.401898390405543 
1891	 0.397437769334887 
1892	 0.393035342050322 
1893	 0.388515775376999 
1894	 0.383790705468738 
1895	 0.379279891909813 
1896	 0.37476859110808 
1897	 0.370359883229588 
1898	 0.366396368446568 
1899	 0.362477947930811 
1900	 0.358750480922571 
1901	 0.355278647587041 
1902	 0.351748536817161 
1903	 0.348518761094215 
1904	 0.345452946274495 
1905	 0.342534689907806 
1906	 0.339775227303891 
1907	 0.337410723773833 
1908	 0.335111461089427 
1909	 0.332984718478986 
1910	 0.331076177515108 
1911	 0.329160855427716 
1912	 0.327416409915036 
1913	 0.325795390202019 
1914	 0.324246091227292 
1915	 0.322850859613931 
1916	 0.32163586981689 
1917	 0.32044972208615 
1918	 0.319354812257353 
1919	 0.318399158803216 
1920	 0.317466763040844 
1921	 0.316638713827532 
1922	 0.315891933703398 
1923	 0.315178495002066 
1924	 0.314579955839778 
1925	 0.314042214747666 
1926	 0.313587356368568 
1927	 0.313222178065134 
1928	 0.312926286900201 
1929	 0.312703243664012 
1930	 0.312549402629752 
1931	 0.312481579218978 
1932	 0.312487199258803 
1933	 0.312564421023358 
1934	 0.312746499094801 
1935	 0.313020871417373 
1936	 0.313366586359816 
1937	 0.313769543565663 
1938	 0.314258738434282 
1939	 0.314786369019795 
1940	 0.315366586691468 
1941	 0.316003416520493 
1942	 0.316673032713093 
1943	 0.31744632758644 
1944	 0.318254999024263 
1945	 0.319086627048604 
1946	 0.320006589065285 
1947	 0.320931870726431 
1948	 0.321903176360176 
1949	 0.322911489016045 
1950	 0.323896324378531 
1951	 0.324894505621687 
1952	 0.32589152071311 
1953	 0.326868578436027 
1954	 0.32785504876864 
1955	 0.328926031458147 
1956	 0.329969147581085 
1957	 0.331034916591158 
1958	 0.332123193082942 
1959	 0.333128774884082 
1960	 0.334138559181824 
1961	 0.335143384177112 
1962	 0.336112326865057 
1963	 0.337118829571828 
1964	 0.338146029484196 
1965	 0.339155345150131 
1966	 0.340185111397889 
1967	 0.341205974724991 
1968	 0.342148708320256 
1969	 0.34312820357347 
1970	 0.344085381740842 
1971	 0.345023344607126 
1972	 0.346036842999481 
1973	 0.347014416513267 
1974	 0.34799501474164 
1975	 0.349014312627636 
1976	 0.349976991643201 
1977	 0.350898670233591 
1978	 0.351831128932466 
1979	 0.352743269789883 
1980	 0.353641884967156 
1981	 0.35458140460497 
1982	 0.355460772781704 
1983	 0.356340653665927 
1984	 0.357203511767875 
1985	 0.357982700855865 
1986	 0.358761014682015 
1987	 0.359494106476084 
1988	 0.360169745393133 
1989	 0.360838129914458 
1990	 0.361495349536734 
1991	 0.362101351642215 
1992	 0.362678897315554 
1993	 0.363235004448706 
1994	 0.363698003599327 
1995	 0.364129564819405 
1996	 0.364525424498687 
1997	 0.364812113789645 
1998	 0.365072432741779 
1999	 0.365284481282942 
2000	 0.365447498518517 
2001	 0.36556305550787 
2002	 0.365622650670751 
2003	 0.36563904153413 
2004	 0.36559052482434 
2005	 0.36548338280226 
2006	 0.365308659102301 
2007	 0.365065854335945 
2008	 0.364771255016493 
2009	 0.364410621013464 
2010	 0.363985927451746 
2011	 0.363542901202645 
2012	 0.363004344960622 
2013	 0.362402802300509 
2014	 0.361746837121966 
2015	 0.361004257537538 
2016	 0.360183735007967 
2017	 0.35929340972789 
2018	 0.358279850513942 
2019	 0.357268200548615 
2020	 0.356236700810427 
2021	 0.355102332452995 
2022	 0.353940613310612 
2023	 0.352740816251086 
2024	 0.351360418218602 
2025	 0.349952741947239 
2026	 0.348507903075681 
2027	 0.346942930346029 
2028	 0.345446716203117 
2029	 0.343953126809058 
2030	 0.342446755636752 
2031	 0.340959318015536 
2032	 0.339443001077819 
2033	 0.337860818843897 
2034	 0.336359425131897 
2035	 0.334853498205037 
2036	 0.333379883836016 
2037	 0.332068771114128 
2038	 0.330752399007207 
2039	 0.329498345983681 
2040	 0.328325573488661 
2041	 0.327169385467269 
2042	 0.3260197067581 
2043	 0.324975946993035 
2044	 0.323980002002877 
2045	 0.32307285032133 
2046	 0.322274465381031 
2047	 0.321496952445335 
2048	 0.320796718385734 
2049	 0.32012323205802 
2050	 0.319477206093239 
2051	 0.318892925712568 
2052	 0.31835211045852 
2053	 0.317844446257697 
2054	 0.317398193937236 
2055	 0.317007814318847 
2056	 0.316654535897323 
2057	 0.316371955715937 
2058	 0.3160914275465 
2059	 0.315856318731871 
2060	 0.315619464225002 
2061	 0.315393954383076 
2062	 0.315183910184552 
2063	 0.314986986185584 
2064	 0.314806921349734 
2065	 0.314650129172162 
2066	 0.314506041979546 
2067	 0.314349537416848 
2068	 0.314205182354926 
2069	 0.314071533488477 
2070	 0.313938535858517 
2071	 0.313818656462311 
2072	 0.31372105922209 
2073	 0.313617197361219 
2074	 0.313523152465982 
2075	 0.313410623031682 
2076	 0.313292775204593 
2077	 0.313178877097967 
2078	 0.313051697665195 
2079	 0.312929581434273 
2080	 0.312829632731781 
2081	 0.312704016967537 
2082	 0.312559877853816 
2083	 0.31241785313678 
2084	 0.312257114090997 
2085	 0.312099040658139 
2086	 0.311950133516236 
2087	 0.31181097486085 
2088	 0.3116602071403 
2089	 0.311516661918012 
2090	 0.311357696147485 
2091	 0.311196499711926 
2092	 0.31101039659269 
2093	 0.310823414622843 
2094	 0.310600979372546 
2095	 0.310339516325381 
2096	 0.310072211764229 
2097	 0.309802450712065 
2098	 0.309484641786632 
2099	 0.30914181068858 
2100	 0.308812292872024 
2101	 0.308422093526903 
2102	 0.307986757872422 
2103	 0.307542423365598 
2104	 0.307061625814237 
2105	 0.306571284665216 
2106	 0.306064266857052 
2107	 0.305538839978743 
2108	 0.305022901085351 
2109	 0.304433152662802 
2110	 0.30380039062079 
2111	 0.303138750899969 
2112	 0.302382839756355 
2113	 0.30166173814663 
2114	 0.300947463207376 
2115	 0.300211537653335 
2116	 0.299466464298271 
2117	 0.2987278107715 
2118	 0.297961438442549 
2119	 0.297156221511844 
2120	 0.296403302184394 
2121	 0.295638535102448 
2122	 0.294925422079425 
2123	 0.294249997070374 
2124	 0.293589217128617 
2125	 0.292971083708715 
2126	 0.292341361707035 
2127	 0.291705446325055 
2128	 0.29111823856287 
2129	 0.290542238782472 
2130	 0.289998166775905 
2131	 0.28950522535169 
2132	 0.289021709550754 
2133	 0.288553255172152 
2134	 0.288113197317752 
2135	 0.287666755981037 
2136	 0.287255853513852 
2137	 0.286851745277322 
2138	 0.286440297557885 
2139	 0.286081317092075 
2140	 0.285758923702208 
2141	 0.285451119022278 
2142	 0.285165916827265 
2143	 0.284916795057933 
2144	 0.284672393727103 
2145	 0.284503874529494 
2146	 0.284405066184195 
2147	 0.284313849386808 
2148	 0.284274592842755 
2149	 0.284250543511141 
2150	 0.284246123515279 
2151	 0.284260011408319 
2152	 0.284321952772881 
2153	 0.284369261548108 
2154	 0.284424577348303 
2155	 0.284488537124854 
2156	 0.284541292173242 
2157	 0.284596267449465 
2158	 0.284642530377681 
2159	 0.28467366174513 
2160	 0.284715039824522 
2161	 0.284765356212021 
2162	 0.284797250327843 
2163	 0.284820675055227 
2164	 0.28485277658773 
2165	 0.284865063226762 
2166	 0.284899267617859 
2167	 0.284942567438645 
2168	 0.28500683793527 
2169	 0.285081717766869 
2170	 0.285171793625392 
2171	 0.285266767117013 
2172	 0.285401840810171 
2173	 0.285559112214642 
2174	 0.285751043265292 
2175	 0.285958665157085 
2176	 0.286167103645581 
2177	 0.286387904023416 
2178	 0.286599333179781 
2179	 0.286854076690559 
2180	 0.287152282043086 
2181	 0.287425615905819 
2182	 0.287709518670757 
2183	 0.287989871525508 
2184	 0.288268736906691 
2185	 0.288540078542165 
2186	 0.288822044365032 
2187	 0.289082546055262 
2188	 0.289327976724034 
2189	 0.28956251759556 
2190	 0.289790054316957 
2191	 0.290003260026643 
2192	 0.290211426103899 
2193	 0.290389509733139 
2194	 0.290551855705297 
2195	 0.290685415067813 
2196	 0.290790188415784 
2197	 0.29086465450774 
2198	 0.290937036241088 
2199	 0.291001946041523 
2200	 0.291010492809772 
2201	 0.291001401260917 
2202	 0.290936766963539 
2203	 0.290826658499575 
2204	 0.290654625547657 
2205	 0.290419782365091 
2206	 0.290176392701809 
2207	 0.289891681294347 
2208	 0.289555725843606 
2209	 0.289211961061786 
2210	 0.288785326916791 
2211	 0.288275796759144 
2212	 0.287733385145116 
2213	 0.287162976983874 
2214	 0.286506028485974 
2215	 0.285802704729624 
2216	 0.284991617551661 
2217	 0.284123399515086 
2218	 0.283117058515956 
2219	 0.282006603876147 
2220	 0.280778586020968 
2221	 0.279418506711934 
2222	 0.277934220178369 
2223	 0.27642477155391 
2224	 0.274719464536371 
2225	 0.272928267518526 
2226	 0.27102105192499 
2227	 0.268849468287527 
2228	 0.266468047435537 
2229	 0.263952916170328 
2230	 0.261167114664878 
2231	 0.258381584775921 
2232	 0.255531214415329 
2233	 0.252452051126578 
2234	 0.249319631743781 
2235	 0.245846547251908 
2236	 0.24206141776996 
2237	 0.238209613358316 
2238	 0.234023046232274 
2239	 0.229917015462728 
2240	 0.225800751290376 
2241	 0.221511463049739 
2242	 0.217224752025215 
2243	 0.212691195555292 
2244	 0.207840138747255 
2245	 0.203072461573181 
2246	 0.198008619865468 
2247	 0.193206048297669 
2248	 0.188579084399316 
2249	 0.18391255623946 
2250	 0.179287263890568 
2251	 0.174864615320802 
2252	 0.170125514826589 
2253	 0.16561054151206 
2254	 0.161241176661326 
2255	 0.156913481526558 
2256	 0.153068542520364 
2257	 0.149324443840734 
2258	 0.145765942637589 
2259	 0.14246173695252 
2260	 0.139224189614379 
2261	 0.136088274467495 
2262	 0.133204426099432 
2263	 0.130450864115648 
2264	 0.127959653961149 
2265	 0.125755422212208 
2266	 0.123641041356688 
2267	 0.121798573302304 
2268	 0.119948013281701 
2269	 0.11822907144364 
2270	 0.116546826781739 
2271	 0.114908873028995 
2272	 0.113351721188582 
2273	 0.111923742507721 
2274	 0.110453678571765 
2275	 0.109106606629491 
2276	 0.107617908672984 
2277	 0.106081247675208 
2278	 0.104493257255111 
2279	 0.102750070080801 
2280	 0.101076936033414 
2281	 9.94273812207934E-02 
2282	 9.77275973468751E-02 
2283	 9.60225792127005E-02 
2284	 9.43405105049366E-02 
2285	 9.24901601990999E-02 
2286	 9.06688430409665E-02 
2287	 8.88476247386182E-02 
2288	 8.70084410290792E-02 
2289	 8.52968786761566E-02 
2290	 8.35953867990679E-02 
2291	 8.19390525773802E-02 
2292	 8.03916644568955E-02 
2293	 7.88569591148504E-02 
2294	 7.73988638365029E-02 
2295	 7.60602091318795E-02 
2296	 7.48557292678278E-02 
2297	 0.07387694089399 
2298	 7.30913096850844E-02 
2299	 7.24773126549595E-02 
2300	 7.20504319517639E-02 
2301	 7.18543874920075E-02 
2302	 7.18570586438269E-02 
2303	 7.20755313643805E-02 
2304	 7.25668764596674E-02 
2305	 7.31974357032282E-02 
2306	 7.40095894676903E-02 
2307	 7.50417399862266E-02 
2308	 0.076288157103132 
2309	 7.77204430175797E-02 
2310	 7.94396937462816E-02 
2311	 8.11846624132187E-02 
2312	 8.32073256695349E-02 
2313	 8.50966491888869E-02 
2314	 8.70557152747747E-02 
2315	 8.89302951716841E-02 
2316	 9.07769225711592E-02 
2317	 9.25109399090975E-02 
2318	 9.42658997968899E-02 
2319	 9.57317511252883E-02 
2320	 9.70517529621039E-02 
2321	 9.81705473499715E-02 
2322	 9.90191834914011E-02 
2323	 9.97693545283243E-02 
2324	 0.100342896294676 
2325	 0.100776599608517 
2326	 0.101040299204712 
2327	 0.101182393002091 
2328	 0.101165793089106 
2329	 0.101040769038514 
2330	 0.100795564754012 
2331	 0.100376610253562 
2332	 9.98468440777499E-02 
2333	 9.91750263045485E-02 
2334	 9.83304980844864E-02 
2335	 0.097438630862312 
2336	 9.64595915833502E-02 
2337	 0.095403339863232 
2338	 9.44397354086965E-02 
2339	 9.34957725000015E-02 
2340	 9.26441043379507E-02 
2341	 9.19318501712782E-02 
2342	 9.12500729722199E-02 
2343	 9.07132586594883E-02 
2344	 9.03455591557875E-02 
2345	 9.01321998725119E-02 
2346	 9.01701273345486E-02 
2347	 9.04857715028346E-02 
2348	 9.10474265473296E-02 
2349	 9.19345297621331E-02 
2350	 9.30077127947226E-02 
2351	 9.42642220642177E-02 
2352	 9.56705220473478E-02 
2353	 0.097079085222722 
2354	 9.84404587799395E-02 
2355	 9.97545959540385E-02 
2356	 0.100912511952884 
2357	 0.101945660740957 
2358	 0.103005992293867 
2359	 0.103847630375392 
2360	 0.104492338815102 
2361	 0.10505103735581 
2362	 0.105459491589787 
2363	 0.105743703997283 
2364	 0.10603061482296 
2365	 0.10630935811495 
2366	 0.106476533170995 
2367	 0.106642126487733 
2368	 0.106831566196032 
2369	 0.106964214191942 
2370	 0.107124129106162 
2371	 0.107259590231752 
2372	 0.10730698858919 
2373	 0.107373007334719 
2374	 0.107400353072577 
2375	 0.107426679326872 
2376	 0.107503396696932 
2377	 0.107558754573997 
2378	 0.107617233214785 
2379	 0.107670979207174 
2380	 0.107697492723481 
2381	 0.107721132887566 
2382	 0.107723714370447 
2383	 0.10768557969272 
2384	 0.107658212198505 
2385	 0.107602051039581 
2386	 0.107620277017417 
2387	 0.107693531743988 
2388	 0.107714577016756 
2389	 0.107752582244262 
2390	 0.107783908702705 
2391	 0.107775882297972 
2392	 0.1077739604783 
2393	 0.107808445801276 
2394	 0.10781834699882 
2395	 0.107771484296362 
2396	 0.107756350049548 
2397	 0.107746703229188 
2398	 0.107800524291627 
2399	 0.107865084478704 
2400	 0.107961252490212 
2401	 0.108183433990623 
2402	 0.108306668482257 
2403	 0.108346556193204 
2404	 0.108506515482016 
2405	 0.108683316564647 
2406	 0.108778171589094 
2407	 0.108979622330744 
2408	 0.109218452093627 
2409	 0.109278097133874 
2410	 0.109379860798039 
2411	 0.10956624963776 
2412	 0.109651168153594 
2413	 0.109782072619973 
2414	 0.109968182020099 
2415	 0.110137727199796 
2416	 0.110295209559838 
2417	 0.110419143323437 
2418	 0.110548101853948 
2419	 0.11061153918725 
2420	 0.110745304486661 
2421	 0.110933856646198 
2422	 0.111009683627033 
2423	 0.111113527736512 
2424	 0.111070770428303 
2425	 0.11091741813802 
2426	 0.110972615953968 
2427	 0.111013137943199 
2428	 0.111053761461191 
2429	 0.111136147585695 
2430	 0.111032714853881 
2431	 0.110961831015281 
2432	 0.110918204945013 
2433	 0.110804608984221 
2434	 0.110795376067352 
2435	 0.11076246986959 
2436	 0.110638412207803 
2437	 0.110585448088228 
2438	 0.110559545734749 
2439	 0.110306986448188 
2440	 0.110059083379749 
2441	 0.109958319295351 
2442	 0.109676777756811 
2443	 0.109399766773759 
2444	 0.109148907213892 
2445	 0.108822875526581 
2446	 0.10857092030694 
2447	 0.108374154303188 
2448	 0.108126772124005 
2449	 0.107682617875494 
2450	 0.107143325340283 
2451	 0.10652557663372 
2452	 0.10601661279687 
2453	 0.105686948431485 
2454	 0.105282452580821 
2455	 0.104992913512731 
2456	 0.10476215475209 
2457	 0.104404586414262 
2458	 0.104142148432406 
2459	 0.103913585934019 
2460	 0.103592509599846 
2461	 0.103464998250342 
2462	 0.103484215717006 
2463	 0.103431403760366 
2464	 0.103328480649219 
2465	 0.10306887938886 
2466	 0.102812309942313 
2467	 0.102622759780055 
2468	 0.1025620887506 
2469	 0.102909914942115 
2470	 0.103139743779694 
2471	 0.10331252164553 
2472	 0.103666521729507 
2473	 0.103583988762872 
2474	 0.103350881903785 
2475	 0.103457635162143 
2476	 0.103679575681811 
2477	 0.103986502832378 
2478	 0.104452656647816 
2479	 0.104810661336777 
2480	 0.104973965791025 
2481	 0.105325519970767 
2482	 0.105975555485488 
2483	 0.106280814786288 
2484	 0.10640038747604 
2485	 0.106555167681089 
2486	 0.106604979313627 
2487	 0.106692261241603 
2488	 0.107352099912476 
2489	 0.107977040935156 
2490	 0.108403559097123 
2491	 0.108805364364888 
2492	 0.108732469039804 
2493	 0.108579666918007 
2494	 0.109023880142963 
2495	 0.109886893989015 
2496	 0.110373136834126 
2497	 0.110683375418884 
2498	 0.110728000865685 
2499	 0.110695320251965 
2500	 0.111346316792888 
