Wavelength	spectrum00017.asd
350	 7.67614318877399E-02 
351	 7.39706156723177E-02 
352	 7.03710602677256E-02 
353	 6.68467866418023E-02 
354	 6.69278782619291E-02 
355	 6.60614043131536E-02 
356	 6.51372413443563E-02 
357	 6.46144787171116E-02 
358	 5.94712011113498E-02 
359	 5.62663940018097E-02 
360	 5.59630756460127E-02 
361	 5.62120352508568E-02 
362	 5.47464788930547E-02 
363	 5.34405240020907E-02 
364	 5.30348973018063E-02 
365	 5.22210870429982E-02 
366	 5.16211099397259E-02 
367	 5.12772603333435E-02 
368	 5.10533103261072E-02 
369	 5.06841262411068E-02 
370	 0.050496823810754 
371	 4.99259367555703E-02 
372	 4.82070681691838E-02 
373	 4.72417425808901E-02 
374	 4.75888657083602E-02 
375	 4.85571072991805E-02 
376	 4.79876457648436E-02 
377	 4.77942399182758E-02 
378	 4.74053655627316E-02 
379	 4.61408486719903E-02 
380	 4.49866019434341E-02 
381	 4.52727791457219E-02 
382	 4.58786002556087E-02 
383	 4.45986900835816E-02 
384	 4.41493019927606E-02 
385	 4.37964225122435E-02 
386	 4.30852259762609E-02 
387	 4.25999136370587E-02 
388	 4.19646891161674E-02 
389	 4.15812304571438E-02 
390	 4.15891925904129E-02 
391	 0.040275285534036 
392	 4.03150011549447E-02 
393	 4.10957789662098E-02 
394	 0.040099677156566 
395	 3.97255663613977E-02 
396	 3.92083275281363E-02 
397	 3.83882110410609E-02 
398	 3.88638587989888E-02 
399	 3.81124254909849E-02 
400	 3.70473180586889E-02 
401	 3.70052121900395E-02 
402	 3.65921946401595E-02 
403	 3.64269587816031E-02 
404	 3.64739744932408E-02 
405	 3.61887671454128E-02 
406	 3.56399581022451E-02 
407	 3.49018048577934E-02 
408	 3.42336604555496E-02 
409	 3.43385635783295E-02 
410	 3.38697805695523E-02 
411	 3.31972587130254E-02 
412	 0.033097198755036 
413	 3.33635058576868E-02 
414	 3.30239001664369E-02 
415	 0.03228920704398 
416	 3.23739036690225E-02 
417	 3.21189013645311E-02 
418	 3.18757911877688E-02 
419	 3.18632778294813E-02 
420	 3.13128534293641E-02 
421	 3.10418113392195E-02 
422	 3.11270304666974E-02 
423	 3.12737281441541E-02 
424	 3.10150052241695E-02 
425	 0.030827894872344 
426	 3.07976916117118E-02 
427	 3.04842522600395E-02 
428	 3.03197238818274E-02 
429	 0.030264710274695 
430	 3.01866186488277E-02 
431	 2.99759626384398E-02 
432	 3.00373773845148E-02 
433	 3.01937282458568E-02 
434	 3.00136004277164E-02 
435	 3.00123969702087E-02 
436	 0.030072604739474 
437	 3.00470538339982E-02 
438	 2.98459976673674E-02 
439	 2.97439368240409E-02 
440	 0.029803179110005 
441	 2.99493150091439E-02 
442	 2.98337315311916E-02 
443	 2.99467741949667E-02 
444	 3.02126393292259E-02 
445	 3.01296870601221E-02 
446	 3.02469167994612E-02 
447	 3.03646687389256E-02 
448	 3.03493820568745E-02 
449	 0.030474719668178 
450	 3.06693648574838E-02 
451	 3.08601895537968E-02 
452	 3.09939872104041E-02 
453	 3.11854688689448E-02 
454	 3.14207750995638E-02 
455	 3.16611209202479E-02 
456	 3.18568018593982E-02 
457	 3.22372495789216E-02 
458	 3.26482710162301E-02 
459	 3.29532868757651E-02 
460	 0.033333318968094 
461	 3.37514351836602E-02 
462	 3.41338826851148E-02 
463	 3.44367748968087E-02 
464	 3.50484538954412E-02 
465	 3.58338778347042E-02 
466	 3.66067331583227E-02 
467	 3.71960262050268E-02 
468	 3.79515644689687E-02 
469	 3.87674671063031E-02 
470	 3.95220535502551E-02 
471	 4.06222431416134E-02 
472	 4.17740362679613E-02 
473	 4.28733628270302E-02 
474	 4.39931844886593E-02 
475	 4.52176302195918E-02 
476	 4.65602603055129E-02 
477	 4.80240984062849E-02 
478	 4.96417165115716E-02 
479	 5.12485873938411E-02 
480	 5.29268087599363E-02 
481	 5.48126260027139E-02 
482	 5.66920813258404E-02 
483	 0.058670343272736 
484	 6.08237683536119E-02 
485	 6.31610493779775E-02 
486	 6.55937224004214E-02 
487	 6.80220741352578E-02 
488	 7.04310109052451E-02 
489	 7.30404917138748E-02 
490	 7.58512731868655E-02 
491	 7.87699159930684E-02 
492	 8.16645721375088E-02 
493	 8.46025310180379E-02 
494	 8.76779815283101E-02 
495	 9.08996144345247E-02 
496	 9.41175674391595E-02 
497	 9.74822391968379E-02 
498	 0.100952544433599 
499	 0.10443628960697 
500	 0.107936911293781 
501	 0.111524800110102 
502	 0.11517678300859 
503	 0.118799956297625 
504	 0.122674962397311 
505	 0.126539329574223 
506	 0.130260463543977 
507	 0.134270401963502 
508	 0.138176088785382 
509	 0.142050144223611 
510	 0.146113726717624 
511	 0.150098738235097 
512	 0.154103158562976 
513	 0.158153698487301 
514	 0.162160441867594 
515	 0.166128780375955 
516	 0.170121028527952 
517	 0.174167033245107 
518	 0.178122393115531 
519	 0.18209406806763 
520	 0.186111847557242 
521	 0.190141702860123 
522	 0.194131548930307 
523	 0.198010683805789 
524	 0.201805609898229 
525	 0.205753058492037 
526	 0.209609375748657 
527	 0.213401835802104 
528	 0.217231446258539 
529	 0.221020670312225 
530	 0.224707014696219 
531	 0.228341063374971 
532	 0.232079208405038 
533	 0.235726170508671 
534	 0.239346342243713 
535	 0.242997615353318 
536	 0.246560940942536 
537	 0.250118646910575 
538	 0.253643547972858 
539	 0.257062036181451 
540	 0.260419535402275 
541	 0.263772359191335 
542	 0.267111345662001 
543	 0.270316321250559 
544	 0.273494710043567 
545	 0.276616622260948 
546	 0.27964081855157 
547	 0.282683090285307 
548	 0.285693231020022 
549	 0.288629906539398 
550	 0.291473916459853 
551	 0.294363432446598 
552	 0.297252180839989 
553	 0.300106301173244 
554	 0.303022934735339 
555	 0.305813204202995 
556	 0.308540747410131 
557	 0.311360960255536 
558	 0.314135925071936 
559	 0.316910728184029 
560	 0.319653284710081 
561	 0.322206780119875 
562	 0.324763364987019 
563	 0.32725466428339 
564	 0.329590246789186 
565	 0.331866188912638 
566	 0.33413491986618 
567	 0.336425012725249 
568	 0.338734992380287 
569	 0.340954073667605 
570	 0.343104763767964 
571	 0.345240962036418 
572	 0.347433243728736 
573	 0.349584929787624 
574	 0.351726393518143 
575	 0.353907374659136 
576	 0.355978220489363 
577	 0.357950894616357 
578	 0.359889988743404 
579	 0.361898150052368 
580	 0.363897305414615 
581	 0.365845592749342 
582	 0.367747361299526 
583	 0.369713205806234 
584	 0.371677328468553 
585	 0.373629374780585 
586	 0.375593974684913 
587	 0.377550892476883 
588	 0.379537125793069 
589	 0.381530493327044 
590	 0.383405280403198 
591	 0.385201692012383 
592	 0.387002287672406 
593	 0.388832141015722 
594	 0.390408101440525 
595	 0.39195063994421 
596	 0.393547254556709 
597	 0.395148708538835 
598	 0.396827547096681 
599	 0.398501230039863 
600	 0.40012157362746 
601	 0.401776562331446 
602	 0.403465957864897 
603	 0.405193338756277 
604	 0.406939130500136 
605	 0.408571180275214 
606	 0.410199814215932 
607	 0.411866648478722 
608	 0.41349835585867 
609	 0.415076974123435 
610	 0.416624547048475 
611	 0.418165530727516 
612	 0.419664663247694 
613	 0.421202972102498 
614	 0.422742795629169 
615	 0.424181307702212 
616	 0.425568027378663 
617	 0.426960631254156 
618	 0.428394760759918 
619	 0.429876590631235 
620	 0.431290489162781 
621	 0.432677714310455 
622	 0.434100242403012 
623	 0.435424007292462 
624	 0.436766669924347 
625	 0.438120662973517 
626	 0.439363540108861 
627	 0.440641183996819 
628	 0.441940262616425 
629	 0.443229946913702 
630	 0.444519985843224 
631	 0.44574108246993 
632	 0.446881149469179 
633	 0.447985743205425 
634	 0.449290947765792 
635	 0.450525617208982 
636	 0.451590572612429 
637	 0.45264981057594 
638	 0.45377650636753 
639	 0.454900734183376 
640	 0.455933834377862 
641	 0.456858299312031 
642	 0.457784062277259 
643	 0.458751560299841 
644	 0.459750740787581 
645	 0.460760562579876 
646	 0.46172940241063 
647	 0.462639617011326 
648	 0.463531866828756 
649	 0.464421656194556 
650	 0.465318779524606 
651	 0.466220563132875 
652	 0.467086006376583 
653	 0.468003037559154 
654	 0.468943427878296 
655	 0.469796006466962 
656	 0.470736709898686 
657	 0.471690535803533 
658	 0.472596908658452 
659	 0.473504351501028 
660	 0.474504012445898 
661	 0.475543729468119 
662	 0.476534307869397 
663	 0.477550090744926 
664	 0.478523569162956 
665	 0.479495842660395 
666	 0.480609675340225 
667	 0.481624575296086 
668	 0.48262170672418 
669	 0.483696558057178 
670	 0.48482345812872 
671	 0.485887616887523 
672	 0.486921814001529 
673	 0.488019045886472 
674	 0.489139897438102 
675	 0.490232946635153 
676	 0.491294094244922 
677	 0.4923760943715 
678	 0.493455622440488 
679	 0.494549961211343 
680	 0.495659760430179 
681	 0.496711907241892 
682	 0.497748818728709 
683	 0.498797722466648 
684	 0.499868048373328 
685	 0.500897328887436 
686	 0.501927140437073 
687	 0.502991370077778 
688	 0.504099801748748 
689	 0.505195079965302 
690	 0.506191934535266 
691	 0.507089005482569 
692	 0.508182904723693 
693	 0.50922756032683 
694	 0.510195105263101 
695	 0.511199731939549 
696	 0.512269316899815 
697	 0.513236286568787 
698	 0.514104682439971 
699	 0.515185273014663 
700	 0.516197251142564 
701	 0.517141446622259 
702	 0.51808496320222 
703	 0.519010751727569 
704	 0.519982786276817 
705	 0.520928057393778 
706	 0.52171779521035 
707	 0.522699357169488 
708	 0.523666845089072 
709	 0.524512350236046 
710	 0.525416314345116 
711	 0.526251362865289 
712	 0.52708962413642 
713	 0.528023522324132 
714	 0.529009786412875 
715	 0.529822719081827 
716	 0.530533459399179 
717	 0.531400467133554 
718	 0.532212145355376 
719	 0.533049470333217 
720	 0.533925043852954 
721	 0.534672466378607 
722	 0.535345232990872 
723	 0.536103361392179 
724	 0.537024878311354 
725	 0.537750445286826 
726	 0.538368521427405 
727	 0.53905102914759 
728	 0.539964116170728 
729	 0.540652404166257 
730	 0.54131649793613 
731	 0.542080727392239 
732	 0.542800189460977 
733	 0.543410028353569 
734	 0.544013910312333 
735	 0.544725433724165 
736	 0.545492590567116 
737	 0.546177342880914 
738	 0.54676161980579 
739	 0.547322425404461 
740	 0.547973804124569 
741	 0.548670423890472 
742	 0.54933049050897 
743	 0.549853452564656 
744	 0.550472793319552 
745	 0.551110562286209 
746	 0.551672084686915 
747	 0.55231514966904 
748	 0.552939074685695 
749	 0.553541102445109 
750	 0.554162765586494 
751	 0.554713959585398 
752	 0.555212211580714 
753	 0.555686639225888 
754	 0.556164651407555 
755	 0.556705081763749 
756	 0.557236994384061 
757	 0.557720833428577 
758	 0.558310713444885 
759	 0.558793329797018 
760	 0.559255590030355 
761	 0.559865266076444 
762	 0.560320921615106 
763	 0.560759735021015 
764	 0.561250913294207 
765	 0.561757216466111 
766	 0.56233450244747 
767	 0.56283512445235 
768	 0.563201652926844 
769	 0.563662713140347 
770	 0.564166773351482 
771	 0.564657433057436 
772	 0.565087123434786 
773	 0.565486638327085 
774	 0.565960542560356 
775	 0.566475733672406 
776	 0.566897008666094 
777	 0.567311141316418 
778	 0.567715111714428 
779	 0.568112414343492 
780	 0.568535253558821 
781	 0.569008242371868 
782	 0.569441273496495 
783	 0.569775551792067 
784	 0.570179668883259 
785	 0.57057615296859 
786	 0.570944124000288 
787	 0.571304444456332 
788	 0.571713384714283 
789	 0.572191121246377 
790	 0.57265790045592 
791	 0.572941769817226 
792	 0.57339677582343 
793	 0.573861153601867 
794	 0.574174999673561 
795	 0.57444242879789 
796	 0.574741128789277 
797	 0.575134215985553 
798	 0.57561488746928 
799	 0.5759293924341 
800	 0.576236312231609 
801	 0.576554398216122 
802	 0.576803723922602 
803	 0.57719892655951 
804	 0.577644924425297 
805	 0.578023303174835 
806	 0.578252315142718 
807	 0.578530527415401 
808	 0.578903974810272 
809	 0.579322608063323 
810	 0.579587978123599 
811	 0.57989238820498 
812	 0.580187211545474 
813	 0.580380957239735 
814	 0.580788422624759 
815	 0.581188888592048 
816	 0.581516536322581 
817	 0.581863404056097 
818	 0.58211608487442 
819	 0.582375178708056 
820	 0.58267263381554 
821	 0.582875732275046 
822	 0.583185903464748 
823	 0.58354090218061 
824	 0.583844231515758 
825	 0.58412605553801 
826	 0.584438136054022 
827	 0.584759000645784 
828	 0.585036971970899 
829	 0.585267020891146 
830	 0.585545296456919 
831	 0.58588220865747 
832	 0.586209355420063 
833	 0.586541616860858 
834	 0.586853585271751 
835	 0.587125433632695 
836	 0.587353894586158 
837	 0.587623942650515 
838	 0.587910676406806 
839	 0.58816663781487 
840	 0.588364547133609 
841	 0.588572486653806 
842	 0.588853489419928 
843	 0.589221533266672 
844	 0.589496179339468 
845	 0.589723981211293 
846	 0.589960266501834 
847	 0.590248029328288 
848	 0.590543914384336 
849	 0.590759908016993 
850	 0.590910747362128 
851	 0.59113661879211 
852	 0.591386192567217 
853	 0.591581843321567 
854	 0.591732979071228 
855	 0.592043631983267 
856	 0.592385301345756 
857	 0.592671897493364 
858	 0.592859060206123 
859	 0.592984033520097 
860	 0.593245223589696 
861	 0.593556686957216 
862	 0.593723376357129 
863	 0.593881102216207 
864	 0.594114710817398 
865	 0.594417864633905 
866	 0.594703889790295 
867	 0.594906030200747 
868	 0.595070912274503 
869	 0.59526800147509 
870	 0.595561798696004 
871	 0.595728732398878 
872	 0.595876394914793 
873	 0.596092380023011 
874	 0.596249089535869 
875	 0.596436361721368 
876	 0.596657312092382 
877	 0.596889829228161 
878	 0.597121425222654 
879	 0.597405970143541 
880	 0.597632619685333 
881	 0.597708050104342 
882	 0.598075259135954 
883	 0.598412566214091 
884	 0.598603344688909 
885	 0.598735880585461 
886	 0.598871590016176 
887	 0.599056944206458 
888	 0.599267264527534 
889	 0.599411919197933 
890	 0.599608749671464 
891	 0.599780853937193 
892	 0.599883384948551 
893	 0.599982811505603 
894	 0.600198747466217 
895	 0.600465443222651 
896	 0.600675110333035 
897	 0.6007447082141 
898	 0.600857900772235 
899	 0.601088696094174 
900	 0.601394621733989 
901	 0.601487302530072 
902	 0.601569054889023 
903	 0.601710888422999 
904	 0.60188708456453 
905	 0.601974531921629 
906	 0.602105779004636 
907	 0.602277613439844 
908	 0.602390013129654 
909	 0.602484858423978 
910	 0.602582201640088 
911	 0.602730654709435 
912	 0.6029843995357 
913	 0.603140586999045 
914	 0.603257216296986 
915	 0.603401127697807 
916	 0.603589226600952 
917	 0.603815200769238 
918	 0.604035847301478 
919	 0.604239336857195 
920	 0.604484999739639 
921	 0.604658961321986 
922	 0.604770926796352 
923	 0.604885156965778 
924	 0.605116184688089 
925	 0.605235700305396 
926	 0.605367700296001 
927	 0.605660091401381 
928	 0.605936761678025 
929	 0.606179777228788 
930	 0.606394026389516 
931	 0.606592309648449 
932	 0.606740614559594 
933	 0.606978521383318 
934	 0.607285301864873 
935	 0.607560488759911 
936	 0.607819855456441 
937	 0.608101012505574 
938	 0.608376158406308 
939	 0.608594503514102 
940	 0.608879966974622 
941	 0.609158893490454 
942	 0.609376043209835 
943	 0.609531854943747 
944	 0.609795605821429 
945	 0.61007719730988 
946	 0.610335118798633 
947	 0.61059685156668 
948	 0.610661222030411 
949	 0.610695115693883 
950	 0.610836823702004 
951	 0.611094706740913 
952	 0.611257697042872 
953	 0.611405219542701 
954	 0.611578735264781 
955	 0.611687654818097 
956	 0.61182868887057 
957	 0.61193903668726 
958	 0.611991725976632 
959	 0.612074372155982 
960	 0.612256832632049 
961	 0.612424611548253 
962	 0.612505106332914 
963	 0.612599474593472 
964	 0.6127381452282 
965	 0.612913242879387 
966	 0.613074846628684 
967	 0.613117980262187 
968	 0.613166273281915 
969	 0.613249039260958 
970	 0.613371511799393 
971	 0.613555256921369 
972	 0.613719747799716 
973	 0.613880608731736 
974	 0.614061088476879 
975	 0.614220726875205 
976	 0.614286201175944 
977	 0.61437001341272 
978	 0.614577979140839 
979	 0.614807300314344 
980	 0.615013411251603 
981	 0.615121473850441 
982	 0.615128669691984 
983	 0.615246286089817 
984	 0.615475913597293 
985	 0.615731391595328 
986	 0.615930262049312 
987	 0.616148326192921 
988	 0.616166439098159 
989	 0.6161834378771 
990	 0.616433027981985 
991	 0.616745133801555 
992	 0.616847381816055 
993	 0.616842702428836 
994	 0.61696798070161 
995	 0.617378107035246 
996	 0.617574185158308 
997	 0.617496341146243 
998	 0.617382731868754 
999	 0.617794677589946 
1000	 0.618131798377152 
1001	 0.625577642029863 
1002	 0.625771400256055 
1003	 0.625916916640421 
1004	 0.626079401515304 
1005	 0.626215512929643 
1006	 0.626381032217275 
1007	 0.626575541135455 
1008	 0.626742982148613 
1009	 0.626902377984177 
1010	 0.627055909773427 
1011	 0.627173666437418 
1012	 0.627335270362459 
1013	 0.627540842426897 
1014	 0.627703901412115 
1015	 0.627850393002176 
1016	 0.628028252480619 
1017	 0.628177289121241 
1018	 0.628339670084251 
1019	 0.62851015793183 
1020	 0.628671224446457 
1021	 0.628826769454871 
1022	 0.628944965040705 
1023	 0.629104409381362 
1024	 0.62931460264593 
1025	 0.629456595411077 
1026	 0.629561504347784 
1027	 0.629703351080349 
1028	 0.629829503298511 
1029	 0.629959825927774 
1030	 0.630122571664272 
1031	 0.630275246592901 
1032	 0.63037590450148 
1033	 0.63046202273901 
1034	 0.630563037665996 
1035	 0.630672438921868 
1036	 0.630793803660649 
1037	 0.630926685810471 
1038	 0.631062006592038 
1039	 0.631210681790733 
1040	 0.631352263549472 
1041	 0.631511776433682 
1042	 0.631645239480411 
1043	 0.631762968851887 
1044	 0.631871457995975 
1045	 0.631991053977426 
1046	 0.632133322865993 
1047	 0.632304247603545 
1048	 0.632485858842953 
1049	 0.632666203588561 
1050	 0.632807712024451 
1051	 0.632956077011775 
1052	 0.633144453893085 
1053	 0.63334323814592 
1054	 0.633569620721661 
1055	 0.633798131910017 
1056	 0.634062288751324 
1057	 0.634266898704451 
1058	 0.634453280558751 
1059	 0.634627821325226 
1060	 0.634775337238179 
1061	 0.634931879305816 
1062	 0.635132175293347 
1063	 0.635363852656233 
1064	 0.635599634953902 
1065	 0.635874246883539 
1066	 0.636156877104733 
1067	 0.636413758507032 
1068	 0.636653553770684 
1069	 0.636886763242468 
1070	 0.637117557510533 
1071	 0.637339744209497 
1072	 0.637548594909156 
1073	 0.637749697179006 
1074	 0.637962322450081 
1075	 0.638190339324402 
1076	 0.638451055016904 
1077	 0.638750268545254 
1078	 0.639035532402543 
1079	 0.639301712655365 
1080	 0.639537703219244 
1081	 0.639728788305743 
1082	 0.639925434371519 
1083	 0.640125928347754 
1084	 0.640312982979682 
1085	 0.640529077877592 
1086	 0.640740783669085 
1087	 0.640959640380252 
1088	 0.641150564464062 
1089	 0.641346564571015 
1090	 0.641523635861961 
1091	 0.64171064004027 
1092	 0.641911916332821 
1093	 0.642090208053545 
1094	 0.642271379392833 
1095	 0.642427384012617 
1096	 0.642559935238523 
1097	 0.642702307951005 
1098	 0.642851797892473 
1099	 0.642979660438523 
1100	 0.643088347465129 
1101	 0.643203327556677 
1102	 0.643297077339822 
1103	 0.643392751915049 
1104	 0.643491935759073 
1105	 0.64358714373501 
1106	 0.643637855860887 
1107	 0.643694868572476 
1108	 0.643740730429836 
1109	 0.643778189402914 
1110	 0.643844120463592 
1111	 0.643895323587837 
1112	 0.643929649534499 
1113	 0.643976780850193 
1114	 0.644014012555994 
1115	 0.644018359478837 
1116	 0.644010247451226 
1117	 0.643997974773796 
1118	 0.643992181679608 
1119	 0.644003132645904 
1120	 0.643987857097152 
1121	 0.643975995280434 
1122	 0.643918879635918 
1123	 0.643868784668117 
1124	 0.643780364264964 
1125	 0.643694708248451 
1126	 0.643646004423934 
1127	 0.643555287296323 
1128	 0.643418200610086 
1129	 0.643269107073937 
1130	 0.643098858917405 
1131	 0.642931792372756 
1132	 0.642772794537461 
1133	 0.642604103965819 
1134	 0.642446475409836 
1135	 0.642238251587875 
1136	 0.641974035287021 
1137	 0.641729590244808 
1138	 0.641464793616267 
1139	 0.641193652267397 
1140	 0.640921786129004 
1141	 0.640662680351288 
1142	 0.640355188360493 
1143	 0.640044613434565 
1144	 0.63972599244459 
1145	 0.639375027440352 
1146	 0.639040450392855 
1147	 0.638686663539666 
1148	 0.638296773585843 
1149	 0.637932942874509 
1150	 0.637539843833287 
1151	 0.637130267584125 
1152	 0.636729409706046 
1153	 0.636320628054326 
1154	 0.635913205026175 
1155	 0.63553130374835 
1156	 0.635109293077419 
1157	 0.634664957209934 
1158	 0.634229842626807 
1159	 0.633780235082079 
1160	 0.633313067642682 
1161	 0.632855568835621 
1162	 0.632402631473281 
1163	 0.631961272125176 
1164	 0.631507167651704 
1165	 0.631075876001 
1166	 0.630667623943472 
1167	 0.630219299953338 
1168	 0.629768679272408 
1169	 0.629341081759027 
1170	 0.628919103533668 
1171	 0.628496666399965 
1172	 0.628097416027226 
1173	 0.627679927675911 
1174	 0.627242652375918 
1175	 0.62682788023683 
1176	 0.626438509138581 
1177	 0.626023822289602 
1178	 0.625616679049701 
1179	 0.62516896372253 
1180	 0.624740824601985 
1181	 0.624294030386888 
1182	 0.623830251489991 
1183	 0.623413691405741 
1184	 0.622979886249089 
1185	 0.622549280224397 
1186	 0.622153472630902 
1187	 0.621783267400192 
1188	 0.621434633387877 
1189	 0.621105210452379 
1190	 0.620795936251185 
1191	 0.620509769181453 
1192	 0.620254325639272 
1193	 0.620015457770701 
1194	 0.619808770745096 
1195	 0.619642327792759 
1196	 0.619485877950562 
1197	 0.619347750663964 
1198	 0.619227543906817 
1199	 0.61913607061825 
1200	 0.619062343115647 
1201	 0.619026330883815 
1202	 0.619018659734495 
1203	 0.619020284519714 
1204	 0.619073620826014 
1205	 0.619160402504476 
1206	 0.619253301588123 
1207	 0.619444778106493 
1208	 0.619693523536227 
1209	 0.620005662948673 
1210	 0.620398181424172 
1211	 0.620825924898995 
1212	 0.621299157952295 
1213	 0.621839175700251 
1214	 0.622427928134954 
1215	 0.623091554586942 
1216	 0.6238510134369 
1217	 0.624618528133231 
1218	 0.625444805217003 
1219	 0.626293551445131 
1220	 0.627161771087085 
1221	 0.628072379838253 
1222	 0.628957810030961 
1223	 0.62986543240076 
1224	 0.630723362712991 
1225	 0.631555680195253 
1226	 0.632348734992194 
1227	 0.633119387046342 
1228	 0.63385381756548 
1229	 0.634557238445198 
1230	 0.635220177997929 
1231	 0.635849442693225 
1232	 0.636446037920098 
1233	 0.636995231046262 
1234	 0.637517671646782 
1235	 0.638007928408865 
1236	 0.638476037875014 
1237	 0.638897669397553 
1238	 0.639320803681253 
1239	 0.639743654899679 
1240	 0.640131025446672 
1241	 0.640492196911748 
1242	 0.640835723313506 
1243	 0.641156539731897 
1244	 0.641441883424365 
1245	 0.641723641123937 
1246	 0.641995678685421 
1247	 0.642244869485424 
1248	 0.642473205581437 
1249	 0.642690763833776 
1250	 0.642894207190164 
1251	 0.643079303589162 
1252	 0.643247717067115 
1253	 0.643401747557544 
1254	 0.643534392459116 
1255	 0.643660274870799 
1256	 0.643771879323183 
1257	 0.643877539303089 
1258	 0.643962808143426 
1259	 0.644059650000697 
1260	 0.64416311536279 
1261	 0.644253513638604 
1262	 0.644345905129864 
1263	 0.644428130650379 
1264	 0.644504588069102 
1265	 0.64456591375605 
1266	 0.644633795271183 
1267	 0.64470655354018 
1268	 0.644761973439369 
1269	 0.644794747228958 
1270	 0.644857650704535 
1271	 0.6449197923524 
1272	 0.644994925858518 
1273	 0.645088707146227 
1274	 0.645190463964937 
1275	 0.645310440178993 
1276	 0.645410283458246 
1277	 0.645506736841521 
1278	 0.645615227145764 
1279	 0.645717274439161 
1280	 0.645818947776055 
1281	 0.645922855765664 
1282	 0.646045357745926 
1283	 0.646173672023763 
1284	 0.646297759974688 
1285	 0.646428439041314 
1286	 0.646577174167445 
1287	 0.646731419644045 
1288	 0.646878143552507 
1289	 0.647039503212372 
1290	 0.647229042104572 
1291	 0.647400034706138 
1292	 0.647559348047355 
1293	 0.647728916584254 
1294	 0.647912194597551 
1295	 0.648075415120462 
1296	 0.648239706682781 
1297	 0.648383954856193 
1298	 0.648510239948549 
1299	 0.648632066842607 
1300	 0.648746315772264 
1301	 0.648846529166551 
1302	 0.648923198009556 
1303	 0.649014172662867 
1304	 0.649108525089359 
1305	 0.649189717856364 
1306	 0.649279435429145 
1307	 0.649354045948677 
1308	 0.649409810993837 
1309	 0.649461966781836 
1310	 0.649494788944904 
1311	 0.649518526410771 
1312	 0.64953187101636 
1313	 0.649533970074576 
1314	 0.649511912012165 
1315	 0.649485306628171 
1316	 0.649425650202709 
1317	 0.649326679740213 
1318	 0.649235727163169 
1319	 0.649127677099435 
1320	 0.649023853657795 
1321	 0.648917652119925 
1322	 0.648807383466261 
1323	 0.648710317860583 
1324	 0.64857647892537 
1325	 0.648418555136956 
1326	 0.648262159563068 
1327	 0.648094346293656 
1328	 0.647907885723192 
1329	 0.647724899670732 
1330	 0.647515899935027 
1331	 0.647290752660638 
1332	 0.647030883893368 
1333	 0.646750329103042 
1334	 0.646438128628912 
1335	 0.646121739854423 
1336	 0.645778305605243 
1337	 0.645421762691379 
1338	 0.645055195073507 
1339	 0.644684195842138 
1340	 0.644298789605459 
1341	 0.643888821986229 
1342	 0.643478027124052 
1343	 0.643036821154401 
1344	 0.642566824977649 
1345	 0.64207174357553 
1346	 0.641551025128385 
1347	 0.641030875207895 
1348	 0.640488944526439 
1349	 0.639931205705999 
1350	 0.639368537228657 
1351	 0.638791700484424 
1352	 0.638185041713837 
1353	 0.637577123342657 
1354	 0.636962432614174 
1355	 0.636349721121304 
1356	 0.635720113704272 
1357	 0.635098895176457 
1358	 0.634478030152045 
1359	 0.633866468008585 
1360	 0.633266085189909 
1361	 0.632666148317472 
1362	 0.632045878357602 
1363	 0.631434253202801 
1364	 0.630787036707285 
1365	 0.630123681930216 
1366	 0.629420148107328 
1367	 0.628699541931058 
1368	 0.627937988197798 
1369	 0.627141904118178 
1370	 0.626303810379451 
1371	 0.625433752254504 
1372	 0.624535625017224 
1373	 0.623597025049604 
1374	 0.622627958431999 
1375	 0.621632933997676 
1376	 0.620592475764106 
1377	 0.619515234212649 
1378	 0.618379899250032 
1379	 0.617183155301952 
1380	 0.615978750419471 
1381	 0.614736997120067 
1382	 0.613459971541378 
1383	 0.612156657434034 
1384	 0.610831962582189 
1385	 0.609468125194753 
1386	 0.608090314170122 
1387	 0.606677948537888 
1388	 0.605301068578194 
1389	 0.603910656344643 
1390	 0.602536546597475 
1391	 0.601215790427749 
1392	 0.599842561618842 
1393	 0.598523041736793 
1394	 0.597173354790939 
1395	 0.595803281449399 
1396	 0.594457942317879 
1397	 0.593023866235414 
1398	 0.591558197155248 
1399	 0.589999301132175 
1400	 0.588373374745486 
1401	 0.586691928597468 
1402	 0.584940823952485 
1403	 0.583122702902765 
1404	 0.58122160179658 
1405	 0.579340651045827 
1406	 0.577375723832952 
1407	 0.575467629522903 
1408	 0.573536553780513 
1409	 0.571697931343298 
1410	 0.56984658183774 
1411	 0.568134366571346 
1412	 0.566486973660897 
1413	 0.565000886589415 
1414	 0.563640511148821 
1415	 0.562372902634411 
1416	 0.561257500084908 
1417	 0.560193434460586 
1418	 0.559232494267268 
1419	 0.558298326302201 
1420	 0.557445906621396 
1421	 0.556621227594978 
1422	 0.555832685432774 
1423	 0.555073513552012 
1424	 0.554358973288699 
1425	 0.553655551460355 
1426	 0.553020836649957 
1427	 0.55242254471689 
1428	 0.551862318360151 
1429	 0.551379483585396 
1430	 0.550913411395214 
1431	 0.550468395045277 
1432	 0.550089447530268 
1433	 0.549755326043538 
1434	 0.549480512070071 
1435	 0.549265148422586 
1436	 0.549081334508696 
1437	 0.548964950801494 
1438	 0.548845430028133 
1439	 0.54873722709779 
1440	 0.548686904979213 
1441	 0.548676256165203 
1442	 0.548680070230151 
1443	 0.548739937385363 
1444	 0.548789888535806 
1445	 0.548839247597652 
1446	 0.548912908995456 
1447	 0.549005601278504 
1448	 0.549112249034143 
1449	 0.549239787918747 
1450	 0.549371430711969 
1451	 0.54951421760965 
1452	 0.549671583188305 
1453	 0.549850003279544 
1454	 0.550016536471836 
1455	 0.550195720955931 
1456	 0.550365961358231 
1457	 0.550528338352538 
1458	 0.550684289756588 
1459	 0.550821881626342 
1460	 0.550983903614664 
1461	 0.551142356519492 
1462	 0.551318240895116 
1463	 0.55151225481106 
1464	 0.551724390250614 
1465	 0.551950311509365 
1466	 0.552190642643796 
1467	 0.552442844457865 
1468	 0.552717380400594 
1469	 0.552978746243523 
1470	 0.553226517431974 
1471	 0.553471488396939 
1472	 0.553710491749217 
1473	 0.553946179453582 
1474	 0.554185745423053 
1475	 0.554393390714745 
1476	 0.554586425810827 
1477	 0.554772332575872 
1478	 0.554933785304109 
1479	 0.555093150010307 
1480	 0.555252015624704 
1481	 0.555397160640386 
1482	 0.555525358503428 
1483	 0.555651807855487 
1484	 0.555776206761624 
1485	 0.555886492771715 
1486	 0.555984339484166 
1487	 0.556075712504962 
1488	 0.556138147580164 
1489	 0.556238597149221 
1490	 0.556345948476769 
1491	 0.55646520256319 
1492	 0.556619905501336 
1493	 0.556754913070178 
1494	 0.556872695706116 
1495	 0.557015233498619 
1496	 0.557152051065785 
1497	 0.557323599433836 
1498	 0.557520079811202 
1499	 0.557735043196368 
1500	 0.557973392412763 
1501	 0.558230452602255 
1502	 0.558519128883985 
1503	 0.558802853396118 
1504	 0.559101427728748 
1505	 0.559402519473891 
1506	 0.559706664707206 
1507	 0.560013760034913 
1508	 0.560327812578729 
1509	 0.560646753981521 
1510	 0.560972728294185 
1511	 0.561291233298131 
1512	 0.561610672275445 
1513	 0.561931187418069 
1514	 0.562249700536851 
1515	 0.562565158183124 
1516	 0.56288790147169 
1517	 0.563200643131787 
1518	 0.563490105071836 
1519	 0.563795427837033 
1520	 0.564109437020027 
1521	 0.564418504869102 
1522	 0.564723638264982 
1523	 0.565057279433614 
1524	 0.565375863475499 
1525	 0.565690841323146 
1526	 0.566003141831314 
1527	 0.566311302266545 
1528	 0.566636692406772 
1529	 0.566961710176744 
1530	 0.567295635222456 
1531	 0.567647588054983 
1532	 0.567994851529548 
1533	 0.56833655092973 
1534	 0.568694596754729 
1535	 0.569072587875888 
1536	 0.569426554530934 
1537	 0.569779798019232 
1538	 0.570123633937906 
1539	 0.570455901617308 
1540	 0.570782327451689 
1541	 0.571111796126812 
1542	 0.571415411969317 
1543	 0.571703045675162 
1544	 0.57197538298715 
1545	 0.572241970920935 
1546	 0.572466288557873 
1547	 0.572663077740495 
1548	 0.572842260741595 
1549	 0.572990572023828 
1550	 0.573118603480614 
1551	 0.5732289979427 
1552	 0.573318692297148 
1553	 0.573367745339599 
1554	 0.573428835830481 
1555	 0.573469476566838 
1556	 0.573536240159526 
1557	 0.573602985669233 
1558	 0.573691055126395 
1559	 0.573798736969161 
1560	 0.573915878379872 
1561	 0.574052762099176 
1562	 0.574184582077408 
1563	 0.574327335987199 
1564	 0.57446741409715 
1565	 0.574594966637492 
1566	 0.574748144995415 
1567	 0.574908991084402 
1568	 0.575088916352172 
1569	 0.575300501206104 
1570	 0.575497833080616 
1571	 0.575696845665746 
1572	 0.575905647985015 
1573	 0.576122339458808 
1574	 0.57632800893806 
1575	 0.576542867032057 
1576	 0.576746681903872 
1577	 0.576931545695611 
1578	 0.577123804973153 
1579	 0.577327835554413 
1580	 0.577511503497524 
1581	 0.577674826622511 
1582	 0.577852893820186 
1583	 0.578026381854191 
1584	 0.578203661976178 
1585	 0.578395453754611 
1586	 0.578578996014113 
1587	 0.57875324607892 
1588	 0.578931959191902 
1589	 0.579105331928889 
1590	 0.579293366230915 
1591	 0.579495372253471 
1592	 0.579688400749667 
1593	 0.57989846858827 
1594	 0.580085790004595 
1595	 0.580247913382312 
1596	 0.580420695655788 
1597	 0.580578038994984 
1598	 0.580755226819981 
1599	 0.580950747283227 
1600	 0.581140737415734 
1601	 0.581340637487355 
1602	 0.581535539664353 
1603	 0.581733478840285 
1604	 0.581917069472873 
1605	 0.582101111085644 
1606	 0.582266685054966 
1607	 0.582400178243922 
1608	 0.582551767582134 
1609	 0.582700114420211 
1610	 0.582854107827551 
1611	 0.583033811861117 
1612	 0.583185075515345 
1613	 0.583331224357599 
1614	 0.583455050734251 
1615	 0.583543723028751 
1616	 0.583644106374576 
1617	 0.583737739163951 
1618	 0.5838274290608 
1619	 0.583933462338852 
1620	 0.58400851837429 
1621	 0.584057056831261 
1622	 0.584105011374817 
1623	 0.584132301573514 
1624	 0.584164158536915 
1625	 0.584204745734481 
1626	 0.584227294413304 
1627	 0.584234579152535 
1628	 0.584242629377998 
1629	 0.584237635687119 
1630	 0.584235338231073 
1631	 0.584239401854636 
1632	 0.584234053307022 
1633	 0.584234463355431 
1634	 0.584211434781526 
1635	 0.584171678306472 
1636	 0.584123881237182 
1637	 0.584053887616285 
1638	 0.583982848772599 
1639	 0.583920409200538 
1640	 0.583827482617378 
1641	 0.583717417928844 
1642	 0.583591889276659 
1643	 0.583425172416374 
1644	 0.583276380425307 
1645	 0.583138195500145 
1646	 0.582981141307182 
1647	 0.582836621386427 
1648	 0.582651289682813 
1649	 0.582435790807704 
1650	 0.582197838423747 
1651	 0.581937149867867 
1652	 0.581652447097981 
1653	 0.581345852660902 
1654	 0.581009110752929 
1655	 0.580626577956612 
1656	 0.580246632735743 
1657	 0.579871477020622 
1658	 0.579438311894149 
1659	 0.579000687312995 
1660	 0.578494298669599 
1661	 0.577935243385553 
1662	 0.577314858973297 
1663	 0.57664100438749 
1664	 0.575888750735265 
1665	 0.575065068684655 
1666	 0.574167979615692 
1667	 0.573195880774851 
1668	 0.572185114582744 
1669	 0.571113971241087 
1670	 0.569976812194883 
1671	 0.568784214106351 
1672	 0.567511999000853 
1673	 0.56616909004801 
1674	 0.564747961783502 
1675	 0.563250207849928 
1676	 0.561716706975577 
1677	 0.560106996821453 
1678	 0.558463993452547 
1679	 0.556777816615056 
1680	 0.555022356791643 
1681	 0.553191677622362 
1682	 0.551334668998055 
1683	 0.549430576314238 
1684	 0.547516219039742 
1685	 0.545572397782982 
1686	 0.543598919804 
1687	 0.541568129139317 
1688	 0.539540705663587 
1689	 0.537505573741215 
1690	 0.535426425579732 
1691	 0.533325395437835 
1692	 0.531256590103095 
1693	 0.529177908242156 
1694	 0.52707474957845 
1695	 0.524998382366526 
1696	 0.522825135644635 
1697	 0.52058500955943 
1698	 0.518292722506106 
1699	 0.51594071466362 
1700	 0.513634444108422 
1701	 0.511253769434081 
1702	 0.509001507772286 
1703	 0.506758436517318 
1704	 0.504649812172671 
1705	 0.502616179422142 
1706	 0.500667013503119 
1707	 0.498973512370888 
1708	 0.497348354485779 
1709	 0.495799211527276 
1710	 0.494370504915632 
1711	 0.492892158648037 
1712	 0.491485169699851 
1713	 0.490089309079705 
1714	 0.488648993685604 
1715	 0.487311539448359 
1716	 0.485942578044775 
1717	 0.484625088974743 
1718	 0.483392151552205 
1719	 0.48216859480559 
1720	 0.481081291404073 
1721	 0.480094272862538 
1722	 0.479237057987341 
1723	 0.478626975742726 
1724	 0.47820996101325 
1725	 0.477997077543756 
1726	 0.478074661221101 
1727	 0.478414357057843 
1728	 0.478995025719218 
1729	 0.479841769680102 
1730	 0.480926516760253 
1731	 0.482103153892578 
1732	 0.483407108495332 
1733	 0.484757277747458 
1734	 0.4861162921179 
1735	 0.487496164422383 
1736	 0.488761660883372 
1737	 0.489926583601307 
1738	 0.490918634643984 
1739	 0.491708694640038 
1740	 0.492324794148248 
1741	 0.49280835970999 
1742	 0.493095362453839 
1743	 0.493293765549255 
1744	 0.493332027169105 
1745	 0.493313904531765 
1746	 0.493140782214706 
1747	 0.492992873986958 
1748	 0.492783018234257 
1749	 0.492615198816505 
1750	 0.492422982466997 
1751	 0.492285680648834 
1752	 0.492153849165582 
1753	 0.492113502203261 
1754	 0.492100791539632 
1755	 0.492221926469234 
1756	 0.492418418977748 
1757	 0.492768709456003 
1758	 0.493250861070127 
1759	 0.493811867069731 
1760	 0.494557620911073 
1761	 0.495450007507753 
1762	 0.496407799505182 
1763	 0.497535422688922 
1764	 0.498747442392615 
1765	 0.500044758526958 
1766	 0.501476004710998 
1767	 0.502894846714521 
1768	 0.504352354703591 
1769	 0.505788877682248 
1770	 0.507096482650789 
1771	 0.508412640910815 
1772	 0.509659540223789 
1773	 0.510799954298303 
1774	 0.511928292623565 
1775	 0.512939707565483 
1776	 0.513876517172143 
1777	 0.514739443294853 
1778	 0.515459173653088 
1779	 0.516157066497234 
1780	 0.516773721268293 
1781	 0.517281085044864 
1782	 0.517790184597385 
1783	 0.518202386401287 
1784	 0.518553762192195 
1785	 0.518866415724849 
1786	 0.519152108560426 
1787	 0.519412655041177 
1788	 0.519634016872083 
1789	 0.519821448091721 
1790	 0.519981388009738 
1791	 0.520078815045562 
1792	 0.520203368261729 
1793	 0.520303910360266 
1794	 0.520445555443655 
1795	 0.5205872881239 
1796	 0.520720864132916 
1797	 0.520910798718857 
1798	 0.521067132709392 
1799	 0.52121170409414 
1800	 0.521389841150772 
1801	 0.521905676835563 
1802	 0.522123604169876 
1803	 0.522337331738488 
1804	 0.522551773435449 
1805	 0.522757781678933 
1806	 0.5229734212212 
1807	 0.523194316197404 
1808	 0.52342128684841 
1809	 0.523651897387826 
1810	 0.523887424903366 
1811	 0.524142130940836 
1812	 0.524375326636206 
1813	 0.524588028556656 
1814	 0.524833261262723 
1815	 0.525036301850498 
1816	 0.525271730482138 
1817	 0.525532191418016 
1818	 0.525814546744688 
1819	 0.526092877427748 
1820	 0.526419646601633 
1821	 0.526701169491109 
1822	 0.526954008352224 
1823	 0.527223768216159 
1824	 0.527476336077742 
1825	 0.52773080105012 
1826	 0.527997144364977 
1827	 0.528270486170887 
1828	 0.528543355353355 
1829	 0.528832050114684 
1830	 0.529101119190254 
1831	 0.529355566673551 
1832	 0.52963071240079 
1833	 0.529897581637862 
1834	 0.530162028279209 
1835	 0.530451809296023 
1836	 0.530738398184348 
1837	 0.531019007490545 
1838	 0.531291509900448 
1839	 0.53157925599846 
1840	 0.531876089508449 
1841	 0.532156602561557 
1842	 0.532447624899227 
1843	 0.532727854856982 
1844	 0.532951855320558 
1845	 0.533197179812319 
1846	 0.533424842516375 
1847	 0.533585861110248 
1848	 0.533750337084831 
1849	 0.533915139241253 
1850	 0.5340321493305 
1851	 0.534116197965837 
1852	 0.534194079955092 
1853	 0.534225436130082 
1854	 0.534216027521615 
1855	 0.534168672629443 
1856	 0.534088819686494 
1857	 0.533973660513804 
1858	 0.533795536032762 
1859	 0.533566016458414 
1860	 0.533274034350873 
1861	 0.532955312683217 
1862	 0.532590734334704 
1863	 0.53219463066647 
1864	 0.531756050951787 
1865	 0.531279965868593 
1866	 0.530706426807655 
1867	 0.530023855037004 
1868	 0.529304801745565 
1869	 0.5284700871726 
1870	 0.527577807538006 
1871	 0.526662622459604 
1872	 0.525638569632168 
1873	 0.524515792146446 
1874	 0.523349629364015 
1875	 0.522113455892554 
1876	 0.520674433423294 
1877	 0.519226865566726 
1878	 0.517631254149723 
1879	 0.515855052041926 
1880	 0.514069171250311 
1881	 0.512090142475437 
1882	 0.509939705610568 
1883	 0.507682196142916 
1884	 0.505274910967692 
1885	 0.502537708215664 
1886	 0.499692416408188 
1887	 0.496579516886603 
1888	 0.493185888998518 
1889	 0.489863543182668 
1890	 0.486286440604634 
1891	 0.482644675481961 
1892	 0.478982398395275 
1893	 0.475130705599742 
1894	 0.471038443735513 
1895	 0.467062405364271 
1896	 0.462956931337097 
1897	 0.458779497139673 
1898	 0.454942168490716 
1899	 0.450975956055187 
1900	 0.447057435155657 
1901	 0.443275555554469 
1902	 0.439261543744528 
1903	 0.435435138523228 
1904	 0.431699671019721 
1905	 0.428004038946415 
1906	 0.424395081740319 
1907	 0.421172249390056 
1908	 0.417948871141738 
1909	 0.414883975308401 
1910	 0.412011240137089 
1911	 0.409037458509914 
1912	 0.406266770552231 
1913	 0.40358006639059 
1914	 0.400938995556464 
1915	 0.398524975131694 
1916	 0.396345305378242 
1917	 0.394157837706367 
1918	 0.392083416084066 
1919	 0.390201520792368 
1920	 0.388259107247177 
1921	 0.386468772528735 
1922	 0.384802906187867 
1923	 0.383173032346522 
1924	 0.381758899881295 
1925	 0.380397840051269 
1926	 0.37913636744791 
1927	 0.378011164857228 
1928	 0.376940359932482 
1929	 0.37591443607841 
1930	 0.375037953370843 
1931	 0.374247915484635 
1932	 0.373522809753895 
1933	 0.372972145758355 
1934	 0.372499070777173 
1935	 0.372081171721109 
1936	 0.371774355039486 
1937	 0.371542847004492 
1938	 0.371378956256759 
1939	 0.371296102837948 
1940	 0.371300865962814 
1941	 0.371399335079795 
1942	 0.371552900311687 
1943	 0.371790334642692 
1944	 0.37209871228374 
1945	 0.372481373798311 
1946	 0.372926155096763 
1947	 0.373409815619546 
1948	 0.37397558173996 
1949	 0.374582528881846 
1950	 0.375208443692504 
1951	 0.375885475906634 
1952	 0.37657483277535 
1953	 0.377272188729844 
1954	 0.378007809030963 
1955	 0.378829367256533 
1956	 0.379650442233646 
1957	 0.380515609998992 
1958	 0.381410786632338 
1959	 0.38222320428946 
1960	 0.383055465292447 
1961	 0.383895872442675 
1962	 0.384702572360364 
1963	 0.385565511207766 
1964	 0.386485013908132 
1965	 0.387363186983983 
1966	 0.388249396248758 
1967	 0.389158477658367 
1968	 0.389984137103749 
1969	 0.390847353883162 
1970	 0.391715840369824 
1971	 0.392570151190943 
1972	 0.393494782153075 
1973	 0.394395387019359 
1974	 0.39530599937738 
1975	 0.396266954277776 
1976	 0.397165535687472 
1977	 0.39802850203304 
1978	 0.398902887523064 
1979	 0.39975191596366 
1980	 0.400585371095312 
1981	 0.401502255598141 
1982	 0.402384505629906 
1983	 0.403269793599455 
1984	 0.404169420018237 
1985	 0.40498389125317 
1986	 0.405789403087218 
1987	 0.406598660890332 
1988	 0.407388776557364 
1989	 0.408186085906137 
1990	 0.408990899696746 
1991	 0.409781936140613 
1992	 0.410582347173604 
1993	 0.4113585914258 
1994	 0.412066729799301 
1995	 0.412791114358092 
1996	 0.413496459652852 
1997	 0.414152394675818 
1998	 0.414819951708729 
1999	 0.415496028827706 
2000	 0.416140329851209 
2001	 0.416783780986328 
2002	 0.417376432067371 
2003	 0.417932076133882 
2004	 0.418486872400894 
2005	 0.419004156482333 
2006	 0.419502609989778 
2007	 0.42001232819626 
2008	 0.420477912879874 
2009	 0.420882701137984 
2010	 0.421253933773768 
2011	 0.421579805381958 
2012	 0.421873008532259 
2013	 0.422121244995865 
2014	 0.422345677749035 
2015	 0.422499214264711 
2016	 0.422610036670359 
2017	 0.422645089395877 
2018	 0.422605775795586 
2019	 0.422515952764004 
2020	 0.422369769002773 
2021	 0.422157259610416 
2022	 0.421886712312591 
2023	 0.421554072698309 
2024	 0.421106682062761 
2025	 0.420596139260444 
2026	 0.4200431106904 
2027	 0.419385137828616 
2028	 0.418754531850777 
2029	 0.418085808453299 
2030	 0.41741634550053 
2031	 0.41674528866808 
2032	 0.416048169873005 
2033	 0.415274038995375 
2034	 0.41459714798146 
2035	 0.41393834881013 
2036	 0.413287443060036 
2037	 0.412740539037947 
2038	 0.412253185214153 
2039	 0.411829255889926 
2040	 0.411454330263441 
2041	 0.411157713062207 
2042	 0.410941721829759 
2043	 0.410785673476789 
2044	 0.410695769756264 
2045	 0.410657497992086 
2046	 0.410700792743142 
2047	 0.410773451375638 
2048	 0.410894798688656 
2049	 0.411060173650031 
2050	 0.411286066813174 
2051	 0.411533159192652 
2052	 0.411805610341326 
2053	 0.412134351592345 
2054	 0.412490837398349 
2055	 0.412881753221438 
2056	 0.413303435311052 
2057	 0.413785058950439 
2058	 0.414248175974575 
2059	 0.414726284129025 
2060	 0.415212727051782 
2061	 0.415716146895974 
2062	 0.416209891425862 
2063	 0.416721999078619 
2064	 0.417222318506295 
2065	 0.417719101537957 
2066	 0.418190425594874 
2067	 0.418697182946287 
2068	 0.419152985021793 
2069	 0.419603935735101 
2070	 0.420054558576966 
2071	 0.420469213897012 
2072	 0.420853095878239 
2073	 0.421229126230669 
2074	 0.421576770413801 
2075	 0.421920439469502 
2076	 0.422255515674107 
2077	 0.422571428921993 
2078	 0.42289384365278 
2079	 0.423168286505945 
2080	 0.423410048551661 
2081	 0.423633071948056 
2082	 0.423825598164159 
2083	 0.423976307997938 
2084	 0.424147550312582 
2085	 0.424278780356811 
2086	 0.424389813569253 
2087	 0.424480736633478 
2088	 0.424552801516007 
2089	 0.424587577718919 
2090	 0.424627632321716 
2091	 0.424658618414749 
2092	 0.424675644000252 
2093	 0.424704833629032 
2094	 0.424678190400474 
2095	 0.424596582760081 
2096	 0.424531964533198 
2097	 0.424444808029063 
2098	 0.424344178678157 
2099	 0.424262796317084 
2100	 0.424174565308009 
2101	 0.424041756965519 
2102	 0.42388192335584 
2103	 0.423690815989227 
2104	 0.423449837533136 
2105	 0.423232859892194 
2106	 0.423002276686508 
2107	 0.422761683009078 
2108	 0.422538703730467 
2109	 0.422275686084922 
2110	 0.421978686849753 
2111	 0.42167376171301 
2112	 0.421351046762612 
2113	 0.421012118894824 
2114	 0.420670481525911 
2115	 0.420290067681921 
2116	 0.419883596395165 
2117	 0.419456869566268 
2118	 0.418994823806171 
2119	 0.418487230429322 
2120	 0.417990326935658 
2121	 0.417455506819115 
2122	 0.416959009362494 
2123	 0.416477618707764 
2124	 0.415978297315879 
2125	 0.415516082478627 
2126	 0.414987625070439 
2127	 0.414413459053379 
2128	 0.413843167761779 
2129	 0.413226315578055 
2130	 0.412629946363619 
2131	 0.412061988357427 
2132	 0.411452167773927 
2133	 0.410841399162698 
2134	 0.41019790989464 
2135	 0.409487302273378 
2136	 0.408779208066218 
2137	 0.408017491156859 
2138	 0.407182687556439 
2139	 0.406407627919266 
2140	 0.405616862576595 
2141	 0.40484339771761 
2142	 0.40412840662217 
2143	 0.403344590612412 
2144	 0.40251406395998 
2145	 0.401712597703226 
2146	 0.400873838765306 
2147	 0.400080724049184 
2148	 0.399327785675042 
2149	 0.39856486886349 
2150	 0.397818099248171 
2151	 0.39707174668388 
2152	 0.396305401132818 
2153	 0.395588496055704 
2154	 0.394866145456723 
2155	 0.394120573003127 
2156	 0.393411019982002 
2157	 0.392713284018608 
2158	 0.392020384316709 
2159	 0.391364480685967 
2160	 0.390665775434287 
2161	 0.389942058831817 
2162	 0.389244730631701 
2163	 0.388514178097205 
2164	 0.38784534089465 
2165	 0.387198595302483 
2166	 0.386599193436994 
2167	 0.386037316816795 
2168	 0.385516375881095 
2169	 0.385040110994356 
2170	 0.384602548561369 
2171	 0.384178112280303 
2172	 0.383834591190101 
2173	 0.383572283860078 
2174	 0.383325616489003 
2175	 0.383135528470928 
2176	 0.382993210055171 
2177	 0.382860263860871 
2178	 0.382739860028071 
2179	 0.382664885252074 
2180	 0.382634382474694 
2181	 0.382614053226383 
2182	 0.382620072266906 
2183	 0.382652083451512 
2184	 0.382685032414042 
2185	 0.38279268039635 
2186	 0.382964100682602 
2187	 0.383137176433674 
2188	 0.383382679469911 
2189	 0.383594975688322 
2190	 0.383798037497182 
2191	 0.384012648630273 
2192	 0.384242368698509 
2193	 0.384454456523697 
2194	 0.384661574624912 
2195	 0.384865178570664 
2196	 0.385060265977525 
2197	 0.385252923889929 
2198	 0.385413370746171 
2199	 0.385615027798604 
2200	 0.38579022175529 
2201	 0.385946288511397 
2202	 0.386108822853189 
2203	 0.386272608401135 
2204	 0.386438833572204 
2205	 0.386608134975615 
2206	 0.386767388610914 
2207	 0.386934258501193 
2208	 0.387071755803975 
2209	 0.387189071758865 
2210	 0.387302541592841 
2211	 0.387396121337397 
2212	 0.387498099129407 
2213	 0.387607897372078 
2214	 0.387687849211826 
2215	 0.38776819529927 
2216	 0.387816564103852 
2217	 0.38784628168996 
2218	 0.387841125385856 
2219	 0.387812031556556 
2220	 0.387746619315559 
2221	 0.387632077292975 
2222	 0.387506661795509 
2223	 0.387381007772295 
2224	 0.387183902076554 
2225	 0.386935002326043 
2226	 0.386630279291714 
2227	 0.386237768376456 
2228	 0.385764931948447 
2229	 0.385209345216285 
2230	 0.384569490751991 
2231	 0.383863742652697 
2232	 0.383086997136966 
2233	 0.382195386981228 
2234	 0.381268921317472 
2235	 0.380148902234142 
2236	 0.378868916648684 
2237	 0.377486807490899 
2238	 0.375912881674043 
2239	 0.374321332382528 
2240	 0.372671794997534 
2241	 0.370880198134852 
2242	 0.369071200490134 
2243	 0.367024885978177 
2244	 0.364730894160993 
2245	 0.362413786508622 
2246	 0.359859239070086 
2247	 0.357358762665699 
2248	 0.354883532050769 
2249	 0.352298661258757 
2250	 0.349647196647593 
2251	 0.346999729029385 
2252	 0.344132986665373 
2253	 0.341308237563323 
2254	 0.338461847386355 
2255	 0.335595107299565 
2256	 0.33295459793774 
2257	 0.330277183402648 
2258	 0.327646647975391 
2259	 0.325102201295404 
2260	 0.322539455015372 
2261	 0.31994505962921 
2262	 0.317477600387914 
2263	 0.315031764211254 
2264	 0.312716360514022 
2265	 0.31053604510699 
2266	 0.308333940536401 
2267	 0.306268350697909 
2268	 0.304106802935302 
2269	 0.301861762557913 
2270	 0.299743549245935 
2271	 0.297616203551597 
2272	 0.295583356179156 
2273	 0.293701867522908 
2274	 0.291763822062072 
2275	 0.28990423998051 
2276	 0.287942851577914 
2277	 0.285944722152989 
2278	 0.283926073745181 
2279	 0.281759716142372 
2280	 0.279698152701871 
2281	 0.277706474599598 
2282	 0.275676075836898 
2283	 0.27365004689312 
2284	 0.271724517791555 
2285	 0.269583417761782 
2286	 0.267439577005432 
2287	 0.265245009319039 
2288	 0.262954826375272 
2289	 0.260828586887037 
2290	 0.258626518409871 
2291	 0.256450366634006 
2292	 0.254245723227538 
2293	 0.251835712209446 
2294	 0.249497711793264 
2295	 0.24720744593702 
2296	 0.245047151226618 
2297	 0.243186548005163 
2298	 0.241562143169491 
2299	 0.240138107673942 
2300	 0.238932435275721 
2301	 0.238003929869629 
2302	 0.237259546717446 
2303	 0.236947043620627 
2304	 0.23700257855046 
2305	 0.237316354004654 
2306	 0.237995696557884 
2307	 0.238963483803936 
2308	 0.240237375503682 
2309	 0.24178610423194 
2310	 0.243794243647662 
2311	 0.245807046510999 
2312	 0.24816948599082 
2313	 0.25039919299749 
2314	 0.252782384113102 
2315	 0.254975114447374 
2316	 0.25715525664534 
2317	 0.259076202919888 
2318	 0.260895955166759 
2319	 0.262412049445532 
2320	 0.263714111135658 
2321	 0.264740100446962 
2322	 0.265427195499395 
2323	 0.265977781897537 
2324	 0.266293835958959 
2325	 0.266391010073821 
2326	 0.266215375808327 
2327	 0.265954099272441 
2328	 0.265475717578955 
2329	 0.264855587905416 
2330	 0.264132269590992 
2331	 0.263216850997877 
2332	 0.262084231128587 
2333	 0.26080886941058 
2334	 0.259316354215882 
2335	 0.257739723883503 
2336	 0.256032484797903 
2337	 0.254181321260832 
2338	 0.252416008314699 
2339	 0.250581252271293 
2340	 0.248770152177146 
2341	 0.247125073683663 
2342	 0.245554537413921 
2343	 0.244249296964947 
2344	 0.243280787474477 
2345	 0.242587146452316 
2346	 0.242272382467975 
2347	 0.242440840880511 
2348	 0.242924664791757 
2349	 0.243811994111485 
2350	 0.24503129003872 
2351	 0.24641080619783 
2352	 0.247982334037623 
2353	 0.249722293980361 
2354	 0.251393468448194 
2355	 0.253003886142101 
2356	 0.254453729381212 
2357	 0.255662212095032 
2358	 0.256790940559928 
2359	 0.257659937727052 
2360	 0.258387996138341 
2361	 0.258917323221023 
2362	 0.259208710752509 
2363	 0.259420409364851 
2364	 0.259526431403179 
2365	 0.259571977554708 
2366	 0.259619324274235 
2367	 0.259640861545788 
2368	 0.259638771716417 
2369	 0.25961892631291 
2370	 0.259569157576579 
2371	 0.259569495091294 
2372	 0.25956985348012 
2373	 0.259598348272265 
2374	 0.25967789822191 
2375	 0.259674836902115 
2376	 0.259718980493105 
2377	 0.259817457802535 
2378	 0.259782265196458 
2379	 0.259748593416876 
2380	 0.259775515882121 
2381	 0.259794635247091 
2382	 0.259858622589852 
2383	 0.260017656274244 
2384	 0.260141676639705 
2385	 0.260281666330674 
2386	 0.260402931768587 
2387	 0.260531609701381 
2388	 0.260635053033687 
2389	 0.26067998691632 
2390	 0.260764377343317 
2391	 0.260908407169667 
2392	 0.260983855918423 
2393	 0.261029651992322 
2394	 0.261039812934936 
2395	 0.260982104755892 
2396	 0.260936632375903 
2397	 0.260917668026196 
2398	 0.260876980793605 
2399	 0.260779364389825 
2400	 0.260723010932801 
2401	 0.260625225181761 
2402	 0.260684476826476 
2403	 0.260771016710422 
2404	 0.260810502657572 
2405	 0.260872860052801 
2406	 0.260782513490002 
2407	 0.260562904513412 
2408	 0.260387560701181 
2409	 0.260289179699466 
2410	 0.260230984114288 
2411	 0.260142436211196 
2412	 0.260053295805515 
2413	 0.259879328017292 
2414	 0.25969054921633 
2415	 0.259686854775893 
2416	 0.259643287982846 
2417	 0.259543274852052 
2418	 0.259394731287146 
2419	 0.259126525631522 
2420	 0.258864511534145 
2421	 0.25860593872166 
2422	 0.258435792285397 
2423	 0.258269932105062 
2424	 0.258011771079255 
2425	 0.257828755968844 
2426	 0.257632720201552 
2427	 0.257427575335473 
2428	 0.25727949106152 
2429	 0.257009006446039 
2430	 0.256760832291967 
2431	 0.256423746082964 
2432	 0.255906302017053 
2433	 0.255571788747138 
2434	 0.255169716955094 
2435	 0.254607644076476 
2436	 0.254242454507198 
2437	 0.253913085755055 
2438	 0.253437995364061 
2439	 0.252995619665067 
2440	 0.252486477680626 
2441	 0.251781197224471 
2442	 0.251127943153068 
2443	 0.250578822630561 
2444	 0.250111518724859 
2445	 0.24968963482882 
2446	 0.249089762640683 
2447	 0.248360167710965 
2448	 0.247485151613183 
2449	 0.246429106456095 
2450	 0.245540316140099 
2451	 0.244718682228923 
2452	 0.243877454993432 
2453	 0.243173490450476 
2454	 0.242363508700132 
2455	 0.241548859843047 
2456	 0.240946773725114 
2457	 0.240277538258497 
2458	 0.23964176405639 
2459	 0.239212355799526 
2460	 0.23852387644239 
2461	 0.237732483391922 
2462	 0.237111260923867 
2463	 0.236374716887706 
2464	 0.235749515795415 
2465	 0.235316358917676 
2466	 0.234814921832608 
2467	 0.234285661958331 
2468	 0.233817721349143 
2469	 0.233576081403687 
2470	 0.233452844261792 
2471	 0.233171012453365 
2472	 0.232851301383362 
2473	 0.232513129252251 
2474	 0.232057446874995 
2475	 0.231667687450386 
2476	 0.231453850447061 
2477	 0.231230893908992 
2478	 0.230921070707664 
2479	 0.230690710028687 
2480	 0.230383510727718 
2481	 0.2300295899863 
2482	 0.229701590713629 
2483	 0.229455256958795 
2484	 0.229169605648529 
2485	 0.229264335458855 
2486	 0.229538352112336 
2487	 0.229574325795202 
2488	 0.229453496669992 
2489	 0.22923753555102 
2490	 0.228750240845104 
2491	 0.228417740734952 
2492	 0.228439367285961 
2493	 0.22863200328915 
2494	 0.228907976965936 
2495	 0.22912445596382 
2496	 0.229405919540595 
2497	 0.229660402248657 
2498	 0.229689307754071 
2499	 0.230101939958869 
2500	 0.230773776235018 
