Wavelength	spectrum00016.asd
350	 6.75489436523067E-02 
351	 6.30771248845943E-02 
352	 5.89928392965711E-02 
353	 5.80994658103902E-02 
354	 5.74027089741743E-02 
355	 5.59389615207367E-02 
356	 0.054098565086092 
357	 5.24912028022787E-02 
358	 0.051274114830731 
359	 4.96341248588779E-02 
360	 4.82615519980392E-02 
361	 4.82972385078196E-02 
362	 4.80539870019946E-02 
363	 4.73162519061467E-02 
364	 4.58481592372042E-02 
365	 0.043099059883106 
366	 4.39172938716548E-02 
367	 4.58449447219693E-02 
368	 4.56602820815765E-02 
369	 4.36884304701711E-02 
370	 4.28085121530842E-02 
371	 4.32583476784044E-02 
372	 4.36209687617391E-02 
373	 4.31641818693182E-02 
374	 4.23697530018203E-02 
375	 4.20252843550275E-02 
376	 4.31521362646103E-02 
377	 4.22203316752634E-02 
378	 4.08833866424496E-02 
379	 0.041071616204204 
380	 4.06023696074394E-02 
381	 0.040475996983727 
382	 4.02474237178079E-02 
383	 3.88909539240023E-02 
384	 3.86796856153636E-02 
385	 3.91768303910799E-02 
386	 3.94506185869201E-02 
387	 3.83275564693068E-02 
388	 3.79973126242454E-02 
389	 3.78451113348965E-02 
390	 3.70293424280079E-02 
391	 3.69336459993915E-02 
392	 0.03654991081001 
393	 3.62063753288758E-02 
394	 0.03686688636553 
395	 3.60246735999489E-02 
396	 3.53178763870442E-02 
397	 3.55238231595839E-02 
398	 0.035141493145383 
399	 3.46798642847285E-02 
400	 3.43019275966495E-02 
401	 3.40465777379597E-02 
402	 3.37450519666702E-02 
403	 3.38550024320295E-02 
404	 3.39108096726406E-02 
405	 3.29277579769801E-02 
406	 3.26788981165814E-02 
407	 3.27499603333155E-02 
408	 3.26303801493807E-02 
409	 3.22867859303369E-02 
410	 3.16892915770924E-02 
411	 3.13575884461553E-02 
412	 3.16883873135142E-02 
413	 3.16579877817546E-02 
414	 3.11434972226521E-02 
415	 3.05502263424682E-02 
416	 3.06413632737115E-02 
417	 3.07416204764993E-02 
418	 0.030592146336166 
419	 3.01854618484896E-02 
420	 2.98379248563555E-02 
421	 2.97815338881047E-02 
422	 2.99179430079569E-02 
423	 2.99796811401359E-02 
424	 2.96800923156245E-02 
425	 0.029466251046598 
426	 2.94545176657524E-02 
427	 2.93244945149261E-02 
428	 2.90462639472475E-02 
429	 2.89221993334071E-02 
430	 2.90873269539427E-02 
431	 2.89325335812778E-02 
432	 2.89184826002794E-02 
433	 2.89585214039661E-02 
434	 2.87298376766793E-02 
435	 2.88079762356385E-02 
436	 2.88854682345499E-02 
437	 2.87521590501813E-02 
438	 2.84830331379195E-02 
439	 2.85017136803704E-02 
440	 2.86468115115107E-02 
441	 2.86374470212848E-02 
442	 2.85029759232439E-02 
443	 2.84911151987931E-02 
444	 2.85633695962088E-02 
445	 2.84692408325805E-02 
446	 0.028498954515307 
447	 2.84906505033367E-02 
448	 2.83816050558464E-02 
449	 2.84941824217255E-02 
450	 2.86276286411992E-02 
451	 2.86061984813323E-02 
452	 2.83538301370755E-02 
453	 2.83036900307778E-02 
454	 2.84418734469243E-02 
455	 2.85898616342016E-02 
456	 2.84429276518543E-02 
457	 2.84659270867341E-02 
458	 2.85532219400881E-02 
459	 2.85699304368248E-02 
460	 2.87170099290489E-02 
461	 2.87369144557737E-02 
462	 0.028662951636532 
463	 2.86749619052885E-02 
464	 0.028645944894293 
465	 2.87072666145717E-02 
466	 2.88345121687857E-02 
467	 2.87176783628618E-02 
468	 2.87142631002506E-02 
469	 2.88064148707424E-02 
470	 2.88954616378602E-02 
471	 0.029069178138209 
472	 2.90945557800765E-02 
473	 2.90113021155009E-02 
474	 2.90714490961279E-02 
475	 2.91751103599712E-02 
476	 2.92542888418968E-02 
477	 2.92811784079476E-02 
478	 2.92982417678756E-02 
479	 2.93716625985647E-02 
480	 2.94705014272263E-02 
481	 2.95311113840479E-02 
482	 2.95675134242231E-02 
483	 2.96385966065542E-02 
484	 2.97742802155074E-02 
485	 2.99660384507109E-02 
486	 3.01368803666485E-02 
487	 3.02891678515217E-02 
488	 3.04286265429134E-02 
489	 3.04853656033971E-02 
490	 3.06485733121268E-02 
491	 3.09084741674252E-02 
492	 3.11385629378276E-02 
493	 3.13537786835033E-02 
494	 3.15669063343648E-02 
495	 3.18114168051025E-02 
496	 3.21579535522618E-02 
497	 3.24523328623176E-02 
498	 0.032766204997214 
499	 3.32057479527142E-02 
500	 3.37047052821338E-02 
501	 3.41360385234889E-02 
502	 3.45377130573285E-02 
503	 3.50872239223709E-02 
504	 3.57371699929361E-02 
505	 3.63861609329504E-02 
506	 3.70180551950913E-02 
507	 3.78614024305026E-02 
508	 3.86449579342202E-02 
509	 3.94405724561667E-02 
510	 4.04303717299351E-02 
511	 4.14075500533123E-02 
512	 4.24371570914633E-02 
513	 4.35596368609683E-02 
514	 4.47585254313503E-02 
515	 4.59352632147994E-02 
516	 4.71696738593062E-02 
517	 4.85335085906961E-02 
518	 4.98911137238528E-02 
519	 5.13314587805198E-02 
520	 5.28734756929325E-02 
521	 5.44790901442516E-02 
522	 5.60858253070928E-02 
523	 5.77126860943105E-02 
524	 5.93950757834672E-02 
525	 6.11862242719816E-02 
526	 6.29663255787609E-02 
527	 6.47783939973974E-02 
528	 6.67014786392239E-02 
529	 6.86551364574287E-02 
530	 7.05823059273122E-02 
531	 7.25357290011296E-02 
532	 7.46713234844026E-02 
533	 7.67597708032951E-02 
534	 7.88269993744264E-02 
535	 8.09423697363135E-02 
536	 8.31358867833664E-02 
537	 8.53651668061546E-02 
538	 8.75781243923762E-02 
539	 8.97416657435645E-02 
540	 9.20029993976199E-02 
541	 9.42890420677875E-02 
542	 9.65403877163836E-02 
543	 9.87570805909288E-02 
544	 0.100995972694538 
545	 0.103240496306832 
546	 0.105463287907734 
547	 0.107715671678929 
548	 0.10996468814397 
549	 0.112187779464152 
550	 0.114379749454095 
551	 0.116631344987692 
552	 0.118898354299585 
553	 0.121140801105363 
554	 0.12338904243777 
555	 0.125631912778369 
556	 0.127890058945138 
557	 0.13018775172348 
558	 0.132487712800393 
559	 0.134748746956319 
560	 0.136954028498438 
561	 0.139123063626385 
562	 0.141245513368493 
563	 0.143340941829885 
564	 0.145428677623732 
565	 0.147491437109044 
566	 0.149551831308023 
567	 0.151622869889029 
568	 0.153705235993928 
569	 0.155764226176325 
570	 0.15775422198029 
571	 0.159687934770511 
572	 0.161696594443843 
573	 0.163716058174168 
574	 0.165724683988108 
575	 0.167713002630585 
576	 0.169657060651352 
577	 0.171526434686197 
578	 0.173361729947634 
579	 0.175275867126173 
580	 0.177177454485137 
581	 0.179042644266284 
582	 0.180883451967244 
583	 0.182762012831079 
584	 0.184656419458264 
585	 0.186556461532599 
586	 0.188463613293535 
587	 0.190381791197531 
588	 0.192340485951389 
589	 0.194320037462609 
590	 0.196218683296972 
591	 0.198091575791823 
592	 0.19994255051437 
593	 0.20173864347932 
594	 0.203352883548106 
595	 0.20499003028906 
596	 0.206688040465728 
597	 0.208329996856397 
598	 0.210050420965216 
599	 0.211809848905053 
600	 0.213561884890525 
601	 0.215310102776444 
602	 0.217075473506975 
603	 0.218874217624804 
604	 0.220701319422683 
605	 0.222456148605097 
606	 0.224222572237911 
607	 0.226028349494726 
608	 0.227808190561543 
609	 0.229554998205128 
610	 0.231289151219496 
611	 0.233028886206435 
612	 0.234734892418942 
613	 0.236440877505641 
614	 0.23813607522396 
615	 0.23978783085073 
616	 0.241411773424739 
617	 0.243073905774255 
618	 0.244786556476565 
619	 0.246465691048691 
620	 0.248093502970753 
621	 0.249717268221085 
622	 0.251378998210214 
623	 0.252959427924162 
624	 0.254544129813462 
625	 0.256135896140456 
626	 0.257659480666365 
627	 0.259199169894213 
628	 0.260723546188273 
629	 0.262212752689312 
630	 0.263737705642349 
631	 0.265164315218322 
632	 0.266531124705236 
633	 0.267944092470546 
634	 0.269401172002212 
635	 0.27077120463146 
636	 0.272039620253605 
637	 0.273342978428052 
638	 0.274614546540235 
639	 0.275851349405315 
640	 0.277052313519814 
641	 0.278168689899107 
642	 0.27928661521784 
643	 0.280437431441857 
644	 0.28160069158161 
645	 0.282624773031174 
646	 0.283613524304116 
647	 0.284639577048392 
648	 0.285672062164653 
649	 0.2866906663236 
650	 0.287690435189096 
651	 0.288670975199994 
652	 0.289613141359272 
653	 0.290628420389569 
654	 0.291692550221179 
655	 0.292677699305547 
656	 0.293685398378192 
657	 0.294758655422869 
658	 0.295889374821279 
659	 0.296972895478929 
660	 0.298211470624017 
661	 0.299497999337984 
662	 0.300654086331143 
663	 0.301811489196017 
664	 0.303052087554655 
665	 0.304385651941269 
666	 0.305747300601564 
667	 0.307059625215865 
668	 0.308414435626774 
669	 0.309873536637778 
670	 0.311339325877083 
671	 0.312792470458966 
672	 0.31424435596621 
673	 0.315727112035778 
674	 0.317265373047132 
675	 0.318781060415692 
676	 0.320273924852599 
677	 0.321844208197176 
678	 0.323396442857614 
679	 0.324953807224021 
680	 0.326537298525133 
681	 0.328080677191716 
682	 0.329590717929346 
683	 0.331096732993884 
684	 0.332636086646011 
685	 0.33419820559985 
686	 0.335714648486192 
687	 0.337198071655033 
688	 0.338783838345568 
689	 0.340342225806661 
690	 0.341822076039406 
691	 0.343251134542403 
692	 0.344854798613008 
693	 0.346336210823866 
694	 0.347723409351436 
695	 0.349233206163261 
696	 0.350741655270926 
697	 0.352163961751452 
698	 0.353540390420483 
699	 0.355105967041813 
700	 0.356519395453316 
701	 0.357863483749289 
702	 0.35928830726318 
703	 0.360692904004755 
704	 0.362104569511623 
705	 0.363466372566061 
706	 0.364697865095646 
707	 0.366114068012721 
708	 0.367548535745182 
709	 0.368899948662105 
710	 0.370291068147472 
711	 0.371535991842933 
712	 0.372776188111387 
713	 0.374158505157488 
714	 0.375439422489377 
715	 0.376708120185963 
716	 0.377988758702914 
717	 0.379252549474591 
718	 0.380504779731811 
719	 0.381773609455529 
720	 0.383052798485869 
721	 0.384274239705894 
722	 0.385417257211389 
723	 0.38657861040913 
724	 0.387826839634517 
725	 0.388977035455612 
726	 0.39007717641489 
727	 0.391207232318183 
728	 0.39243987739114 
729	 0.393560848265891 
730	 0.394664020466295 
731	 0.395808382571507 
732	 0.396926542324536 
733	 0.398003644155219 
734	 0.399062407866801 
735	 0.400132771389844 
736	 0.401218273816017 
737	 0.402267302712997 
738	 0.403278636499845 
739	 0.404286014562142 
740	 0.405305655296242 
741	 0.406356968342544 
742	 0.407399782496859 
743	 0.408308295118339 
744	 0.409341475209077 
745	 0.410379137971772 
746	 0.411285706224659 
747	 0.412241265031605 
748	 0.413182158297701 
749	 0.414118694235103 
750	 0.415091945304894 
751	 0.416040108556901 
752	 0.416922043391053 
753	 0.417737659478439 
754	 0.418535268278084 
755	 0.419427655311686 
756	 0.420313835127863 
757	 0.42112256143787 
758	 0.422025290094805 
759	 0.422889834360607 
760	 0.423726035147189 
761	 0.424591374221984 
762	 0.425379922878655 
763	 0.426198072133376 
764	 0.427059908151405 
765	 0.42786964774424 
766	 0.428637914244068 
767	 0.429402309626837 
768	 0.430180849504287 
769	 0.430925255849811 
770	 0.431718581910163 
771	 0.432513291447315 
772	 0.433242156932703 
773	 0.433996980137873 
774	 0.434762287636082 
775	 0.435534896470725 
776	 0.43631499395947 
777	 0.436980106012049 
778	 0.437630202744995 
779	 0.438331826346974 
780	 0.439034650198605 
781	 0.439797177514403 
782	 0.440549667007357 
783	 0.441213549628349 
784	 0.441801559777432 
785	 0.442458352321334 
786	 0.443167987738371 
787	 0.443829985603983 
788	 0.444499209739915 
789	 0.445190433224974 
790	 0.445860028402436 
791	 0.446411387082089 
792	 0.447044884240199 
793	 0.447759875373687 
794	 0.448471979130205 
795	 0.449002438770901 
796	 0.44952804198499 
797	 0.450134317777885 
798	 0.450824368030725 
799	 0.451399897612581 
800	 0.451951567535094 
801	 0.452516855526606 
802	 0.453079853432819 
803	 0.45362686347084 
804	 0.45417879205296 
805	 0.454753287609529 
806	 0.455355858232673 
807	 0.455917812814294 
808	 0.45646296013071 
809	 0.457018848669736 
810	 0.457544697907018 
811	 0.458081942846489 
812	 0.458598459547399 
813	 0.459065251775034 
814	 0.459669887693458 
815	 0.460215409731306 
816	 0.46068441873003 
817	 0.461226195400592 
818	 0.461731699525553 
819	 0.462244302533679 
820	 0.462753090274046 
821	 0.463123458213745 
822	 0.46360902689935 
823	 0.464130158490607 
824	 0.464586212662008 
825	 0.465107666622153 
826	 0.465669744502261 
827	 0.466210240841997 
828	 0.466666343826771 
829	 0.467077826774809 
830	 0.467544350149974 
831	 0.468071352121696 
832	 0.468579092505504 
833	 0.469058860145815 
834	 0.469555880908897 
835	 0.470043541713526 
836	 0.470377143445459 
837	 0.470795451219593 
838	 0.471256072694195 
839	 0.47168792302592 
840	 0.472160843900121 
841	 0.472565507965538 
842	 0.472994928359729 
843	 0.47355389542652 
844	 0.473987939648055 
845	 0.474324899252759 
846	 0.474683651438781 
847	 0.475193854327144 
848	 0.475560767774487 
849	 0.475887109768491 
850	 0.476261370458215 
851	 0.476687952540353 
852	 0.477140641626465 
853	 0.477530145548653 
854	 0.477845392471049 
855	 0.478262699047818 
856	 0.478658366903305 
857	 0.479029479892868 
858	 0.479405385598904 
859	 0.479789650831964 
860	 0.480199645648341 
861	 0.480609970158249 
862	 0.480979429325812 
863	 0.481321616879344 
864	 0.481668955099082 
865	 0.482006890970341 
866	 0.482296691495907 
867	 0.482698948316226 
868	 0.483060277602561 
869	 0.483361411761096 
870	 0.483812978245181 
871	 0.484149093230541 
872	 0.484428020230085 
873	 0.484739210167243 
874	 0.485074517419609 
875	 0.48543828770668 
876	 0.485779958441756 
877	 0.486067727394202 
878	 0.486384763244613 
879	 0.486771069975162 
880	 0.487133074262122 
881	 0.487376087376852 
882	 0.487772086917871 
883	 0.488172344048651 
884	 0.488498364027877 
885	 0.488754550371917 
886	 0.488963886217569 
887	 0.489224170056273 
888	 0.489546654419093 
889	 0.489839096229501 
890	 0.490156650978765 
891	 0.490394989913988 
892	 0.490551241555138 
893	 0.490830502311185 
894	 0.491140775059613 
895	 0.491428318241959 
896	 0.491664747896075 
897	 0.491860055387322 
898	 0.492091817714806 
899	 0.492356501002429 
900	 0.492610306378471 
901	 0.492790113308131 
902	 0.492944322286949 
903	 0.49310866598131 
904	 0.493309819099524 
905	 0.493576309626915 
906	 0.493828946811784 
907	 0.494017282151285 
908	 0.494137757542813 
909	 0.494297722807683 
910	 0.494491276780281 
911	 0.494714239423814 
912	 0.494968032790532 
913	 0.49515373604664 
914	 0.495333230223086 
915	 0.495565481065444 
916	 0.495861185982867 
917	 0.496055946878568 
918	 0.496284998564389 
919	 0.496618407681402 
920	 0.49689173911388 
921	 0.497186682765752 
922	 0.49745887514053 
923	 0.497662021494075 
924	 0.4978085565212 
925	 0.498096878944683 
926	 0.498475440742461 
927	 0.498839867731041 
928	 0.499246315907953 
929	 0.49951720089112 
930	 0.499749122316292 
931	 0.500084121395893 
932	 0.500294071020134 
933	 0.50065407804384 
934	 0.5011588104245 
935	 0.501642850713521 
936	 0.502048619399108 
937	 0.50250021954197 
938	 0.502952295066823 
939	 0.50327654533386 
940	 0.50367572205939 
941	 0.504067434828169 
942	 0.504425674780156 
943	 0.504790303383513 
944	 0.505127480819162 
945	 0.505514716190591 
946	 0.505931773728068 
947	 0.506249697599497 
948	 0.506435599019059 
949	 0.50657609226054 
950	 0.506786580718938 
951	 0.507160187055723 
952	 0.507391550240537 
953	 0.507557857926071 
954	 0.507729627040007 
955	 0.507861752006774 
956	 0.508031047050354 
957	 0.50825163139861 
958	 0.508500741496029 
959	 0.508722588638659 
960	 0.508899317337538 
961	 0.509034539294078 
962	 0.509140679584639 
963	 0.509229782967727 
964	 0.509347374295845 
965	 0.509481558754435 
966	 0.509632463084531 
967	 0.509867716037587 
968	 0.510022997096748 
969	 0.510191872695343 
970	 0.510444201954117 
971	 0.510601507934059 
972	 0.510688148908666 
973	 0.510774529860813 
974	 0.510926964231022 
975	 0.511147699073656 
976	 0.511379518401247 
977	 0.511649208513101 
978	 0.511951387207355 
979	 0.512093539948556 
980	 0.512312660530253 
981	 0.512495145369875 
982	 0.512545346237973 
983	 0.512820491384676 
984	 0.513016733740496 
985	 0.513221343522233 
986	 0.513547541795383 
987	 0.513724873089973 
988	 0.513880726517496 
989	 0.514102141093836 
990	 0.514407704967557 
991	 0.514657583198201 
992	 0.514799814313645 
993	 0.514976363451551 
994	 0.515310057031964 
995	 0.515612221439875 
996	 0.515875505819797 
997	 0.516040099020875 
998	 0.516136400075237 
999	 0.516527541415428 
1000	 0.516713703531473 
1001	 0.524987312063776 
1002	 0.525232328501896 
1003	 0.525465813493388 
1004	 0.525691071707255 
1005	 0.525893527007854 
1006	 0.52610612374238 
1007	 0.526312029301641 
1008	 0.526536798579143 
1009	 0.5267639497092 
1010	 0.526998673748364 
1011	 0.527261120234968 
1012	 0.527481895967453 
1013	 0.527663169898837 
1014	 0.527884614716387 
1015	 0.528080596636234 
1016	 0.528347207225281 
1017	 0.528635832490161 
1018	 0.528905292948401 
1019	 0.529165310884233 
1020	 0.529358252062289 
1021	 0.529570626659489 
1022	 0.529764496251717 
1023	 0.529981000922386 
1024	 0.53021848977855 
1025	 0.530427827273238 
1026	 0.530616499439847 
1027	 0.530807904761554 
1028	 0.530973610765455 
1029	 0.531179998216319 
1030	 0.531392470195163 
1031	 0.531606866047301 
1032	 0.531810640217987 
1033	 0.531982321739514 
1034	 0.532150733163327 
1035	 0.532354335586679 
1036	 0.532553312098843 
1037	 0.53277611773714 
1038	 0.532971198683629 
1039	 0.533135789190303 
1040	 0.533330437260977 
1041	 0.533530391397183 
1042	 0.533736256788259 
1043	 0.533943414320335 
1044	 0.534204872993536 
1045	 0.534452394133519 
1046	 0.534677022532797 
1047	 0.534913706741182 
1048	 0.535124960081794 
1049	 0.535318566258863 
1050	 0.535509424133986 
1051	 0.53576042534267 
1052	 0.536042441735069 
1053	 0.536310090139857 
1054	 0.536598178434218 
1055	 0.536908614891314 
1056	 0.537236647037246 
1057	 0.537515737448337 
1058	 0.537797678546987 
1059	 0.538074546965023 
1060	 0.538292950164193 
1061	 0.538509141874314 
1062	 0.538804315168585 
1063	 0.539111376440503 
1064	 0.539400211965949 
1065	 0.539730542178813 
1066	 0.540045227422949 
1067	 0.540307390174133 
1068	 0.540603963418287 
1069	 0.540900772568682 
1070	 0.541189882779637 
1071	 0.541472144246244 
1072	 0.54177538875272 
1073	 0.542058016101091 
1074	 0.542315375627705 
1075	 0.542568074031386 
1076	 0.542856253175163 
1077	 0.543132845492757 
1078	 0.543400934350363 
1079	 0.54370271999993 
1080	 0.543962777635481 
1081	 0.544202480553492 
1082	 0.544454306025314 
1083	 0.544688379285512 
1084	 0.54493422007495 
1085	 0.545182734041388 
1086	 0.545423706048314 
1087	 0.545668395166963 
1088	 0.545907944166084 
1089	 0.546129123099324 
1090	 0.546339205079778 
1091	 0.546549094832179 
1092	 0.546765363867672 
1093	 0.546958205276948 
1094	 0.547152730747864 
1095	 0.547355622808472 
1096	 0.547522439528735 
1097	 0.547668342002939 
1098	 0.547818601266643 
1099	 0.547965693592303 
1100	 0.548102453913998 
1101	 0.548247784417233 
1102	 0.548376546074162 
1103	 0.548489278622216 
1104	 0.548576121221221 
1105	 0.548672637462315 
1106	 0.548771449572165 
1107	 0.548858001976562 
1108	 0.548935308720427 
1109	 0.549005359940034 
1110	 0.549065052177212 
1111	 0.549126575970217 
1112	 0.549191183557348 
1113	 0.549233059556249 
1114	 0.549263407509219 
1115	 0.549296239361599 
1116	 0.549310960813273 
1117	 0.549317998541873 
1118	 0.54931454959448 
1119	 0.549298317486782 
1120	 0.549269582925202 
1121	 0.549236637970917 
1122	 0.549181743399622 
1123	 0.549100823104907 
1124	 0.54899755565699 
1125	 0.548862528955506 
1126	 0.548715966957243 
1127	 0.548566797918569 
1128	 0.548394186580547 
1129	 0.548206327934953 
1130	 0.547997436688755 
1131	 0.54776351466982 
1132	 0.547504436865523 
1133	 0.547220659736734 
1134	 0.546926918276933 
1135	 0.546598094527381 
1136	 0.546235283867999 
1137	 0.545857534972533 
1138	 0.545461168664796 
1139	 0.545033227973693 
1140	 0.544570620679309 
1141	 0.544120965180609 
1142	 0.54363814189089 
1143	 0.543129736666381 
1144	 0.54261181933769 
1145	 0.542025926407044 
1146	 0.541433890369402 
1147	 0.540805873174046 
1148	 0.540144575029029 
1149	 0.539533050015803 
1150	 0.538905700078905 
1151	 0.538284427207771 
1152	 0.537634068006062 
1153	 0.536964902954996 
1154	 0.53629293038147 
1155	 0.535607747489039 
1156	 0.534903359939154 
1157	 0.534214307286823 
1158	 0.533495815662412 
1159	 0.532736452517954 
1160	 0.531966171577457 
1161	 0.531225555087736 
1162	 0.530462479502689 
1163	 0.529726677621837 
1164	 0.528982117959911 
1165	 0.52821256712571 
1166	 0.52747527029755 
1167	 0.526747488237362 
1168	 0.526030033348613 
1169	 0.525299679292581 
1170	 0.52458792019239 
1171	 0.523835195966178 
1172	 0.523065812033848 
1173	 0.522264646068531 
1174	 0.52143791972522 
1175	 0.520608717375215 
1176	 0.519757219249428 
1177	 0.518894922684777 
1178	 0.518037869270054 
1179	 0.517116716219921 
1180	 0.516239900474531 
1181	 0.515353094154274 
1182	 0.514437396454906 
1183	 0.51359307749916 
1184	 0.51270833660247 
1185	 0.511826159496474 
1186	 0.511005421264406 
1187	 0.510213792640241 
1188	 0.509463306337775 
1189	 0.508749830611459 
1190	 0.508077808638552 
1191	 0.507447770318106 
1192	 0.506860994342852 
1193	 0.50631753255542 
1194	 0.505809237376449 
1195	 0.505334720899176 
1196	 0.504895238373858 
1197	 0.504494418503556 
1198	 0.504122689297441 
1199	 0.503772457114046 
1200	 0.503516422799944 
1201	 0.503303014929898 
1202	 0.503121679103971 
1203	 0.502987893106828 
1204	 0.502898360507031 
1205	 0.502922972345318 
1206	 0.50298949014328 
1207	 0.503208482995933 
1208	 0.503543897236455 
1209	 0.503990340695889 
1210	 0.504525277718824 
1211	 0.505211963219511 
1212	 0.506032451209304 
1213	 0.506980174022933 
1214	 0.508076007865205 
1215	 0.509276919366423 
1216	 0.510646031586566 
1217	 0.512034890485406 
1218	 0.513530213193504 
1219	 0.515067054618798 
1220	 0.516627506101874 
1221	 0.518285814362321 
1222	 0.519892662730223 
1223	 0.521530583941586 
1224	 0.523110651016701 
1225	 0.524672588768926 
1226	 0.526144263173313 
1227	 0.527592188587825 
1228	 0.528950785802083 
1229	 0.530242171140495 
1230	 0.531448956602551 
1231	 0.532575734695912 
1232	 0.533652548693256 
1233	 0.534634853595928 
1234	 0.535569896245283 
1235	 0.536459925050568 
1236	 0.537295624188269 
1237	 0.538052076111452 
1238	 0.53878102008721 
1239	 0.539474076101912 
1240	 0.540112813892604 
1241	 0.540723696535491 
1242	 0.541286155242203 
1243	 0.541806469241118 
1244	 0.542270502463936 
1245	 0.542742316258692 
1246	 0.543179620382117 
1247	 0.54360662122208 
1248	 0.544039197329692 
1249	 0.544425437938899 
1250	 0.544771301784975 
1251	 0.545102452641144 
1252	 0.545401125093772 
1253	 0.545699722773134 
1254	 0.54599001569864 
1255	 0.546254135438771 
1256	 0.546511194920989 
1257	 0.546740471732926 
1258	 0.546930485938717 
1259	 0.547116000537495 
1260	 0.547267891693622 
1261	 0.547436471822961 
1262	 0.547598590611333 
1263	 0.547776553039766 
1264	 0.54793877573233 
1265	 0.54811494203731 
1266	 0.548258291362471 
1267	 0.548371076249699 
1268	 0.548503692419651 
1269	 0.548612353266141 
1270	 0.548769582582553 
1271	 0.548959231268801 
1272	 0.549136552652284 
1273	 0.549338982970315 
1274	 0.549527708434412 
1275	 0.54970586204822 
1276	 0.549884854835983 
1277	 0.550064573514905 
1278	 0.550244836824075 
1279	 0.550424960275261 
1280	 0.550597533681934 
1281	 0.55077101763869 
1282	 0.550939654284598 
1283	 0.551082766642693 
1284	 0.551246941005595 
1285	 0.551419688209985 
1286	 0.551604364871902 
1287	 0.551774618185964 
1288	 0.551947470642379 
1289	 0.552127031127196 
1290	 0.552305151446807 
1291	 0.552472579965842 
1292	 0.552646837058848 
1293	 0.552813833394112 
1294	 0.552962032445607 
1295	 0.553117759609918 
1296	 0.553292942876281 
1297	 0.553438540229078 
1298	 0.553575336467392 
1299	 0.553690183603735 
1300	 0.553772705206956 
1301	 0.553869097495623 
1302	 0.553955783883724 
1303	 0.554041808143693 
1304	 0.554148166537705 
1305	 0.554225974524101 
1306	 0.554293735030562 
1307	 0.554339176276909 
1308	 0.554361393735252 
1309	 0.554371212579291 
1310	 0.554369908623219 
1311	 0.554359008270784 
1312	 0.55431430178463 
1313	 0.554249065035712 
1314	 0.554175810893957 
1315	 0.554075578893527 
1316	 0.553970014330145 
1317	 0.553862563333345 
1318	 0.553736307529741 
1319	 0.553584637104172 
1320	 0.553436222223393 
1321	 0.553287682024999 
1322	 0.55312198159405 
1323	 0.55296391865296 
1324	 0.552760507208955 
1325	 0.552538299971277 
1326	 0.552282707103832 
1327	 0.551980772158109 
1328	 0.551674760000145 
1329	 0.551346245812899 
1330	 0.551009142804355 
1331	 0.550672056989436 
1332	 0.550303681458365 
1333	 0.549922357519364 
1334	 0.549508407178884 
1335	 0.549077698043083 
1336	 0.548631859259359 
1337	 0.548130752165926 
1338	 0.547596256030648 
1339	 0.547046464271333 
1340	 0.546456139096012 
1341	 0.545850414838525 
1342	 0.545242165769275 
1343	 0.544582287459659 
1344	 0.543889123440552 
1345	 0.543151987788669 
1346	 0.54237734530097 
1347	 0.541575906229214 
1348	 0.540724860959507 
1349	 0.539865068666586 
1350	 0.538968991289962 
1351	 0.538077664730645 
1352	 0.537179822660828 
1353	 0.536256685859957 
1354	 0.535317845699084 
1355	 0.534377099071132 
1356	 0.533415819316179 
1357	 0.532446534118487 
1358	 0.531473395981295 
1359	 0.530490670759775 
1360	 0.529515971965522 
1361	 0.528501849347288 
1362	 0.527431037234261 
1363	 0.526390948727884 
1364	 0.525276388770715 
1365	 0.52412497142312 
1366	 0.522901772227724 
1367	 0.521653954440379 
1368	 0.52030550914419 
1369	 0.518881167229955 
1370	 0.517379938734929 
1371	 0.515799444282288 
1372	 0.514182549545019 
1373	 0.512503530677524 
1374	 0.510754674969663 
1375	 0.508937070114796 
1376	 0.507073284801898 
1377	 0.505134421219364 
1378	 0.503136371257141 
1379	 0.501081787190496 
1380	 0.498991654356956 
1381	 0.496825652618066 
1382	 0.494635915743411 
1383	 0.492381850123296 
1384	 0.490161293321723 
1385	 0.487915440866235 
1386	 0.485696760966086 
1387	 0.483486570993465 
1388	 0.481344689184081 
1389	 0.479218873186262 
1390	 0.477140697157037 
1391	 0.475188639731369 
1392	 0.473141008723107 
1393	 0.471191663645133 
1394	 0.469204152817667 
1395	 0.467162551316455 
1396	 0.465133595629939 
1397	 0.462998113056773 
1398	 0.460821907357323 
1399	 0.458495719516849 
1400	 0.456071830345519 
1401	 0.453566995817554 
1402	 0.450921676374659 
1403	 0.448252760879939 
1404	 0.445508996521238 
1405	 0.442778324524224 
1406	 0.439966364899335 
1407	 0.437204815031085 
1408	 0.434394600664845 
1409	 0.431710580839113 
1410	 0.429015110336627 
1411	 0.426490569998226 
1412	 0.424052030402754 
1413	 0.421805577752361 
1414	 0.419690179779912 
1415	 0.41772708475414 
1416	 0.41593137504407 
1417	 0.414264234567454 
1418	 0.412772112621526 
1419	 0.411340913333019 
1420	 0.410050806057559 
1421	 0.408831310382962 
1422	 0.407678223752237 
1423	 0.406607881263135 
1424	 0.405655933846474 
1425	 0.404727978690355 
1426	 0.403879503614031 
1427	 0.403122973844135 
1428	 0.402434501357992 
1429	 0.401862645685119 
1430	 0.401350548493653 
1431	 0.400923211789913 
1432	 0.400564196893436 
1433	 0.400278005269786 
1434	 0.400066706756029 
1435	 0.399934770609374 
1436	 0.399867486200322 
1437	 0.3998884942665 
1438	 0.399931968996715 
1439	 0.400036109004292 
1440	 0.400177100065052 
1441	 0.400356814806946 
1442	 0.400581078650409 
1443	 0.400857417701074 
1444	 0.40116881633835 
1445	 0.401526810230469 
1446	 0.401903831283177 
1447	 0.40231880597392 
1448	 0.402759040967363 
1449	 0.403231873179261 
1450	 0.40371878503112 
1451	 0.404250375457148 
1452	 0.404770074729765 
1453	 0.405306902642031 
1454	 0.405824106565123 
1455	 0.406323862753064 
1456	 0.406841646766615 
1457	 0.407361542726784 
1458	 0.407882315788651 
1459	 0.408414576734718 
1460	 0.408949919288403 
1461	 0.409462587400287 
1462	 0.410007629975988 
1463	 0.410564713402715 
1464	 0.411151249572916 
1465	 0.411761459727244 
1466	 0.41240813310752 
1467	 0.413044486493002 
1468	 0.413718147031055 
1469	 0.414407489038986 
1470	 0.415068162785755 
1471	 0.415740042994629 
1472	 0.416423965317978 
1473	 0.417094262880807 
1474	 0.417757117592751 
1475	 0.418418634565743 
1476	 0.419081269074069 
1477	 0.419736984476945 
1478	 0.420387458103737 
1479	 0.421020643993779 
1480	 0.421647456329447 
1481	 0.422264337481008 
1482	 0.422869798690027 
1483	 0.423461102917354 
1484	 0.424053463368961 
1485	 0.424612533639191 
1486	 0.425136505151517 
1487	 0.425664265926992 
1488	 0.426170333074477 
1489	 0.426683160611134 
1490	 0.427199798415788 
1491	 0.427706560754219 
1492	 0.428192647463336 
1493	 0.428706949483998 
1494	 0.429233951606124 
1495	 0.429749111310303 
1496	 0.430283235365321 
1497	 0.430798402544565 
1498	 0.431285438665451 
1499	 0.43179212706433 
1500	 0.432303822688998 
1501	 0.432818679166211 
1502	 0.433348204575793 
1503	 0.433861278758146 
1504	 0.434374782127719 
1505	 0.434874745915935 
1506	 0.435356445169015 
1507	 0.435842778889054 
1508	 0.436333174358855 
1509	 0.436805203614255 
1510	 0.437275600214991 
1511	 0.437725348636767 
1512	 0.438147199398928 
1513	 0.438568913169831 
1514	 0.438980706118211 
1515	 0.439387044640349 
1516	 0.439795291726071 
1517	 0.440185093055964 
1518	 0.440563501732895 
1519	 0.440927153648112 
1520	 0.441271556827902 
1521	 0.441603824463255 
1522	 0.441937603241425 
1523	 0.44227577877459 
1524	 0.442584530756518 
1525	 0.442889279555213 
1526	 0.443168188536109 
1527	 0.443406865081866 
1528	 0.443680025079973 
1529	 0.443954275890043 
1530	 0.444229735510518 
1531	 0.444515531032493 
1532	 0.444799653492244 
1533	 0.445076120923102 
1534	 0.445368409173311 
1535	 0.445680909368239 
1536	 0.445965924735316 
1537	 0.446252288547722 
1538	 0.446515724146496 
1539	 0.446758491329153 
1540	 0.446997397955972 
1541	 0.447225641511294 
1542	 0.447445732600266 
1543	 0.447654985601139 
1544	 0.447858030854355 
1545	 0.448055610546311 
1546	 0.448238401790906 
1547	 0.448417464008271 
1548	 0.448569814444394 
1549	 0.448703973589088 
1550	 0.448822167078203 
1551	 0.448913493889603 
1552	 0.449005984463315 
1553	 0.44908765585202 
1554	 0.449161518529526 
1555	 0.449211553367462 
1556	 0.449293127849692 
1557	 0.449369280910109 
1558	 0.449474820881666 
1559	 0.449625637443291 
1560	 0.449746626851398 
1561	 0.449861670882959 
1562	 0.449988549434905 
1563	 0.450097402264033 
1564	 0.450242009689373 
1565	 0.450419752649989 
1566	 0.45058847329989 
1567	 0.450765379884638 
1568	 0.450951865105265 
1569	 0.451139317985008 
1570	 0.451339057266685 
1571	 0.451552344677329 
1572	 0.451774527627334 
1573	 0.452016844841427 
1574	 0.452241845290214 
1575	 0.452476937273169 
1576	 0.452694505663933 
1577	 0.452889627505456 
1578	 0.453090263214863 
1579	 0.453292235656632 
1580	 0.453483044370937 
1581	 0.453667944449015 
1582	 0.4538470272872 
1583	 0.454009907856107 
1584	 0.45418327320975 
1585	 0.454361038408727 
1586	 0.454532232428272 
1587	 0.454697107094926 
1588	 0.454873950566503 
1589	 0.455048016383432 
1590	 0.455231613635368 
1591	 0.455449432901638 
1592	 0.455630103862029 
1593	 0.455787616073674 
1594	 0.455955820038582 
1595	 0.456105240830603 
1596	 0.456263972517822 
1597	 0.456445348260434 
1598	 0.456605674794937 
1599	 0.456747438920221 
1600	 0.45689961779314 
1601	 0.45705160840813 
1602	 0.457198658405764 
1603	 0.457361747328385 
1604	 0.457496411982354 
1605	 0.457610372599697 
1606	 0.457720435013075 
1607	 0.45781912637434 
1608	 0.45790370623907 
1609	 0.457979451849478 
1610	 0.458043058909196 
1611	 0.458089322646598 
1612	 0.458126887427101 
1613	 0.458154328919854 
1614	 0.458175027561297 
1615	 0.45819141688348 
1616	 0.458186038905548 
1617	 0.458176760240696 
1618	 0.458137245736818 
1619	 0.458064075626426 
1620	 0.457984774882754 
1621	 0.457886253300268 
1622	 0.457776047517925 
1623	 0.457648997746217 
1624	 0.457518571438664 
1625	 0.457378225901089 
1626	 0.457225781995357 
1627	 0.457061165635579 
1628	 0.456898898443958 
1629	 0.456732195038165 
1630	 0.456552791137165 
1631	 0.456365673682044 
1632	 0.456178254766716 
1633	 0.455978186002381 
1634	 0.455776984420982 
1635	 0.455590677123347 
1636	 0.45538110203107 
1637	 0.455164023079805 
1638	 0.454921337816973 
1639	 0.454660373142587 
1640	 0.454375816469316 
1641	 0.454080813767382 
1642	 0.453737395424145 
1643	 0.453338256301098 
1644	 0.452955248835633 
1645	 0.452559760198636 
1646	 0.45213408065469 
1647	 0.451704891336784 
1648	 0.451249094214947 
1649	 0.450750585969558 
1650	 0.450237444673526 
1651	 0.449729602651812 
1652	 0.449181444002783 
1653	 0.448583113558946 
1654	 0.447984622125642 
1655	 0.447375720438399 
1656	 0.446724828657776 
1657	 0.446092915557852 
1658	 0.445355702515658 
1659	 0.444553344310345 
1660	 0.443692650512851 
1661	 0.442764282047902 
1662	 0.441753294410314 
1663	 0.440678018573311 
1664	 0.439517986637176 
1665	 0.438281453857046 
1666	 0.436932331546386 
1667	 0.435497001267017 
1668	 0.433980201541743 
1669	 0.432354416164121 
1670	 0.430657739847632 
1671	 0.428880954506951 
1672	 0.427002059353566 
1673	 0.42504205491291 
1674	 0.422960051199523 
1675	 0.4207701647009 
1676	 0.418530582648071 
1677	 0.416187992777842 
1678	 0.4137769457071 
1679	 0.411266910721676 
1680	 0.40871964973378 
1681	 0.406110624069138 
1682	 0.403408381271176 
1683	 0.400656789161613 
1684	 0.397872504789194 
1685	 0.394991680849169 
1686	 0.392081798267508 
1687	 0.389107648612634 
1688	 0.386122073649936 
1689	 0.383087966828488 
1690	 0.380020177628799 
1691	 0.376964007206383 
1692	 0.373900680199754 
1693	 0.370802897407557 
1694	 0.367662237580373 
1695	 0.364494991644931 
1696	 0.361270364218455 
1697	 0.357974693282765 
1698	 0.3546467747857 
1699	 0.351277562859363 
1700	 0.348014076974013 
1701	 0.344691392196907 
1702	 0.341547447256877 
1703	 0.338466234529305 
1704	 0.335545466027788 
1705	 0.332714027535836 
1706	 0.330014559974038 
1707	 0.32767548655503 
1708	 0.325435570730474 
1709	 0.323335323177758 
1710	 0.321431732888382 
1711	 0.319520251718826 
1712	 0.317757996275775 
1713	 0.316062860846813 
1714	 0.314370970564199 
1715	 0.312847558590883 
1716	 0.311323025905737 
1717	 0.309862421997072 
1718	 0.308520182170953 
1719	 0.307191236393759 
1720	 0.306005913368242 
1721	 0.304976019296721 
1722	 0.304102365827024 
1723	 0.30350389846434 
1724	 0.3031453704426 
1725	 0.303018030063529 
1726	 0.303222707193626 
1727	 0.303767181636771 
1728	 0.304576780834135 
1729	 0.305712431144538 
1730	 0.307164349782348 
1731	 0.308705903406464 
1732	 0.310472697016083 
1733	 0.312319350898127 
1734	 0.314162295942997 
1735	 0.316066424998184 
1736	 0.317793343005446 
1737	 0.319367698658355 
1738	 0.320725944352496 
1739	 0.32179445366955 
1740	 0.322627651923751 
1741	 0.323232067662792 
1742	 0.323529670292808 
1743	 0.32370308662732 
1744	 0.323624944731827 
1745	 0.323492205671512 
1746	 0.323163291572698 
1747	 0.322868516340337 
1748	 0.32247569490418 
1749	 0.322144808920025 
1750	 0.321766991926435 
1751	 0.321504428019895 
1752	 0.321275812920253 
1753	 0.321180365019403 
1754	 0.321157955224398 
1755	 0.321314474458064 
1756	 0.321574885904558 
1757	 0.322015613384404 
1758	 0.322675065414663 
1759	 0.323487156131572 
1760	 0.324526651101326 
1761	 0.325833718093012 
1762	 0.327264092020697 
1763	 0.328894094027476 
1764	 0.330626052804022 
1765	 0.332444678618958 
1766	 0.334451589940214 
1767	 0.336459228757661 
1768	 0.338537200141552 
1769	 0.340631233161984 
1770	 0.342549543100161 
1771	 0.344435194136671 
1772	 0.346195526570815 
1773	 0.347785241101888 
1774	 0.349385012080426 
1775	 0.350857279516024 
1776	 0.352233553209703 
1777	 0.353538720364021 
1778	 0.35463258998497 
1779	 0.355633718884663 
1780	 0.356561347102478 
1781	 0.357363897579637 
1782	 0.358103658553544 
1783	 0.358751340920173 
1784	 0.359305084354717 
1785	 0.359754215669283 
1786	 0.360173911014407 
1787	 0.360516137902775 
1788	 0.360839198666379 
1789	 0.361121082542457 
1790	 0.361383103506319 
1791	 0.361605974695395 
1792	 0.361822097452656 
1793	 0.362006977432032 
1794	 0.362197223536564 
1795	 0.36237659874673 
1796	 0.362562398514033 
1797	 0.362786727991586 
1798	 0.363023687207425 
1799	 0.363255243085269 
1800	 0.363484461170127 
1801	 0.365256438460898 
1802	 0.365532203371632 
1803	 0.365806929871539 
1804	 0.366071721314501 
1805	 0.366344617712466 
1806	 0.366622045449084 
1807	 0.366918328789741 
1808	 0.367194447322746 
1809	 0.367456850122193 
1810	 0.367734582764061 
1811	 0.367994794783772 
1812	 0.368289131590357 
1813	 0.368592446387709 
1814	 0.368940453867648 
1815	 0.369283394235342 
1816	 0.369639115770456 
1817	 0.370011944391558 
1818	 0.370397156173578 
1819	 0.370782410953396 
1820	 0.371190397781761 
1821	 0.371593557526472 
1822	 0.371986241971042 
1823	 0.372405701979603 
1824	 0.372812220303755 
1825	 0.373236995698257 
1826	 0.373664486007729 
1827	 0.374097223367413 
1828	 0.374520433964731 
1829	 0.374954217258275 
1830	 0.375372674059036 
1831	 0.375771433646919 
1832	 0.376197961235869 
1833	 0.376593006275629 
1834	 0.376991203781633 
1835	 0.377400822251023 
1836	 0.377791170178907 
1837	 0.378213955084631 
1838	 0.378662133836621 
1839	 0.379101993376691 
1840	 0.379571930255897 
1841	 0.380009003573189 
1842	 0.380427979969088 
1843	 0.380857202121625 
1844	 0.381275700385866 
1845	 0.38163942374944 
1846	 0.382014896924824 
1847	 0.382360311652854 
1848	 0.382667874995409 
1849	 0.382946392687842 
1850	 0.383211517855872 
1851	 0.383456971497046 
1852	 0.383648807882762 
1853	 0.383856171457032 
1854	 0.384014895341244 
1855	 0.384085130372818 
1856	 0.384128327421014 
1857	 0.384115549199567 
1858	 0.38403016111987 
1859	 0.383906970002759 
1860	 0.383758663391106 
1861	 0.38353749701135 
1862	 0.383254340817289 
1863	 0.382920458031621 
1864	 0.382548399961446 
1865	 0.382115141549663 
1866	 0.381614684549647 
1867	 0.381014920375309 
1868	 0.38033526122395 
1869	 0.379551274470944 
1870	 0.378685193803513 
1871	 0.37775920934626 
1872	 0.376729529312803 
1873	 0.375603779588504 
1874	 0.374419345626937 
1875	 0.373137288981795 
1876	 0.371634555967652 
1877	 0.370087781231476 
1878	 0.368326542591442 
1879	 0.366337537661377 
1880	 0.364334031944696 
1881	 0.362085101808068 
1882	 0.359622224087918 
1883	 0.357013171054375 
1884	 0.354203769553759 
1885	 0.350990472200355 
1886	 0.347657462939307 
1887	 0.3440361762273 
1888	 0.340095691785777 
1889	 0.336261839930734 
1890	 0.332166928396432 
1891	 0.328002261297979 
1892	 0.323825680485612 
1893	 0.319485201436271 
1894	 0.314908816548978 
1895	 0.3104827495055 
1896	 0.30596542260817 
1897	 0.301446967136175 
1898	 0.297313693591674 
1899	 0.293111541753526 
1900	 0.289056594022445 
1901	 0.285213029455778 
1902	 0.281185044681405 
1903	 0.277417473267827 
1904	 0.273793693616776 
1905	 0.270255820620804 
1906	 0.266846440538744 
1907	 0.263873908285606 
1908	 0.260935757858834 
1909	 0.258170295425902 
1910	 0.255644623655476 
1911	 0.253079731261667 
1912	 0.250729704030034 
1913	 0.248509084542942 
1914	 0.246363568163057 
1915	 0.244426598324687 
1916	 0.242717215766168 
1917	 0.241057492783749 
1918	 0.239525099783647 
1919	 0.23813325565422 
1920	 0.236749699192739 
1921	 0.235511709628676 
1922	 0.234345903693382 
1923	 0.233260767154712 
1924	 0.232364829010568 
1925	 0.231532058170605 
1926	 0.23079747917443 
1927	 0.230196978774015 
1928	 0.229646471237059 
1929	 0.22916101434932 
1930	 0.228769670933258 
1931	 0.228469209530886 
1932	 0.228236399685481 
1933	 0.228101336180524 
1934	 0.228062499229279 
1935	 0.228084245519853 
1936	 0.228162904410115 
1937	 0.228321491669335 
1938	 0.228562674474427 
1939	 0.228846866956787 
1940	 0.229187822195997 
1941	 0.229624407203166 
1942	 0.23008057163462 
1943	 0.230595117174708 
1944	 0.231162282419293 
1945	 0.231760416705396 
1946	 0.232438779770336 
1947	 0.233136205686604 
1948	 0.23386987254589 
1949	 0.23463756048376 
1950	 0.235391955118621 
1951	 0.236137776787969 
1952	 0.236921751798665 
1953	 0.237717160757094 
1954	 0.238523971747391 
1955	 0.239410611894005 
1956	 0.240276310202545 
1957	 0.241169783147912 
1958	 0.24209810591483 
1959	 0.24294910250103 
1960	 0.243824356247622 
1961	 0.244707093018618 
1962	 0.245568020309897 
1963	 0.246461442061406 
1964	 0.247387679564639 
1965	 0.248300178955794 
1966	 0.249224697526734 
1967	 0.250153916459752 
1968	 0.25104351093609 
1969	 0.251984275634867 
1970	 0.252894539457036 
1971	 0.253795191069317 
1972	 0.254759818373908 
1973	 0.255669024842906 
1974	 0.25658531651998 
1975	 0.257531207027751 
1976	 0.258434593017486 
1977	 0.25929941894821 
1978	 0.260179147720041 
1979	 0.261050034143824 
1980	 0.261903158168785 
1981	 0.262801886310735 
1982	 0.263655245585998 
1983	 0.264519356870795 
1984	 0.265380080797632 
1985	 0.26615797034763 
1986	 0.266944009093369 
1987	 0.267714330491716 
1988	 0.268449625887575 
1989	 0.269195995786994 
1990	 0.269953947762204 
1991	 0.270672018493394 
1992	 0.271382633164625 
1993	 0.272075149267648 
1994	 0.272684376200877 
1995	 0.273304024851883 
1996	 0.273878700726177 
1997	 0.274389809004766 
1998	 0.274903610930554 
1999	 0.275400616083621 
2000	 0.275862746975046 
2001	 0.276314109703249 
2002	 0.276714089203129 
2003	 0.277080279864757 
2004	 0.277406755368289 
2005	 0.277670909962969 
2006	 0.277929922882723 
2007	 0.278170898775425 
2008	 0.278367641074607 
2009	 0.278546283562135 
2010	 0.278693971896371 
2011	 0.27879112655124 
2012	 0.278863022272226 
2013	 0.278879779121061 
2014	 0.278862023612531 
2015	 0.278787637436865 
2016	 0.278657602032551 
2017	 0.278480088975881 
2018	 0.278248017238152 
2019	 0.27797816753697 
2020	 0.277667814547597 
2021	 0.277302228807479 
2022	 0.276896965293555 
2023	 0.276434919718114 
2024	 0.275867552036657 
2025	 0.275265805566691 
2026	 0.274623457995353 
2027	 0.273879423177026 
2028	 0.273184703633772 
2029	 0.272484659665189 
2030	 0.271764107445461 
2031	 0.271046140324135 
2032	 0.27030570410614 
2033	 0.269491878117883 
2034	 0.2687577285979 
2035	 0.268038127246503 
2036	 0.267337623622367 
2037	 0.266713624901236 
2038	 0.266119868517508 
2039	 0.265561179253235 
2040	 0.265035091610765 
2041	 0.264545504293055 
2042	 0.264093085289883 
2043	 0.263690419505673 
2044	 0.263321960521105 
2045	 0.262997054650952 
2046	 0.262726722419141 
2047	 0.262483712449366 
2048	 0.262290019825975 
2049	 0.262113056117854 
2050	 0.261974735411745 
2051	 0.26185796550286 
2052	 0.261733920834313 
2053	 0.261640563608795 
2054	 0.26159040328702 
2055	 0.261576660641141 
2056	 0.261573655084007 
2057	 0.261615387457821 
2058	 0.261656128235857 
2059	 0.261721892831083 
2060	 0.26176818660521 
2061	 0.261823754141614 
2062	 0.261870529338678 
2063	 0.261905323060808 
2064	 0.261934388354147 
2065	 0.261955436979894 
2066	 0.261991702972293 
2067	 0.262013438889186 
2068	 0.262037059351178 
2069	 0.262059540052916 
2070	 0.26209411515119 
2071	 0.26210733512436 
2072	 0.262112595861062 
2073	 0.262103966212822 
2074	 0.262084702596047 
2075	 0.262056415208039 
2076	 0.262009663839715 
2077	 0.26196460379537 
2078	 0.261925889041724 
2079	 0.261860413588923 
2080	 0.261768411275855 
2081	 0.261688142551267 
2082	 0.26159962301368 
2083	 0.261499577970499 
2084	 0.261419462991707 
2085	 0.261343040070591 
2086	 0.261231695980313 
2087	 0.261090753078197 
2088	 0.260966454516103 
2089	 0.260830097285202 
2090	 0.260692972049018 
2091	 0.260572753029871 
2092	 0.260422689653679 
2093	 0.260258655236559 
2094	 0.260077177987326 
2095	 0.259863604459947 
2096	 0.259664781429442 
2097	 0.259467740019893 
2098	 0.259250027322893 
2099	 0.259039387725286 
2100	 0.258825704372867 
2101	 0.258581283653442 
2102	 0.258320846197986 
2103	 0.258028891675404 
2104	 0.257709036945389 
2105	 0.257376162229085 
2106	 0.257008533911179 
2107	 0.256644143686894 
2108	 0.256291806703923 
2109	 0.255885840825005 
2110	 0.255459376272777 
2111	 0.255000313984995 
2112	 0.254476644954908 
2113	 0.253964579467764 
2114	 0.253429549421047 
2115	 0.252896625043166 
2116	 0.25236807837199 
2117	 0.251839176696737 
2118	 0.251259458998623 
2119	 0.250657815452508 
2120	 0.250050728060289 
2121	 0.249384274553629 
2122	 0.248769821445847 
2123	 0.24816958939626 
2124	 0.247580540241438 
2125	 0.247032252243696 
2126	 0.24643872162131 
2127	 0.24582829368273 
2128	 0.245231046483105 
2129	 0.244594826039305 
2130	 0.243995257276744 
2131	 0.243429205695435 
2132	 0.242863289846078 
2133	 0.242314740728084 
2134	 0.241765502548197 
2135	 0.241192850788596 
2136	 0.240644723482533 
2137	 0.240077948742805 
2138	 0.23947950662639 
2139	 0.23892829702872 
2140	 0.23838792779167 
2141	 0.237871193743722 
2142	 0.237390809724877 
2143	 0.236901724335306 
2144	 0.236401953674864 
2145	 0.235955888272361 
2146	 0.235522830262898 
2147	 0.235126316453719 
2148	 0.234792301436307 
2149	 0.234452792157126 
2150	 0.234120104943318 
2151	 0.233818193206786 
2152	 0.233549262258239 
2153	 0.233280302043889 
2154	 0.233033503316169 
2155	 0.232784881097365 
2156	 0.232541095257084 
2157	 0.232287001828801 
2158	 0.23207050536785 
2159	 0.231887687619208 
2160	 0.231674337870995 
2161	 0.231468818876333 
2162	 0.231261702331803 
2163	 0.231019599799336 
2164	 0.230823506788329 
2165	 0.230655907940472 
2166	 0.230490071983108 
2167	 0.230339100129406 
2168	 0.230201083412026 
2169	 0.230071810003085 
2170	 0.229956760000847 
2171	 0.229856878007182 
2172	 0.2297691330238 
2173	 0.229684647685236 
2174	 0.229626606630309 
2175	 0.2295951777623 
2176	 0.22958937427191 
2177	 0.229598597162774 
2178	 0.229644808165632 
2179	 0.229673970879273 
2180	 0.229703248509145 
2181	 0.229753779001749 
2182	 0.229812912458877 
2183	 0.229882367870758 
2184	 0.229973207503708 
2185	 0.230063293446808 
2186	 0.230157140203093 
2187	 0.230257200633605 
2188	 0.230363625986536 
2189	 0.230479868187989 
2190	 0.230607248481694 
2191	 0.230731903481547 
2192	 0.230876121892108 
2193	 0.231002768653555 
2194	 0.231103494849576 
2195	 0.231226698601785 
2196	 0.231367064413792 
2197	 0.231489307002735 
2198	 0.231618447918509 
2199	 0.231751770978086 
2200	 0.231843696993987 
2201	 0.231901813739265 
2202	 0.231970693215816 
2203	 0.232023539336101 
2204	 0.232072495036057 
2205	 0.232113722636062 
2206	 0.232158622639452 
2207	 0.232201412981952 
2208	 0.232230997973125 
2209	 0.232269518489666 
2210	 0.232282514579414 
2211	 0.232279031778116 
2212	 0.232255576077626 
2213	 0.232216058675411 
2214	 0.232155087774091 
2215	 0.232062305333853 
2216	 0.23196483487348 
2217	 0.231897271720973 
2218	 0.231746173725848 
2219	 0.231546818935255 
2220	 0.231321901508246 
2221	 0.231032905470428 
2222	 0.230707538593736 
2223	 0.230418940919791 
2224	 0.230078446092249 
2225	 0.229697913882839 
2226	 0.229245850360111 
2227	 0.228702922132615 
2228	 0.228086071394102 
2229	 0.227383560671288 
2230	 0.22658445592197 
2231	 0.22572433955796 
2232	 0.224794320717103 
2233	 0.223760189607962 
2234	 0.222685214816662 
2235	 0.221427148402817 
2236	 0.220043277812316 
2237	 0.218526694997026 
2238	 0.216799939208316 
2239	 0.215059132006293 
2240	 0.213255686797814 
2241	 0.211304341669698 
2242	 0.209313700410977 
2243	 0.207122096512031 
2244	 0.204695125802289 
2245	 0.202244895407182 
2246	 0.199604055311764 
2247	 0.196975718342105 
2248	 0.194327186351488 
2249	 0.191600915805011 
2250	 0.188811407999952 
2251	 0.186010456170984 
2252	 0.183038210520422 
2253	 0.180154343499262 
2254	 0.177212143642652 
2255	 0.174259116219078 
2256	 0.171534122874928 
2257	 0.168756829799767 
2258	 0.166114804977986 
2259	 0.163641140162387 
2260	 0.161083738192953 
2261	 0.158504917842958 
2262	 0.156084594572035 
2263	 0.153640745189139 
2264	 0.151407900775782 
2265	 0.149413370303252 
2266	 0.147342438663997 
2267	 0.145398815179374 
2268	 0.143383261269982 
2269	 0.141313064525406 
2270	 0.139327968225526 
2271	 0.137305517782303 
2272	 0.135413129892178 
2273	 0.133663868951209 
2274	 0.131869778358596 
2275	 0.130188989220995 
2276	 0.128411834164093 
2277	 0.126578777722302 
2278	 0.124748425020627 
2279	 0.122850333987702 
2280	 0.120986218564429 
2281	 0.119155368066216 
2282	 0.117282656875031 
2283	 0.115410024765167 
2284	 0.113544484565441 
2285	 0.111529175208184 
2286	 0.109493747375657 
2287	 0.107382257841172 
2288	 0.105257368476537 
2289	 0.103274949253615 
2290	 0.101246568775981 
2291	 9.92223183778457E-02 
2292	 9.71684728075614E-02 
2293	 9.50060902693679E-02 
2294	 9.29341973460514E-02 
2295	 9.09176942472611E-02 
2296	 0.089023439734084 
2297	 8.74083343174984E-02 
2298	 8.59799189084271E-02 
2299	 8.47636786251546E-02 
2300	 8.38016498644881E-02 
2301	 8.30422044192531E-02 
2302	 8.24559757182351E-02 
2303	 8.21739709420028E-02 
2304	 8.21535074983801E-02 
2305	 8.24158693173453E-02 
2306	 0.082993322200549 
2307	 8.37772650364069E-02 
2308	 8.48764082831212E-02 
2309	 8.61276482840914E-02 
2310	 8.76477041646867E-02 
2311	 8.92511181458934E-02 
2312	 9.11951866386058E-02 
2313	 9.29577863645416E-02 
2314	 9.48116582513409E-02 
2315	 9.65521850560496E-02 
2316	 9.82246219347338E-02 
2317	 9.97838957508248E-02 
2318	 0.101375975889964 
2319	 0.102666216322327 
2320	 0.103778129370243 
2321	 0.104676288142258 
2322	 0.105305577961329 
2323	 0.105803831382748 
2324	 0.106117485060232 
2325	 0.10626591833032 
2326	 0.106212675155778 
2327	 0.106012326961329 
2328	 0.105565124658536 
2329	 0.105076342218876 
2330	 0.104482844895932 
2331	 0.103754138322532 
2332	 0.102920048570132 
2333	 0.101900961525054 
2334	 0.100630927010997 
2335	 9.93318611784511E-02 
2336	 9.79267192410072E-02 
2337	 9.64182228511386E-02 
2338	 9.49868444458882E-02 
2339	 9.34703950977098E-02 
2340	 9.20327516204548E-02 
2341	 9.07800223369101E-02 
2342	 8.95757280711449E-02 
2343	 8.85741963341688E-02 
2344	 8.77734619621049E-02 
2345	 8.71990471107666E-02 
2346	 8.69762386366634E-02 
2347	 8.70781399183668E-02 
2348	 8.74124723296955E-02 
2349	 8.81219906690748E-02 
2350	 8.91138874165469E-02 
2351	 9.02680917049312E-02 
2352	 9.16391129324893E-02 
2353	 9.30796534916821E-02 
2354	 9.43697084768034E-02 
2355	 9.55943585376121E-02 
2356	 0.096666085734137 
2357	 9.75063958740992E-02 
2358	 9.83586397862015E-02 
2359	 9.90288687077303E-02 
2360	 9.95024552211718E-02 
2361	 9.99137499748115E-02 
2362	 0.100134265467408 
2363	 0.100220038956857 
2364	 0.100297252999648 
2365	 0.100312324304282 
2366	 0.100280686240498 
2367	 0.100241256907104 
2368	 0.100198500569024 
2369	 0.100160145333828 
2370	 0.10006317611865 
2371	 9.99813916102456E-02 
2372	 0.100009561051725 
2373	 0.100024660933371 
2374	 0.100080944749505 
2375	 0.100220990357362 
2376	 0.100210184432807 
2377	 0.100150560436181 
2378	 0.100197465421355 
2379	 0.100213904010688 
2380	 0.10023692724104 
2381	 0.10034299096597 
2382	 0.100427876949768 
2383	 0.10046681454787 
2384	 0.10057278045697 
2385	 0.100747768066806 
2386	 0.100883223559616 
2387	 0.101054266005846 
2388	 0.101120492212005 
2389	 0.101121955234469 
2390	 0.101154600014212 
2391	 0.101085606971813 
2392	 0.10115933727195 
2393	 0.101362049989977 
2394	 0.10146375898517 
2395	 0.101602330801902 
2396	 0.101656672283014 
2397	 0.101575123277079 
2398	 0.101638826951384 
2399	 0.101771422806572 
2400	 0.101830158426249 
2401	 0.10193774605854 
2402	 0.101901425027599 
2403	 0.101833581217662 
2404	 0.101878634921796 
2405	 0.101974468456286 
2406	 0.102053862988772 
2407	 0.10211075666158 
2408	 0.102152091170825 
2409	 0.102113344010917 
2410	 0.101978822665799 
2411	 0.101932852378485 
2412	 0.101879957985372 
2413	 0.101806004261223 
2414	 0.101873291957399 
2415	 0.101894040607082 
2416	 0.101840460413097 
2417	 0.101768748537498 
2418	 0.101599215962207 
2419	 0.101460817709927 
2420	 0.101423184744475 
2421	 0.101389260960457 
2422	 0.101346833325244 
2423	 0.101263760926081 
2424	 0.10106943585125 
2425	 0.100880885387927 
2426	 0.100737046933384 
2427	 0.100623666717798 
2428	 0.100560720416043 
2429	 0.100456881605082 
2430	 0.100292296138524 
2431	 0.100166220564285 
2432	 0.100028737813596 
2433	 9.97837113172313E-02 
2434	 9.95987753510722E-02 
2435	 9.94082578554718E-02 
2436	 9.91194550374824E-02 
2437	 9.89198951651855E-02 
2438	 9.87599094612434E-02 
2439	 9.85457746191677E-02 
2440	 9.82403036870904E-02 
2441	 9.77859567621481E-02 
2442	 9.74165492193283E-02 
2443	 9.69977399287885E-02 
2444	 9.64322773559297E-02 
2445	 9.61431588628887E-02 
2446	 9.58114166992476E-02 
2447	 9.53130680066388E-02 
2448	 9.49659685745297E-02 
2449	 9.45492561198485E-02 
2450	 9.40519759594588E-02 
2451	 9.35499070257118E-02 
2452	 9.30620770685869E-02 
2453	 9.26531798184705E-02 
2454	 9.22318413101376E-02 
2455	 9.18710722223806E-02 
2456	 9.15639709939231E-02 
2457	 9.10951558822929E-02 
2458	 9.06047952183274E-02 
2459	 9.01983263988382E-02 
2460	 0.089796332823997 
2461	 8.94669850860957E-02 
2462	 8.90276056194731E-02 
2463	 8.85142910916504E-02 
2464	 8.81073142341226E-02 
2465	 8.76980355405052E-02 
2466	 8.74928298555902E-02 
2467	 0.087391551983742 
2468	 8.70284026473803E-02 
2469	 8.67749891730743E-02 
2470	 8.66453969838527E-02 
2471	 8.64153482927401E-02 
2472	 8.62228542085555E-02 
2473	 8.60395933043828E-02 
2474	 8.58975925484532E-02 
2475	 8.56454443731774E-02 
2476	 8.55841442856239E-02 
2477	 8.58060013625858E-02 
2478	 8.55997766560171E-02 
2479	 8.53302897853416E-02 
2480	 8.50463315498364E-02 
2481	 8.48366257316966E-02 
2482	 8.48413458043551E-02 
2483	 0.084837243037637 
2484	 0.084920848803842 
2485	 8.50203707998696E-02 
2486	 8.50608139665854E-02 
2487	 8.52252967376885E-02 
2488	 8.50267956711641E-02 
2489	 8.47438027847966E-02 
2490	 8.48191012293887E-02 
2491	 8.47731893602783E-02 
2492	 8.50808768469748E-02 
2493	 8.55790757481502E-02 
2494	 8.55866300445825E-02 
2495	 8.57222893736536E-02 
2496	 8.58563468233975E-02 
2497	 0.085802225836199 
2498	 8.58236605703645E-02 
2499	 8.59208579470343E-02 
2500	 8.61983989455547E-02 
