Wavelength	spectrum00007.asd
350	 8.79628042419389E-02 
351	 8.62356107433542E-02 
352	 8.33979749205688E-02 
353	 8.04450673990709E-02 
354	 7.77382644494827E-02 
355	 7.68292941511284E-02 
356	 7.66621057450261E-02 
357	 7.54833275940456E-02 
358	 7.09381780970216E-02 
359	 6.86252120727294E-02 
360	 0.068346519555968 
361	 6.71128172878436E-02 
362	 6.66245849881041E-02 
363	 6.60574468191222E-02 
364	 0.065308656050996 
365	 6.54971279236632E-02 
366	 6.48664119410123E-02 
367	 6.42194120273877E-02 
368	 6.43372420153793E-02 
369	 6.38468683524719E-02 
370	 6.34492025317398E-02 
371	 6.31601509548673E-02 
372	 6.26473635519395E-02 
373	 6.21707941579784E-02 
374	 6.21000677515481E-02 
375	 6.22268601684277E-02 
376	 6.15324141946639E-02 
377	 6.07453355042109E-02 
378	 6.07409338037279E-02 
379	 0.06167875855458 
380	 6.12213769773575E-02 
381	 6.13305834281302E-02 
382	 6.12479958139821E-02 
383	 5.91032304372476E-02 
384	 5.93072809485255E-02 
385	 5.98008153598003E-02 
386	 5.92752946041685E-02 
387	 5.86938930951935E-02 
388	 5.87737004683364E-02 
389	 5.88070704500371E-02 
390	 0.058089813036237 
391	 5.74346919477988E-02 
392	 5.73933222488316E-02 
393	 5.77898431553463E-02 
394	 5.79461471452234E-02 
395	 5.73026248262908E-02 
396	 5.69494478147898E-02 
397	 0.057073869620076 
398	 5.59469957454331E-02 
399	 5.59644943088351E-02 
400	 5.64544355829743E-02 
401	 5.61824165493974E-02 
402	 5.55074472654084E-02 
403	 5.54486759382096E-02 
404	 5.56331778116427E-02 
405	 5.48240778848647E-02 
406	 5.50976967369873E-02 
407	 5.53062276722565E-02 
408	 5.48093778381029E-02 
409	 5.48704546102125E-02 
410	 0.054661883815078 
411	 5.42510300194516E-02 
412	 5.40218940099106E-02 
413	 5.44674192395423E-02 
414	 5.45563740717946E-02 
415	 5.42510260800802E-02 
416	 5.44212151101024E-02 
417	 5.43265494894724E-02 
418	 5.43494674309132E-02 
419	 5.46753959010962E-02 
420	 5.45602464298561E-02 
421	 5.46124017185805E-02 
422	 5.49041174151194E-02 
423	 5.52376725868561E-02 
424	 5.52606698082759E-02 
425	 0.05522417601769 
426	 5.52969979214948E-02 
427	 5.54921259920873E-02 
428	 5.55790598275421E-02 
429	 5.57950484633849E-02 
430	 5.62472138125429E-02 
431	 5.63109309207012E-02 
432	 5.65154332277537E-02 
433	 5.69268518025324E-02 
434	 5.73273724858862E-02 
435	 5.75276391573827E-02 
436	 5.78233831931604E-02 
437	 5.83001660692639E-02 
438	 5.86256061851765E-02 
439	 5.90827586254521E-02 
440	 5.95872337823435E-02 
441	 6.00165562905229E-02 
442	 0.060545387410035 
443	 6.11470896551359E-02 
444	 6.17702828230809E-02 
445	 6.23612728961504E-02 
446	 6.30498433872043E-02 
447	 6.37225602112985E-02 
448	 6.43536263114611E-02 
449	 6.52095754185218E-02 
450	 6.60057140461551E-02 
451	 0.066787527434747 
452	 6.77020913901199E-02 
453	 0.068667221600376 
454	 6.97160129496831E-02 
455	 7.08076929964666E-02 
456	 7.18240349403675E-02 
457	 0.07293713698759 
458	 7.41158211150253E-02 
459	 7.53420376356384E-02 
460	 7.67889336344864E-02 
461	 7.82130364404001E-02 
462	 7.95955134697582E-02 
463	 8.10573949563754E-02 
464	 8.26961362667144E-02 
465	 8.44341142919743E-02 
466	 8.61726179818123E-02 
467	 8.78114334330041E-02 
468	 8.96356027385831E-02 
469	 9.16505422416036E-02 
470	 9.37649438622726E-02 
471	 0.095873677010625 
472	 9.80195450578884E-02 
473	 0.100275183516651 
474	 0.102712092580869 
475	 0.105114034399822 
476	 0.107716946199069 
477	 0.110580774065638 
478	 0.113193686827771 
479	 0.116046872904853 
480	 0.119112342214761 
481	 0.122189544064262 
482	 0.125372211248783 
483	 0.128581366571224 
484	 0.131861734078415 
485	 0.135395610449417 
486	 0.13901422018644 
487	 0.142637232218619 
488	 0.146253570050966 
489	 0.149975891823178 
490	 0.153893495038785 
491	 0.157914496750215 
492	 0.161862121253355 
493	 0.16585944765895 
494	 0.169846001991684 
495	 0.173843523968202 
496	 0.17803854129435 
497	 0.182174610369228 
498	 0.186346520996615 
499	 0.190672082539148 
500	 0.194911466848288 
501	 0.199085426253786 
502	 0.203240499927452 
503	 0.207437380786478 
504	 0.211747745215517 
505	 0.216072993936745 
506	 0.220350317370457 
507	 0.224689169443709 
508	 0.228914429366705 
509	 0.233083291003679 
510	 0.23732920195297 
511	 0.241553082143002 
512	 0.245756087841777 
513	 0.249936946381951 
514	 0.254096827905172 
515	 0.258185760380998 
516	 0.262271289837715 
517	 0.266420563353653 
518	 0.270606053719976 
519	 0.274667994954366 
520	 0.278650727600943 
521	 0.282723472473674 
522	 0.286711466853478 
523	 0.290673051212298 
524	 0.294664561169697 
525	 0.298696541469887 
526	 0.302615497259198 
527	 0.306488769757887 
528	 0.310435770867844 
529	 0.314347052798765 
530	 0.318191407924081 
531	 0.32200981239909 
532	 0.325903263649552 
533	 0.329669429967568 
534	 0.333436388987244 
535	 0.337308413226776 
536	 0.34112867476211 
537	 0.344888386084435 
538	 0.348621578857676 
539	 0.35237453640047 
540	 0.35598929557409 
541	 0.359600317323881 
542	 0.36323941078132 
543	 0.366709093015729 
544	 0.370243273576057 
545	 0.373714184930915 
546	 0.376984895328613 
547	 0.380418883720947 
548	 0.383799970017512 
549	 0.387071132567646 
550	 0.390335698617752 
551	 0.393542916416012 
552	 0.396760838372675 
553	 0.400016589792695 
554	 0.403179147338964 
555	 0.406243851459254 
556	 0.409254009188536 
557	 0.412271142474728 
558	 0.415295801096404 
559	 0.418247812403621 
560	 0.421097238823143 
561	 0.423899340168572 
562	 0.426571092059071 
563	 0.429121967157811 
564	 0.431598968615575 
565	 0.434064320152261 
566	 0.436557899696215 
567	 0.439090614285563 
568	 0.441646981311289 
569	 0.444191247719578 
570	 0.44673736533638 
571	 0.449297978435824 
572	 0.451871423594443 
573	 0.454344130127672 
574	 0.456647256971187 
575	 0.458777544500379 
576	 0.460941055171014 
577	 0.463023525870476 
578	 0.465022762808993 
579	 0.467081230310967 
580	 0.469102244478446 
581	 0.471060701766533 
582	 0.472963996695794 
583	 0.474851645812847 
584	 0.476769627287001 
585	 0.478686736410656 
586	 0.480547772146705 
587	 0.482503745167193 
588	 0.48450556154321 
589	 0.486480850292374 
590	 0.488359817210583 
591	 0.490251747223905 
592	 0.492108694992424 
593	 0.493848859684034 
594	 0.495474934216845 
595	 0.497075171994603 
596	 0.498680470728199 
597	 0.500264955716055 
598	 0.501906710405381 
599	 0.503512598647476 
600	 0.505021362767252 
601	 0.506500094121023 
602	 0.508055306163983 
603	 0.509637885552597 
604	 0.51113773389489 
605	 0.512599083947676 
606	 0.514047658078434 
607	 0.515501665889798 
608	 0.516966752681958 
609	 0.518335748846284 
610	 0.519682762866188 
611	 0.52107682202564 
612	 0.522393162454096 
613	 0.523684388578989 
614	 0.524954243992474 
615	 0.526180601669719 
616	 0.527392729364009 
617	 0.528586679394087 
618	 0.529770396117026 
619	 0.530988283690512 
620	 0.532149732525429 
621	 0.533325083514726 
622	 0.534578527921218 
623	 0.535668114291951 
624	 0.536748175590373 
625	 0.537860607599319 
626	 0.538925989918665 
627	 0.539883278397608 
628	 0.540889514707062 
629	 0.542025060625046 
630	 0.543088887430138 
631	 0.544032736795245 
632	 0.544951344148398 
633	 0.545986564094016 
634	 0.547080755071339 
635	 0.548082711217411 
636	 0.548970670286813 
637	 0.549887630670247 
638	 0.550783665144786 
639	 0.55171818768609 
640	 0.552704750730133 
641	 0.553534286069403 
642	 0.554319182773899 
643	 0.555164701945587 
644	 0.556142213727388 
645	 0.55706608448093 
646	 0.557927774827738 
647	 0.558746182788234 
648	 0.559543911412987 
649	 0.560335897430833 
650	 0.561136068946895 
651	 0.561945993614793 
652	 0.562724871040297 
653	 0.563525343726693 
654	 0.564337886906391 
655	 0.565102830630187 
656	 0.565849923823562 
657	 0.5665791541391 
658	 0.567288301561048 
659	 0.567962525303934 
660	 0.568818163635376 
661	 0.569669447760335 
662	 0.570268212264709 
663	 0.570938136232051 
664	 0.571680100024874 
665	 0.572407604486806 
666	 0.572976495327122 
667	 0.573557135347734 
668	 0.574277822395599 
669	 0.575113817251079 
670	 0.575671812278558 
671	 0.5763104998792 
672	 0.577012743480489 
673	 0.577614092263046 
674	 0.578200459762999 
675	 0.578776899671909 
676	 0.579382075246074 
677	 0.580097344548407 
678	 0.580723525163992 
679	 0.581294338531747 
680	 0.58187608407912 
681	 0.582450401441479 
682	 0.583014983951689 
683	 0.583545119481358 
684	 0.584023600786602 
685	 0.584589592072786 
686	 0.585135136605068 
687	 0.58565456635135 
688	 0.586322704194344 
689	 0.586957921339323 
690	 0.587447331559505 
691	 0.587793332480376 
692	 0.588299215963619 
693	 0.588821754158005 
694	 0.589342675007942 
695	 0.589912963159121 
696	 0.590446302387732 
697	 0.590881810995826 
698	 0.59127806104923 
699	 0.591872875859815 
700	 0.592424257315323 
701	 0.592885502178375 
702	 0.593287932612709 
703	 0.593704840914837 
704	 0.594235006342552 
705	 0.594761084636216 
706	 0.595059541211526 
707	 0.595437345431343 
708	 0.595951301045566 
709	 0.59653511932155 
710	 0.596985966746137 
711	 0.597341383156175 
712	 0.5977055402768 
713	 0.598157221495924 
714	 0.598575527392827 
715	 0.598964383615416 
716	 0.599370350280241 
717	 0.59984801554679 
718	 0.600219967378578 
719	 0.600569047202225 
720	 0.600950502062224 
721	 0.601307959347052 
722	 0.601690808696731 
723	 0.602088180980814 
724	 0.602473028993526 
725	 0.602840782578756 
726	 0.603125971930333 
727	 0.603468440717396 
728	 0.604083327943975 
729	 0.604384231342665 
730	 0.604663426354702 
731	 0.605072991353272 
732	 0.605335552894639 
733	 0.605659647914135 
734	 0.606003113125298 
735	 0.606302749657849 
736	 0.606694477979349 
737	 0.607118115587873 
738	 0.607473537716717 
739	 0.607675645827456 
740	 0.607984160610892 
741	 0.608401687907373 
742	 0.608794443139944 
743	 0.608879788792086 
744	 0.609171560171886 
745	 0.609588639197905 
746	 0.609936902496496 
747	 0.610247813258815 
748	 0.610445470340567 
749	 0.610640745686677 
750	 0.611015076755236 
751	 0.611399033539511 
752	 0.611739979533972 
753	 0.611992476791427 
754	 0.612109861429623 
755	 0.612406755532528 
756	 0.612756731623191 
757	 0.613019685805178 
758	 0.613352659403797 
759	 0.613588829887457 
760	 0.6137905215127 
761	 0.614090069159374 
762	 0.614304099348477 
763	 0.614568143114763 
764	 0.614893978840689 
765	 0.61514755028074 
766	 0.615489115767433 
767	 0.615814503447233 
768	 0.616030491031192 
769	 0.61616689543574 
770	 0.616420109993458 
771	 0.616732769071309 
772	 0.616978251181829 
773	 0.617229982715347 
774	 0.617478644541772 
775	 0.617730551700737 
776	 0.617998059794914 
777	 0.61818412005501 
778	 0.618375347498946 
779	 0.618598447152835 
780	 0.618727929126188 
781	 0.619017558698668 
782	 0.619350626744172 
783	 0.619566758565864 
784	 0.619750895367326 
785	 0.61997379197277 
786	 0.620192445166931 
787	 0.620328420868333 
788	 0.620569145024908 
789	 0.62086532524 
790	 0.621136440020387 
791	 0.621304478584008 
792	 0.621553623692768 
793	 0.621836660350577 
794	 0.622061024398081 
795	 0.622135153613838 
796	 0.622269403489597 
797	 0.622524980000358 
798	 0.622842059412271 
799	 0.622911676307033 
800	 0.623014387737688 
801	 0.623219463616303 
802	 0.623420477809037 
803	 0.623729289348549 
804	 0.623982088961345 
805	 0.624108304746016 
806	 0.624227487099774 
807	 0.624412480575277 
808	 0.624705260664289 
809	 0.625047972449442 
810	 0.625138186399159 
811	 0.625238107229003 
812	 0.625382900905877 
813	 0.625523390679969 
814	 0.625763169328485 
815	 0.625999684052309 
816	 0.626175053915712 
817	 0.626294623213153 
818	 0.626455426732523 
819	 0.626691313715842 
820	 0.626937569637328 
821	 0.626995609289806 
822	 0.627051026490914 
823	 0.627187558165364 
824	 0.62742934073351 
825	 0.627728757815944 
826	 0.627960870356706 
827	 0.628102988230851 
828	 0.628200635837711 
829	 0.62832628125455 
830	 0.628535568091739 
831	 0.628788710984627 
832	 0.628979745419279 
833	 0.629234096948475 
834	 0.62942559332241 
835	 0.629507111463252 
836	 0.629605219563645 
837	 0.629707307319927 
838	 0.629839012851376 
839	 0.630009631675627 
840	 0.630167209422202 
841	 0.630350091563066 
842	 0.630566717691976 
843	 0.63079757466421 
844	 0.630971718624465 
845	 0.631019060987424 
846	 0.631058378529762 
847	 0.631297635317134 
848	 0.631464661478767 
849	 0.631605850397773 
850	 0.631756604732112 
851	 0.631894305270935 
852	 0.632118833951547 
853	 0.632305404675119 
854	 0.632375384846989 
855	 0.63244088106398 
856	 0.632571869010385 
857	 0.632707342449701 
858	 0.632787912069966 
859	 0.632926622298549 
860	 0.633169675591295 
861	 0.633402931756795 
862	 0.633477142872173 
863	 0.633562937296514 
864	 0.633679063608045 
865	 0.633822853317006 
866	 0.633971707610845 
867	 0.634020053148259 
868	 0.634078188745086 
869	 0.634239151236797 
870	 0.634518030327664 
871	 0.634629721084753 
872	 0.63468654993289 
873	 0.634803870053366 
874	 0.634891551950506 
875	 0.634996070753184 
876	 0.63511241607954 
877	 0.635222877587846 
878	 0.635311184520316 
879	 0.635516108708051 
880	 0.635714289653297 
881	 0.635737723535157 
882	 0.635922329184876 
883	 0.6360986159472 
884	 0.636191152150135 
885	 0.63623076351793 
886	 0.636278974402629 
887	 0.636398572372267 
888	 0.636532375801331 
889	 0.636512790436438 
890	 0.636604292059328 
891	 0.636729675336815 
892	 0.636799351906585 
893	 0.636813055966606 
894	 0.636979814514474 
895	 0.637187280505434 
896	 0.637282467197213 
897	 0.637224436573979 
898	 0.637274442840307 
899	 0.637440780409454 
900	 0.637622093615169 
901	 0.637707017952371 
902	 0.637761207831878 
903	 0.63779202754216 
904	 0.637791828841423 
905	 0.637833507538729 
906	 0.637910064360651 
907	 0.63800549535204 
908	 0.638096943968881 
909	 0.638135104308907 
910	 0.638225661186449 
911	 0.638359386064821 
912	 0.638406941399447 
913	 0.638402312718349 
914	 0.638477744866903 
915	 0.638647177418233 
916	 0.638749046953412 
917	 0.638773462518568 
918	 0.638819730617635 
919	 0.638961337920204 
920	 0.639177024485333 
921	 0.639289820538163 
922	 0.639298262429792 
923	 0.639291672849523 
924	 0.639443938990214 
925	 0.639562709530765 
926	 0.639685515386326 
927	 0.639876836560121 
928	 0.64003323138625 
929	 0.640146933120354 
930	 0.640256117415439 
931	 0.640398727552656 
932	 0.640498392883629 
933	 0.64075195659794 
934	 0.641046067188778 
935	 0.641165278842175 
936	 0.641342522784412 
937	 0.641577983801167 
938	 0.641773435960186 
939	 0.641821859414403 
940	 0.641949465365203 
941	 0.642203733984048 
942	 0.642464003161197 
943	 0.642545473432472 
944	 0.642860925211515 
945	 0.643130641517026 
946	 0.643272567658046 
947	 0.643471492689808 
948	 0.643472641555011 
949	 0.643497133196073 
950	 0.643664534440355 
951	 0.643870350211065 
952	 0.644008150174633 
953	 0.644098538062252 
954	 0.644156068595986 
955	 0.644152180269972 
956	 0.644252869923373 
957	 0.644339951479263 
958	 0.644376545742469 
959	 0.644560557789255 
960	 0.644705492565634 
961	 0.644746122587692 
962	 0.644733052339258 
963	 0.644868674291781 
964	 0.645077106142897 
965	 0.645266305238974 
966	 0.645386681498649 
967	 0.645500312178735 
968	 0.645571020149782 
969	 0.6455595361955 
970	 0.645519504243003 
971	 0.64573084011803 
972	 0.645851231952336 
973	 0.645900957972773 
974	 0.645961328955117 
975	 0.64594120848446 
976	 0.64598945511524 
977	 0.646095956060271 
978	 0.646224020934011 
979	 0.646434193622816 
980	 0.646675800749441 
981	 0.646764101107937 
982	 0.646641700300721 
983	 0.646757023992503 
984	 0.646980978796856 
985	 0.647181345654459 
986	 0.647261709982098 
987	 0.647268365515627 
988	 0.647239874535853 
989	 0.647286626382608 
990	 0.647475377253991 
991	 0.647681399504194 
992	 0.647740477907705 
993	 0.647752287988023 
994	 0.647861543947777 
995	 0.647998581072883 
996	 0.64801388911904 
997	 0.648026938748791 
998	 0.64820206600958 
999	 0.648516157245125 
1000	 0.648610693799695 
1001	 0.653153045571422 
1002	 0.653290123756799 
1003	 0.653359706735793 
1004	 0.653452980812099 
1005	 0.653588510021613 
1006	 0.653663899767402 
1007	 0.653680683098177 
1008	 0.65375606189292 
1009	 0.653819926280865 
1010	 0.653925473800033 
1011	 0.654110342751835 
1012	 0.654214063780423 
1013	 0.654298979882006 
1014	 0.654375229317835 
1015	 0.65440114668333 
1016	 0.654432431463378 
1017	 0.654516047731107 
1018	 0.654630862531163 
1019	 0.654740782676013 
1020	 0.654852276607134 
1021	 0.65494338591344 
1022	 0.655000613391157 
1023	 0.655084744715896 
1024	 0.655192666634109 
1025	 0.655260427587521 
1026	 0.655306654604572 
1027	 0.655373288776104 
1028	 0.65542559729943 
1029	 0.655484225978488 
1030	 0.655542424427118 
1031	 0.655641155181376 
1032	 0.655736929095657 
1033	 0.655782560195527 
1034	 0.655843824343189 
1035	 0.655904780485818 
1036	 0.655981054580846 
1037	 0.656051655909 
1038	 0.656134189535646 
1039	 0.656243440715559 
1040	 0.656339182952213 
1041	 0.656413886002723 
1042	 0.656521414972066 
1043	 0.656642647207258 
1044	 0.656790843985653 
1045	 0.656920955542389 
1046	 0.657019522658074 
1047	 0.657134419448474 
1048	 0.657233075460912 
1049	 0.657359558261392 
1050	 0.657530115443668 
1051	 0.657694029960882 
1052	 0.657855221655215 
1053	 0.657997708421549 
1054	 0.658111591415959 
1055	 0.658247939160332 
1056	 0.658397078559298 
1057	 0.658520475821917 
1058	 0.658640875906893 
1059	 0.658756603520563 
1060	 0.658851766232421 
1061	 0.658976771810617 
1062	 0.659157271027753 
1063	 0.659325291729858 
1064	 0.659457854398729 
1065	 0.659598199973042 
1066	 0.659730335655099 
1067	 0.659886607939478 
1068	 0.660076951389038 
1069	 0.66025751386951 
1070	 0.660430387065557 
1071	 0.660592527323747 
1072	 0.660737444633975 
1073	 0.660899916284055 
1074	 0.661052752968085 
1075	 0.66116238468886 
1076	 0.661316647175132 
1077	 0.661471831177359 
1078	 0.66160519193802 
1079	 0.661767058117705 
1080	 0.66186836122358 
1081	 0.661933302806689 
1082	 0.662028694294968 
1083	 0.662134325350581 
1084	 0.662266422408504 
1085	 0.662437477469186 
1086	 0.662589471477752 
1087	 0.662743378229354 
1088	 0.662874083067117 
1089	 0.663013658543287 
1090	 0.663109411280465 
1091	 0.663186056385655 
1092	 0.663310626808172 
1093	 0.663427053276316 
1094	 0.663538676739095 
1095	 0.663680211636664 
1096	 0.663791228495605 
1097	 0.663863576750358 
1098	 0.663917505533024 
1099	 0.66396088614693 
1100	 0.664000096810927 
1101	 0.664047250913025 
1102	 0.664139433081433 
1103	 0.664199601702206 
1104	 0.664258412521511 
1105	 0.664295072413127 
1106	 0.664336112009751 
1107	 0.664339780046598 
1108	 0.664380234340458 
1109	 0.6644421582148 
1110	 0.66447704880627 
1111	 0.664523222856581 
1112	 0.664566560364444 
1113	 0.664591096788675 
1114	 0.664604660924264 
1115	 0.664614388500568 
1116	 0.664617644400871 
1117	 0.664617758332265 
1118	 0.664620602507643 
1119	 0.664634492037047 
1120	 0.664641044201742 
1121	 0.664649471869491 
1122	 0.664637635078675 
1123	 0.664615680155046 
1124	 0.664577421619755 
1125	 0.66452390149294 
1126	 0.664437282092191 
1127	 0.664342210836033 
1128	 0.664240757581099 
1129	 0.664109650832081 
1130	 0.663984934389598 
1131	 0.663864678182985 
1132	 0.663727631479885 
1133	 0.663591087914607 
1134	 0.663472113146357 
1135	 0.66332098088102 
1136	 0.663158620789189 
1137	 0.662977962751231 
1138	 0.662763291751179 
1139	 0.662548957434809 
1140	 0.662328902832305 
1141	 0.66211118262442 
1142	 0.661843569186462 
1143	 0.661585316152778 
1144	 0.661327126274652 
1145	 0.661016625479666 
1146	 0.660711504893908 
1147	 0.660406797091441 
1148	 0.660075076623116 
1149	 0.659751280018064 
1150	 0.659433745348435 
1151	 0.659116089288481 
1152	 0.65877625025501 
1153	 0.658409754895484 
1154	 0.658057636100887 
1155	 0.657707692255375 
1156	 0.657332569386351 
1157	 0.656955108834039 
1158	 0.656572882978251 
1159	 0.656162646426324 
1160	 0.655764563033807 
1161	 0.655380630538925 
1162	 0.654977725334266 
1163	 0.654594014948255 
1164	 0.654207646121866 
1165	 0.653820640473215 
1166	 0.653463278359606 
1167	 0.653091779492023 
1168	 0.652710352947417 
1169	 0.652324019376793 
1170	 0.651937095211377 
1171	 0.6515324296964 
1172	 0.651125573424986 
1173	 0.650691122020431 
1174	 0.650230133781297 
1175	 0.64977582052709 
1176	 0.649297670884642 
1177	 0.648832599400787 
1178	 0.648384892243538 
1179	 0.647912260000441 
1180	 0.647454952694755 
1181	 0.646979950713194 
1182	 0.646455213014258 
1183	 0.645966491371916 
1184	 0.645468632390428 
1185	 0.644968165563837 
1186	 0.644501281343381 
1187	 0.644055516060011 
1188	 0.643632531820463 
1189	 0.643231843699496 
1190	 0.642843247613802 
1191	 0.642484638328168 
1192	 0.642137160987746 
1193	 0.641779744230988 
1194	 0.641467471711314 
1195	 0.641175669867364 
1196	 0.640924345507904 
1197	 0.640709760956749 
1198	 0.640523692395473 
1199	 0.640373234916681 
1200	 0.640253215548361 
1201	 0.640145314264951 
1202	 0.640071615328749 
1203	 0.640020867023014 
1204	 0.639998288833943 
1205	 0.640036123938932 
1206	 0.640113627523973 
1207	 0.640247382758628 
1208	 0.640421792791833 
1209	 0.640670016270791 
1210	 0.640957231756364 
1211	 0.641339854885943 
1212	 0.641814228617638 
1213	 0.64234378003045 
1214	 0.642952967467085 
1215	 0.643614830511673 
1216	 0.644349163097466 
1217	 0.645110603421173 
1218	 0.645948387646684 
1219	 0.646787570369808 
1220	 0.6476421064076 
1221	 0.64856539767712 
1222	 0.649435252279673 
1223	 0.65032736900893 
1224	 0.651180355655064 
1225	 0.652022728635149 
1226	 0.652804170625652 
1227	 0.653554658095957 
1228	 0.654275490463957 
1229	 0.654954363689759 
1230	 0.655602222157585 
1231	 0.656228373160839 
1232	 0.65681759935861 
1233	 0.657373651526352 
1234	 0.657871098797013 
1235	 0.658313409042345 
1236	 0.658747818175988 
1237	 0.659125614706122 
1238	 0.659499558445924 
1239	 0.659880513475417 
1240	 0.660221228973075 
1241	 0.660525349551495 
1242	 0.660809679703744 
1243	 0.66109953334257 
1244	 0.661373649821283 
1245	 0.661645017075968 
1246	 0.661938088590814 
1247	 0.66216470172607 
1248	 0.662350622965456 
1249	 0.662539503650508 
1250	 0.66268358247504 
1251	 0.66284737189642 
1252	 0.663022237241598 
1253	 0.663184195971172 
1254	 0.663350203263358 
1255	 0.663487871147624 
1256	 0.663604583248376 
1257	 0.663722042295519 
1258	 0.663818981288132 
1259	 0.663914209462938 
1260	 0.6640081740334 
1261	 0.664101694031976 
1262	 0.664184764062502 
1263	 0.664272100509176 
1264	 0.664353018424728 
1265	 0.664432480912235 
1266	 0.664518170584656 
1267	 0.664595276272327 
1268	 0.664687223191642 
1269	 0.664792764612456 
1270	 0.664896244855031 
1271	 0.665002729298443 
1272	 0.665111717752266 
1273	 0.665223018224769 
1274	 0.665338984779872 
1275	 0.665469310394187 
1276	 0.665579794298687 
1277	 0.665676082409972 
1278	 0.665786224621906 
1279	 0.665896484283111 
1280	 0.665999532576222 
1281	 0.666102343641571 
1282	 0.666215134916116 
1283	 0.666321743930622 
1284	 0.666430380772731 
1285	 0.666544837584759 
1286	 0.666679059384261 
1287	 0.666793395815289 
1288	 0.666889827793202 
1289	 0.667012733702476 
1290	 0.667144041481711 
1291	 0.66727555163156 
1292	 0.667426034033314 
1293	 0.667554885194409 
1294	 0.667670654563054 
1295	 0.66779389785572 
1296	 0.667924435276665 
1297	 0.668031871725382 
1298	 0.668136358951802 
1299	 0.668226601782147 
1300	 0.668281158928484 
1301	 0.668358028816732 
1302	 0.668456353230311 
1303	 0.668525111830052 
1304	 0.668584233986114 
1305	 0.668640695596405 
1306	 0.668671552650223 
1307	 0.66870947081667 
1308	 0.668751391875988 
1309	 0.668796651625252 
1310	 0.66883721835555 
1311	 0.668877444252807 
1312	 0.668904789983386 
1313	 0.668934900266319 
1314	 0.668941699145274 
1315	 0.668927069804887 
1316	 0.668917826161058 
1317	 0.66889894618691 
1318	 0.668879778583958 
1319	 0.668870102055905 
1320	 0.668833016404177 
1321	 0.668773017831477 
1322	 0.668724189140855 
1323	 0.668671759153674 
1324	 0.668607162779227 
1325	 0.668554915983868 
1326	 0.668473638179352 
1327	 0.668364933426172 
1328	 0.66825270707865 
1329	 0.668127112377992 
1330	 0.667996439111255 
1331	 0.667872164855861 
1332	 0.667717092842678 
1333	 0.667541208097195 
1334	 0.667353430113584 
1335	 0.66716177492113 
1336	 0.666949838818506 
1337	 0.666734325607587 
1338	 0.666526758750058 
1339	 0.666287185006565 
1340	 0.666026400284162 
1341	 0.665752732790482 
1342	 0.665455324065816 
1343	 0.665162762286598 
1344	 0.66486684506809 
1345	 0.664549105780577 
1346	 0.664232928341327 
1347	 0.663886256897088 
1348	 0.663499116729298 
1349	 0.663125909521978 
1350	 0.662753048898506 
1351	 0.662356264310151 
1352	 0.661953848321618 
1353	 0.661535175890984 
1354	 0.661081796748997 
1355	 0.660640362240742 
1356	 0.660194105458325 
1357	 0.659749384959204 
1358	 0.659308965687442 
1359	 0.658860800911246 
1360	 0.658411919446969 
1361	 0.657960499971468 
1362	 0.657492125589737 
1363	 0.657021502771152 
1364	 0.656541240219882 
1365	 0.656059199812269 
1366	 0.655551887584717 
1367	 0.655039234807372 
1368	 0.654493459500029 
1369	 0.653921927181132 
1370	 0.653333951027909 
1371	 0.65272969128471 
1372	 0.652100232282969 
1373	 0.651448384223605 
1374	 0.65077849472107 
1375	 0.650079870426571 
1376	 0.649366298336153 
1377	 0.648627512422682 
1378	 0.647880803950524 
1379	 0.647108944011866 
1380	 0.646341354732287 
1381	 0.645567553988923 
1382	 0.644789518824856 
1383	 0.644004180239171 
1384	 0.643219927936417 
1385	 0.642421641745591 
1386	 0.641647486081198 
1387	 0.640851376159613 
1388	 0.640125221492605 
1389	 0.639420899803134 
1390	 0.63877685259735 
1391	 0.63821193822595 
1392	 0.637652490963941 
1393	 0.637171898474296 
1394	 0.636686727704884 
1395	 0.636178320146713 
1396	 0.635702273151288 
1397	 0.635143059705052 
1398	 0.634577682838579 
1399	 0.633879594698783 
1400	 0.633115188613241 
1401	 0.632265373782259 
1402	 0.63130916393303 
1403	 0.630300463161492 
1404	 0.629208294604386 
1405	 0.628107464485115 
1406	 0.626916105903723 
1407	 0.625761432198074 
1408	 0.624571856390163 
1409	 0.62343981085881 
1410	 0.622281077212235 
1411	 0.621228751899571 
1412	 0.620205303307033 
1413	 0.619311658817124 
1414	 0.618524719750254 
1415	 0.617792386063795 
1416	 0.617173754836955 
1417	 0.616580452987447 
1418	 0.616062361721358 
1419	 0.615539423004578 
1420	 0.615060581585852 
1421	 0.614589477477246 
1422	 0.61410818066151 
1423	 0.613665374736321 
1424	 0.61327018785972 
1425	 0.612858652770903 
1426	 0.612485450599799 
1427	 0.612142658415445 
1428	 0.611808132235223 
1429	 0.611520154641879 
1430	 0.611260016902881 
1431	 0.611025363494768 
1432	 0.610835447552604 
1433	 0.61068483244577 
1434	 0.610563001028473 
1435	 0.610486348497124 
1436	 0.610414325519243 
1437	 0.610378289894438 
1438	 0.610332415115631 
1439	 0.610291054961656 
1440	 0.610267271397534 
1441	 0.610248629951601 
1442	 0.610247393683979 
1443	 0.610260813249291 
1444	 0.610292844773118 
1445	 0.610342617109694 
1446	 0.610399967029309 
1447	 0.610470840589404 
1448	 0.610561377572288 
1449	 0.610672629871652 
1450	 0.610779376953084 
1451	 0.61091299951833 
1452	 0.611027382571664 
1453	 0.611127081347233 
1454	 0.611230876701563 
1455	 0.611333532848078 
1456	 0.61143454646825 
1457	 0.611542734761184 
1458	 0.611635647458453 
1459	 0.611718108733349 
1460	 0.611799703958992 
1461	 0.611858925079125 
1462	 0.611935461247206 
1463	 0.612015192193543 
1464	 0.612107127853115 
1465	 0.612211027291644 
1466	 0.612324212633996 
1467	 0.612446571794235 
1468	 0.612574852003596 
1469	 0.612703244372729 
1470	 0.612842598937632 
1471	 0.612960224854844 
1472	 0.613071567691483 
1473	 0.613176305727255 
1474	 0.613275602937884 
1475	 0.613349207541704 
1476	 0.613412596858862 
1477	 0.613463943403427 
1478	 0.613486825229141 
1479	 0.613518575608133 
1480	 0.613548517023829 
1481	 0.613574969202964 
1482	 0.613600923896761 
1483	 0.613606991750229 
1484	 0.613611216077608 
1485	 0.613593669582319 
1486	 0.613549733624555 
1487	 0.613509567922394 
1488	 0.613453956344882 
1489	 0.613407660988019 
1490	 0.613357601154942 
1491	 0.613313255615268 
1492	 0.61327262182784 
1493	 0.613235683159868 
1494	 0.613195789578303 
1495	 0.613171633649653 
1496	 0.613151554707263 
1497	 0.613149715281099 
1498	 0.61317213694185 
1499	 0.613186492554134 
1500	 0.61320294003242 
1501	 0.613231999655039 
1502	 0.613267146844179 
1503	 0.613303961322457 
1504	 0.613356604720723 
1505	 0.613403810556372 
1506	 0.613446837695986 
1507	 0.613491467706454 
1508	 0.613535902769111 
1509	 0.613584979521744 
1510	 0.613628240264549 
1511	 0.613684947335884 
1512	 0.613757486540858 
1513	 0.613826786000589 
1514	 0.61391502038143 
1515	 0.613982116078531 
1516	 0.614031503517128 
1517	 0.614084811136952 
1518	 0.614123351961515 
1519	 0.614168954798434 
1520	 0.614214612784555 
1521	 0.614275820347983 
1522	 0.614328694974962 
1523	 0.614386965300957 
1524	 0.614436307995477 
1525	 0.614483339932646 
1526	 0.614530081850221 
1527	 0.614576125468414 
1528	 0.614608329112336 
1529	 0.61463147226529 
1530	 0.614669218061604 
1531	 0.614695321309224 
1532	 0.614744412180558 
1533	 0.6148136442142 
1534	 0.614881920275432 
1535	 0.614962108508615 
1536	 0.615025122590411 
1537	 0.615087343383003 
1538	 0.61515129402859 
1539	 0.615206719656081 
1540	 0.615261166084534 
1541	 0.615330783765625 
1542	 0.615369688871865 
1543	 0.615401269756321 
1544	 0.615395226112731 
1545	 0.615367912993798 
1546	 0.615315627679404 
1547	 0.61522082952631 
1548	 0.615132636088319 
1549	 0.615030262355628 
1550	 0.614922585094178 
1551	 0.61481109329565 
1552	 0.614681362430358 
1553	 0.614539285468276 
1554	 0.614385663709124 
1555	 0.614202261951289 
1556	 0.614043826595272 
1557	 0.613878025292903 
1558	 0.613735466219045 
1559	 0.613616616612424 
1560	 0.613492573984076 
1561	 0.613366623406002 
1562	 0.613265300387251 
1563	 0.613171134388685 
1564	 0.613096126692401 
1565	 0.61304546220907 
1566	 0.613003893794908 
1567	 0.612973434842153 
1568	 0.612956332267009 
1569	 0.612952832159328 
1570	 0.612966255743052 
1571	 0.613002800153121 
1572	 0.61303383993099 
1573	 0.613078444039089 
1574	 0.613122166855563 
1575	 0.613154968687266 
1576	 0.613208879478572 
1577	 0.61328434389488 
1578	 0.613351289421619 
1579	 0.613429996305893 
1580	 0.613497564107787 
1581	 0.613542907011135 
1582	 0.613616247832631 
1583	 0.613693170265998 
1584	 0.613787602982717 
1585	 0.61390752962676 
1586	 0.614028610487673 
1587	 0.614174424656892 
1588	 0.614295432864817 
1589	 0.614404924179902 
1590	 0.614522724751482 
1591	 0.61462198542015 
1592	 0.614739447838747 
1593	 0.61487222594646 
1594	 0.615011580067809 
1595	 0.615164080299599 
1596	 0.615309319037727 
1597	 0.615460794895593 
1598	 0.615610264612524 
1599	 0.615755049463895 
1600	 0.615898962472782 
1601	 0.616051378070543 
1602	 0.616191174061474 
1603	 0.616320232019136 
1604	 0.616447810771445 
1605	 0.616564048636699 
1606	 0.616686630438947 
1607	 0.616814473907335 
1608	 0.616935767206299 
1609	 0.617074068104064 
1610	 0.617177740726516 
1611	 0.617257094824421 
1612	 0.617331193452859 
1613	 0.61737711544193 
1614	 0.617427782484501 
1615	 0.617477517323446 
1616	 0.617523388469761 
1617	 0.617571308050435 
1618	 0.617602362576021 
1619	 0.617637636755784 
1620	 0.617641649579045 
1621	 0.617624745586607 
1622	 0.617585626805271 
1623	 0.617498561920849 
1624	 0.617435498003086 
1625	 0.617368714282217 
1626	 0.617297013791566 
1627	 0.617232185671479 
1628	 0.61716821316559 
1629	 0.61710225518191 
1630	 0.617026448413844 
1631	 0.616945135409362 
1632	 0.616871042308915 
1633	 0.616782303218174 
1634	 0.616707962703401 
1635	 0.616664921073738 
1636	 0.616598126139292 
1637	 0.616526690241354 
1638	 0.616444561859044 
1639	 0.616341274675053 
1640	 0.616243611819931 
1641	 0.616153738530472 
1642	 0.616038845201113 
1643	 0.615907355878214 
1644	 0.615780887622791 
1645	 0.615640021300602 
1646	 0.615499302958373 
1647	 0.615389529529674 
1648	 0.615222398559453 
1649	 0.615022586590488 
1650	 0.614805553920666 
1651	 0.614551907768624 
1652	 0.614286221112549 
1653	 0.614008635986803 
1654	 0.613705018147213 
1655	 0.613371692757807 
1656	 0.613023959636895 
1657	 0.612675058735983 
1658	 0.61227412051655 
1659	 0.611839572787395 
1660	 0.61137903498133 
1661	 0.610896146767012 
1662	 0.61035022585631 
1663	 0.60977121902704 
1664	 0.609120361993086 
1665	 0.608402490630176 
1666	 0.607620987115732 
1667	 0.606783489871946 
1668	 0.60589802114819 
1669	 0.604957970525568 
1670	 0.603943156497423 
1671	 0.602862845464024 
1672	 0.601713051073111 
1673	 0.600492859596599 
1674	 0.599192938864623 
1675	 0.597821457748735 
1676	 0.596416337679784 
1677	 0.594960192791707 
1678	 0.593405326496127 
1679	 0.591774708155894 
1680	 0.590076848852054 
1681	 0.588282247260408 
1682	 0.58641918203188 
1683	 0.58450045917643 
1684	 0.582543339260576 
1685	 0.580520436477154 
1686	 0.578415671027837 
1687	 0.57623671550428 
1688	 0.574006136264379 
1689	 0.571672853613519 
1690	 0.569314083493126 
1691	 0.56692959516228 
1692	 0.564547768022211 
1693	 0.562135800422495 
1694	 0.55967412935225 
1695	 0.557200087706378 
1696	 0.55462948218867 
1697	 0.551979510371647 
1698	 0.549254824325409 
1699	 0.54644736369431 
1700	 0.54371231013203 
1701	 0.540887847631045 
1702	 0.538206734396623 
1703	 0.535534776720568 
1704	 0.53306098203713 
1705	 0.530665525112194 
1706	 0.528429702323825 
1707	 0.526515299331534 
1708	 0.524699002563682 
1709	 0.522997493798511 
1710	 0.521460205434921 
1711	 0.51989306676041 
1712	 0.518379675839945 
1713	 0.51690192773786 
1714	 0.515407407565424 
1715	 0.514015270760739 
1716	 0.512624190826891 
1717	 0.511302395963285 
1718	 0.510061530288765 
1719	 0.508860252790269 
1720	 0.507787026875147 
1721	 0.506815660011796 
1722	 0.506011984712134 
1723	 0.505440845473929 
1724	 0.50507944468008 
1725	 0.504942178298226 
1726	 0.505088779602126 
1727	 0.505537555586602 
1728	 0.506241166319211 
1729	 0.507232226123938 
1730	 0.508471772162231 
1731	 0.509779378883223 
1732	 0.511249209621013 
1733	 0.512784522471534 
1734	 0.514341187711494 
1735	 0.51592537995631 
1736	 0.51737962455635 
1737	 0.518700701769981 
1738	 0.519811894964889 
1739	 0.520685051599881 
1740	 0.521345178017781 
1741	 0.521824939108108 
1742	 0.522061125221142 
1743	 0.522169490715418 
1744	 0.522039435956897 
1745	 0.521897649361779 
1746	 0.521594859043924 
1747	 0.52132583998309 
1748	 0.521005923530389 
1749	 0.520729275037808 
1750	 0.520403788271998 
1751	 0.520202411513651 
1752	 0.520049659831537 
1753	 0.519990791481579 
1754	 0.520000195563742 
1755	 0.520133407573403 
1756	 0.520319641546539 
1757	 0.520717932311086 
1758	 0.521294368158604 
1759	 0.522017860189854 
1760	 0.522949607494039 
1761	 0.52403794806652 
1762	 0.525188271570079 
1763	 0.526503145035661 
1764	 0.527922667228081 
1765	 0.529424962880742 
1766	 0.531096463833739 
1767	 0.532759069249489 
1768	 0.534445090740034 
1769	 0.536167317507672 
1770	 0.537741876833961 
1771	 0.539284261444156 
1772	 0.540735401986676 
1773	 0.542025315375339 
1774	 0.543298785842426 
1775	 0.544464164224292 
1776	 0.545586346229234 
1777	 0.546634263537431 
1778	 0.547495806429434 
1779	 0.548280757083236 
1780	 0.548950573678292 
1781	 0.549521155313847 
1782	 0.550068256599891 
1783	 0.550532027296797 
1784	 0.550927666047221 
1785	 0.551240759936444 
1786	 0.55152027792694 
1787	 0.551754030993496 
1788	 0.551957800697473 
1789	 0.552110531000422 
1790	 0.552246319271049 
1791	 0.552326841244012 
1792	 0.552436112884484 
1793	 0.552539600105555 
1794	 0.552663702611968 
1795	 0.552773690597583 
1796	 0.552878561598819 
1797	 0.552974257404528 
1798	 0.553045270527517 
1799	 0.553160119850492 
1800	 0.553302512927709 
1801	 0.556583621927811 
1802	 0.556709398902088 
1803	 0.55685059625131 
1804	 0.557002123232829 
1805	 0.5571480539473 
1806	 0.557288534620145 
1807	 0.557427055596063 
1808	 0.557581455442941 
1809	 0.557734484853808 
1810	 0.557888452542954 
1811	 0.558056689225205 
1812	 0.558229791316415 
1813	 0.558388828557691 
1814	 0.558576788291364 
1815	 0.558753874797063 
1816	 0.558942942362474 
1817	 0.559152477103597 
1818	 0.559361049184204 
1819	 0.559585324866158 
1820	 0.559858054776584 
1821	 0.560096883413087 
1822	 0.560314187238186 
1823	 0.560558089629278 
1824	 0.560783214932889 
1825	 0.561012765564196 
1826	 0.561257272806769 
1827	 0.561518697854034 
1828	 0.561761338511208 
1829	 0.56200453293982 
1830	 0.562248206986268 
1831	 0.562486980712491 
1832	 0.562729153826282 
1833	 0.562941208261842 
1834	 0.563176582880722 
1835	 0.563421673250802 
1836	 0.563668176104905 
1837	 0.563947558432054 
1838	 0.564268676024252 
1839	 0.564575202552059 
1840	 0.564902517936304 
1841	 0.565212668165324 
1842	 0.565520996490432 
1843	 0.565838652797957 
1844	 0.566129538471914 
1845	 0.566378540726159 
1846	 0.56662041378642 
1847	 0.566841128044347 
1848	 0.56706278766295 
1849	 0.56729855531591 
1850	 0.567488658719962 
1851	 0.567656993805525 
1852	 0.567812418700708 
1853	 0.567934263259936 
1854	 0.56802565248066 
1855	 0.568115967718283 
1856	 0.568177716752327 
1857	 0.568193764774942 
1858	 0.568171535734694 
1859	 0.568128544554511 
1860	 0.568054570820361 
1861	 0.567947784865844 
1862	 0.567818388077299 
1863	 0.567659286245144 
1864	 0.567449228370593 
1865	 0.567215411607783 
1866	 0.566940658942363 
1867	 0.566622744813305 
1868	 0.566278751207125 
1869	 0.565864607388012 
1870	 0.565408354507907 
1871	 0.564928731484239 
1872	 0.564371083881497 
1873	 0.563740215852279 
1874	 0.563095843709927 
1875	 0.562408364008919 
1876	 0.561619033440656 
1877	 0.560845412165829 
1878	 0.559963469638171 
1879	 0.558932680172949 
1880	 0.557893196610994 
1881	 0.556729434895495 
1882	 0.555451211974524 
1883	 0.554083031508262 
1884	 0.552608259808797 
1885	 0.55091103265046 
1886	 0.549129078768517 
1887	 0.54716492590872 
1888	 0.545008553496378 
1889	 0.542918437605679 
1890	 0.540658917149839 
1891	 0.538348043823408 
1892	 0.536040735128895 
1893	 0.533624139551187 
1894	 0.531056390759964 
1895	 0.52856619475489 
1896	 0.526027658105689 
1897	 0.523473823139982 
1898	 0.52112291722733 
1899	 0.518728135220051 
1900	 0.516404121132645 
1901	 0.514177467021665 
1902	 0.511844292392502 
1903	 0.509630430126505 
1904	 0.507475037448904 
1905	 0.505338182460406 
1906	 0.503276581667766 
1907	 0.501444935981451 
1908	 0.499628151144622 
1909	 0.497905297278613 
1910	 0.496274780763311 
1911	 0.494604080539418 
1912	 0.493039776105068 
1913	 0.491513294257577 
1914	 0.490014729157764 
1915	 0.488659943874079 
1916	 0.487441438739694 
1917	 0.486245099249026 
1918	 0.485105685531021 
1919	 0.48406957832111 
1920	 0.483000816070683 
1921	 0.481977383373345 
1922	 0.481020880811372 
1923	 0.48011982912516 
1924	 0.479348502063424 
1925	 0.478620531002271 
1926	 0.477937383757369 
1927	 0.477334454150916 
1928	 0.476759364612897 
1929	 0.476203232799789 
1930	 0.475723768471434 
1931	 0.475312934140297 
1932	 0.474946107107247 
1933	 0.474637125301896 
1934	 0.474369048619188 
1935	 0.474135864667822 
1936	 0.473958718333083 
1937	 0.473842429198006 
1938	 0.473796887117923 
1939	 0.47376845773607 
1940	 0.473780059441107 
1941	 0.473850323240779 
1942	 0.473954563880603 
1943	 0.47409885780425 
1944	 0.474287014845191 
1945	 0.474521910146826 
1946	 0.474795681994014 
1947	 0.475082309542803 
1948	 0.475410187625126 
1949	 0.47575345559244 
1950	 0.476076617885611 
1951	 0.476378649367041 
1952	 0.476715024419908 
1953	 0.477060725215982 
1954	 0.477401970022363 
1955	 0.477788297232925 
1956	 0.478171954440938 
1957	 0.478558638196935 
1958	 0.478945629755082 
1959	 0.479290522482155 
1960	 0.479629062955994 
1961	 0.479953941433167 
1962	 0.480234984615212 
1963	 0.480546452380312 
1964	 0.480869700012312 
1965	 0.481181742336469 
1966	 0.4814910590991 
1967	 0.481820037163469 
1968	 0.482122708832235 
1969	 0.482420691399504 
1970	 0.482706941780836 
1971	 0.48296730822481 
1972	 0.483230412330584 
1973	 0.483488566246227 
1974	 0.483729772576898 
1975	 0.483981053895342 
1976	 0.484184083152237 
1977	 0.484349871613884 
1978	 0.484505924859284 
1979	 0.484634017418448 
1980	 0.484749248386514 
1981	 0.484853650749348 
1982	 0.484951685359034 
1983	 0.485037251973494 
1984	 0.48508544405032 
1985	 0.485094512904082 
1986	 0.485084574729012 
1987	 0.48506738043728 
1988	 0.48503310275008 
1989	 0.484968946592881 
1990	 0.484894485442485 
1991	 0.484795448415854 
1992	 0.48466097899295 
1993	 0.484500381285396 
1994	 0.484353602441749 
1995	 0.484175397609202 
1996	 0.483966225308181 
1997	 0.483714338940058 
1998	 0.483428692172406 
1999	 0.483095699361825 
2000	 0.482763725368709 
2001	 0.482394505377601 
2002	 0.482025977831597 
2003	 0.4816453578713 
2004	 0.481255213830085 
2005	 0.480861741912592 
2006	 0.480447902799525 
2007	 0.480010186646208 
2008	 0.479584737683104 
2009	 0.479139188642161 
2010	 0.478654926257596 
2011	 0.478198328526954 
2012	 0.477714618614504 
2013	 0.477229251895587 
2014	 0.476749029672572 
2015	 0.476241912831583 
2016	 0.475729322422052 
2017	 0.475184719972013 
2018	 0.474599120835993 
2019	 0.474013142205092 
2020	 0.473432535336574 
2021	 0.472793554619812 
2022	 0.472147065393865 
2023	 0.471478578244176 
2024	 0.470728275385074 
2025	 0.470003697263471 
2026	 0.469270462232963 
2027	 0.46850192164857 
2028	 0.467771925185487 
2029	 0.467053604231704 
2030	 0.466341337980019 
2031	 0.465652183550366 
2032	 0.464960061581597 
2033	 0.464237987681484 
2034	 0.463588220289488 
2035	 0.462966468008034 
2036	 0.46235444937915 
2037	 0.461832329124774 
2038	 0.461366378166496 
2039	 0.460939549180118 
2040	 0.460552633327239 
2041	 0.460230429230686 
2042	 0.459958062448434 
2043	 0.459750113679912 
2044	 0.4596070108902 
2045	 0.459513914448653 
2046	 0.459501692660983 
2047	 0.459500487946379 
2048	 0.45955062249423 
2049	 0.459619820552129 
2050	 0.459713393250196 
2051	 0.459833473746015 
2052	 0.459995465915845 
2053	 0.460187771354967 
2054	 0.460396206138661 
2055	 0.460634267420413 
2056	 0.460894093344644 
2057	 0.461197562314728 
2058	 0.461470994148845 
2059	 0.461771861493899 
2060	 0.462038045259606 
2061	 0.462266648363061 
2062	 0.462506164156724 
2063	 0.462747540312152 
2064	 0.462980890611545 
2065	 0.463214060962795 
2066	 0.463435977705744 
2067	 0.463651142350766 
2068	 0.463842694529547 
2069	 0.464002181217444 
2070	 0.464140751031473 
2071	 0.464252668254608 
2072	 0.46432433416912 
2073	 0.464394407812545 
2074	 0.464459148615397 
2075	 0.46448140411046 
2076	 0.464490955644366 
2077	 0.464454052234572 
2078	 0.464367413391189 
2079	 0.464263213101727 
2080	 0.464131274043582 
2081	 0.463965708372024 
2082	 0.463764841652854 
2083	 0.463550948873439 
2084	 0.463291844526082 
2085	 0.463008860999763 
2086	 0.462689346257675 
2087	 0.462330463615295 
2088	 0.461956599290291 
2089	 0.46154191919265 
2090	 0.461128725609084 
2091	 0.460727997199962 
2092	 0.460262525636146 
2093	 0.459758728820271 
2094	 0.459237567399664 
2095	 0.458657126739086 
2096	 0.458078367834738 
2097	 0.457504360806521 
2098	 0.456894897857523 
2099	 0.456268779544329 
2100	 0.455600751923046 
2101	 0.454886808545803 
2102	 0.454131419353959 
2103	 0.453350017275785 
2104	 0.452499937197495 
2105	 0.451684774096886 
2106	 0.450864963936705 
2107	 0.450025333618525 
2108	 0.449216259386435 
2109	 0.448326239105281 
2110	 0.447390249423883 
2111	 0.446424920030858 
2112	 0.445356935666498 
2113	 0.444346349099221 
2114	 0.443356403014452 
2115	 0.442338044465843 
2116	 0.441318398306061 
2117	 0.440330566111228 
2118	 0.439273333881802 
2119	 0.438148939399496 
2120	 0.437086776263386 
2121	 0.435992553519057 
2122	 0.434976715341476 
2123	 0.434013266956577 
2124	 0.43305531343408 
2125	 0.432163494672257 
2126	 0.431224713298299 
2127	 0.430246751213957 
2128	 0.429341049484956 
2129	 0.428430435099763 
2130	 0.427569489513699 
2131	 0.426780391575053 
2132	 0.426000751299777 
2133	 0.42525020702966 
2134	 0.424525188861815 
2135	 0.423747776262827 
2136	 0.423032612126081 
2137	 0.422317533403363 
2138	 0.421566843578909 
2139	 0.420900943487174 
2140	 0.420300157902697 
2141	 0.419704446246199 
2142	 0.419137514413592 
2143	 0.418596573932591 
2144	 0.418078684580437 
2145	 0.417599793087403 
2146	 0.417130344430453 
2147	 0.416731765308122 
2148	 0.416414437547291 
2149	 0.416085846755362 
2150	 0.415804652950936 
2151	 0.415529849477656 
2152	 0.415252607095143 
2153	 0.414996311146181 
2154	 0.414774064740975 
2155	 0.414565229857795 
2156	 0.414397267985603 
2157	 0.41425016313702 
2158	 0.414144156036727 
2159	 0.414103495112418 
2160	 0.414030343626839 
2161	 0.413958986788399 
2162	 0.413920036728421 
2163	 0.413868122015684 
2164	 0.413870167146528 
2165	 0.413922531291684 
2166	 0.413995648387184 
2167	 0.414077327341558 
2168	 0.414220130907021 
2169	 0.414406553031894 
2170	 0.41462874514472 
2171	 0.414915927671589 
2172	 0.41521526188389 
2173	 0.415542301526648 
2174	 0.415903044544408 
2175	 0.416260269806737 
2176	 0.416638766287218 
2177	 0.417049658441197 
2178	 0.417479966521049 
2179	 0.41793166576745 
2180	 0.418427026561244 
2181	 0.418909112540985 
2182	 0.419391025868775 
2183	 0.419904050947801 
2184	 0.420437592711539 
2185	 0.420977537972328 
2186	 0.421559895731834 
2187	 0.422099611736675 
2188	 0.42263262745033 
2189	 0.423153962921719 
2190	 0.423647219036403 
2191	 0.424152657417768 
2192	 0.42466471212833 
2193	 0.425160386440458 
2194	 0.42564970490908 
2195	 0.426128183569467 
2196	 0.426596005346282 
2197	 0.427061687382048 
2198	 0.427485670585646 
2199	 0.427915370527333 
2200	 0.428300149562799 
2201	 0.428634881136848 
2202	 0.428995773793419 
2203	 0.429360103016708 
2204	 0.429679071334842 
2205	 0.430001339345051 
2206	 0.430266581212821 
2207	 0.430468616666793 
2208	 0.430669903335069 
2209	 0.43083055516682 
2210	 0.431010665567672 
2211	 0.43119051065384 
2212	 0.431348432376119 
2213	 0.431513972173963 
2214	 0.431644862426483 
2215	 0.431762108922967 
2216	 0.431829185560622 
2217	 0.431851035120091 
2218	 0.431867802081144 
2219	 0.431847449061099 
2220	 0.43180618178574 
2221	 0.431761306991683 
2222	 0.431698465537418 
2223	 0.431555769145545 
2224	 0.431358859899732 
2225	 0.431142273807085 
2226	 0.430850768908873 
2227	 0.430501584743526 
2228	 0.430119433446315 
2229	 0.429636927329166 
2230	 0.429056088454452 
2231	 0.428439455798055 
2232	 0.427767280312488 
2233	 0.427007098213011 
2234	 0.42621629741352 
2235	 0.425268242776672 
2236	 0.424200970137927 
2237	 0.423052165397147 
2238	 0.421751745887117 
2239	 0.42041978119138 
2240	 0.419063139356201 
2241	 0.417537271857169 
2242	 0.41593925339903 
2243	 0.414175071211998 
2244	 0.412204449654936 
2245	 0.410191561470273 
2246	 0.407991671099175 
2247	 0.40582012016443 
2248	 0.403641707800597 
2249	 0.401358082624552 
2250	 0.399007586793994 
2251	 0.396657422974015 
2252	 0.394097710433406 
2253	 0.391575791745042 
2254	 0.388976237184189 
2255	 0.386294997434346 
2256	 0.383749353094548 
2257	 0.381116785042736 
2258	 0.378583527837535 
2259	 0.376183223056661 
2260	 0.373619160915888 
2261	 0.370994597761804 
2262	 0.368431293492793 
2263	 0.36575040189442 
2264	 0.363231216231616 
2265	 0.360855637975125 
2266	 0.358405709767344 
2267	 0.356010856129673 
2268	 0.353558881590835 
2269	 0.3510350267709 
2270	 0.348602263665896 
2271	 0.346139510204634 
2272	 0.343776401857072 
2273	 0.341518563124061 
2274	 0.339248566380475 
2275	 0.337118805577009 
2276	 0.334828364602631 
2277	 0.332491121337412 
2278	 0.330115132369997 
2279	 0.327554723624465 
2280	 0.325093015179053 
2281	 0.322716822535875 
2282	 0.320242172842807 
2283	 0.317743956540697 
2284	 0.315281065884636 
2285	 0.31258391019376 
2286	 0.309895686904213 
2287	 0.307119456731691 
2288	 0.304259814159486 
2289	 0.301556534629339 
2290	 0.298701210113231 
2291	 0.295861341392482 
2292	 0.293040842926804 
2293	 0.289970545727783 
2294	 0.287012694318712 
2295	 0.284137605469162 
2296	 0.281309201212023 
2297	 0.278903603440185 
2298	 0.276752972601657 
2299	 0.274919793078842 
2300	 0.273413695915526 
2301	 0.272245646059205 
2302	 0.271326831117294 
2303	 0.270939611950064 
2304	 0.270995894680964 
2305	 0.27141005136655 
2306	 0.272328183892464 
2307	 0.273548485947007 
2308	 0.275130170853268 
2309	 0.277092458448057 
2310	 0.279562404059372 
2311	 0.282154084477486 
2312	 0.28528158955824 
2313	 0.288216226350443 
2314	 0.291351629362463 
2315	 0.294333456009253 
2316	 0.297316784577377 
2317	 0.300075819338591 
2318	 0.302903537923983 
2319	 0.305210520469544 
2320	 0.307250331320861 
2321	 0.308897113053443 
2322	 0.310013411709391 
2323	 0.310989309819153 
2324	 0.311641928296926 
2325	 0.312075674664344 
2326	 0.312289149686489 
2327	 0.31222595951432 
2328	 0.3118043930301 
2329	 0.31124877034921 
2330	 0.310469701443184 
2331	 0.309438515109114 
2332	 0.308285862575324 
2333	 0.306912054291749 
2334	 0.305200737112816 
2335	 0.30334517578673 
2336	 0.301236393263023 
2337	 0.298991327016366 
2338	 0.296876292938289 
2339	 0.2946243943846 
2340	 0.292465434774963 
2341	 0.29047894332052 
2342	 0.288487048569157 
2343	 0.286820052353911 
2344	 0.285524380855785 
2345	 0.284642501307367 
2346	 0.284308180829908 
2347	 0.284428413799107 
2348	 0.284835922711506 
2349	 0.285792263298116 
2350	 0.287233708029802 
2351	 0.28895918872818 
2352	 0.290991717100359 
2353	 0.293200973326191 
2354	 0.295264620060841 
2355	 0.297234217343662 
2356	 0.299152710557577 
2357	 0.300834846445509 
2358	 0.302301883690346 
2359	 0.303462281780123 
2360	 0.304370123277059 
2361	 0.304981990526019 
2362	 0.305373721894817 
2363	 0.305636034069521 
2364	 0.3057498353229 
2365	 0.305787814164475 
2366	 0.305774491477285 
2367	 0.305714856755838 
2368	 0.305636411906752 
2369	 0.305580674706508 
2370	 0.305606359240548 
2371	 0.305662959474138 
2372	 0.30567384580172 
2373	 0.305746312499181 
2374	 0.305795534932496 
2375	 0.305744360705666 
2376	 0.305810488421027 
2377	 0.30595878602774 
2378	 0.306125537363341 
2379	 0.306360295257559 
2380	 0.306520886030479 
2381	 0.306626703270501 
2382	 0.306764077454072 
2383	 0.306792997670792 
2384	 0.306999625539268 
2385	 0.307355506809909 
2386	 0.307638252530816 
2387	 0.307969033604939 
2388	 0.308242908301009 
2389	 0.308490434794913 
2390	 0.308721522452686 
2391	 0.308946787590745 
2392	 0.309135646163602 
2393	 0.309233140222274 
2394	 0.309424551946877 
2395	 0.309646459211549 
2396	 0.309865049015998 
2397	 0.310178411240176 
2398	 0.310356770825402 
2399	 0.310442407946567 
2400	 0.3105465793496 
2401	 0.310596457939722 
2402	 0.310625144985997 
2403	 0.310745068328152 
2404	 0.310900669904576 
2405	 0.311094225809109 
2406	 0.311381844195265 
2407	 0.311573414322931 
2408	 0.311774424872617 
2409	 0.311891117116256 
2410	 0.311898449231403 
2411	 0.312072928398939 
2412	 0.312200464304245 
2413	 0.312266036187558 
2414	 0.312404129120932 
2415	 0.3125774808232 
2416	 0.312748415803154 
2417	 0.312948567515791 
2418	 0.313220371004147 
2419	 0.313409771077182 
2420	 0.313523037235332 
2421	 0.313583815016874 
2422	 0.313739389594324 
2423	 0.313915236900546 
2424	 0.314031283493268 
2425	 0.314291463056278 
2426	 0.314382198549541 
2427	 0.314327759465526 
2428	 0.314376097926384 
2429	 0.314346951703096 
2430	 0.314407823168328 
2431	 0.314646771954786 
2432	 0.314861408173944 
2433	 0.315052047938292 
2434	 0.315197609396432 
2435	 0.315161681581345 
2436	 0.314969109974363 
2437	 0.314791716889184 
2438	 0.314516889458927 
2439	 0.314296664298699 
2440	 0.314307488604788 
2441	 0.314320783247354 
2442	 0.314399214940974 
2443	 0.314388001956251 
2444	 0.314077889477232 
2445	 0.313752315293874 
2446	 0.313387106761502 
2447	 0.312891023471881 
2448	 0.312514362121882 
2449	 0.31208580203088 
2450	 0.31153962870152 
2451	 0.31109175612206 
2452	 0.31055476094364 
2453	 0.309946099077927 
2454	 0.309504279566682 
2455	 0.30893768609785 
2456	 0.308376317015262 
2457	 0.308130949650606 
2458	 0.307847060705483 
2459	 0.30774405242396 
2460	 0.307816514849161 
2461	 0.307635673262734 
2462	 0.307304458526518 
2463	 0.30694987374147 
2464	 0.306528055261468 
2465	 0.306038779418586 
2466	 0.305724777175422 
2467	 0.305523686020006 
2468	 0.305460119187535 
2469	 0.305512912330914 
2470	 0.305432071836879 
2471	 0.305345463091377 
2472	 0.305208191587861 
2473	 0.305237023200584 
2474	 0.305418067139356 
2475	 0.305486221863818 
2476	 0.305523001043474 
2477	 0.305427912918458 
2478	 0.305415211920531 
2479	 0.305409980375495 
2480	 0.305485811502149 
2481	 0.305633441942978 
2482	 0.305766508119833 
2483	 0.306027864500609 
2484	 0.306048997761 
2485	 0.306318360032087 
2486	 0.306981749660215 
2487	 0.307559894599323 
2488	 0.308126681740991 
2489	 0.308504272828432 
2490	 0.30843890367905 
2491	 0.308401550093953 
2492	 0.308916946862248 
2493	 0.309678227246089 
2494	 0.310434811494156 
2495	 0.311152424934701 
2496	 0.311623719397297 
2497	 0.311876307776257 
2498	 0.311933861571842 
2499	 0.312264321369264 
2500	 0.31288609069333 
