Wavelength	spectrum00002.asd
350	 2.51831288697908E-02 
351	 2.41701156892349E-02 
352	 2.35070922400139E-02 
353	 2.32740268326431E-02 
354	 2.23592982385667E-02 
355	 2.20481003210537E-02 
356	 0.022288991377216 
357	 2.22382708619308E-02 
358	 1.93647450593778E-02 
359	 1.81005347021257E-02 
360	 1.85341631051339E-02 
361	 0.018597787755619 
362	 1.94095018882281E-02 
363	 1.95630902634751E-02 
364	 1.85896048049181E-02 
365	 1.74589099689363E-02 
366	 1.81831779576967E-02 
367	 1.86572127910576E-02 
368	 0.017465264633738 
369	 1.89635194791786E-02 
370	 1.96437169620373E-02 
371	 1.91707747175194E-02 
372	 0.018923875200602 
373	 1.74888287393144E-02 
374	 1.71051542163109E-02 
375	 1.83146861728664E-02 
376	 1.87896010593259E-02 
377	 1.89234317146505E-02 
378	 1.85110575881304E-02 
379	 1.77360160080957E-02 
380	 1.84602980046967E-02 
381	 1.86243214851446E-02 
382	 1.82879189926572E-02 
383	 1.86747785715034E-02 
384	 1.84848378787073E-02 
385	 1.83545676112097E-02 
386	 1.84564597947544E-02 
387	 1.79324925686844E-02 
388	 1.73927644513388E-02 
389	 1.74743345878267E-02 
390	 1.82679012700532E-02 
391	 1.79435278891378E-02 
392	 1.78623723505887E-02 
393	 1.82640099249292E-02 
394	 1.85512639255521E-02 
395	 1.80842075209301E-02 
396	 1.80088182041675E-02 
397	 1.85546892266901E-02 
398	 1.80496661922378E-02 
399	 1.79376852926953E-02 
400	 1.79935536259811E-02 
401	 1.77203100637627E-02 
402	 1.75159569207263E-02 
403	 1.79211358740716E-02 
404	 1.85977261759711E-02 
405	 1.86200547716011E-02 
406	 1.82390626403091E-02 
407	 1.80762745548349E-02 
408	 1.83585897187993E-02 
409	 1.85355088545741E-02 
410	 1.82717919731273E-02 
411	 1.79422755051499E-02 
412	 1.80391763845498E-02 
413	 1.83162524073375E-02 
414	 1.82861807778695E-02 
415	 1.80961147336133E-02 
416	 1.84138851970668E-02 
417	 1.84311175406795E-02 
418	 1.84019625562189E-02 
419	 1.85072921130493E-02 
420	 0.018271664163238 
421	 1.82392058429055E-02 
422	 1.84067296956734E-02 
423	 1.85447241032966E-02 
424	 1.85827179322462E-02 
425	 1.87185881582078E-02 
426	 1.89596118598028E-02 
427	 1.90781468593581E-02 
428	 1.88892800180042E-02 
429	 1.87709302971642E-02 
430	 1.89929696008309E-02 
431	 1.90980449900606E-02 
432	 1.93796441932008E-02 
433	 1.96597675955192E-02 
434	 1.95790860008243E-02 
435	 1.96928234535362E-02 
436	 1.98704646089815E-02 
437	 2.00249557357137E-02 
438	 0.020273616652794 
439	 2.03587541923811E-02 
440	 2.03871797085692E-02 
441	 0.020518627164006 
442	 0.020622342231624 
443	 2.08984842171632E-02 
444	 2.12404246484098E-02 
445	 2.13201523948742E-02 
446	 2.14373165810978E-02 
447	 2.14949889648601E-02 
448	 2.14594596750574E-02 
449	 2.15627399225572E-02 
450	 2.18373277352255E-02 
451	 2.20171258975339E-02 
452	 2.18431787289571E-02 
453	 2.18835309874815E-02 
454	 2.19693995489487E-02 
455	 2.20107206799323E-02 
456	 2.20640294227278E-02 
457	 2.21552644385107E-02 
458	 2.21691673033135E-02 
459	 2.20835391693775E-02 
460	 2.22580544895355E-02 
461	 2.23525512215939E-02 
462	 2.23197874438753E-02 
463	 2.22881920655161E-02 
464	 2.23291998118709E-02 
465	 2.24294800370578E-02 
466	 2.25222213419265E-02 
467	 2.24771245739568E-02 
468	 2.24330404591108E-02 
469	 2.24462459426181E-02 
470	 2.25386401242698E-02 
471	 2.27283415899987E-02 
472	 2.27823012070436E-02 
473	 2.27286671401411E-02 
474	 2.27953586090106E-02 
475	 2.28064658815352E-02 
476	 2.28524798981479E-02 
477	 2.29855244333119E-02 
478	 2.30932718751119E-02 
479	 2.31278502443183E-02 
480	 2.31473508826915E-02 
481	 2.32372773477446E-02 
482	 2.33354906327989E-02 
483	 2.33967601924583E-02 
484	 2.34588496664288E-02 
485	 2.36478519421478E-02 
486	 2.38140051003141E-02 
487	 2.39257769112086E-02 
488	 0.024013365834847 
489	 2.42056927754022E-02 
490	 2.43760490198031E-02 
491	 2.45076685580004E-02 
492	 2.46509030276161E-02 
493	 2.48037706611667E-02 
494	 2.49919338763984E-02 
495	 2.52296510513055E-02 
496	 2.55187235522033E-02 
497	 0.025691224352578 
498	 2.58242515634357E-02 
499	 2.60464961583325E-02 
500	 2.63304303701404E-02 
501	 2.65909335251367E-02 
502	 2.68302819815932E-02 
503	 0.027125856823091 
504	 2.74144794129657E-02 
505	 2.77161380512967E-02 
506	 2.80477151960772E-02 
507	 2.83868382334969E-02 
508	 2.86982311410247E-02 
509	 2.90330560946078E-02 
510	 2.94524336004864E-02 
511	 2.97796569537644E-02 
512	 3.02005644659821E-02 
513	 3.07208094540244E-02 
514	 0.031078888289479 
515	 3.14322944013519E-02 
516	 3.18503998416518E-02 
517	 3.23500998378569E-02 
518	 3.28467043268093E-02 
519	 3.33727546917716E-02 
520	 3.39234853902119E-02 
521	 3.44726261167518E-02 
522	 3.50803062331157E-02 
523	 3.57001308292143E-02 
524	 3.63121830701064E-02 
525	 3.69808530134946E-02 
526	 3.76694699259286E-02 
527	 3.83686196190334E-02 
528	 3.90932640619019E-02 
529	 3.99408554297109E-02 
530	 4.07667577482008E-02 
531	 4.15698758985052E-02 
532	 4.25090105753695E-02 
533	 4.33442726194342E-02 
534	 4.42418960736991E-02 
535	 0.045319923016906 
536	 4.62966095361568E-02 
537	 4.73487967724578E-02 
538	 4.84640862327404E-02 
539	 4.95392962277204E-02 
540	 5.06573824701733E-02 
541	 5.18441015296212E-02 
542	 5.30861187283584E-02 
543	 5.43197464743443E-02 
544	 0.055561309003698 
545	 5.67941287602332E-02 
546	 5.80156875313619E-02 
547	 5.93262138908429E-02 
548	 6.06608090089243E-02 
549	 0.062005868800598 
550	 6.33967861355775E-02 
551	 6.47794969486948E-02 
552	 6.61653991781926E-02 
553	 6.75596639590666E-02 
554	 6.89065702965941E-02 
555	 7.02909558357573E-02 
556	 7.17087204871357E-02 
557	 7.31155020751589E-02 
558	 7.45373555116034E-02 
559	 7.59349096136271E-02 
560	 7.72765009821098E-02 
561	 7.85511722523443E-02 
562	 7.97618368146837E-02 
563	 8.09487473090709E-02 
564	 8.21402132783301E-02 
565	 8.32791552675576E-02 
566	 8.43863986246638E-02 
567	 8.54793812793945E-02 
568	 8.65723603975442E-02 
569	 8.76881329594503E-02 
570	 8.87943515901089E-02 
571	 8.98614361600756E-02 
572	 9.08829254522487E-02 
573	 9.18646657359987E-02 
574	 9.27714339516652E-02 
575	 9.35671037664519E-02 
576	 9.43020914812661E-02 
577	 9.49424991858549E-02 
578	 9.55425266512182E-02 
579	 9.62539421796793E-02 
580	 9.68676920807205E-02 
581	 9.74385145663434E-02 
582	 9.80327316351463E-02 
583	 9.85520267780783E-02 
584	 9.90322510822357E-02 
585	 9.94825868149801E-02 
586	 9.98996240260722E-02 
587	 0.100302012937231 
588	 0.100669299637364 
589	 0.100995473099223 
590	 0.101306256624904 
591	 0.1015755714918 
592	 0.101805780138797 
593	 0.101997330256845 
594	 0.102100978385628 
595	 0.102181122018255 
596	 0.102256855555534 
597	 0.102304227999881 
598	 0.102333051287974 
599	 0.102372705147242 
600	 0.102414327732328 
601	 0.102341158497694 
602	 0.102292303443729 
603	 0.102267178351766 
604	 0.102211448435124 
605	 0.10216010317967 
606	 0.102092330954531 
607	 0.102018254740612 
608	 0.101990753710749 
609	 0.10185502853923 
610	 0.101713946957718 
611	 0.101664983005255 
612	 0.101567373782802 
613	 0.101433130557702 
614	 0.101277908285933 
615	 0.101118292045084 
616	 0.100935806753383 
617	 0.100789093197131 
618	 0.100686559758332 
619	 0.100530029862662 
620	 0.100391920946321 
621	 0.100266363954405 
622	 0.100123437442745 
623	 9.99431937330935E-02 
624	 9.97881039249054E-02 
625	 9.96666806054616E-02 
626	 9.95355534569269E-02 
627	 9.94307523247165E-02 
628	 9.93277114149962E-02 
629	 9.92121037963696E-02 
630	 9.91262722812965E-02 
631	 9.90153980265357E-02 
632	 9.88939050230992E-02 
633	 9.88013998791648E-02 
634	 9.87111756035916E-02 
635	 9.86381811096678E-02 
636	 0.098580383780597 
637	 9.85116494082623E-02 
638	 9.84536375086715E-02 
639	 9.83969982077607E-02 
640	 9.83368868634881E-02 
641	 9.83076193320831E-02 
642	 9.82873718324839E-02 
643	 9.82679869118755E-02 
644	 9.82524513812095E-02 
645	 9.82623321528823E-02 
646	 9.82745397084165E-02 
647	 9.82824500369619E-02 
648	 9.83160801780515E-02 
649	 9.83435610978464E-02 
650	 9.83774488760391E-02 
651	 9.84335388019064E-02 
652	 9.84807634235833E-02 
653	 9.85352373310508E-02 
654	 9.86057097974581E-02 
655	 9.86930546883569E-02 
656	 9.87933855610307E-02 
657	 9.89128045653559E-02 
658	 9.90371391536266E-02 
659	 9.90963425445047E-02 
660	 9.92334808352214E-02 
661	 9.94073979150551E-02 
662	 9.95333876015367E-02 
663	 9.97102467880243E-02 
664	 9.98769749961959E-02 
665	 0.100026159811632 
666	 0.100210464288205 
667	 0.100383609589593 
668	 0.100576183921252 
669	 0.100804703554214 
670	 0.101011678827403 
671	 0.101227081065191 
672	 0.101463744834727 
673	 0.10172567881933 
674	 0.10201137103775 
675	 0.102282686374878 
676	 0.102532582695937 
677	 0.102794329977164 
678	 0.103108099387917 
679	 0.103442806104785 
680	 0.103766291227039 
681	 0.104100512609274 
682	 0.104457518688111 
683	 0.104804155787156 
684	 0.105102494561373 
685	 0.105487962331179 
686	 0.105895167006078 
687	 0.10628680738379 
688	 0.10669681928243 
689	 0.107097438018675 
690	 0.107507643547784 
691	 0.107952297209602 
692	 0.108437579280313 
693	 0.108895670768343 
694	 0.1093471078848 
695	 0.109858466956823 
696	 0.110354829619523 
697	 0.110845408115749 
698	 0.111347832544503 
699	 0.111877822434989 
700	 0.112407650612973 
701	 0.112951119135861 
702	 0.11352644003289 
703	 0.114122116372607 
704	 0.114708436388601 
705	 0.115283186334491 
706	 0.115865070116264 
707	 0.116468925495045 
708	 0.117106929297124 
709	 0.117760396676255 
710	 0.118359107488652 
711	 0.119013767660501 
712	 0.11969207827862 
713	 0.120342013031768 
714	 0.121020384202391 
715	 0.121672584611278 
716	 0.122312983615714 
717	 0.122999328107297 
718	 0.12368708843998 
719	 0.124364257071831 
720	 0.125043173274574 
721	 0.125771594257338 
722	 0.12644381720018 
723	 0.127097870082635 
724	 0.127792759357538 
725	 0.128487729690109 
726	 0.129153802394223 
727	 0.129814153305184 
728	 0.130518140416818 
729	 0.131169103488613 
730	 0.131826946429445 
731	 0.132514873511619 
732	 0.13316157508389 
733	 0.133810044323842 
734	 0.134443749082798 
735	 0.135050906352088 
736	 0.135700899977417 
737	 0.136319566900754 
738	 0.136899441884932 
739	 0.137477151543584 
740	 0.138043569660478 
741	 0.138604426459147 
742	 0.139156915633737 
743	 0.139685905861578 
744	 0.140165061434935 
745	 0.14061971416076 
746	 0.141077101117589 
747	 0.141519382571787 
748	 0.141954609519103 
749	 0.142370948861114 
750	 0.142751824686032 
751	 0.143139745527004 
752	 0.143494695493656 
753	 0.143805048779217 
754	 0.144105823983382 
755	 0.144360395511668 
756	 0.144582146076038 
757	 0.144788113267281 
758	 0.144968819642514 
759	 0.145138441223226 
760	 0.145277520133291 
761	 0.14536001722763 
762	 0.145423442926344 
763	 0.145474666115009 
764	 0.145515004417835 
765	 0.145541352708426 
766	 0.145532006878614 
767	 0.145470505371989 
768	 0.145363450869683 
769	 0.145262826711036 
770	 0.145161094771657 
771	 0.145036804838019 
772	 0.144867965596059 
773	 0.14466366664731 
774	 0.144450706566741 
775	 0.144236888885339 
776	 0.14401222134028 
777	 0.143769737527559 
778	 0.143487733038009 
779	 0.143164216530804 
780	 0.142831086643628 
781	 0.142515078929203 
782	 0.142208180515572 
783	 0.141886913875606 
784	 0.141520477470333 
785	 0.141130072739405 
786	 0.140723555027909 
787	 0.140302773446615 
788	 0.139882565373445 
789	 0.139460671317958 
790	 0.139023894285513 
791	 0.138551048989539 
792	 0.138102387023061 
793	 0.137669565863845 
794	 0.137223490144022 
795	 0.136721127991347 
796	 0.136206960918444 
797	 0.135717317269233 
798	 0.135260337321166 
799	 0.134731853474547 
800	 0.134189925388097 
801	 0.133665981048841 
802	 0.133158920844939 
803	 0.132614645493145 
804	 0.1320630248508 
805	 0.131533578494853 
806	 0.131035962224332 
807	 0.130514971889592 
808	 0.129987720579087 
809	 0.129472534434489 
810	 0.128932317644404 
811	 0.128388504945883 
812	 0.127855027730732 
813	 0.127334643497829 
814	 0.126787849517255 
815	 0.126255043276572 
816	 0.125747082181775 
817	 0.125245006492875 
818	 0.124756029595978 
819	 0.12426187772694 
820	 0.123754136056727 
821	 0.123245891594174 
822	 0.122742530865254 
823	 0.122244632253943 
824	 0.121756366045628 
825	 0.121301413865057 
826	 0.120828031591944 
827	 0.120341348800303 
828	 0.119872536479047 
829	 0.119425701696527 
830	 0.118985787648115 
831	 0.11853794573843 
832	 0.118075201814161 
833	 0.11765170872458 
834	 0.117233298941558 
835	 0.116801008258998 
836	 0.116379175742778 
837	 0.115958994625125 
838	 0.115543512165861 
839	 0.115140514941858 
840	 0.114765333718597 
841	 0.114381047268935 
842	 0.113986996089929 
843	 0.113597961416046 
844	 0.113223117800163 
845	 0.112831393421666 
846	 0.112447685866031 
847	 0.112124505336655 
848	 0.111773116631977 
849	 0.111405804287134 
850	 0.111042254862443 
851	 0.110696384929841 
852	 0.110394653225148 
853	 0.110076178636427 
854	 0.109721160859654 
855	 0.10943549847428 
856	 0.109135683035474 
857	 0.108820597837565 
858	 0.108515363909784 
859	 0.108241616348399 
860	 0.107936790682431 
861	 0.107648124710311 
862	 0.107449325998951 
863	 0.107206809775916 
864	 0.1069603636197 
865	 0.106723922790005 
866	 0.106479270172962 
867	 0.106219466789437 
868	 0.105999097699199 
869	 0.105821389099156 
870	 0.105611724349531 
871	 0.105412551837807 
872	 0.105198496190701 
873	 0.104963001435435 
874	 0.104766050613224 
875	 0.104636053670749 
876	 0.10450851554577 
877	 0.104327182231841 
878	 0.104179863099169 
879	 0.104038144283711 
880	 0.103902517548684 
881	 0.103784083953087 
882	 0.103679330591822 
883	 0.103521112790585 
884	 0.103347470134364 
885	 0.10326228281462 
886	 0.10319539092286 
887	 0.103099908685163 
888	 0.10297872408361 
889	 0.102886121525238 
890	 0.102799101657542 
891	 0.102717645189545 
892	 0.102640357672102 
893	 0.102557931936206 
894	 0.102500337406124 
895	 0.102462357218282 
896	 0.102430153022206 
897	 0.102394926400257 
898	 0.102358178277567 
899	 0.102311048125779 
900	 0.102252052137686 
901	 0.102216601617119 
902	 0.102190719572332 
903	 0.102157364804322 
904	 0.102109019913808 
905	 0.102089884469743 
906	 0.102087714926656 
907	 0.102084060908605 
908	 0.102067210799836 
909	 0.102095240287533 
910	 0.102082232436642 
911	 0.102051770009043 
912	 0.102129325398155 
913	 0.10214146333038 
914	 0.102159317860672 
915	 0.102214836101126 
916	 0.102239506643609 
917	 0.102284243557803 
918	 0.102348736581456 
919	 0.102415004663303 
920	 0.10245383174686 
921	 0.102497903954654 
922	 0.1025493599484 
923	 0.102607483821636 
924	 0.102684348739035 
925	 0.102786555571125 
926	 0.102899018384113 
927	 0.102999003059806 
928	 0.103064212450293 
929	 0.103143632276022 
930	 0.103239738446662 
931	 0.103337484643791 
932	 0.103444788933612 
933	 0.103556073232654 
934	 0.103677761198431 
935	 0.103812723314521 
936	 0.103906173962541 
937	 0.10403010564448 
938	 0.104196227265655 
939	 0.104363375829421 
940	 0.104486071075696 
941	 0.104596739979099 
942	 0.104718499769603 
943	 0.104861165701315 
944	 0.105065326070331 
945	 0.10522944800839 
946	 0.105350610195787 
947	 0.105534706052153 
948	 0.10571000298357 
949	 0.105871285649467 
950	 0.106036955443599 
951	 0.106237464234294 
952	 0.106419902710896 
953	 0.106580699289739 
954	 0.106743122779362 
955	 0.106949987076934 
956	 0.107134854173321 
957	 0.107306757035513 
958	 0.107486937158458 
959	 0.107687008781873 
960	 0.10787368208917 
961	 0.108042787189159 
962	 0.108238141553625 
963	 0.108577000702252 
964	 0.108764644164895 
965	 0.108889812238174 
966	 0.109076461804001 
967	 0.109278617881681 
968	 0.109513564171513 
969	 0.109760661531409 
970	 0.109995907086367 
971	 0.110215127583196 
972	 0.11042303026139 
973	 0.110659942570161 
974	 0.110937236823025 
975	 0.111160809997301 
976	 0.11137326749236 
977	 0.111628289316782 
978	 0.111931177737108 
979	 0.112129155268803 
980	 0.112399568688703 
981	 0.112655344862734 
982	 0.112823699421878 
983	 0.113175196237941 
984	 0.113486921509361 
985	 0.113804280491185 
986	 0.114176275546929 
987	 0.114329729293424 
988	 0.114608748755927 
989	 0.114982013660498 
990	 0.11530312291185 
991	 0.115554193965701 
992	 0.115793855880684 
993	 0.116091063747564 
994	 0.116475641979093 
995	 0.116861242837571 
996	 0.117179650807038 
997	 0.117417313252494 
998	 0.117659875030315 
999	 0.118225158881927 
1000	 0.118658948426961 
1001	 0.113155114944772 
1002	 0.113505198723447 
1003	 0.113914387469174 
1004	 0.114258645069743 
1005	 0.114580346523467 
1006	 0.11491916251019 
1007	 0.115223392963981 
1008	 0.115576124472321 
1009	 0.115953844631684 
1010	 0.116338639154323 
1011	 0.11677912565112 
1012	 0.117164152363419 
1013	 0.117520838297664 
1014	 0.11789086463089 
1015	 0.118244029422685 
1016	 0.118576754331608 
1017	 0.118972341338081 
1018	 0.119384844183086 
1019	 0.119799426644814 
1020	 0.120232062429491 
1021	 0.120637941485678 
1022	 0.121024237939018 
1023	 0.121424485850752 
1024	 0.121809263485613 
1025	 0.122221896941835 
1026	 0.122667638253967 
1027	 0.123080423343574 
1028	 0.123490617830793 
1029	 0.123899493607804 
1030	 0.124291577788552 
1031	 0.12472506752884 
1032	 0.125175732537099 
1033	 0.125622368413475 
1034	 0.126101427020278 
1035	 0.12656217591582 
1036	 0.127037779092981 
1037	 0.127545421251494 
1038	 0.128040403500543 
1039	 0.128518753609317 
1040	 0.129017035192951 
1041	 0.129511802063189 
1042	 0.130036058898139 
1043	 0.130584941103827 
1044	 0.131134051143413 
1045	 0.131694085042876 
1046	 0.132279352421354 
1047	 0.132850347066337 
1048	 0.133431742704052 
1049	 0.133995808756691 
1050	 0.134575158110691 
1051	 0.135183088675674 
1052	 0.135784665714729 
1053	 0.136422548781662 
1054	 0.137123047154521 
1055	 0.137773257587683 
1056	 0.138438328275477 
1057	 0.139078785818755 
1058	 0.139669466664545 
1059	 0.140305476989303 
1060	 0.141001003071893 
1061	 0.141630223372642 
1062	 0.142336109325381 
1063	 0.143061457069115 
1064	 0.143717084276263 
1065	 0.144447495656909 
1066	 0.145188944814073 
1067	 0.145866515792053 
1068	 0.146572894525138 
1069	 0.147274995516176 
1070	 0.147986366615009 
1071	 0.148686037222439 
1072	 0.149441181353893 
1073	 0.150190448211611 
1074	 0.150935987026908 
1075	 0.151672934148823 
1076	 0.152438953351335 
1077	 0.153237297864091 
1078	 0.153984320439572 
1079	 0.15474931135119 
1080	 0.155511233214627 
1081	 0.156227308316272 
1082	 0.156991385808002 
1083	 0.157755001531346 
1084	 0.158510693549296 
1085	 0.159319604262196 
1086	 0.160110546781113 
1087	 0.160886095405137 
1088	 0.161709724779213 
1089	 0.162559347779069 
1090	 0.163333063242875 
1091	 0.16416066952753 
1092	 0.164973318035999 
1093	 0.165770002169611 
1094	 0.166668009266721 
1095	 0.167529947648423 
1096	 0.168392659585302 
1097	 0.169254418087043 
1098	 0.170053852205555 
1099	 0.170908516339073 
1100	 0.17176395820845 
1101	 0.172632368773335 
1102	 0.173573539060502 
1103	 0.174479001358465 
1104	 0.175369417309382 
1105	 0.176286721626346 
1106	 0.177214814009124 
1107	 0.178069557903579 
1108	 0.178960741860364 
1109	 0.179853442381555 
1110	 0.180753269175713 
1111	 0.18173084129789 
1112	 0.182666996222472 
1113	 0.183627449145486 
1114	 0.184608468558528 
1115	 0.185494650273924 
1116	 0.186409246139068 
1117	 0.187328789564586 
1118	 0.188277553843719 
1119	 0.189262502458611 
1120	 0.190230293567791 
1121	 0.19120645977081 
1122	 0.192197481231424 
1123	 0.193174041960228 
1124	 0.194082309776217 
1125	 0.195032776791485 
1126	 0.195971245097972 
1127	 0.196907065780137 
1128	 0.197899085250755 
1129	 0.198848614938708 
1130	 0.199825701329069 
1131	 0.200813762344036 
1132	 0.201718016117433 
1133	 0.20265986500072 
1134	 0.203599342308348 
1135	 0.20454710701633 
1136	 0.205510929477167 
1137	 0.206460333511805 
1138	 0.20741582071136 
1139	 0.208363033400416 
1140	 0.209315533529162 
1141	 0.210190318515549 
1142	 0.211092746512924 
1143	 0.211981760963607 
1144	 0.212864717117838 
1145	 0.213784640791091 
1146	 0.214663443477742 
1147	 0.215563517950285 
1148	 0.216451723514483 
1149	 0.217274541708166 
1150	 0.218144087721029 
1151	 0.218991168894837 
1152	 0.219833660250213 
1153	 0.220678895803287 
1154	 0.221514710689417 
1155	 0.222335257619624 
1156	 0.223163587930386 
1157	 0.223982231297761 
1158	 0.224783555141139 
1159	 0.225590693278513 
1160	 0.226379642831367 
1161	 0.227133635581927 
1162	 0.227949061069641 
1163	 0.228719502152052 
1164	 0.229471402733336 
1165	 0.230253144023847 
1166	 0.230972419693861 
1167	 0.231692796604105 
1168	 0.232418184562086 
1169	 0.233134983247136 
1170	 0.233841617423266 
1171	 0.234543563870152 
1172	 0.235244623690864 
1173	 0.235940929798967 
1174	 0.236616171623293 
1175	 0.237286341889451 
1176	 0.237975220497149 
1177	 0.238633596827122 
1178	 0.239258531980095 
1179	 0.239911925620624 
1180	 0.240528852163864 
1181	 0.241124544773413 
1182	 0.241743151336352 
1183	 0.242329087180901 
1184	 0.242925184220281 
1185	 0.243511810118828 
1186	 0.244096645896252 
1187	 0.244676787761696 
1188	 0.245260349606769 
1189	 0.245838805635031 
1190	 0.246427038871483 
1191	 0.247018190340683 
1192	 0.247594345634848 
1193	 0.248169070745291 
1194	 0.248749808493467 
1195	 0.249332533191151 
1196	 0.249911453507031 
1197	 0.250489778579239 
1198	 0.251078658437195 
1199	 0.251661023171395 
1200	 0.252195743109861 
1201	 0.252758072036306 
1202	 0.253309802788995 
1203	 0.253871646604338 
1204	 0.254474374633715 
1205	 0.255061007406768 
1206	 0.255667777731105 
1207	 0.25625912269861 
1208	 0.256830630004817 
1209	 0.257417375942812 
1210	 0.257986840210023 
1211	 0.258602393479356 
1212	 0.259254923820799 
1213	 0.259906314510522 
1214	 0.260586584200206 
1215	 0.261268883847411 
1216	 0.261947057421463 
1217	 0.262629851270455 
1218	 0.263341905119034 
1219	 0.264028826535463 
1220	 0.264702310786872 
1221	 0.265422431652632 
1222	 0.266107658343967 
1223	 0.266805686157307 
1224	 0.267484996816964 
1225	 0.268154770947697 
1226	 0.26880597507551 
1227	 0.269450233263398 
1228	 0.270074204024024 
1229	 0.2706874617448 
1230	 0.271278605262135 
1231	 0.271839703514771 
1232	 0.272406388522647 
1233	 0.272973454242725 
1234	 0.273499642379562 
1235	 0.273994779573392 
1236	 0.274502163098828 
1237	 0.274994263607357 
1238	 0.275471516199669 
1239	 0.275960373097965 
1240	 0.276432023667206 
1241	 0.27685663609682 
1242	 0.277249597486822 
1243	 0.277639086849772 
1244	 0.278009789632937 
1245	 0.278372773786165 
1246	 0.278731291701376 
1247	 0.279057954242627 
1248	 0.279374528343867 
1249	 0.279654056416694 
1250	 0.279885817254165 
1251	 0.280128017438111 
1252	 0.280341561208217 
1253	 0.280573724138669 
1254	 0.280821171682712 
1255	 0.281051654464635 
1256	 0.281271418374173 
1257	 0.281496528685658 
1258	 0.281717806553149 
1259	 0.281934156987648 
1260	 0.282145281032294 
1261	 0.282369223999773 
1262	 0.282589266604399 
1263	 0.282819179755123 
1264	 0.283050780940998 
1265	 0.283299885934787 
1266	 0.28353509124374 
1267	 0.283752706612592 
1268	 0.284001802449606 
1269	 0.284260328853386 
1270	 0.284528522186411 
1271	 0.284818582102745 
1272	 0.285103312020686 
1273	 0.28539256241972 
1274	 0.285682496220617 
1275	 0.285983020853526 
1276	 0.286269562360077 
1277	 0.286545163164893 
1278	 0.28682704945569 
1279	 0.287108254524445 
1280	 0.287383835385394 
1281	 0.287664022870636 
1282	 0.287934950310969 
1283	 0.288205101801819 
1284	 0.288454782798931 
1285	 0.28869159872737 
1286	 0.288919454472062 
1287	 0.289135586078008 
1288	 0.289333497998998 
1289	 0.289523931558285 
1290	 0.289702344165363 
1291	 0.289883994795412 
1292	 0.290053427064321 
1293	 0.290224493398651 
1294	 0.290402482963869 
1295	 0.290567844860299 
1296	 0.290731008316606 
1297	 0.290873836705077 
1298	 0.291005498811824 
1299	 0.291128462476601 
1300	 0.291229452438406 
1301	 0.291332832249457 
1302	 0.291432730409453 
1303	 0.291529111423146 
1304	 0.291611917796535 
1305	 0.291705386834669 
1306	 0.291814929177784 
1307	 0.291904435160708 
1308	 0.291984209440318 
1309	 0.292068777148365 
1310	 0.292142550381301 
1311	 0.292197070973227 
1312	 0.292265167019051 
1313	 0.292341349224407 
1314	 0.292405867936145 
1315	 0.292474877877386 
1316	 0.292518113484039 
1317	 0.292540492044744 
1318	 0.29257537525758 
1319	 0.292597112717781 
1320	 0.292626471743717 
1321	 0.29266618160378 
1322	 0.292702433076901 
1323	 0.292740175187437 
1324	 0.292767125862627 
1325	 0.292787420127758 
1326	 0.292814383680744 
1327	 0.292847785551846 
1328	 0.292859531873742 
1329	 0.29286671328778 
1330	 0.292871114312753 
1331	 0.292857491916773 
1332	 0.29283948909371 
1333	 0.292820170053889 
1334	 0.292802475070348 
1335	 0.292778628269782 
1336	 0.292743703136775 
1337	 0.292708538135374 
1338	 0.292677489779764 
1339	 0.29263527972046 
1340	 0.292583748335565 
1341	 0.292527257399819 
1342	 0.292467867291635 
1343	 0.292400837644489 
1344	 0.292332622217873 
1345	 0.292241797929653 
1346	 0.292134452200158 
1347	 0.292030467795124 
1348	 0.291914823145149 
1349	 0.291791036151287 
1350	 0.291670508131936 
1351	 0.29153537004145 
1352	 0.291373100169822 
1353	 0.291224695059883 
1354	 0.291079401999676 
1355	 0.290931205386883 
1356	 0.290778999667622 
1357	 0.290634308460411 
1358	 0.290491443936885 
1359	 0.290349193509799 
1360	 0.290222467413174 
1361	 0.290080693458861 
1362	 0.289923370347038 
1363	 0.289779388933013 
1364	 0.289628591772212 
1365	 0.289481778520515 
1366	 0.289305953784179 
1367	 0.289126742612525 
1368	 0.288923575683747 
1369	 0.288686933872399 
1370	 0.28846131645662 
1371	 0.288236594926863 
1372	 0.28799348566301 
1373	 0.287750519066449 
1374	 0.287475415735353 
1375	 0.287178503113231 
1376	 0.286863205007178 
1377	 0.286521083016103 
1378	 0.286168939053831 
1379	 0.285789719225409 
1380	 0.285420391571619 
1381	 0.285045855613 
1382	 0.284663206674551 
1383	 0.284275664932193 
1384	 0.283889225757531 
1385	 0.283500969739253 
1386	 0.283103457894596 
1387	 0.282710941839097 
1388	 0.282309880303977 
1389	 0.281908391737446 
1390	 0.281481824556128 
1391	 0.28104830438869 
1392	 0.280582677263789 
1393	 0.280113168644891 
1394	 0.279632776753742 
1395	 0.279174816547421 
1396	 0.278720304990111 
1397	 0.278297193983349 
1398	 0.277886675887324 
1399	 0.277499734887092 
1400	 0.277155784168505 
1401	 0.276775178397115 
1402	 0.276419710841508 
1403	 0.275997178710611 
1404	 0.275560146522287 
1405	 0.275059246368422 
1406	 0.274521811819212 
1407	 0.273916203953775 
1408	 0.273228619847077 
1409	 0.272543533421235 
1410	 0.271777961263129 
1411	 0.2710651982433 
1412	 0.270313231995825 
1413	 0.269668335990777 
1414	 0.26902589656902 
1415	 0.268516627496022 
1416	 0.268099407975211 
1417	 0.267774330513629 
1418	 0.267578106203129 
1419	 0.267414314003924 
1420	 0.26736413605947 
1421	 0.267305068744938 
1422	 0.267318361547555 
1423	 0.267284594396281 
1424	 0.267264171357484 
1425	 0.267204390266339 
1426	 0.267087346885111 
1427	 0.26692015508382 
1428	 0.266681964811303 
1429	 0.26642265542127 
1430	 0.266151888071868 
1431	 0.265833985765367 
1432	 0.265552523014671 
1433	 0.265251531900138 
1434	 0.265016280469082 
1435	 0.264794723190596 
1436	 0.264630414400889 
1437	 0.264525237751424 
1438	 0.264431754637381 
1439	 0.264391536613719 
1440	 0.2643223817096 
1441	 0.264286665035357 
1442	 0.264197253996666 
1443	 0.264080329422867 
1444	 0.263954946294202 
1445	 0.263774674147619 
1446	 0.263651339148321 
1447	 0.263509271124559 
1448	 0.263445294605636 
1449	 0.263422778913103 
1450	 0.263452009070176 
1451	 0.263562273533889 
1452	 0.263664668840188 
1453	 0.263838804869131 
1454	 0.263957206294783 
1455	 0.264074664861049 
1456	 0.26415635838742 
1457	 0.264176957760634 
1458	 0.264225961539906 
1459	 0.264222239096617 
1460	 0.264298075318294 
1461	 0.264400817842888 
1462	 0.264560965824859 
1463	 0.264799519629731 
1464	 0.265054056690703 
1465	 0.265358317527181 
1466	 0.265685103639091 
1467	 0.26599957413977 
1468	 0.266322641518419 
1469	 0.266614080912159 
1470	 0.266859938394434 
1471	 0.267080410460159 
1472	 0.267270905513107 
1473	 0.267432523440938 
1474	 0.26755638993082 
1475	 0.267674174498696 
1476	 0.267764670165866 
1477	 0.267851477663936 
1478	 0.267925657594207 
1479	 0.267986212466102 
1480	 0.268030512000131 
1481	 0.268072171113342 
1482	 0.268099027402867 
1483	 0.268128936987907 
1484	 0.268166197104439 
1485	 0.268173783723412 
1486	 0.268160262318803 
1487	 0.268155281842137 
1488	 0.268131577726972 
1489	 0.26811822728554 
1490	 0.268115697325089 
1491	 0.268108504261285 
1492	 0.268092820814228 
1493	 0.268086017141664 
1494	 0.268087763460139 
1495	 0.268085022695868 
1496	 0.268080009496 
1497	 0.268080164741181 
1498	 0.268077084267537 
1499	 0.26808554783389 
1500	 0.268102103057566 
1501	 0.26812264849362 
1502	 0.268163986331221 
1503	 0.268183836263236 
1504	 0.268196969182067 
1505	 0.268207222523041 
1506	 0.268202227983065 
1507	 0.268199762283732 
1508	 0.268196059705114 
1509	 0.268195397758131 
1510	 0.268186009005572 
1511	 0.268189394803462 
1512	 0.268206391976449 
1513	 0.268220056855607 
1514	 0.268229239903729 
1515	 0.268255172421223 
1516	 0.26827877834875 
1517	 0.268322964315869 
1518	 0.26838871312778 
1519	 0.268465041844934 
1520	 0.26855968691915 
1521	 0.268661909486888 
1522	 0.268763717458148 
1523	 0.268875799467097 
1524	 0.268982328594419 
1525	 0.26908692888373 
1526	 0.269193870642479 
1527	 0.269305036415238 
1528	 0.269409459088592 
1529	 0.269516107857331 
1530	 0.269605610600407 
1531	 0.269684409197529 
1532	 0.269765771812354 
1533	 0.269842540868015 
1534	 0.269906113932363 
1535	 0.269963440663966 
1536	 0.270022240219691 
1537	 0.270065292265706 
1538	 0.270119759121599 
1539	 0.270188556625081 
1540	 0.270240016489063 
1541	 0.270288526410495 
1542	 0.27032095366165 
1543	 0.270341232649787 
1544	 0.27035886781604 
1545	 0.270359410215467 
1546	 0.270371007872373 
1547	 0.270380426730307 
1548	 0.270399790035662 
1549	 0.270430751714656 
1550	 0.270448135128735 
1551	 0.270459209009544 
1552	 0.270484375193087 
1553	 0.270503740491895 
1554	 0.270536603241988 
1555	 0.270592585381928 
1556	 0.270635665909821 
1557	 0.270672250417848 
1558	 0.270717745045497 
1559	 0.270769641459959 
1560	 0.27081585165097 
1561	 0.270864711502026 
1562	 0.270910713232762 
1563	 0.270949665438818 
1564	 0.270993886710228 
1565	 0.271044637670643 
1566	 0.27108738148517 
1567	 0.271123062145875 
1568	 0.27116695699535 
1569	 0.271210282500959 
1570	 0.27125581325283 
1571	 0.271310420589267 
1572	 0.271359202744849 
1573	 0.271412170183196 
1574	 0.271449099772509 
1575	 0.271478158149069 
1576	 0.271503105227056 
1577	 0.27151169865706 
1578	 0.271526221985805 
1579	 0.271543156164833 
1580	 0.271555898862378 
1581	 0.271563616726259 
1582	 0.271574126508371 
1583	 0.271579816979779 
1584	 0.271594750278434 
1585	 0.271617132558648 
1586	 0.271636899644718 
1587	 0.271663059834649 
1588	 0.271684828552137 
1589	 0.271714479835322 
1590	 0.271721994424086 
1591	 0.271704019896224 
1592	 0.271707185499411 
1593	 0.271697735261386 
1594	 0.271707440052943 
1595	 0.271748913602069 
1596	 0.271778325292905 
1597	 0.271809882826465 
1598	 0.271835309304988 
1599	 0.271865582306921 
1600	 0.271879118006883 
1601	 0.271881381837607 
1602	 0.2718783371974 
1603	 0.271859204225854 
1604	 0.27184214077716 
1605	 0.271816134071962 
1606	 0.271799850330344 
1607	 0.271792991666109 
1608	 0.271775690709736 
1609	 0.271761999861838 
1610	 0.271739464799362 
1611	 0.271710699845347 
1612	 0.271669415140696 
1613	 0.271612032561999 
1614	 0.271563345389085 
1615	 0.271510101599989 
1616	 0.271452444483905 
1617	 0.271392829487386 
1618	 0.271341828766427 
1619	 0.271285452620299 
1620	 0.271235504856523 
1621	 0.271214811517148 
1622	 0.271166041575224 
1623	 0.271098880466853 
1624	 0.271033127521697 
1625	 0.27094720234727 
1626	 0.270873029080669 
1627	 0.270815240955104 
1628	 0.27073961513703 
1629	 0.270652979451964 
1630	 0.270573480391637 
1631	 0.270486365268008 
1632	 0.270401525787414 
1633	 0.270337063049695 
1634	 0.270246943916255 
1635	 0.27012659262171 
1636	 0.270027724218545 
1637	 0.269936153618666 
1638	 0.269830428858987 
1639	 0.269725142999997 
1640	 0.269624469033389 
1641	 0.269507542506198 
1642	 0.269400818965205 
1643	 0.269317359889283 
1644	 0.269220390844295 
1645	 0.269123475320146 
1646	 0.269009307750953 
1647	 0.268883374067367 
1648	 0.268751797276143 
1649	 0.268606006753037 
1650	 0.268456342701023 
1651	 0.268301312102801 
1652	 0.268143783334878 
1653	 0.267990962426779 
1654	 0.267810484071849 
1655	 0.267614155966235 
1656	 0.267411125149914 
1657	 0.267177095553904 
1658	 0.266952135999832 
1659	 0.266741932346994 
1660	 0.26650825645246 
1661	 0.266276357231741 
1662	 0.266009734024364 
1663	 0.265712451663112 
1664	 0.265399103949727 
1665	 0.265068841412239 
1666	 0.264702298687676 
1667	 0.264305170085223 
1668	 0.263903208682454 
1669	 0.263474090962141 
1670	 0.26303139345036 
1671	 0.262583004008206 
1672	 0.262107024154712 
1673	 0.261604117784203 
1674	 0.2610797127078 
1675	 0.260549404937212 
1676	 0.259981983732236 
1677	 0.25937903303261 
1678	 0.258761500341796 
1679	 0.258105543785248 
1680	 0.257443074438176 
1681	 0.256764919036431 
1682	 0.256068704617637 
1683	 0.255359246042834 
1684	 0.254643225691959 
1685	 0.253916693162251 
1686	 0.253171744272604 
1687	 0.252404387591233 
1688	 0.251624976969998 
1689	 0.250820257611312 
1690	 0.250017643857387 
1691	 0.249221284436112 
1692	 0.24841796912377 
1693	 0.247600720449725 
1694	 0.246787367387587 
1695	 0.245969759915049 
1696	 0.245138855824224 
1697	 0.24430529057258 
1698	 0.243456394782523 
1699	 0.242592435611956 
1700	 0.2417479134086 
1701	 0.240894502606544 
1702	 0.240064380100343 
1703	 0.239223269009636 
1704	 0.238447134445286 
1705	 0.237683726332646 
1706	 0.237015218944453 
1707	 0.236437034138066 
1708	 0.235878552386062 
1709	 0.235349631596262 
1710	 0.234856249780734 
1711	 0.234349926098231 
1712	 0.233889591259726 
1713	 0.233451896033731 
1714	 0.232983997437694 
1715	 0.232553876259354 
1716	 0.232097413928298 
1717	 0.2316325508477 
1718	 0.231214281201118 
1719	 0.230781441608689 
1720	 0.230381349066615 
1721	 0.230032500793386 
1722	 0.229702847898656 
1723	 0.229446617571621 
1724	 0.229276530343588 
1725	 0.229165480880863 
1726	 0.229131624385628 
1727	 0.229173959703284 
1728	 0.229292634777343 
1729	 0.229490111110455 
1730	 0.229775478231694 
1731	 0.230116044888425 
1732	 0.230489363719531 
1733	 0.230872928026367 
1734	 0.231264951995418 
1735	 0.23167063401233 
1736	 0.232058890632575 
1737	 0.232407565671151 
1738	 0.232694141861827 
1739	 0.232921837016676 
1740	 0.233075450944083 
1741	 0.233204253796307 
1742	 0.233295380766975 
1743	 0.23333674250029 
1744	 0.233299519060058 
1745	 0.23327763358593 
1746	 0.233223872967595 
1747	 0.233186026900609 
1748	 0.233161756681154 
1749	 0.233120515943257 
1750	 0.233042894672629 
1751	 0.233012751593754 
1752	 0.232991505807265 
1753	 0.233007635430493 
1754	 0.233065746667854 
1755	 0.233135159410633 
1756	 0.233205234853181 
1757	 0.233328275914589 
1758	 0.233491233136048 
1759	 0.233689973330562 
1760	 0.233973495329191 
1761	 0.234285140415402 
1762	 0.234607258429754 
1763	 0.234996861659744 
1764	 0.235409331932524 
1765	 0.235841712493795 
1766	 0.236345032774493 
1767	 0.236851558690781 
1768	 0.237345367011561 
1769	 0.237850389705796 
1770	 0.238316695688019 
1771	 0.238771000185873 
1772	 0.239215470768008 
1773	 0.239632242739392 
1774	 0.240039637140707 
1775	 0.240397509428386 
1776	 0.240728951479919 
1777	 0.241025837042172 
1778	 0.241286898818043 
1779	 0.241559148865942 
1780	 0.241780671048415 
1781	 0.24196642460269 
1782	 0.242136041223911 
1783	 0.242249883341317 
1784	 0.242360104782482 
1785	 0.242475544156437 
1786	 0.242577359350996 
1787	 0.242660087882761 
1788	 0.242723426982292 
1789	 0.242765709843444 
1790	 0.242819555616241 
1791	 0.242859683353101 
1792	 0.242920223315239 
1793	 0.242996870078956 
1794	 0.243077787776075 
1795	 0.24315942544263 
1796	 0.243248669315499 
1797	 0.243322026767368 
1798	 0.243370381104071 
1799	 0.243462638226088 
1800	 0.24353757967857 
1801	 0.24520636212623 
1802	 0.245264840402702 
1803	 0.24534621885151 
1804	 0.245435749883571 
1805	 0.245521688635665 
1806	 0.245603602694997 
1807	 0.245691698512774 
1808	 0.2457797587773 
1809	 0.245856055423317 
1810	 0.245942847526488 
1811	 0.246045976813516 
1812	 0.246138782196985 
1813	 0.24621497475566 
1814	 0.246318518524023 
1815	 0.246408150561019 
1816	 0.246512821771611 
1817	 0.246619855331224 
1818	 0.24673038703567 
1819	 0.246844994669053 
1820	 0.246975562773051 
1821	 0.247088632048339 
1822	 0.247190874470093 
1823	 0.247307705853501 
1824	 0.247411544333368 
1825	 0.247527438936641 
1826	 0.247645401152374 
1827	 0.247773407208687 
1828	 0.247893339148724 
1829	 0.248008835922241 
1830	 0.24813112617923 
1831	 0.248263120360167 
1832	 0.248385603265984 
1833	 0.24848378927026 
1834	 0.248596139736473 
1835	 0.248711509480845 
1836	 0.248823195900062 
1837	 0.248951074244707 
1838	 0.249110616110698 
1839	 0.249249537997506 
1840	 0.249385216553534 
1841	 0.249513616940857 
1842	 0.249641704289282 
1843	 0.249761370462749 
1844	 0.249859634510386 
1845	 0.249968328569799 
1846	 0.250093794423541 
1847	 0.250186371400038 
1848	 0.25027611128766 
1849	 0.250367655093749 
1850	 0.250447468220425 
1851	 0.250512985234548 
1852	 0.25056909173548 
1853	 0.250628523152068 
1854	 0.250676831676452 
1855	 0.250702248793801 
1856	 0.250725297596831 
1857	 0.250736472313879 
1858	 0.25071832338964 
1859	 0.250680358738496 
1860	 0.250616378023285 
1861	 0.250547230525605 
1862	 0.250464201102447 
1863	 0.250355980096914 
1864	 0.250252023518003 
1865	 0.250133636220992 
1866	 0.249977095255637 
1867	 0.24980400316881 
1868	 0.249601411045283 
1869	 0.24937725432855 
1870	 0.249128597596716 
1871	 0.248859314751172 
1872	 0.248578369434688 
1873	 0.248283697022964 
1874	 0.24795242772357 
1875	 0.247611790287678 
1876	 0.247219795517509 
1877	 0.246815915145237 
1878	 0.246363172852248 
1879	 0.245863912088845 
1880	 0.245353651744974 
1881	 0.244790872578054 
1882	 0.244177506735067 
1883	 0.243528532543102 
1884	 0.24283777882196 
1885	 0.242029236432105 
1886	 0.241162180828701 
1887	 0.240223088856538 
1888	 0.239185109878472 
1889	 0.238180222483661 
1890	 0.237110310827088 
1891	 0.236000363661447 
1892	 0.234884495702807 
1893	 0.233698555715058 
1894	 0.232429109060684 
1895	 0.231170839595059 
1896	 0.229881481262391 
1897	 0.228555146966685 
1898	 0.227335621385505 
1899	 0.22607829535049 
1900	 0.224855019482549 
1901	 0.223688177707513 
1902	 0.222450905242569 
1903	 0.221278977862287 
1904	 0.220122872825961 
1905	 0.21897100656162 
1906	 0.217840374524934 
1907	 0.216823552188404 
1908	 0.21579213053701 
1909	 0.214805885349571 
1910	 0.213882210973666 
1911	 0.212929110116523 
1912	 0.212038541142774 
1913	 0.211172880811394 
1914	 0.210326489869395 
1915	 0.209545824556823 
1916	 0.208831223938606 
1917	 0.208118049834667 
1918	 0.207452040315625 
1919	 0.206829327430943 
1920	 0.206187919715904 
1921	 0.205595460075505 
1922	 0.205024000822417 
1923	 0.204457903767071 
1924	 0.203966726872327 
1925	 0.203502094517439 
1926	 0.203057250275589 
1927	 0.202654040685982 
1928	 0.202272014933961 
1929	 0.201903370737796 
1930	 0.201563732146565 
1931	 0.201264038124441 
1932	 0.200993426004534 
1933	 0.200761976881389 
1934	 0.200550203115287 
1935	 0.200368540522528 
1936	 0.200223116295167 
1937	 0.200106699842526 
1938	 0.200014751532293 
1939	 0.199961444523787 
1940	 0.199942994656624 
1941	 0.199961895112542 
1942	 0.200005558785069 
1943	 0.200070413597081 
1944	 0.200155272752725 
1945	 0.200267319869979 
1946	 0.20041232687923 
1947	 0.200566368615282 
1948	 0.200739824426709 
1949	 0.200936528287024 
1950	 0.201134371500062 
1951	 0.201327525929554 
1952	 0.201555666596178 
1953	 0.201814311185879 
1954	 0.202063024976141 
1955	 0.202323132147876 
1956	 0.202598241901671 
1957	 0.202880983509174 
1958	 0.203166023147586 
1959	 0.203453535146708 
1960	 0.203758514104857 
1961	 0.204046282408707 
1962	 0.204310441737738 
1963	 0.204600902346922 
1964	 0.204906883535608 
1965	 0.205194030116241 
1966	 0.205483228854917 
1967	 0.205778598576665 
1968	 0.206041759787446 
1969	 0.20631324140934 
1970	 0.206595988300049 
1971	 0.206881234273681 
1972	 0.207177258681862 
1973	 0.207450020397857 
1974	 0.207732536818694 
1975	 0.208023552978355 
1976	 0.208298572303814 
1977	 0.208560370213534 
1978	 0.208838556147023 
1979	 0.209118939438964 
1980	 0.209386691274009 
1981	 0.209674253290123 
1982	 0.209960713648452 
1983	 0.210233823514671 
1984	 0.21048468333683 
1985	 0.210721550599704 
1986	 0.210961680941383 
1987	 0.211198283370053 
1988	 0.211419790856154 
1989	 0.211662669544066 
1990	 0.211920271156581 
1991	 0.212161511130076 
1992	 0.212409088763028 
1993	 0.212652507807473 
1994	 0.212859723763477 
1995	 0.213074611709767 
1996	 0.213283690779862 
1997	 0.213475631989215 
1998	 0.213691690701601 
1999	 0.213920544632816 
2000	 0.214142451515451 
2001	 0.214384067743019 
2002	 0.2146016620146 
2003	 0.214812986449138 
2004	 0.215004569047844 
2005	 0.215169594593645 
2006	 0.215345164385721 
2007	 0.215523562416501 
2008	 0.215677612342838 
2009	 0.215824606664139 
2010	 0.215968995247333 
2011	 0.216098725255563 
2012	 0.216225860110181 
2013	 0.216334152162692 
2014	 0.216451225602916 
2015	 0.216527122907565 
2016	 0.216565986621252 
2017	 0.216597608247754 
2018	 0.216618558585045 
2019	 0.216616122587573 
2020	 0.216604521723373 
2021	 0.216553284198205 
2022	 0.216474485843622 
2023	 0.216358580158141 
2024	 0.216209144373928 
2025	 0.216045733498376 
2026	 0.215856895286038 
2027	 0.215631063131581 
2028	 0.215412781345716 
2029	 0.215168200981217 
2030	 0.21493926939861 
2031	 0.214724393223325 
2032	 0.214488986143188 
2033	 0.214227326266026 
2034	 0.213992175612027 
2035	 0.213747667731133 
2036	 0.213520696462158 
2037	 0.213334544911597 
2038	 0.213173908630198 
2039	 0.213040774441382 
2040	 0.212939735045426 
2041	 0.212851568905485 
2042	 0.212786747742156 
2043	 0.212747045890274 
2044	 0.212720929742423 
2045	 0.212728879846629 
2046	 0.212780189951503 
2047	 0.212833601453922 
2048	 0.212907629434266 
2049	 0.212998275756106 
2050	 0.213110925133455 
2051	 0.213225135281773 
2052	 0.213350306194885 
2053	 0.213490355858949 
2054	 0.213642038299853 
2055	 0.213796121306489 
2056	 0.213975578070372 
2057	 0.214179056067937 
2058	 0.214388664048917 
2059	 0.214627390310407 
2060	 0.214844565822153 
2061	 0.215075066203721 
2062	 0.215283366595321 
2063	 0.215456544171602 
2064	 0.215654515167376 
2065	 0.215858958593141 
2066	 0.216056199288978 
2067	 0.216278198634871 
2068	 0.216494466526156 
2069	 0.216688120490581 
2070	 0.216870144831677 
2071	 0.217045805746461 
2072	 0.217204705242311 
2073	 0.217360906840287 
2074	 0.21750794322626 
2075	 0.217658206686707 
2076	 0.217808440617765 
2077	 0.217944169023517 
2078	 0.218083643395146 
2079	 0.218202805921913 
2080	 0.218300489559964 
2081	 0.218392485925829 
2082	 0.21847066161054 
2083	 0.218545614865542 
2084	 0.218615281957528 
2085	 0.218678909606817 
2086	 0.21872671509471 
2087	 0.218758424993905 
2088	 0.218799350965403 
2089	 0.218831737494574 
2090	 0.21886174662972 
2091	 0.218907190075224 
2092	 0.218927225936383 
2093	 0.218933917010861 
2094	 0.2189243324713 
2095	 0.218895634493037 
2096	 0.218863723392365 
2097	 0.218814180942065 
2098	 0.218761307616566 
2099	 0.218716807716299 
2100	 0.218661178268777 
2101	 0.218599638858947 
2102	 0.218536092406287 
2103	 0.218458883733644 
2104	 0.218363213529103 
2105	 0.218279011233837 
2106	 0.218199369063793 
2107	 0.218102298319568 
2108	 0.218002832049954 
2109	 0.217896928155028 
2110	 0.217783939044138 
2111	 0.217651124093722 
2112	 0.217505406800036 
2113	 0.217356711155289 
2114	 0.217187148749358 
2115	 0.217015322926812 
2116	 0.216853281622906 
2117	 0.21667865406741 
2118	 0.21647094597252 
2119	 0.216234054502843 
2120	 0.216011153981472 
2121	 0.215758541531984 
2122	 0.215533840129561 
2123	 0.215342576069978 
2124	 0.215107630768263 
2125	 0.214853043307696 
2126	 0.214608817532031 
2127	 0.214341845930043 
2128	 0.214090538512284 
2129	 0.213853111419315 
2130	 0.213615362320423 
2131	 0.213384247070389 
2132	 0.213142207673557 
2133	 0.212901360821276 
2134	 0.212668165698693 
2135	 0.21238060594346 
2136	 0.212093042060713 
2137	 0.211798169100996 
2138	 0.211480893506727 
2139	 0.211165750835205 
2140	 0.210850468257593 
2141	 0.210529449818544 
2142	 0.21020181233088 
2143	 0.209864935674045 
2144	 0.209523921707951 
2145	 0.209180728485378 
2146	 0.20881973606942 
2147	 0.208468058015117 
2148	 0.208135359695985 
2149	 0.207776400408049 
2150	 0.207404327984923 
2151	 0.207028991393042 
2152	 0.206630022815985 
2153	 0.206241893802548 
2154	 0.205860377133816 
2155	 0.205472420952821 
2156	 0.205101194328766 
2157	 0.204745639228495 
2158	 0.204368313856178 
2159	 0.203997760278421 
2160	 0.203607937652145 
2161	 0.203185555257866 
2162	 0.202795452316024 
2163	 0.202392182142803 
2164	 0.202035393870083 
2165	 0.201708620030576 
2166	 0.20139294269476 
2167	 0.201114827956293 
2168	 0.200832794627249 
2169	 0.20055322987853 
2170	 0.20029172973907 
2171	 0.200031625879029 
2172	 0.199799580524199 
2173	 0.199595762359177 
2174	 0.199399764073443 
2175	 0.199215125198416 
2176	 0.199051837125326 
2177	 0.198893261199567 
2178	 0.198729944110556 
2179	 0.198609782260014 
2180	 0.198519910670521 
2181	 0.198434437680626 
2182	 0.198371373142362 
2183	 0.198328137161443 
2184	 0.198306333732892 
2185	 0.19827633595177 
2186	 0.198272577315068 
2187	 0.198250705672614 
2188	 0.198212621234789 
2189	 0.19818517663384 
2190	 0.198166906822207 
2191	 0.198140664479113 
2192	 0.198123415891567 
2193	 0.19808273439307 
2194	 0.198039733349662 
2195	 0.197972696637457 
2196	 0.197889113839719 
2197	 0.197771941663761 
2198	 0.197650285645342 
2199	 0.19751223198475 
2200	 0.197388482688294 
2201	 0.197269831784774 
2202	 0.1971329556395 
2203	 0.196987890325832 
2204	 0.196847075075184 
2205	 0.196668756572465 
2206	 0.196558866193114 
2207	 0.196470110157662 
2208	 0.196423723845293 
2209	 0.196428613864645 
2210	 0.196443359623452 
2211	 0.196492018409544 
2212	 0.196553582059143 
2213	 0.19667321274077 
2214	 0.196730103739217 
2215	 0.19678465099471 
2216	 0.196811353978884 
2217	 0.196794598657362 
2218	 0.196768591145743 
2219	 0.196742315336081 
2220	 0.196679834622519 
2221	 0.196579096902318 
2222	 0.196469379982966 
2223	 0.196340174682856 
2224	 0.196163660795928 
2225	 0.195969793620197 
2226	 0.195748213531941 
2227	 0.195482228959094 
2228	 0.195185738758738 
2229	 0.19483989879985 
2230	 0.194445403676075 
2231	 0.194013060961206 
2232	 0.193551270770378 
2233	 0.193009100747887 
2234	 0.192421993105391 
2235	 0.19176279751208 
2236	 0.191043004973662 
2237	 0.190235238730206 
2238	 0.189327677139073 
2239	 0.188393988266399 
2240	 0.187391723612131 
2241	 0.186321213866961 
2242	 0.185230846421364 
2243	 0.184040629794322 
2244	 0.182719879320302 
2245	 0.181392575098039 
2246	 0.179942833347425 
2247	 0.178556948750478 
2248	 0.177167099880039 
2249	 0.175793236575681 
2250	 0.174432435852783 
2251	 0.173136677954395 
2252	 0.171769001369648 
2253	 0.170451522867328 
2254	 0.169152944756597 
2255	 0.167877441228038 
2256	 0.166735291713411 
2257	 0.165572537100455 
2258	 0.164400093392533 
2259	 0.163280408984078 
2260	 0.162085449124168 
2261	 0.160829355858876 
2262	 0.159606374765591 
2263	 0.158341039137564 
2264	 0.157140316518897 
2265	 0.155937139442869 
2266	 0.154818308021844 
2267	 0.153748883681864 
2268	 0.152756565414313 
2269	 0.151823516378603 
2270	 0.150977454707905 
2271	 0.150194417796761 
2272	 0.149508321278125 
2273	 0.148948846268604 
2274	 0.148401560039384 
2275	 0.147981931912918 
2276	 0.147504270250944 
2277	 0.14706063421199 
2278	 0.146558566670279 
2279	 0.145997006065418 
2280	 0.145452424953604 
2281	 0.144910788057569 
2282	 0.144324486775938 
2283	 0.14372757227578 
2284	 0.143115153830129 
2285	 0.142431483098765 
2286	 0.141736191492102 
2287	 0.141006896481508 
2288	 0.140262722495238 
2289	 0.139545694825458 
2290	 0.138791800271713 
2291	 0.138059154041276 
2292	 0.137316265218856 
2293	 0.136504743742477 
2294	 0.135734717995138 
2295	 0.135007240045368 
2296	 0.134314370994693 
2297	 0.133738208952125 
2298	 0.133250071302907 
2299	 0.132834887444567 
2300	 0.132511353359075 
2301	 0.132272587912571 
2302	 0.13210713593224 
2303	 0.132057478169351 
2304	 0.13211743523965 
2305	 0.132269762218662 
2306	 0.132521663677804 
2307	 0.132886302060047 
2308	 0.133352383369287 
2309	 0.133927467001397 
2310	 0.134663874997155 
2311	 0.135421672616659 
2312	 0.136323129158358 
2313	 0.137182878790545 
2314	 0.138109039948187 
2315	 0.138969973827709 
2316	 0.13980556924332 
2317	 0.14061149671583 
2318	 0.141451053833278 
2319	 0.142126748413233 
2320	 0.142751898954421 
2321	 0.143248225081782 
2322	 0.143575739498463 
2323	 0.143844026647937 
2324	 0.143994453241913 
2325	 0.144117140510789 
2326	 0.144162511386673 
2327	 0.144136870326521 
2328	 0.144077568433316 
2329	 0.143916568373963 
2330	 0.143650798906626 
2331	 0.14331938959372 
2332	 0.14290239734859 
2333	 0.142407719241909 
2334	 0.141836294101701 
2335	 0.141217707593944 
2336	 0.140539424252062 
2337	 0.139838458570299 
2338	 0.139197542562617 
2339	 0.138496555813244 
2340	 0.137824344530266 
2341	 0.137174392350692 
2342	 0.136472040802662 
2343	 0.135887901849589 
2344	 0.135410313992674 
2345	 0.135064366539475 
2346	 0.134889623391557 
2347	 0.134842321572957 
2348	 0.13494591315767 
2349	 0.135193094916073 
2350	 0.135532835791823 
2351	 0.135963729883705 
2352	 0.136423700531032 
2353	 0.13692876695202 
2354	 0.13745156035595 
2355	 0.13796499709679 
2356	 0.138447754888973 
2357	 0.138875207018649 
2358	 0.13924674250822 
2359	 0.139503259173256 
2360	 0.139719150595379 
2361	 0.139881696664883 
2362	 0.139964903393805 
2363	 0.140054920954704 
2364	 0.140131236739013 
2365	 0.140128719721044 
2366	 0.140109362806724 
2367	 0.140121534228263 
2368	 0.14008907043176 
2369	 0.140044672407094 
2370	 0.140020319103403 
2371	 0.139915246484525 
2372	 0.139786918688518 
2373	 0.139711975174903 
2374	 0.139644429587097 
2375	 0.139601386572593 
2376	 0.139625254420545 
2377	 0.139629084787898 
2378	 0.139559140055737 
2379	 0.139525693573443 
2380	 0.139496906986223 
2381	 0.139439724662504 
2382	 0.139415943765427 
2383	 0.139449923165539 
2384	 0.139444719607986 
2385	 0.139430116058507 
2386	 0.139398578545389 
2387	 0.139354004451328 
2388	 0.139306773156972 
2389	 0.1392369277379 
2390	 0.139192958016322 
2391	 0.13917916210228 
2392	 0.139114242022607 
2393	 0.139032128749672 
2394	 0.138918351079796 
2395	 0.138732682296055 
2396	 0.138639526182931 
2397	 0.138574359183193 
2398	 0.138527801561582 
2399	 0.138570202866746 
2400	 0.1385199699999 
2401	 0.138411763212255 
2402	 0.13831503680681 
2403	 0.138184053394393 
2404	 0.138042780133936 
2405	 0.138008718805967 
2406	 0.137966892346108 
2407	 0.137918234874803 
2408	 0.137958002970317 
2409	 0.138005643445069 
2410	 0.138025760858396 
2411	 0.138080443168135 
2412	 0.138101062933763 
2413	 0.138027135840694 
2414	 0.138025688583981 
2415	 0.138060987802592 
2416	 0.138043953535422 
2417	 0.138060178000484 
2418	 0.138097499746757 
2419	 0.138068246087039 
2420	 0.137968134828869 
2421	 0.137917519295204 
2422	 0.137866492315259 
2423	 0.137826968349548 
2424	 0.137948488382124 
2425	 0.138106167972518 
2426	 0.138155909701118 
2427	 0.138097184570798 
2428	 0.137943891196108 
2429	 0.137768140756214 
2430	 0.137692507500054 
2431	 0.137692920519405 
2432	 0.137681567145277 
2433	 0.137647263019027 
2434	 0.137552910543436 
2435	 0.137489489320907 
2436	 0.137487274169179 
2437	 0.137441328492888 
2438	 0.137379632207887 
2439	 0.137286227044469 
2440	 0.137104785363114 
2441	 0.136896003768978 
2442	 0.136763806428052 
2443	 0.136676392949746 
2444	 0.136527526880323 
2445	 0.136353558524319 
2446	 0.136152796096174 
2447	 0.135861397735138 
2448	 0.135570118874178 
2449	 0.135334233810795 
2450	 0.135043476754689 
2451	 0.134740813187424 
2452	 0.134388512587105 
2453	 0.133983842790974 
2454	 0.133695283123136 
2455	 0.133449091537199 
2456	 0.133212534568884 
2457	 0.133001998296655 
2458	 0.132824283945254 
2459	 0.132565124833356 
2460	 0.132283839608778 
2461	 0.132161983700459 
2462	 0.131911388244902 
2463	 0.131530448237445 
2464	 0.131374886869739 
2465	 0.13122132793719 
2466	 0.130988692321278 
2467	 0.130996812198042 
2468	 0.130982026775931 
2469	 0.130897079130764 
2470	 0.131016446333182 
2471	 0.131055736172162 
2472	 0.130743937566244 
2473	 0.130475720670196 
2474	 0.130351959386945 
2475	 0.130037493112693 
2476	 0.129943886650287 
2477	 0.130070224118586 
2478	 0.129994472653078 
2479	 0.130042519693838 
2480	 0.130048643125133 
2481	 0.129927036440965 
2482	 0.129607979736107 
2483	 0.129368337845095 
2484	 0.129314278860726 
2485	 0.129422022165745 
2486	 0.129654741204721 
2487	 0.129745566732062 
2488	 0.129707507439572 
2489	 0.129442494453821 
2490	 0.129086160894657 
2491	 0.129151380456378 
2492	 0.129316875775543 
2493	 0.129607571059682 
2494	 0.130089365313562 
2495	 0.130269590066141 
2496	 0.130373846160803 
2497	 0.130411843273969 
2498	 0.130321050698049 
2499	 0.130420551037752 
2500	 0.130564218207694 
