Wavelength	spectrum00013.asd
350	 0.101889044888385 
351	 9.65636981070657E-02 
352	 9.26767835278513E-02 
353	 9.22909031060931E-02 
354	 9.23604784267057E-02 
355	 9.15232508208871E-02 
356	 8.93400343891484E-02 
357	 8.62025334557648E-02 
358	 8.36449968877362E-02 
359	 8.25867563220064E-02 
360	 0.082272125181227 
361	 8.13359597842888E-02 
362	 8.14565997399068E-02 
363	 8.04814945880448E-02 
364	 7.82972216642265E-02 
365	 7.78083319799252E-02 
366	 7.87904951229171E-02 
367	 7.90429009727711E-02 
368	 7.73338198714487E-02 
369	 7.70303360825422E-02 
370	 7.72977905106957E-02 
371	 7.76597200915984E-02 
372	 7.78048532069923E-02 
373	 7.69852758776483E-02 
374	 7.67221527326608E-02 
375	 7.73411318853489E-02 
376	 7.71516492431338E-02 
377	 7.70800835151557E-02 
378	 7.71889353995427E-02 
379	 7.72097128971934E-02 
380	 0.07632633388224 
381	 7.67714786136057E-02 
382	 7.76074048176671E-02 
383	 7.64416925638523E-02 
384	 7.68063461592133E-02 
385	 7.78893039586798E-02 
386	 7.85655383135161E-02 
387	 7.80568989416621E-02 
388	 7.73256319113028E-02 
389	 7.69162682598935E-02 
390	 7.70005472216665E-02 
391	 7.68732053994138E-02 
392	 7.74212751501499E-02 
393	 7.81477764135337E-02 
394	 7.78749757439203E-02 
395	 7.86821268272418E-02 
396	 7.92745744714795E-02 
397	 7.90698171570868E-02 
398	 7.93486891339802E-02 
399	 7.95899051467363E-02 
400	 7.98940545302161E-02 
401	 8.03903553891979E-02 
402	 8.06479061890481E-02 
403	 8.09619449229668E-02 
404	 8.13220897061423E-02 
405	 8.15239971322639E-02 
406	 0.08225032247484 
407	 0.083036838527715 
408	 8.35873804865955E-02 
409	 8.42630280564221E-02 
410	 8.47501303314861E-02 
411	 8.52500667439135E-02 
412	 8.60228407027579E-02 
413	 8.68063138542681E-02 
414	 8.72782241532326E-02 
415	 8.77539456961229E-02 
416	 8.90361391161011E-02 
417	 9.00029577104472E-02 
418	 9.10205262972748E-02 
419	 9.22663006666336E-02 
420	 9.27925821692184E-02 
421	 9.36081839795124E-02 
422	 9.48569519597567E-02 
423	 9.62470859876694E-02 
424	 9.72772264998874E-02 
425	 9.83101766364805E-02 
426	 9.94919164123295E-02 
427	 0.100637579929229 
428	 0.102003745287591 
429	 0.103436829342796 
430	 0.104771247145655 
431	 0.106082096604144 
432	 0.107548076171147 
433	 0.109142072813296 
434	 0.110734692800457 
435	 0.112417287420315 
436	 0.114084522351344 
437	 0.115710690949969 
438	 0.117411115056169 
439	 0.119231533863988 
440	 0.12111078277938 
441	 0.122991938800306 
442	 0.125009762480429 
443	 0.126977331369008 
444	 0.128934904428571 
445	 0.131099664845632 
446	 0.133285045524962 
447	 0.135440532820266 
448	 0.137567572276309 
449	 0.13970077514586 
450	 0.141988147844419 
451	 0.144425369212799 
452	 0.146919879677364 
453	 0.149288912232408 
454	 0.151790085221873 
455	 0.154412841024982 
456	 0.156838484998621 
457	 0.159325317930621 
458	 0.161862201719055 
459	 0.164457102736829 
460	 0.167374308576145 
461	 0.170129349162332 
462	 0.172754328427052 
463	 0.175561103585109 
464	 0.178474426672231 
465	 0.181408681788237 
466	 0.184298935231712 
467	 0.187117163028671 
468	 0.190103137217056 
469	 0.193098603655567 
470	 0.195960874155389 
471	 0.199117265331002 
472	 0.202225915456403 
473	 0.205230868268532 
474	 0.208307372428837 
475	 0.211290543867568 
476	 0.214287100442879 
477	 0.217390976453137 
478	 0.220593124630855 
479	 0.223731887677872 
480	 0.226893472234539 
481	 0.230201748947628 
482	 0.233339952385439 
483	 0.23639303228847 
484	 0.239487418286083 
485	 0.242746287414086 
486	 0.246065280692908 
487	 0.249322364033191 
488	 0.252444898227538 
489	 0.255493565426883 
490	 0.258661078403748 
491	 0.261933832430476 
492	 0.265166487304081 
493	 0.268249751456514 
494	 0.271343359300263 
495	 0.274546161510874 
496	 0.277805338535527 
497	 0.280872427961225 
498	 0.283867346980333 
499	 0.286973820901557 
500	 0.290111123267637 
501	 0.293173823944154 
502	 0.296136648144072 
503	 0.299055742062282 
504	 0.30212824339816 
505	 0.305141880785125 
506	 0.307984020155792 
507	 0.310971955364596 
508	 0.313870358171453 
509	 0.316689911223427 
510	 0.319530065474676 
511	 0.322320183357785 
512	 0.32506351427708 
513	 0.327797870739245 
514	 0.33060921686275 
515	 0.333277458518529 
516	 0.335894867187859 
517	 0.338587588742106 
518	 0.341305714692029 
519	 0.343937481350138 
520	 0.346491242799984 
521	 0.349056479028888 
522	 0.351602907760874 
523	 0.354128184129202 
524	 0.356651834515292 
525	 0.359253238611373 
526	 0.36172835475639 
527	 0.364137688809906 
528	 0.366608827529325 
529	 0.369029735825246 
530	 0.371454296271851 
531	 0.373913927611172 
532	 0.37640089632455 
533	 0.378822556476385 
534	 0.381222091362163 
535	 0.383648877280615 
536	 0.386079146644711 
537	 0.388556950074059 
538	 0.391037429811005 
539	 0.393442565395991 
540	 0.395848907611348 
541	 0.398245495832406 
542	 0.400636747135339 
543	 0.403068241062626 
544	 0.405473654807482 
545	 0.407859910065671 
546	 0.410241240045973 
547	 0.412559470748537 
548	 0.414905954598014 
549	 0.417283767414016 
550	 0.41961704999446 
551	 0.42198199862685 
552	 0.424383112495682 
553	 0.426799163884446 
554	 0.429168457009548 
555	 0.431546939566004 
556	 0.4339383899521 
557	 0.436320201500673 
558	 0.438685537248953 
559	 0.441097660542101 
560	 0.443524220610912 
561	 0.445797053480367 
562	 0.448080784964753 
563	 0.450348518481492 
564	 0.452548629522578 
565	 0.454745752434215 
566	 0.456864170061601 
567	 0.458948695435411 
568	 0.461120724875536 
569	 0.463233219493958 
570	 0.465260795217863 
571	 0.467244323408475 
572	 0.469318122564228 
573	 0.471398089030032 
574	 0.473442915591276 
575	 0.475440115412055 
576	 0.477451884097413 
577	 0.479392528182118 
578	 0.481254711810729 
579	 0.483124240869953 
580	 0.484859630361972 
581	 0.486570574800108 
582	 0.488355001777221 
583	 0.490081048684419 
584	 0.491796343091634 
585	 0.493524009038283 
586	 0.495272594634644 
587	 0.497020905555015 
588	 0.498752205599599 
589	 0.500452141034898 
590	 0.502110123125242 
591	 0.503712898556114 
592	 0.505262761057912 
593	 0.506746222040782 
594	 0.50805813216045 
595	 0.50934588855754 
596	 0.510655819227859 
597	 0.511936831921028 
598	 0.513286201475089 
599	 0.514627953606767 
600	 0.515898537524001 
601	 0.517127132589516 
602	 0.518363789548933 
603	 0.519631015998661 
604	 0.520913808716353 
605	 0.522079139525949 
606	 0.523221755069397 
607	 0.524388469520117 
608	 0.525538940568869 
609	 0.5266031037243 
610	 0.527613008180261 
611	 0.528622176375229 
612	 0.529639235603726 
613	 0.530684413451183 
614	 0.531720742002063 
615	 0.532682507584838 
616	 0.533598312097262 
617	 0.534488959546456 
618	 0.535374825810618 
619	 0.536281470820594 
620	 0.537141938038128 
621	 0.538062390538103 
622	 0.539113492191106 
623	 0.539909181815095 
624	 0.540715883918909 
625	 0.541586298036432 
626	 0.542355442295803 
627	 0.543115222096709 
628	 0.543927938531551 
629	 0.544798446360658 
630	 0.545609314571477 
631	 0.546359542943121 
632	 0.54708272330865 
633	 0.547832529497808 
634	 0.548656337623602 
635	 0.549455396311298 
636	 0.550188659217143 
637	 0.550900047968933 
638	 0.551626288715649 
639	 0.552382034792525 
640	 0.553151510258577 
641	 0.553852712204269 
642	 0.554507679574726 
643	 0.555199808188374 
644	 0.556018471572042 
645	 0.556729646557958 
646	 0.557418945692649 
647	 0.558134912798801 
648	 0.558794888438294 
649	 0.559532058853862 
650	 0.560271555297388 
651	 0.560912415381331 
652	 0.561529390021157 
653	 0.562177582594427 
654	 0.562862346699969 
655	 0.563545556550581 
656	 0.564199207933828 
657	 0.564869368973004 
658	 0.565562626590794 
659	 0.566166355908911 
660	 0.566853265106431 
661	 0.567552474364244 
662	 0.568143228341156 
663	 0.568776592942397 
664	 0.569436389220825 
665	 0.570083175423434 
666	 0.570669093269942 
667	 0.571308900647468 
668	 0.57198402323758 
669	 0.572644648245829 
670	 0.573235962322954 
671	 0.573806257189463 
672	 0.574420290884526 
673	 0.575118337832552 
674	 0.575728961462748 
675	 0.576294031787383 
676	 0.576868548209228 
677	 0.577497333663485 
678	 0.578177412582858 
679	 0.578829134573515 
680	 0.579391827719456 
681	 0.579907077577788 
682	 0.580464487241342 
683	 0.581040227319357 
684	 0.581565290522178 
685	 0.582178778885961 
686	 0.582773028100264 
687	 0.583332886729816 
688	 0.584008772210355 
689	 0.584669672886284 
690	 0.585191721911362 
691	 0.58558022256624 
692	 0.586273895219012 
693	 0.586825621552524 
694	 0.587268547252219 
695	 0.587906691494024 
696	 0.588460002540523 
697	 0.588951808937663 
698	 0.589463977957242 
699	 0.590116937046721 
700	 0.590647465554745 
701	 0.591140900968138 
702	 0.59170934460045 
703	 0.592134664014376 
704	 0.592679884800983 
705	 0.593285531679713 
706	 0.593697088550074 
707	 0.594154245349862 
708	 0.594727600206015 
709	 0.595373560852852 
710	 0.595904165185454 
711	 0.596377684992882 
712	 0.596847507461882 
713	 0.597345296821843 
714	 0.597803834663859 
715	 0.598257826059685 
716	 0.598733111178271 
717	 0.599241870171625 
718	 0.599761403556628 
719	 0.600242187503315 
720	 0.600689600723015 
721	 0.601209080009354 
722	 0.6016246774926 
723	 0.602046058021195 
724	 0.602586379093656 
725	 0.603027471595106 
726	 0.603335662366528 
727	 0.603709624131682 
728	 0.604430876011134 
729	 0.604893207565575 
730	 0.605255245799052 
731	 0.605671562039726 
732	 0.606114200717541 
733	 0.60651186112868 
734	 0.606877830889053 
735	 0.607261875881853 
736	 0.607740201085909 
737	 0.608223521220092 
738	 0.608642972778335 
739	 0.608973617362572 
740	 0.609417635711893 
741	 0.609899748097087 
742	 0.610308291427212 
743	 0.610531363268699 
744	 0.610926045810378 
745	 0.61139502392753 
746	 0.611770223624764 
747	 0.612100331946582 
748	 0.612432898682937 
749	 0.612795788241011 
750	 0.613199578494677 
751	 0.613645390665092 
752	 0.614065416550312 
753	 0.614385812977174 
754	 0.614539983582009 
755	 0.614834376680595 
756	 0.615225194036403 
757	 0.615610482941757 
758	 0.615999890651025 
759	 0.616306355157531 
760	 0.616605540106398 
761	 0.617010343120734 
762	 0.617327461878317 
763	 0.61765328254331 
764	 0.617997324393407 
765	 0.618262701168608 
766	 0.618570163330393 
767	 0.618922373805022 
768	 0.619270189945383 
769	 0.61948934212348 
770	 0.619794833650353 
771	 0.620151705697395 
772	 0.62045993071157 
773	 0.620800798418231 
774	 0.62116462421335 
775	 0.621491258258342 
776	 0.621698372174556 
777	 0.621879886423809 
778	 0.622139164530546 
779	 0.622491670105774 
780	 0.622807324129397 
781	 0.623197318700656 
782	 0.623518983487477 
783	 0.623666830694949 
784	 0.623909366187631 
785	 0.624148710021348 
786	 0.624403951711745 
787	 0.624739483890948 
788	 0.625044404703675 
789	 0.625314393969206 
790	 0.625544733854182 
791	 0.625725051633698 
792	 0.626069668050298 
793	 0.626429504400873 
794	 0.62665653217269 
795	 0.626784740076621 
796	 0.626976136899192 
797	 0.627257553779459 
798	 0.627566913944835 
799	 0.627724949359809 
800	 0.627935171859423 
801	 0.628193442539293 
802	 0.628342161479991 
803	 0.628520744510691 
804	 0.628783006594099 
805	 0.629083030803193 
806	 0.629250933346235 
807	 0.629443369149352 
808	 0.629707428393929 
809	 0.630010991901204 
810	 0.630169958763343 
811	 0.630431163629707 
812	 0.630674937600677 
813	 0.630712096803071 
814	 0.630956265002969 
815	 0.63123243638346 
816	 0.631438827633502 
817	 0.631582374657285 
818	 0.631754518011359 
819	 0.631927520652655 
820	 0.632086691620889 
821	 0.632270117970171 
822	 0.632458352592517 
823	 0.6326617803849 
824	 0.632891324178705 
825	 0.633139539453647 
826	 0.633390109895489 
827	 0.633608107620605 
828	 0.633756949352637 
829	 0.633815437094596 
830	 0.633992563800871 
831	 0.634292358486354 
832	 0.634536793902733 
833	 0.634790722239917 
834	 0.634956374271052 
835	 0.635032545515967 
836	 0.63519124046545 
837	 0.635358973775379 
838	 0.635519649510456 
839	 0.635667366177908 
840	 0.63577772591954 
841	 0.635998137578302 
842	 0.636295850451334 
843	 0.636552089608321 
844	 0.636648509354925 
845	 0.636788176298485 
846	 0.6369997454694 
847	 0.637171307621476 
848	 0.637276349218813 
849	 0.637405516187214 
850	 0.637577676448657 
851	 0.63770895842673 
852	 0.637944445964394 
853	 0.638083984301309 
854	 0.638069189226063 
855	 0.638284690052144 
856	 0.638525235438732 
857	 0.638723948604193 
858	 0.638875647805254 
859	 0.6390331386448 
860	 0.639305757480025 
861	 0.639560905777174 
862	 0.63961232298743 
863	 0.639757387190013 
864	 0.639907693603698 
865	 0.640033124225189 
866	 0.640175968999253 
867	 0.640362424908291 
868	 0.640480422112634 
869	 0.640552449647418 
870	 0.640795067286023 
871	 0.640943426497145 
872	 0.641046542093503 
873	 0.641179685928131 
874	 0.641315964167017 
875	 0.641471866232777 
876	 0.641646179841504 
877	 0.641829586941947 
878	 0.642006514444981 
879	 0.642192494656136 
880	 0.642350288405945 
881	 0.642452765617163 
882	 0.642663501565808 
883	 0.642871337469084 
884	 0.643048554555305 
885	 0.64323272776739 
886	 0.643327667511897 
887	 0.643396035089249 
888	 0.643502151335287 
889	 0.643679641500505 
890	 0.643837199925989 
891	 0.643973095636607 
892	 0.644100178768086 
893	 0.644223552995611 
894	 0.644492048344781 
895	 0.644738776682459 
896	 0.644827020988106 
897	 0.644905976223136 
898	 0.645028720143759 
899	 0.645204012732396 
900	 0.645389906858106 
901	 0.645449716788885 
902	 0.645539067752473 
903	 0.645677270929665 
904	 0.645815833479821 
905	 0.645968994500373 
906	 0.646138305273183 
907	 0.646299555851161 
908	 0.646413818567717 
909	 0.646464759910401 
910	 0.646539110666554 
911	 0.646700356436779 
912	 0.646954993543582 
913	 0.647101460602791 
914	 0.647237931619756 
915	 0.647412206975906 
916	 0.647543419173427 
917	 0.647763313684297 
918	 0.647968064379007 
919	 0.648103628533502 
920	 0.648296543436447 
921	 0.648401702269162 
922	 0.648473686249751 
923	 0.648591823773378 
924	 0.648761342912913 
925	 0.648890469414704 
926	 0.649088307845067 
927	 0.649429674653564 
928	 0.649659532990125 
929	 0.649836993220753 
930	 0.649951200871441 
931	 0.650015663297141 
932	 0.650245375646926 
933	 0.650464999228546 
934	 0.650702062426356 
935	 0.651042474572468 
936	 0.651217184146595 
937	 0.651461373854427 
938	 0.651745084525083 
939	 0.651881220159983 
940	 0.652067684350995 
941	 0.652317960962152 
942	 0.652606546580513 
943	 0.652881959472758 
944	 0.653056943932254 
945	 0.653262734192311 
946	 0.653534631550736 
947	 0.653781740265115 
948	 0.654015408018592 
949	 0.654197190433027 
950	 0.654356835483237 
951	 0.654600734949065 
952	 0.654814420858992 
953	 0.654981436507298 
954	 0.655109724140904 
955	 0.655214906078147 
956	 0.655244468968262 
957	 0.655376855495542 
958	 0.65564228491925 
959	 0.655753252841402 
960	 0.655865154458244 
961	 0.655992501859678 
962	 0.656128601889373 
963	 0.656284189405109 
964	 0.656490529561765 
965	 0.656693746675958 
966	 0.656847373286785 
967	 0.656975511370104 
968	 0.657083567360967 
969	 0.657228772199425 
970	 0.657430960443521 
971	 0.657588700390041 
972	 0.657742733002186 
973	 0.657793457137863 
974	 0.657743205347956 
975	 0.657978136242386 
976	 0.65812869451098 
977	 0.658305731403311 
978	 0.658627595687128 
979	 0.65875401989218 
980	 0.658905182979 
981	 0.659004594007131 
982	 0.658983921157835 
983	 0.659098993943984 
984	 0.659352497332904 
985	 0.659644415616509 
986	 0.659843664642262 
987	 0.659870136285772 
988	 0.659896244176783 
989	 0.660043251580479 
990	 0.660303428939386 
991	 0.660345255999717 
992	 0.660457929482382 
993	 0.660681256613718 
994	 0.660928535139336 
995	 0.661046188131043 
996	 0.66113611455126 
997	 0.661169266318353 
998	 0.661193641101323 
999	 0.661678633954508 
1000	 0.661873331509513 
1001	 0.666745507275869 
1002	 0.66690466025487 
1003	 0.666978970922143 
1004	 0.667118784332854 
1005	 0.667335883945852 
1006	 0.667472555556638 
1007	 0.667555728132751 
1008	 0.667696774596196 
1009	 0.667837640687347 
1010	 0.667990241289087 
1011	 0.668206557260919 
1012	 0.668341687640843 
1013	 0.668421591869435 
1014	 0.668535724578236 
1015	 0.668624998500198 
1016	 0.668715893742153 
1017	 0.668864704366835 
1018	 0.66902522227682 
1019	 0.669170041652639 
1020	 0.669336912882048 
1021	 0.669480906111399 
1022	 0.669621695014094 
1023	 0.669743406111864 
1024	 0.669841833495933 
1025	 0.669954510306501 
1026	 0.670072274305892 
1027	 0.670175039489571 
1028	 0.670289464375557 
1029	 0.670367355029652 
1030	 0.670413550087812 
1031	 0.670499612988216 
1032	 0.670594706896311 
1033	 0.670649943497298 
1034	 0.670724575152318 
1035	 0.670839096767319 
1036	 0.670927256433663 
1037	 0.671015184623811 
1038	 0.67109575490792 
1039	 0.671156631498352 
1040	 0.671206880523129 
1041	 0.671237047326139 
1042	 0.671303286624507 
1043	 0.671360454698887 
1044	 0.671477752784001 
1045	 0.671625798234045 
1046	 0.67174477588723 
1047	 0.671868085069219 
1048	 0.671987759114654 
1049	 0.672092518167318 
1050	 0.67218658532411 
1051	 0.672288323743636 
1052	 0.672386833336349 
1053	 0.672479681856192 
1054	 0.672543524558451 
1055	 0.672670851767115 
1056	 0.67282751520123 
1057	 0.672968329894634 
1058	 0.673151988057116 
1059	 0.673293430127853 
1060	 0.673389744136142 
1061	 0.673494429111356 
1062	 0.673569591224538 
1063	 0.673657168219445 
1064	 0.673774775374316 
1065	 0.673912763245815 
1066	 0.674064957540857 
1067	 0.674256959938637 
1068	 0.674482986096167 
1069	 0.674666706428447 
1070	 0.674825216508857 
1071	 0.674973196736071 
1072	 0.675117619176769 
1073	 0.675227436427072 
1074	 0.67533897330469 
1075	 0.675478970341247 
1076	 0.675621271540234 
1077	 0.675737649816983 
1078	 0.675845515635506 
1079	 0.675995275123187 
1080	 0.676135188994602 
1081	 0.676238431504445 
1082	 0.676374378597865 
1083	 0.676523223987292 
1084	 0.676648478269262 
1085	 0.676800713484427 
1086	 0.676940515156357 
1087	 0.677083645656459 
1088	 0.677200188995546 
1089	 0.677322121037966 
1090	 0.677424770554557 
1091	 0.677539641618284 
1092	 0.677633544916798 
1093	 0.67770460624347 
1094	 0.677804789765036 
1095	 0.677893775946058 
1096	 0.677971395601637 
1097	 0.67804852224187 
1098	 0.678137772997924 
1099	 0.678224700047943 
1100	 0.678281021023745 
1101	 0.678342405499144 
1102	 0.67837847100732 
1103	 0.678424466790115 
1104	 0.678455305216443 
1105	 0.678517651779779 
1106	 0.678572249551587 
1107	 0.678633810800749 
1108	 0.678678625620011 
1109	 0.678719747632954 
1110	 0.678786993352192 
1111	 0.678836986678023 
1112	 0.678850539427902 
1113	 0.678856667422529 
1114	 0.678864337221683 
1115	 0.678886430377334 
1116	 0.67892081290887 
1117	 0.678942481325429 
1118	 0.67894557577296 
1119	 0.678918782433911 
1120	 0.678901325661907 
1121	 0.678878515647531 
1122	 0.678855808084307 
1123	 0.678816583810276 
1124	 0.678749173603517 
1125	 0.67868489393956 
1126	 0.678621912097946 
1127	 0.678558134124233 
1128	 0.678490955044075 
1129	 0.678404389717322 
1130	 0.678308333317396 
1131	 0.67822869173567 
1132	 0.678174665397419 
1133	 0.678093523373768 
1134	 0.677982271404639 
1135	 0.677858738477405 
1136	 0.677699700808267 
1137	 0.677539252586075 
1138	 0.677367007008634 
1139	 0.677207685235944 
1140	 0.677052025134296 
1141	 0.676877524946722 
1142	 0.67669404901719 
1143	 0.676496091146285 
1144	 0.676277209856358 
1145	 0.676074663684127 
1146	 0.675899343487957 
1147	 0.675693818564242 
1148	 0.675470837291601 
1149	 0.675238793747454 
1150	 0.674991466687182 
1151	 0.674748525511235 
1152	 0.674490518070653 
1153	 0.674227514544638 
1154	 0.673955614204464 
1155	 0.673665821839269 
1156	 0.673376245793312 
1157	 0.673071881141887 
1158	 0.672790974080294 
1159	 0.672516831546779 
1160	 0.672243472386545 
1161	 0.671984348139265 
1162	 0.671707640482106 
1163	 0.671405040850112 
1164	 0.671101107688461 
1165	 0.670810913822752 
1166	 0.670543403050232 
1167	 0.670275172262597 
1168	 0.670022203812568 
1169	 0.669762475547953 
1170	 0.669498892528905 
1171	 0.669228747697962 
1172	 0.668969696490805 
1173	 0.668686312500994 
1174	 0.668392790908634 
1175	 0.668091943690825 
1176	 0.667779263172396 
1177	 0.667455083719369 
1178	 0.667131204867758 
1179	 0.666766248764107 
1180	 0.666407128607889 
1181	 0.666034980422305 
1182	 0.665651129585382 
1183	 0.665299928428838 
1184	 0.664959733572575 
1185	 0.66463773783811 
1186	 0.664315856387333 
1187	 0.663997397087205 
1188	 0.663710177576797 
1189	 0.663426197230618 
1190	 0.663166123022248 
1191	 0.662948426828146 
1192	 0.662729585586062 
1193	 0.662510603859708 
1194	 0.662316886122573 
1195	 0.66214098678225 
1196	 0.661973737377315 
1197	 0.661815151978504 
1198	 0.661691976011059 
1199	 0.661555287937096 
1200	 0.661418700556165 
1201	 0.661308315829532 
1202	 0.661205355754882 
1203	 0.661115972446918 
1204	 0.661061705624494 
1205	 0.661024444435692 
1206	 0.660985245447906 
1207	 0.661007941314933 
1208	 0.66106705972458 
1209	 0.661165603361328 
1210	 0.661294610776463 
1211	 0.661483463195016 
1212	 0.661708138485877 
1213	 0.662000172257618 
1214	 0.662346533871355 
1215	 0.662758739563988 
1216	 0.663238437489789 
1217	 0.663762896625568 
1218	 0.664362135150741 
1219	 0.664999485530819 
1220	 0.665652124446711 
1221	 0.666328073789889 
1222	 0.666977453037735 
1223	 0.667640244133365 
1224	 0.66828045047764 
1225	 0.668931171349334 
1226	 0.669511329087097 
1227	 0.67005845280848 
1228	 0.670581725813756 
1229	 0.671054598729318 
1230	 0.67151913837904 
1231	 0.671978044721809 
1232	 0.67239921877936 
1233	 0.672783309045661 
1234	 0.673145689306607 
1235	 0.673477289786782 
1236	 0.673795829506618 
1237	 0.674094419800625 
1238	 0.674367527745518 
1239	 0.674614788589782 
1240	 0.674854230125459 
1241	 0.675058261017157 
1242	 0.675256867697119 
1243	 0.675454289876206 
1244	 0.675647520636543 
1245	 0.675825913837166 
1246	 0.675998082830114 
1247	 0.676159311799704 
1248	 0.676306040935992 
1249	 0.676449113652274 
1250	 0.676593786364145 
1251	 0.67671139755211 
1252	 0.676818900521886 
1253	 0.676904064610701 
1254	 0.676956715421717 
1255	 0.67701432501103 
1256	 0.677053104904306 
1257	 0.677097755295337 
1258	 0.677141093951967 
1259	 0.677183341130685 
1260	 0.677229235892793 
1261	 0.677268160422117 
1262	 0.677302996401727 
1263	 0.677337348797695 
1264	 0.677363499149571 
1265	 0.677379555330455 
1266	 0.677402514500698 
1267	 0.677428925302161 
1268	 0.677441991824372 
1269	 0.677447470062137 
1270	 0.677459475957332 
1271	 0.677462516736669 
1272	 0.677471871608125 
1273	 0.677486936842981 
1274	 0.677506047514236 
1275	 0.677521187672712 
1276	 0.677547013071695 
1277	 0.677584124813983 
1278	 0.677623516869005 
1279	 0.677674049879631 
1280	 0.677715768983725 
1281	 0.67775807918935 
1282	 0.677799761196479 
1283	 0.677821987573495 
1284	 0.677865656434341 
1285	 0.677919543855111 
1286	 0.677982524316898 
1287	 0.678049428069355 
1288	 0.678133432022916 
1289	 0.67820568464024 
1290	 0.678280544314034 
1291	 0.678343678644328 
1292	 0.678388708674296 
1293	 0.678463889410033 
1294	 0.678552497031356 
1295	 0.678625946411493 
1296	 0.678710660724128 
1297	 0.678791091198297 
1298	 0.67885364190541 
1299	 0.678924291018186 
1300	 0.679015290362878 
1301	 0.679087198227838 
1302	 0.679145889518815 
1303	 0.679202622454857 
1304	 0.679262892046896 
1305	 0.679304334481925 
1306	 0.679326341044201 
1307	 0.679352848490093 
1308	 0.679359350100123 
1309	 0.679383810607152 
1310	 0.679399454798132 
1311	 0.679424454846582 
1312	 0.679427886037777 
1313	 0.679421867475134 
1314	 0.679409374385631 
1315	 0.679384793593603 
1316	 0.679360937591007 
1317	 0.679340924506332 
1318	 0.679296944382433 
1319	 0.679235496105564 
1320	 0.679180382851498 
1321	 0.679114752748415 
1322	 0.679046040462457 
1323	 0.678992739576216 
1324	 0.678908937703099 
1325	 0.678790720095583 
1326	 0.67869103410248 
1327	 0.678583238301847 
1328	 0.678481501638356 
1329	 0.678394167774678 
1330	 0.678299317756195 
1331	 0.678226049912216 
1332	 0.678109455556158 
1333	 0.677975115789581 
1334	 0.677819116673832 
1335	 0.677654715577759 
1336	 0.677463837302745 
1337	 0.677254527363463 
1338	 0.677034782437907 
1339	 0.676811171173585 
1340	 0.676550764216218 
1341	 0.676318068482804 
1342	 0.676102619743715 
1343	 0.675874521518452 
1344	 0.675655414331802 
1345	 0.675403527434367 
1346	 0.675144782279564 
1347	 0.674865226158128 
1348	 0.674552286394486 
1349	 0.674243003537423 
1350	 0.673926250462966 
1351	 0.673600193193595 
1352	 0.673269284919137 
1353	 0.672922749265006 
1354	 0.672554834792559 
1355	 0.67219591083199 
1356	 0.671814360276567 
1357	 0.671457647144082 
1358	 0.671117671519931 
1359	 0.670778877216402 
1360	 0.670456234818165 
1361	 0.670132709482913 
1362	 0.669793598426839 
1363	 0.669476260787467 
1364	 0.669128105384511 
1365	 0.668781942163817 
1366	 0.668388949838771 
1367	 0.667960012945847 
1368	 0.667545644198776 
1369	 0.667114596655883 
1370	 0.666670025090938 
1371	 0.666228949976449 
1372	 0.665770894011611 
1373	 0.665287726109962 
1374	 0.664798289503008 
1375	 0.664301351167485 
1376	 0.663798071713698 
1377	 0.663278040709563 
1378	 0.662747299897403 
1379	 0.662206517060966 
1380	 0.661669173242483 
1381	 0.661116475347479 
1382	 0.66056676305689 
1383	 0.660021544789489 
1384	 0.659477023259604 
1385	 0.658912624231571 
1386	 0.658380403981936 
1387	 0.657839747782883 
1388	 0.6573610141566 
1389	 0.656906947254966 
1390	 0.656504970075372 
1391	 0.656165970780233 
1392	 0.655850875068272 
1393	 0.655584024758167 
1394	 0.655336617591118 
1395	 0.65508351351352 
1396	 0.654869873627909 
1397	 0.654587598057026 
1398	 0.654306830405217 
1399	 0.653943081621981 
1400	 0.653536185941685 
1401	 0.653063617017931 
1402	 0.652534130497996 
1403	 0.651945425888914 
1404	 0.651271318760528 
1405	 0.650614477057632 
1406	 0.649915418454372 
1407	 0.649206282148136 
1408	 0.648468225221058 
1409	 0.647755079442918 
1410	 0.646989817923161 
1411	 0.64630982139588 
1412	 0.6456697350564 
1413	 0.645079551932114 
1414	 0.64453617018899 
1415	 0.644031328826649 
1416	 0.643577907709862 
1417	 0.643148000895977 
1418	 0.64277337713138 
1419	 0.642394537802993 
1420	 0.642049602852662 
1421	 0.641694762567922 
1422	 0.641345148217956 
1423	 0.640986459047376 
1424	 0.640621252185958 
1425	 0.640250580121825 
1426	 0.639897460272814 
1427	 0.639549937179624 
1428	 0.639207736346819 
1429	 0.638890530474471 
1430	 0.638582636485976 
1431	 0.638268761261865 
1432	 0.638003980222639 
1433	 0.637770262400408 
1434	 0.637553902612514 
1435	 0.637365906303511 
1436	 0.637194149592993 
1437	 0.63704676656827 
1438	 0.636907792936183 
1439	 0.636780805317808 
1440	 0.636681256780507 
1441	 0.636597768284469 
1442	 0.63653368049783 
1443	 0.636491791187976 
1444	 0.63647602044217 
1445	 0.636476961797068 
1446	 0.636504584335264 
1447	 0.636564219471333 
1448	 0.636640797810746 
1449	 0.636741458763064 
1450	 0.636852660751375 
1451	 0.636985565462274 
1452	 0.637131383064318 
1453	 0.637306565720872 
1454	 0.637463742174727 
1455	 0.637635683865107 
1456	 0.637790180250214 
1457	 0.637922947600821 
1458	 0.638059891403119 
1459	 0.638198110885251 
1460	 0.638328578965909 
1461	 0.638453713616215 
1462	 0.638573262878805 
1463	 0.638681185475325 
1464	 0.638792286075446 
1465	 0.63889576378599 
1466	 0.639009028008417 
1467	 0.639128226372082 
1468	 0.639252916784547 
1469	 0.639357877585355 
1470	 0.639466015007207 
1471	 0.639568391619999 
1472	 0.639659838001179 
1473	 0.639746439789671 
1474	 0.639846413093011 
1475	 0.639899758180155 
1476	 0.639917376128365 
1477	 0.639954919367137 
1478	 0.639974846492083 
1479	 0.640002608149698 
1480	 0.640050334412965 
1481	 0.640067118287519 
1482	 0.640072183941814 
1483	 0.640054874687518 
1484	 0.640021652302043 
1485	 0.639973095116423 
1486	 0.639894395368954 
1487	 0.639826063232077 
1488	 0.639741693305362 
1489	 0.639674810459996 
1490	 0.639611593192897 
1491	 0.639555086115084 
1492	 0.639517381905174 
1493	 0.639463216442475 
1494	 0.639393630190491 
1495	 0.639348137132075 
1496	 0.639309122472396 
1497	 0.639269646046852 
1498	 0.639242700528866 
1499	 0.639222636731778 
1500	 0.639192492852437 
1501	 0.639182911254561 
1502	 0.639209625623864 
1503	 0.639212970551298 
1504	 0.639216351373412 
1505	 0.639211997578825 
1506	 0.639182399494338 
1507	 0.639174631868947 
1508	 0.639163488198949 
1509	 0.639175077871284 
1510	 0.639208297266669 
1511	 0.639248079813267 
1512	 0.639317508308288 
1513	 0.639369735005129 
1514	 0.639420304474718 
1515	 0.639469646216763 
1516	 0.639501186868934 
1517	 0.639547238437051 
1518	 0.63960145103905 
1519	 0.639660329688415 
1520	 0.639730212017719 
1521	 0.639802261542012 
1522	 0.639861154807498 
1523	 0.639921327410362 
1524	 0.639988862475355 
1525	 0.640055221990203 
1526	 0.640117361918213 
1527	 0.640187820916696 
1528	 0.640249411586769 
1529	 0.640294820341577 
1530	 0.640359965308402 
1531	 0.640431920122653 
1532	 0.640512058069024 
1533	 0.640606459021713 
1534	 0.640684128656881 
1535	 0.640759765962269 
1536	 0.640841725759221 
1537	 0.640913409530881 
1538	 0.640999873845411 
1539	 0.641099417724015 
1540	 0.641201159873308 
1541	 0.641304672279286 
1542	 0.641414664450016 
1543	 0.64154112306439 
1544	 0.641650429190894 
1545	 0.641755654520087 
1546	 0.641858404423039 
1547	 0.641954606002994 
1548	 0.64204899706076 
1549	 0.642140283121097 
1550	 0.642233292534994 
1551	 0.642328248228181 
1552	 0.642410441791906 
1553	 0.642499776064278 
1554	 0.642559243751755 
1555	 0.64259377536224 
1556	 0.642629100189106 
1557	 0.642640421780527 
1558	 0.642669675442514 
1559	 0.642712607896673 
1560	 0.642733362992415 
1561	 0.642751289871411 
1562	 0.642760625954779 
1563	 0.642749497036962 
1564	 0.642744051802393 
1565	 0.642741623056729 
1566	 0.64273166652415 
1567	 0.642713856405671 
1568	 0.642696408533614 
1569	 0.64266314248497 
1570	 0.642656481333904 
1571	 0.6426602389746 
1572	 0.642669129543365 
1573	 0.642703079634686 
1574	 0.642723284257293 
1575	 0.642723273894519 
1576	 0.642755547200247 
1577	 0.642799497131528 
1578	 0.642854198379078 
1579	 0.642953667895537 
1580	 0.643013436385075 
1581	 0.643059328139535 
1582	 0.643102020102254 
1583	 0.643122703553837 
1584	 0.643149014576533 
1585	 0.64316450517067 
1586	 0.643202351096804 
1587	 0.643257934875535 
1588	 0.643299052453958 
1589	 0.643347868728573 
1590	 0.643395397527358 
1591	 0.643426279481621 
1592	 0.643466251037904 
1593	 0.643522178906288 
1594	 0.64357012312664 
1595	 0.643606270194283 
1596	 0.643653527263489 
1597	 0.643706687181889 
1598	 0.643760575454406 
1599	 0.643823102562782 
1600	 0.643880679947283 
1601	 0.643931285156349 
1602	 0.643991204899623 
1603	 0.644072053817858 
1604	 0.644122430131276 
1605	 0.644164410592212 
1606	 0.644196783579014 
1607	 0.644194905539533 
1608	 0.644206866125843 
1609	 0.644228584844366 
1610	 0.644242049784254 
1611	 0.644253076953968 
1612	 0.644260133072226 
1613	 0.64426242004434 
1614	 0.644259296494159 
1615	 0.644251373775474 
1616	 0.644240176210482 
1617	 0.644218849081144 
1618	 0.644203931020112 
1619	 0.644196748355221 
1620	 0.64417710135436 
1621	 0.644150682213501 
1622	 0.644126702532622 
1623	 0.644095740641429 
1624	 0.644065909691076 
1625	 0.644050244973751 
1626	 0.64401336497978 
1627	 0.643959948743073 
1628	 0.643906779556247 
1629	 0.643846226503107 
1630	 0.643776974501479 
1631	 0.643693423877525 
1632	 0.643623671676315 
1633	 0.643551255235284 
1634	 0.643482148229797 
1635	 0.643441092709858 
1636	 0.643368992663293 
1637	 0.643271323544256 
1638	 0.643182521404371 
1639	 0.643085757264157 
1640	 0.642983932188098 
1641	 0.64289203117699 
1642	 0.642781376370536 
1643	 0.642648725312726 
1644	 0.642521090907826 
1645	 0.642402504955559 
1646	 0.642254585199724 
1647	 0.642095086534013 
1648	 0.641920868036079 
1649	 0.641717206372962 
1650	 0.641509479650803 
1651	 0.641302672181662 
1652	 0.641069612899154 
1653	 0.640831610910815 
1654	 0.640554683599584 
1655	 0.64024922745779 
1656	 0.639913462742685 
1657	 0.639539595317928 
1658	 0.639140838210699 
1659	 0.638709905687786 
1660	 0.638268953676604 
1661	 0.637803587971348 
1662	 0.637321325138264 
1663	 0.636836397224629 
1664	 0.636294715689873 
1665	 0.635711372726493 
1666	 0.635108371430109 
1667	 0.634469902127521 
1668	 0.633810964690313 
1669	 0.633133362936816 
1670	 0.632428284179775 
1671	 0.631695547502685 
1672	 0.630917016432016 
1673	 0.630132945177703 
1674	 0.629261927741705 
1675	 0.628315733255585 
1676	 0.627358189186584 
1677	 0.626371498032983 
1678	 0.625307765050789 
1679	 0.62419737923122 
1680	 0.623015269619071 
1681	 0.621730988227715 
1682	 0.620430816998863 
1683	 0.61909317619007 
1684	 0.617740236341017 
1685	 0.616346827686015 
1686	 0.614933457894421 
1687	 0.613492708163231 
1688	 0.612010401130046 
1689	 0.610495144094869 
1690	 0.608942073727737 
1691	 0.607327375296746 
1692	 0.605777097481322 
1693	 0.604240125739598 
1694	 0.602670215878905 
1695	 0.601127576737626 
1696	 0.599510679629801 
1697	 0.597825694575316 
1698	 0.596134086113089 
1699	 0.59443179670223 
1700	 0.592717921568378 
1701	 0.590952728985636 
1702	 0.589250394544541 
1703	 0.587510620820469 
1704	 0.585894874074213 
1705	 0.584327560812809 
1706	 0.582815153057549 
1707	 0.581504457394366 
1708	 0.580229457921857 
1709	 0.579031061716932 
1710	 0.577938663630814 
1711	 0.576807896012952 
1712	 0.575738487114517 
1713	 0.574707249735608 
1714	 0.57367174249021 
1715	 0.572720722258954 
1716	 0.571761293803607 
1717	 0.570844860788906 
1718	 0.57000977784785 
1719	 0.569173287395489 
1720	 0.568399830876932 
1721	 0.567707863663975 
1722	 0.567097381137571 
1723	 0.566631701737727 
1724	 0.566300575074652 
1725	 0.566106057119912 
1726	 0.566081861355195 
1727	 0.566259742524538 
1728	 0.566635353267667 
1729	 0.567240026411138 
1730	 0.568067413709608 
1731	 0.568991030479159 
1732	 0.570100044635361 
1733	 0.571280271165704 
1734	 0.5724863839171 
1735	 0.573770670321836 
1736	 0.574969732958601 
1737	 0.576110710530803 
1738	 0.577186371250978 
1739	 0.578041029204233 
1740	 0.578765247034221 
1741	 0.579336598765521 
1742	 0.579685914597262 
1743	 0.579959163464869 
1744	 0.580096373608642 
1745	 0.580162257792443 
1746	 0.580096590463148 
1747	 0.580009219699013 
1748	 0.579822319350492 
1749	 0.579645563439773 
1750	 0.579416551538985 
1751	 0.579209063881712 
1752	 0.578977411121348 
1753	 0.578820294556917 
1754	 0.578661690447333 
1755	 0.578618398802089 
1756	 0.578636549199183 
1757	 0.578742119417205 
1758	 0.578940151893089 
1759	 0.57921013907516 
1760	 0.579664477675854 
1761	 0.580254451142078 
1762	 0.580871707944257 
1763	 0.581629287294187 
1764	 0.582468392927041 
1765	 0.583390945381785 
1766	 0.584472143075453 
1767	 0.585553246721123 
1768	 0.586688015793042 
1769	 0.58784975275689 
1770	 0.588924370574749 
1771	 0.590028498151419 
1772	 0.591069278590331 
1773	 0.592025222143499 
1774	 0.592975266770356 
1775	 0.593854821289763 
1776	 0.59468802260567 
1777	 0.595425598723074 
1778	 0.596053667949056 
1779	 0.596645236040378 
1780	 0.597170954513181 
1781	 0.597637749014113 
1782	 0.598101706247472 
1783	 0.598485268617308 
1784	 0.598783219940074 
1785	 0.599067475868372 
1786	 0.599320835514178 
1787	 0.599541005128619 
1788	 0.599746536606849 
1789	 0.599922540533357 
1790	 0.600071900758481 
1791	 0.600194207256502 
1792	 0.60028646227981 
1793	 0.600318465936125 
1794	 0.600396525123156 
1795	 0.600497952969485 
1796	 0.60060539547732 
1797	 0.600716108496338 
1798	 0.600786995152194 
1799	 0.600823736647352 
1800	 0.600916398893422 
1801	 0.599567343727433 
1802	 0.599754265498071 
1803	 0.599902592938421 
1804	 0.600044857555437 
1805	 0.600158557210738 
1806	 0.60027367125962 
1807	 0.600359252349487 
1808	 0.600482339246849 
1809	 0.600607460726922 
1810	 0.600749211249618 
1811	 0.600922684473052 
1812	 0.601084440891286 
1813	 0.601241824289509 
1814	 0.601423173526075 
1815	 0.601568342078096 
1816	 0.601710626962834 
1817	 0.601894988628495 
1818	 0.60209438287137 
1819	 0.602291730929133 
1820	 0.602525584392102 
1821	 0.602749013610272 
1822	 0.602965651074048 
1823	 0.603173182386997 
1824	 0.603405708367495 
1825	 0.603657569767636 
1826	 0.603885527354137 
1827	 0.604100922842206 
1828	 0.604327365508547 
1829	 0.604544772320387 
1830	 0.604772502242056 
1831	 0.605006544616443 
1832	 0.605256958317878 
1833	 0.605471275895678 
1834	 0.605710513063912 
1835	 0.605982837481053 
1836	 0.606230923501961 
1837	 0.606506338704186 
1838	 0.606826255865201 
1839	 0.607112876397807 
1840	 0.607389925426653 
1841	 0.607675332425215 
1842	 0.607965687367403 
1843	 0.608242714648801 
1844	 0.608526112077046 
1845	 0.608770852865571 
1846	 0.608991013150401 
1847	 0.609197580007479 
1848	 0.609403868166291 
1849	 0.609592650774499 
1850	 0.609796850077598 
1851	 0.610016047862919 
1852	 0.61021040164826 
1853	 0.6103825785123 
1854	 0.610536094111 
1855	 0.610677405254736 
1856	 0.610802262520955 
1857	 0.610937737550656 
1858	 0.611045890612435 
1859	 0.611121783590094 
1860	 0.611165572973961 
1861	 0.611205287884188 
1862	 0.611224755781212 
1863	 0.611223819725717 
1864	 0.611212022040978 
1865	 0.611179433333818 
1866	 0.611115784904067 
1867	 0.611008844290331 
1868	 0.610908059373219 
1869	 0.610772532225916 
1870	 0.610595169019274 
1871	 0.610392543823837 
1872	 0.610167843603679 
1873	 0.609907666751626 
1874	 0.609607720863443 
1875	 0.609317394214421 
1876	 0.608966960620017 
1877	 0.608579588721479 
1878	 0.608135017932116 
1879	 0.607594765343347 
1880	 0.607027161611305 
1881	 0.606378191098587 
1882	 0.605650522095498 
1883	 0.604868376829723 
1884	 0.604029994376827 
1885	 0.603045830934856 
1886	 0.602013998493976 
1887	 0.600886884171132 
1888	 0.599618227931883 
1889	 0.598354328879288 
1890	 0.596988303607425 
1891	 0.595553860404206 
1892	 0.59407971295315 
1893	 0.592546852208564 
1894	 0.590922687751349 
1895	 0.589322750298426 
1896	 0.587662334057806 
1897	 0.585979525991251 
1898	 0.584401101738107 
1899	 0.582765986554029 
1900	 0.581172330395303 
1901	 0.57964020328614 
1902	 0.577999025814735 
1903	 0.576435419474023 
1904	 0.574904262877485 
1905	 0.573378871637102 
1906	 0.571872375369392 
1907	 0.570544690766761 
1908	 0.569217295429614 
1909	 0.567947887337795 
1910	 0.566785298691215 
1911	 0.565567931910418 
1912	 0.564407147057514 
1913	 0.56328979539701 
1914	 0.562181353472601 
1915	 0.56117101175671 
1916	 0.560254736709363 
1917	 0.559361775817833 
1918	 0.558519039089502 
1919	 0.557738030218505 
1920	 0.556938846018577 
1921	 0.556215332662763 
1922	 0.555516987425586 
1923	 0.554848648038222 
1924	 0.554291665533427 
1925	 0.553740367698649 
1926	 0.553230581208026 
1927	 0.552769951324891 
1928	 0.552353880169761 
1929	 0.55196017315696 
1930	 0.551633384034956 
1931	 0.551361323860494 
1932	 0.551124118091391 
1933	 0.550965078793724 
1934	 0.55084042469671 
1935	 0.550714287641792 
1936	 0.550653841184625 
1937	 0.550635837991067 
1938	 0.55063019609966 
1939	 0.550679886549259 
1940	 0.550799548575174 
1941	 0.550954619984729 
1942	 0.55109031079466 
1943	 0.551289589700666 
1944	 0.551549683557273 
1945	 0.551826057091025 
1946	 0.55213547455371 
1947	 0.552472885223941 
1948	 0.552811867557504 
1949	 0.553162376042783 
1950	 0.553517738640734 
1951	 0.553894047199723 
1952	 0.554261739694276 
1953	 0.55462382337132 
1954	 0.554996879397445 
1955	 0.555393272320107 
1956	 0.555785560576788 
1957	 0.556187310668874 
1958	 0.556577899130719 
1959	 0.556923533498252 
1960	 0.557262780143412 
1961	 0.557583754927566 
1962	 0.557869297892183 
1963	 0.558171002902527 
1964	 0.55846328548953 
1965	 0.558751227129412 
1966	 0.559045827748271 
1967	 0.55933752814395 
1968	 0.559566714331758 
1969	 0.559839573626316 
1970	 0.560129367219261 
1971	 0.560397637481408 
1972	 0.560722081900082 
1973	 0.561039114172087 
1974	 0.561355039989457 
1975	 0.561667980527977 
1976	 0.561994508191041 
1977	 0.56232836894792 
1978	 0.562661600020111 
1979	 0.562992478984478 
1980	 0.563337011857195 
1981	 0.56369296599929 
1982	 0.564070381922601 
1983	 0.564487764271143 
1984	 0.564877514855665 
1985	 0.565233185050979 
1986	 0.565620355101403 
1987	 0.566011479260346 
1988	 0.566402050782072 
1989	 0.566795898543892 
1990	 0.567218093597616 
1991	 0.567610374092811 
1992	 0.567983004364009 
1993	 0.568365364584854 
1994	 0.568732465244779 
1995	 0.569088610001308 
1996	 0.569432227798227 
1997	 0.569739716450806 
1998	 0.570056203047153 
1999	 0.570365175450482 
2000	 0.570664384410792 
2001	 0.570972281467639 
2002	 0.571249544984502 
2003	 0.571499449286369 
2004	 0.571745821098274 
2005	 0.571972829220423 
2006	 0.572188563623558 
2007	 0.572393616564511 
2008	 0.572590357250962 
2009	 0.572777203286696 
2010	 0.572992018234884 
2011	 0.573189649693826 
2012	 0.573385602956471 
2013	 0.573544456205148 
2014	 0.573662463809235 
2015	 0.57379104098235 
2016	 0.573920541446253 
2017	 0.574008690836788 
2018	 0.574098694072639 
2019	 0.574141745361753 
2020	 0.574139536631734 
2021	 0.574104422156477 
2022	 0.574052553901709 
2023	 0.573988313582891 
2024	 0.573891789449568 
2025	 0.573762968214206 
2026	 0.573609698281401 
2027	 0.573427503604482 
2028	 0.57322090767631 
2029	 0.572974530395833 
2030	 0.572728775713075 
2031	 0.572492975192031 
2032	 0.572187027080661 
2033	 0.571855384888517 
2034	 0.5714866361846 
2035	 0.571066997373037 
2036	 0.570581777231287 
2037	 0.570126279267912 
2038	 0.569651098025835 
2039	 0.569154719911695 
2040	 0.568645162499942 
2041	 0.568117915138411 
2042	 0.56755385636138 
2043	 0.567004659050733 
2044	 0.566434114905253 
2045	 0.565891644353858 
2046	 0.565345247104785 
2047	 0.564826851968337 
2048	 0.564324675570688 
2049	 0.563847494310529 
2050	 0.563360381518824 
2051	 0.562946416791049 
2052	 0.562578339832596 
2053	 0.562276292158919 
2054	 0.562089870752223 
2055	 0.5620156359386 
2056	 0.56198360911916 
2057	 0.562040331107913 
2058	 0.562153808514719 
2059	 0.562332110326014 
2060	 0.562566236322391 
2061	 0.562885190228084 
2062	 0.56323531637772 
2063	 0.563643149304473 
2064	 0.564085109003719 
2065	 0.5645709921832 
2066	 0.565103536884826 
2067	 0.565693004450143 
2068	 0.566262307131001 
2069	 0.566829730796066 
2070	 0.567434762195733 
2071	 0.567977636480355 
2072	 0.56847551177845 
2073	 0.568995798228333 
2074	 0.569501040033617 
2075	 0.570010314307997 
2076	 0.57054423504859 
2077	 0.571035890172228 
2078	 0.571527695239401 
2079	 0.571967047073737 
2080	 0.572367204467971 
2081	 0.572744376431185 
2082	 0.573075287379752 
2083	 0.57338096083826 
2084	 0.573710366932146 
2085	 0.574014779005633 
2086	 0.574280897004604 
2087	 0.574547207187401 
2088	 0.574749157624295 
2089	 0.574878456708455 
2090	 0.575017009870157 
2091	 0.575132329454491 
2092	 0.57522199539835 
2093	 0.575299566589181 
2094	 0.575345810262568 
2095	 0.575343563442851 
2096	 0.575344669335771 
2097	 0.575329553045256 
2098	 0.575298582659744 
2099	 0.575261387689926 
2100	 0.575243581488506 
2101	 0.575192103566242 
2102	 0.575122482547149 
2103	 0.575055146419893 
2104	 0.574974428610153 
2105	 0.574886653801379 
2106	 0.574812500617992 
2107	 0.574696806278118 
2108	 0.574563886537306 
2109	 0.574397770317269 
2110	 0.574204627645272 
2111	 0.573982620016848 
2112	 0.573701766120715 
2113	 0.573443753294459 
2114	 0.573172453975488 
2115	 0.572898277263615 
2116	 0.572637961734384 
2117	 0.572369689395748 
2118	 0.572065091321935 
2119	 0.571731538685565 
2120	 0.571408831220748 
2121	 0.571047549196652 
2122	 0.570735359288013 
2123	 0.570442212846223 
2124	 0.570154798897767 
2125	 0.569909523375304 
2126	 0.569623953837356 
2127	 0.56930969391438 
2128	 0.569029768699085 
2129	 0.568756718663253 
2130	 0.56847259899071 
2131	 0.568222701096245 
2132	 0.567939058696579 
2133	 0.567636853732748 
2134	 0.567309849207722 
2135	 0.566950230234028 
2136	 0.566596867797243 
2137	 0.566204897241369 
2138	 0.565771715957565 
2139	 0.565338186668275 
2140	 0.564881106278329 
2141	 0.564430964044819 
2142	 0.563977261933543 
2143	 0.563507428354689 
2144	 0.563029198367242 
2145	 0.562551466849052 
2146	 0.562030351742275 
2147	 0.561563164269282 
2148	 0.561127971456737 
2149	 0.560690559228989 
2150	 0.560305059345085 
2151	 0.559874343558925 
2152	 0.559411770910339 
2153	 0.558966726296233 
2154	 0.558505194389036 
2155	 0.558011846966483 
2156	 0.557534547885164 
2157	 0.557073837316465 
2158	 0.55656951454235 
2159	 0.556055535457485 
2160	 0.555508518784769 
2161	 0.554920623101482 
2162	 0.554336235281299 
2163	 0.55370884989807 
2164	 0.553125239645386 
2165	 0.552537698073533 
2166	 0.551988253763418 
2167	 0.551471206034673 
2168	 0.550973014496143 
2169	 0.550495549004062 
2170	 0.550037726119082 
2171	 0.549595908846432 
2172	 0.549185924230595 
2173	 0.548790922444323 
2174	 0.548441762176077 
2175	 0.548149518411347 
2176	 0.547834701055401 
2177	 0.547560335874598 
2178	 0.547322774253864 
2179	 0.547087663784328 
2180	 0.546858481853497 
2181	 0.546668408676715 
2182	 0.546525833172078 
2183	 0.54634602521129 
2184	 0.546196525120889 
2185	 0.54600042160141 
2186	 0.545740811387329 
2187	 0.545531749084271 
2188	 0.545340054549074 
2189	 0.545132323285311 
2190	 0.544949816888384 
2191	 0.544738232767042 
2192	 0.544500337796765 
2193	 0.54425588421926 
2194	 0.543988472781403 
2195	 0.543736254191762 
2196	 0.543499755135372 
2197	 0.543225334377328 
2198	 0.54294751205196 
2199	 0.542686381019794 
2200	 0.542400413669274 
2201	 0.542097329213105 
2202	 0.541772201250739 
2203	 0.541427978306792 
2204	 0.541097447296165 
2205	 0.540732541088787 
2206	 0.540400064206765 
2207	 0.540094212014839 
2208	 0.539782574318112 
2209	 0.539478604517071 
2210	 0.53917593758994 
2211	 0.538878635761775 
2212	 0.538588372219771 
2213	 0.538295987136391 
2214	 0.538005541171589 
2215	 0.537738540985874 
2216	 0.537449604216541 
2217	 0.537157753377357 
2218	 0.536849838495258 
2219	 0.536538031338328 
2220	 0.536197408101376 
2221	 0.535829543889504 
2222	 0.535466133259 
2223	 0.535063794987219 
2224	 0.534594640546745 
2225	 0.534095082888127 
2226	 0.533506930351315 
2227	 0.532870464917749 
2228	 0.5321785788514 
2229	 0.531420763970742 
2230	 0.530606107335552 
2231	 0.529707166462179 
2232	 0.528736428948363 
2233	 0.527672560070614 
2234	 0.526532786235427 
2235	 0.525293582654129 
2236	 0.523933706574441 
2237	 0.522558554591477 
2238	 0.52108471680465 
2239	 0.519597120971097 
2240	 0.518081408194625 
2241	 0.516513522238665 
2242	 0.51493489706303 
2243	 0.513243641903967 
2244	 0.511458364031863 
2245	 0.509657905788968 
2246	 0.507722576694733 
2247	 0.505828953567583 
2248	 0.503949647504684 
2249	 0.502039717491634 
2250	 0.500110231940107 
2251	 0.498198230837934 
2252	 0.496202421582031 
2253	 0.49425316120158 
2254	 0.492233654930348 
2255	 0.490235227397145 
2256	 0.488381348485351 
2257	 0.486487664913752 
2258	 0.484637527359282 
2259	 0.482883059556658 
2260	 0.481041900219313 
2261	 0.479160828677731 
2262	 0.477316761610789 
2263	 0.475424118870192 
2264	 0.473638986405606 
2265	 0.471917489800971 
2266	 0.470177023520578 
2267	 0.468489167269495 
2268	 0.466808203383532 
2269	 0.465099003669101 
2270	 0.463481198711347 
2271	 0.461902658932608 
2272	 0.460384450605435 
2273	 0.458960287093526 
2274	 0.457505963157205 
2275	 0.456155378214452 
2276	 0.454692251964541 
2277	 0.453178662013456 
2278	 0.451643606861966 
2279	 0.450028923508626 
2280	 0.4484149096523 
2281	 0.446824802437525 
2282	 0.445139174354729 
2283	 0.443410873013677 
2284	 0.441640611943059 
2285	 0.439679622985257 
2286	 0.437740308948564 
2287	 0.435640550373213 
2288	 0.433402789448625 
2289	 0.431251700121678 
2290	 0.428928320910383 
2291	 0.426603932871896 
2292	 0.424234848956134 
2293	 0.421658793961816 
2294	 0.419178405573513 
2295	 0.416679147251118 
2296	 0.414230825201084 
2297	 0.412000487793139 
2298	 0.409879914024114 
2299	 0.407962511010736 
2300	 0.406216078287915 
2301	 0.404702906306379 
2302	 0.403292598948672 
2303	 0.402388110819447 
2304	 0.401778773122552 
2305	 0.401583131055213 
2306	 0.401863429442743 
2307	 0.402424972835948 
2308	 0.403297415652662 
2309	 0.404601549521045 
2310	 0.40638221570658 
2311	 0.408397818467331 
2312	 0.411035348143147 
2313	 0.413494660753812 
2314	 0.416237230074935 
2315	 0.4187812633051 
2316	 0.421302015930332 
2317	 0.423655380558344 
2318	 0.426010263208523 
2319	 0.428034945867314 
2320	 0.429895980979779 
2321	 0.431466206562083 
2322	 0.432699377682755 
2323	 0.433803155147751 
2324	 0.434669707792188 
2325	 0.435334807368118 
2326	 0.435806918266391 
2327	 0.43606542127435 
2328	 0.436016699402829 
2329	 0.43589445237414 
2330	 0.435638180105207 
2331	 0.435143041330208 
2332	 0.434515662458368 
2333	 0.433707962194767 
2334	 0.432601813546574 
2335	 0.431348898737143 
2336	 0.429932257750603 
2337	 0.428266869647474 
2338	 0.426571125054171 
2339	 0.424798635698616 
2340	 0.423062166800068 
2341	 0.421404579746169 
2342	 0.419767070111721 
2343	 0.418316497842071 
2344	 0.417068002353741 
2345	 0.416127746704738 
2346	 0.415625756588185 
2347	 0.415595373527773 
2348	 0.415949758477297 
2349	 0.416834091178015 
2350	 0.418195071877579 
2351	 0.419881414332829 
2352	 0.421812268017571 
2353	 0.423906274164231 
2354	 0.425917197513912 
2355	 0.427883784345859 
2356	 0.429759561458412 
2357	 0.431432038223421 
2358	 0.432984351483049 
2359	 0.434160909725756 
2360	 0.435082276249161 
2361	 0.435750596214961 
2362	 0.436142734654896 
2363	 0.436470942008062 
2364	 0.436801556085763 
2365	 0.437063106696753 
2366	 0.437294290064707 
2367	 0.437491993020959 
2368	 0.437519635938453 
2369	 0.437543978514145 
2370	 0.437633568003578 
2371	 0.437762929139912 
2372	 0.43797051078088 
2373	 0.438154281022597 
2374	 0.438242327854289 
2375	 0.438289839276918 
2376	 0.43840532271557 
2377	 0.43854960890057 
2378	 0.438692059639617 
2379	 0.438896508991511 
2380	 0.439097263267855 
2381	 0.439297924628554 
2382	 0.439511222641869 
2383	 0.439798237552992 
2384	 0.440000582491039 
2385	 0.440164531602816 
2386	 0.440317470761788 
2387	 0.440431211033138 
2388	 0.440566266998076 
2389	 0.44065355123815 
2390	 0.440777267750333 
2391	 0.440970230975145 
2392	 0.441097757041019 
2393	 0.441179707175702 
2394	 0.44135592556398 
2395	 0.441560528085827 
2396	 0.441720301171806 
2397	 0.441909558834388 
2398	 0.442101329014414 
2399	 0.442242756950859 
2400	 0.442408851050372 
2401	 0.442617614585101 
2402	 0.442795809075171 
2403	 0.443009351346153 
2404	 0.443211833331435 
2405	 0.443449880387474 
2406	 0.443646460953541 
2407	 0.443760748408385 
2408	 0.443935902811806 
2409	 0.444194598641502 
2410	 0.444473242748541 
2411	 0.444756726514165 
2412	 0.445021516672632 
2413	 0.445164085530841 
2414	 0.445276782173924 
2415	 0.445491235493326 
2416	 0.445611619759341 
2417	 0.445649175264159 
2418	 0.445682110647136 
2419	 0.445721416567755 
2420	 0.445872177252752 
2421	 0.445997843043288 
2422	 0.446069896518267 
2423	 0.446072980115459 
2424	 0.445971758041577 
2425	 0.445938284810209 
2426	 0.445997786308923 
2427	 0.446021110458345 
2428	 0.445990505936271 
2429	 0.446043832469417 
2430	 0.446009081710464 
2431	 0.445869813327862 
2432	 0.445852221616606 
2433	 0.44570280822872 
2434	 0.445573329245778 
2435	 0.445618010944977 
2436	 0.445472837490397 
2437	 0.445302172037248 
2438	 0.445214609797067 
2439	 0.445084915670479 
2440	 0.444930771766977 
2441	 0.444683167708018 
2442	 0.444360532922548 
2443	 0.444066845681115 
2444	 0.443780638419291 
2445	 0.443444098333173 
2446	 0.443163502904207 
2447	 0.442764143282092 
2448	 0.442268639380886 
2449	 0.442128097263792 
2450	 0.442108064183459 
2451	 0.44182173426365 
2452	 0.441398156654429 
2453	 0.440828803854068 
2454	 0.44004982721865 
2455	 0.439368678268353 
2456	 0.439047467503546 
2457	 0.438810162813615 
2458	 0.438644344495416 
2459	 0.438640236232694 
2460	 0.438400272886409 
2461	 0.437952724150344 
2462	 0.437483286937455 
2463	 0.43705366208035 
2464	 0.436794294783276 
2465	 0.436656716098879 
2466	 0.436502167531204 
2467	 0.436325440686804 
2468	 0.436208423363142 
2469	 0.436229324974855 
2470	 0.436401120998792 
2471	 0.436598088378198 
2472	 0.436701124649765 
2473	 0.43683160969049 
2474	 0.436975577220659 
2475	 0.436813480002807 
2476	 0.436794528059859 
2477	 0.437051738835784 
2478	 0.43701158990052 
2479	 0.437213261649516 
2480	 0.437473285482842 
2481	 0.437660205141205 
2482	 0.438209420463289 
2483	 0.438685389612629 
2484	 0.438862737216388 
2485	 0.439198127388385 
2486	 0.439546400383344 
2487	 0.439892625539791 
2488	 0.440380063865835 
2489	 0.440688351259175 
2490	 0.440956818993796 
2491	 0.441265486896014 
2492	 0.441488368583013 
2493	 0.442155587373966 
2494	 0.442649236682241 
2495	 0.44289697695324 
2496	 0.443644620930651 
2497	 0.444245351438668 
2498	 0.444824001940158 
2499	 0.445278341365062 
2500	 0.445397440198153 
