Wavelength	spectrum00004.asd
350	 5.82054141571412E-02 
351	 5.55990096582437E-02 
352	 5.40345188606648E-02 
353	 5.46915214041218E-02 
354	 5.57752166278291E-02 
355	 5.35485276215748E-02 
356	 5.09202864148696E-02 
357	 5.04426411567343E-02 
358	 0.04879870881469 
359	 0.048948677844883 
360	 5.01122842708071E-02 
361	 4.99183145885737E-02 
362	 5.03356393985542E-02 
363	 4.97681138896458E-02 
364	 4.80087378502215E-02 
365	 4.70074808980238E-02 
366	 4.73919742129569E-02 
367	 4.79050508063907E-02 
368	 4.74658129944045E-02 
369	 4.70783700858413E-02 
370	 4.78935268132523E-02 
371	 4.87727802060806E-02 
372	 4.76987518858382E-02 
373	 4.72364376159143E-02 
374	 4.79345939890987E-02 
375	 4.90762239921613E-02 
376	 4.85459249939258E-02 
377	 4.81627759809878E-02 
378	 4.81528161264051E-02 
379	 4.81423502393694E-02 
380	 0.047097088253346 
381	 4.69862473723632E-02 
382	 0.047397407407878 
383	 4.66754312609349E-02 
384	 4.63834642369668E-02 
385	 0.046767668616826 
386	 4.72792474547973E-02 
387	 4.64275478722938E-02 
388	 4.60271984838122E-02 
389	 4.62411442289481E-02 
390	 4.65779007573144E-02 
391	 4.59852756939889E-02 
392	 4.56721481380595E-02 
393	 4.58954020425578E-02 
394	 4.62285904416951E-02 
395	 4.66894081128005E-02 
396	 4.67378814492299E-02 
397	 4.62278066297528E-02 
398	 4.56662674243345E-02 
399	 4.58522323500564E-02 
400	 4.60768360832354E-02 
401	 4.55642508479493E-02 
402	 4.52237687362181E-02 
403	 4.53256620562983E-02 
404	 4.55865761495826E-02 
405	 4.54128677668072E-02 
406	 4.56731621666633E-02 
407	 4.56567481940187E-02 
408	 0.045147745315773 
409	 4.53735585296832E-02 
410	 4.49541881800733E-02 
411	 4.45267293910866E-02 
412	 4.49994736390564E-02 
413	 4.52068660422199E-02 
414	 4.52139485207576E-02 
415	 0.045152136500089 
416	 4.51436762877836E-02 
417	 4.51109584845357E-02 
418	 0.045318716719274 
419	 4.57376562002469E-02 
420	 4.55073234795411E-02 
421	 4.53725595554117E-02 
422	 4.55620679751936E-02 
423	 4.59873828781016E-02 
424	 4.60949309817226E-02 
425	 4.60878071556279E-02 
426	 4.61217076090571E-02 
427	 4.62188108000668E-02 
428	 4.63938833700243E-02 
429	 4.66197549926931E-02 
430	 4.68538484949238E-02 
431	 0.047022119332951 
432	 4.73601107221223E-02 
433	 4.78011091537806E-02 
434	 4.81236612698793E-02 
435	 0.048421000482269 
436	 4.85865608220635E-02 
437	 4.86651505629366E-02 
438	 4.89577904741143E-02 
439	 4.94043678169703E-02 
440	 4.97663630556385E-02 
441	 4.98969638301489E-02 
442	 5.02747110669211E-02 
443	 5.05873486007692E-02 
444	 5.08182729015651E-02 
445	 5.11851436304564E-02 
446	 5.14045265671921E-02 
447	 0.051546773398978 
448	 5.17044218145292E-02 
449	 5.18931594946505E-02 
450	 5.20288816861347E-02 
451	 5.21711105633626E-02 
452	 5.24016116471598E-02 
453	 5.25983452691135E-02 
454	 5.25877427757133E-02 
455	 5.24454520451705E-02 
456	 5.25148767551359E-02 
457	 5.26890803771123E-02 
458	 5.27804728169297E-02 
459	 5.27161108583024E-02 
460	 5.28269910390258E-02 
461	 5.29013603902379E-02 
462	 5.28883396431109E-02 
463	 5.28424896671041E-02 
464	 0.052874844337956 
465	 5.29772631452634E-02 
466	 0.053055840315202 
467	 5.29004315711001E-02 
468	 5.29247174443205E-02 
469	 5.30401840679599E-02 
470	 5.30739278504312E-02 
471	 5.31898178408433E-02 
472	 0.05325737752606 
473	 5.32904860282461E-02 
474	 5.34076361588159E-02 
475	 5.33802260377281E-02 
476	 5.33516573329485E-02 
477	 5.34567597179985E-02 
478	 5.36938002531091E-02 
479	 5.39153049552428E-02 
480	 5.40388973274668E-02 
481	 5.40587409949326E-02 
482	 5.42029979180755E-02 
483	 5.44293271046195E-02 
484	 5.46577384399673E-02 
485	 5.47949344356855E-02 
486	 0.055041938422188 
487	 5.53344410209165E-02 
488	 5.55801789115701E-02 
489	 5.57920741010655E-02 
490	 0.05609776324933 
491	 5.64570492496054E-02 
492	 5.67453876671019E-02 
493	 5.70774317407731E-02 
494	 5.74453059425642E-02 
495	 5.78315910521035E-02 
496	 0.058227018085732 
497	 5.86383443968579E-02 
498	 5.90638140003616E-02 
499	 5.95098526262825E-02 
500	 6.00459361385892E-02 
501	 6.05277333631514E-02 
502	 6.09698292073145E-02 
503	 6.15256395570791E-02 
504	 6.20958233424992E-02 
505	 6.26891696289999E-02 
506	 6.33220285450532E-02 
507	 0.063982238788701 
508	 6.46808045955834E-02 
509	 6.53921656157699E-02 
510	 6.60871030347486E-02 
511	 6.68316780198154E-02 
512	 6.76289458901539E-02 
513	 6.84685808292161E-02 
514	 6.93351928744895E-02 
515	 7.02089973294196E-02 
516	 7.11086521133044E-02 
517	 7.20536973241897E-02 
518	 7.30210686299145E-02 
519	 7.40655250909024E-02 
520	 7.51674556774842E-02 
521	 7.62665690503706E-02 
522	 0.077497815039938 
523	 7.87459812636846E-02 
524	 7.99606794001025E-02 
525	 8.12904401484021E-02 
526	 0.082669510511765 
527	 0.08413146997435 
528	 8.57124913033481E-02 
529	 8.72789957948156E-02 
530	 8.88355460612326E-02 
531	 9.04688735477602E-02 
532	 9.23314067629407E-02 
533	 9.42187145477656E-02 
534	 9.61552580569647E-02 
535	 9.81907974929197E-02 
536	 0.100297851626305 
537	 0.102516901326075 
538	 0.104816144206187 
539	 0.107134039989388 
540	 0.109503045787295 
541	 0.111968047962539 
542	 0.114528526025624 
543	 0.117106200205463 
544	 0.119775849728702 
545	 0.122473711440087 
546	 0.125143308833796 
547	 0.12796912318092 
548	 0.13084147594257 
549	 0.133709126117785 
550	 0.136588186836048 
551	 0.139554062214465 
552	 0.142551564567883 
553	 0.145537374400108 
554	 0.148549583934792 
555	 0.151598309434639 
556	 0.154663421472731 
557	 0.157713743355644 
558	 0.160797903628097 
559	 0.16384938785843 
560	 0.166839937592419 
561	 0.169815461221936 
562	 0.172610258055499 
563	 0.17532056544469 
564	 0.178070661761769 
565	 0.180793710431299 
566	 0.183430524477392 
567	 0.186013747192035 
568	 0.188636677339964 
569	 0.191227229804914 
570	 0.19371405744447 
571	 0.19607545209486 
572	 0.198388866094098 
573	 0.200595498043631 
574	 0.202647221950518 
575	 0.204525226978996 
576	 0.206338558042063 
577	 0.208033873252943 
578	 0.209618984040268 
579	 0.211178640969318 
580	 0.212707264161859 
581	 0.214111665258918 
582	 0.215347826525804 
583	 0.216581537990374 
584	 0.217749379411425 
585	 0.218806525545578 
586	 0.219736082093156 
587	 0.220642092318511 
588	 0.221518379325624 
589	 0.222339718134102 
590	 0.223079866935253 
591	 0.223664252298821 
592	 0.224151107035923 
593	 0.22459842277461 
594	 0.224856876519967 
595	 0.225066549920366 
596	 0.225261968683304 
597	 0.225378147075796 
598	 0.225454480504652 
599	 0.225508182543111 
600	 0.225532257798087 
601	 0.225469651664541 
602	 0.225368658550364 
603	 0.225242963376116 
604	 0.225089595861617 
605	 0.224897473189203 
606	 0.224685082901951 
607	 0.224471256484375 
608	 0.224272377953954 
609	 0.223969879092225 
610	 0.223632743863049 
611	 0.223336454828457 
612	 0.2230132301666 
613	 0.222666557405763 
614	 0.222300365914346 
615	 0.221920350059312 
616	 0.221547211737445 
617	 0.221160888350331 
618	 0.220767373199386 
619	 0.220430006678586 
620	 0.220083813831593 
621	 0.219721219760303 
622	 0.219350741803009 
623	 0.218954631238533 
624	 0.218599333474921 
625	 0.21827712458469 
626	 0.217912285907423 
627	 0.217563660324126 
628	 0.217233092902847 
629	 0.216918029847637 
630	 0.216634631431216 
631	 0.216357191240231 
632	 0.216076358932918 
633	 0.215798188756678 
634	 0.21556994921151 
635	 0.215350125878434 
636	 0.215123536364184 
637	 0.214918157266086 
638	 0.214721816887145 
639	 0.214525789085297 
640	 0.214330065643738 
641	 0.214159855672742 
642	 0.214000438335377 
643	 0.213861316272084 
644	 0.213763387530701 
645	 0.213686605334 
646	 0.213639012649512 
647	 0.213610022489363 
648	 0.213552431560301 
649	 0.21351309336677 
650	 0.213502720311202 
651	 0.213515052388818 
652	 0.213520665175612 
653	 0.213562261328207 
654	 0.213635371208624 
655	 0.213700458876097 
656	 0.213820672275268 
657	 0.213932409950057 
658	 0.214012817799606 
659	 0.214161999507242 
660	 0.214389598186543 
661	 0.214635100834501 
662	 0.214831523393243 
663	 0.21505551280907 
664	 0.215306891562404 
665	 0.215590250409594 
666	 0.215915650263213 
667	 0.216213468766696 
668	 0.21652052497056 
669	 0.216870588437369 
670	 0.21723180324577 
671	 0.217616601236806 
672	 0.218018141179314 
673	 0.218429196814451 
674	 0.218893247387344 
675	 0.219384842655881 
676	 0.219875149091782 
677	 0.220340303193138 
678	 0.220874107451744 
679	 0.221450920167423 
680	 0.222030334568636 
681	 0.222618778440045 
682	 0.223259943519177 
683	 0.223912916690129 
684	 0.224512161930116 
685	 0.225200464469106 
686	 0.225913008166182 
687	 0.226623740880934 
688	 0.227393579422398 
689	 0.228163503573368 
690	 0.228914913676759 
691	 0.229672968645027 
692	 0.230576894443389 
693	 0.231434674905982 
694	 0.232262307719307 
695	 0.233194594575621 
696	 0.234127786975964 
697	 0.235036933848737 
698	 0.235943078945626 
699	 0.236925374678229 
700	 0.237914171914556 
701	 0.238919271791474 
702	 0.239957026178708 
703	 0.240971901445798 
704	 0.24203433503137 
705	 0.243136589789076 
706	 0.244218769683112 
707	 0.245303351897504 
708	 0.246427375940224 
709	 0.2475919928347 
710	 0.248735378136878 
711	 0.249901870450043 
712	 0.251074928878402 
713	 0.252241777313173 
714	 0.253476578987797 
715	 0.254705187068741 
716	 0.255914030616714 
717	 0.257133565559292 
718	 0.258359248877919 
719	 0.259596946015446 
720	 0.260850457961874 
721	 0.262120241938796 
722	 0.263330216276612 
723	 0.264534908410234 
724	 0.265791546097657 
725	 0.266997917591456 
726	 0.268224628659251 
727	 0.269466218895627 
728	 0.270668418416661 
729	 0.271883750231502 
730	 0.273083378750992 
731	 0.274254449160261 
732	 0.275426370518364 
733	 0.276578663932043 
734	 0.277700405077699 
735	 0.278798620294852 
736	 0.27993939363309 
737	 0.280996994789954 
738	 0.281975693942846 
739	 0.282962184857253 
740	 0.283928150209471 
741	 0.284871826530191 
742	 0.285778243266837 
743	 0.286611120332044 
744	 0.287460490613898 
745	 0.288294746417042 
746	 0.289056830292161 
747	 0.289726516885665 
748	 0.290352538006653 
749	 0.29096405242927 
750	 0.291574064838569 
751	 0.292190135586517 
752	 0.292703783311023 
753	 0.293089373545078 
754	 0.29344097389437 
755	 0.293805784862821 
756	 0.294133598073333 
757	 0.294384317023793 
758	 0.294625372398608 
759	 0.294802047854973 
760	 0.294917754613183 
761	 0.294997548925659 
762	 0.295013680629169 
763	 0.294975453051959 
764	 0.294896454255626 
765	 0.294790193328422 
766	 0.294643936543388 
767	 0.294428889265087 
768	 0.294139903182783 
769	 0.293825663304993 
770	 0.293528070961293 
771	 0.293186169022398 
772	 0.292726685257364 
773	 0.292224727442818 
774	 0.291703053917013 
775	 0.29115215346449 
776	 0.290542394723476 
777	 0.289922655383972 
778	 0.289261706995741 
779	 0.288539375779227 
780	 0.28777082638738 
781	 0.287093093019642 
782	 0.286393084080915 
783	 0.285559030466489 
784	 0.284754655799194 
785	 0.283938635553119 
786	 0.283069804538833 
787	 0.282125621955333 
788	 0.28120710675369 
789	 0.280267990432663 
790	 0.279285712822733 
791	 0.278283019491664 
792	 0.277294940840746 
793	 0.276326038272665 
794	 0.275355713524761 
795	 0.274321909697265 
796	 0.273265181369329 
797	 0.272227733900229 
798	 0.271224080855394 
799	 0.270133593145149 
800	 0.269031011155414 
801	 0.267961027587947 
802	 0.266926455932853 
803	 0.265823168286546 
804	 0.264704888622811 
805	 0.263607649803717 
806	 0.262506128565392 
807	 0.261416593390331 
808	 0.260381919024338 
809	 0.259393609067848 
810	 0.258275387325539 
811	 0.257188646891664 
812	 0.256124998413761 
813	 0.255022852551948 
814	 0.253988166968316 
815	 0.252948370642666 
816	 0.251883025038084 
817	 0.250827577915976 
818	 0.249774060286574 
819	 0.248726510728895 
820	 0.24768779526928 
821	 0.246656766175647 
822	 0.24565155026094 
823	 0.244639892058918 
824	 0.243614090280321 
825	 0.242687180452935 
826	 0.241726941478305 
827	 0.240755375403314 
828	 0.239840024958711 
829	 0.238854431745737 
830	 0.23789398624546 
831	 0.236971402652057 
832	 0.236027048751043 
833	 0.235172205747618 
834	 0.234305991307712 
835	 0.233397435769811 
836	 0.232566701772834 
837	 0.231662842041328 
838	 0.230746241726261 
839	 0.229900391941075 
840	 0.229120407051671 
841	 0.228345892088597 
842	 0.227565696342778 
843	 0.226787056589818 
844	 0.225991046901037 
845	 0.225206762319186 
846	 0.224440896301156 
847	 0.223685029536618 
848	 0.22297109485605 
849	 0.222282282523366 
850	 0.22159414531166 
851	 0.220886220009043 
852	 0.220223333439752 
853	 0.21957264393879 
854	 0.218917462244843 
855	 0.218322579427311 
856	 0.21768777170951 
857	 0.217053111961249 
858	 0.216473795664632 
859	 0.215883447361066 
860	 0.215310405972731 
861	 0.214738610878462 
862	 0.21414848323897 
863	 0.213630474870513 
864	 0.213123474835801 
865	 0.212598459537732 
866	 0.212066378264757 
867	 0.211549877817975 
868	 0.211083939149397 
869	 0.210655020783358 
870	 0.210187515457103 
871	 0.209750879576849 
872	 0.209317070973316 
873	 0.208871058967004 
874	 0.208472131874564 
875	 0.208087140784902 
876	 0.207692300761381 
877	 0.207290386052301 
878	 0.206968477304069 
879	 0.206646004950472 
880	 0.206277588364816 
881	 0.205873573494147 
882	 0.205612898806085 
883	 0.205362568934527 
884	 0.205083781976695 
885	 0.204820094159433 
886	 0.204539302472081 
887	 0.204244811152072 
888	 0.20396951163891 
889	 0.20376523373767 
890	 0.203512489219324 
891	 0.203254085698367 
892	 0.203027083209149 
893	 0.202805390019415 
894	 0.202647764510028 
895	 0.202506595871478 
896	 0.202333194055005 
897	 0.202148809582212 
898	 0.201964416764952 
899	 0.201808416317772 
900	 0.201700043207203 
901	 0.201616683332294 
902	 0.20148035208569 
903	 0.201326363261732 
904	 0.201232905268339 
905	 0.201162092565497 
906	 0.20110670486264 
907	 0.201049344487888 
908	 0.200967951295132 
909	 0.200856140212 
910	 0.200769741268731 
911	 0.200733321764063 
912	 0.20072779033246 
913	 0.200707313288058 
914	 0.200651459474585 
915	 0.200590452823774 
916	 0.200608469148979 
917	 0.200667232559363 
918	 0.200707294125066 
919	 0.200713110400144 
920	 0.200756625081382 
921	 0.200780857125962 
922	 0.200795254617853 
923	 0.200823174179713 
924	 0.200875529588631 
925	 0.20096409637403 
926	 0.201058131819474 
927	 0.201135682015817 
928	 0.201261221848802 
929	 0.201319292622863 
930	 0.201342964343541 
931	 0.201418452103219 
932	 0.201552445099382 
933	 0.20172310029331 
934	 0.2018714829083 
935	 0.201952105265554 
936	 0.202077928471601 
937	 0.202255121016255 
938	 0.202438913888944 
939	 0.202571911567881 
940	 0.202730991851397 
941	 0.20290134787065 
942	 0.203062565842211 
943	 0.203207101869498 
944	 0.203418287584562 
945	 0.203603036251125 
946	 0.203762118032518 
947	 0.204000654360828 
948	 0.204209097782529 
949	 0.20440971869407 
950	 0.204612588874153 
951	 0.204792502773632 
952	 0.204999277925098 
953	 0.205223013429794 
954	 0.205439163185882 
955	 0.205624398392479 
956	 0.205883361633275 
957	 0.206159392343627 
958	 0.206407389277153 
959	 0.206663627402652 
960	 0.206973329117199 
961	 0.207273369028254 
962	 0.207534945204651 
963	 0.207850135469542 
964	 0.208013995401519 
965	 0.208231160333373 
966	 0.208632237493356 
967	 0.208941193434117 
968	 0.209274458749012 
969	 0.209588671909195 
970	 0.209853136339643 
971	 0.210170188527165 
972	 0.21049377700493 
973	 0.21081707403625 
974	 0.211159750726471 
975	 0.211589986090616 
976	 0.211919884897321 
977	 0.212208769644126 
978	 0.212569619032433 
979	 0.213012945899116 
980	 0.21338476906339 
981	 0.213727563165768 
982	 0.214126672380532 
983	 0.214565308518412 
984	 0.214986076749347 
985	 0.215418045159276 
986	 0.215881170721977 
987	 0.216249089530606 
988	 0.216682904942069 
989	 0.217175786074321 
990	 0.217642039787511 
991	 0.217955840945305 
992	 0.218386479594839 
993	 0.218880294385231 
994	 0.219327226389762 
995	 0.219878614379893 
996	 0.220374385513107 
997	 0.220797149468323 
998	 0.221217983648907 
999	 0.221788133362181 
1000	 0.222453883793045 
1001	 0.225159331566722 
1002	 0.225702026811004 
1003	 0.22623625861511 
1004	 0.226777771357757 
1005	 0.227350979912988 
1006	 0.227888643872831 
1007	 0.228374644277991 
1008	 0.228932599637532 
1009	 0.229506987375141 
1010	 0.230089937689278 
1011	 0.23073915868744 
1012	 0.231336020279847 
1013	 0.231886787007807 
1014	 0.232483468239262 
1015	 0.233073459947204 
1016	 0.233669409768937 
1017	 0.234379987106476 
1018	 0.235057402547121 
1019	 0.235762478540701 
1020	 0.236545262304211 
1021	 0.23723715654057 
1022	 0.237866086357174 
1023	 0.238567723615566 
1024	 0.239252292045324 
1025	 0.23996874475089 
1026	 0.240733895403678 
1027	 0.241498611527122 
1028	 0.242272921728043 
1029	 0.243059082372427 
1030	 0.243814372015299 
1031	 0.244637785950731 
1032	 0.245411360169215 
1033	 0.246129687841807 
1034	 0.246964562108498 
1035	 0.247797443925617 
1036	 0.248639682564162 
1037	 0.249551459089192 
1038	 0.250407675760035 
1039	 0.251220721206884 
1040	 0.252087035311291 
1041	 0.252933095047593 
1042	 0.253837272002483 
1043	 0.254817050098849 
1044	 0.255734256384073 
1045	 0.256678639094114 
1046	 0.25768435611437 
1047	 0.258617598798081 
1048	 0.259604709438808 
1049	 0.260578402793281 
1050	 0.261512798090905 
1051	 0.262563906466793 
1052	 0.26361420188492 
1053	 0.26469516808108 
1054	 0.265875976194364 
1055	 0.26699069558279 
1056	 0.26808248863969 
1057	 0.269174387385563 
1058	 0.270222754032517 
1059	 0.271307545357521 
1060	 0.27250137902104 
1061	 0.273682004724034 
1062	 0.274933553566901 
1063	 0.276206121289138 
1064	 0.277376940631874 
1065	 0.278590472257164 
1066	 0.279815408767521 
1067	 0.28103896694358 
1068	 0.282357504285605 
1069	 0.28364236953993 
1070	 0.284953146905428 
1071	 0.28628628983348 
1072	 0.287661550990138 
1073	 0.288969062529153 
1074	 0.290321731041312 
1075	 0.29169280209598 
1076	 0.293055684823199 
1077	 0.294493566344247 
1078	 0.295906663567785 
1079	 0.297369334776644 
1080	 0.298893613546408 
1081	 0.300333723065363 
1082	 0.301817911036811 
1083	 0.303294986111295 
1084	 0.304753706883955 
1085	 0.306332700704393 
1086	 0.307897475862734 
1087	 0.309479078798107 
1088	 0.311122105593261 
1089	 0.312785364566863 
1090	 0.314324473178084 
1091	 0.315945315342074 
1092	 0.317575523889633 
1093	 0.31918612776767 
1094	 0.320926730260472 
1095	 0.322615101787928 
1096	 0.32433147839172 
1097	 0.326093609446691 
1098	 0.327770095712456 
1099	 0.329543599641368 
1100	 0.331324307268126 
1101	 0.333093275007125 
1102	 0.334972866591405 
1103	 0.336812466579849 
1104	 0.338634560319224 
1105	 0.340520731548365 
1106	 0.342465419089998 
1107	 0.344321997281013 
1108	 0.346273321471299 
1109	 0.348211243688144 
1110	 0.350124040780953 
1111	 0.352166037089384 
1112	 0.354166289131801 
1113	 0.356232378785999 
1114	 0.358345940940295 
1115	 0.360332369745906 
1116	 0.362395827788127 
1117	 0.364443011198597 
1118	 0.366527871971682 
1119	 0.368662017753748 
1120	 0.370806996101308 
1121	 0.372950275971209 
1122	 0.375154476028134 
1123	 0.377418008906748 
1124	 0.379539766111986 
1125	 0.38175368726441 
1126	 0.383975509330127 
1127	 0.386177539645842 
1128	 0.38853771246073 
1129	 0.390835411238435 
1130	 0.393203693914525 
1131	 0.395645875772265 
1132	 0.397918279002055 
1133	 0.400273532476244 
1134	 0.402626497950363 
1135	 0.405000912413267 
1136	 0.407393513538227 
1137	 0.409812243978867 
1138	 0.412260176792961 
1139	 0.414722039745801 
1140	 0.417232558720178 
1141	 0.419597762124132 
1142	 0.422078760761557 
1143	 0.424533075304089 
1144	 0.426956013340099 
1145	 0.429566682664951 
1146	 0.432105211310921 
1147	 0.43471027147497 
1148	 0.437406661830848 
1149	 0.439938868197913 
1150	 0.442536633708756 
1151	 0.445102656683993 
1152	 0.447692540443479 
1153	 0.450299692790286 
1154	 0.452913525308547 
1155	 0.455526457845563 
1156	 0.458183260146624 
1157	 0.460845443501053 
1158	 0.463460034079189 
1159	 0.466106360801214 
1160	 0.468726642750779 
1161	 0.471276751814481 
1162	 0.473996604874045 
1163	 0.47663025249923 
1164	 0.479337348088068 
1165	 0.482115993332374 
1166	 0.484704663246264 
1167	 0.487393162516529 
1168	 0.490061319478742 
1169	 0.492761541348499 
1170	 0.495499098158134 
1171	 0.498209526369858 
1172	 0.500919101118741 
1173	 0.503660989944541 
1174	 0.506365258829902 
1175	 0.509065832529269 
1176	 0.511815491510568 
1177	 0.514542272862777 
1178	 0.517189146768902 
1179	 0.519995357414167 
1180	 0.522696375562199 
1181	 0.525450302725328 
1182	 0.52827155731083 
1183	 0.530889573535172 
1184	 0.533605547732548 
1185	 0.536310026658514 
1186	 0.539030488829713 
1187	 0.541768846343333 
1188	 0.54450011185473 
1189	 0.547233188893772 
1190	 0.549995101372666 
1191	 0.552745571351475 
1192	 0.555466486349074 
1193	 0.558227114098827 
1194	 0.560950762219435 
1195	 0.563651482759348 
1196	 0.56635384516104 
1197	 0.569030369247862 
1198	 0.571744946131195 
1199	 0.574498162387135 
1200	 0.577076855881 
1201	 0.57974803612496 
1202	 0.58236881664161 
1203	 0.584938411217739 
1204	 0.587646192890965 
1205	 0.590258943049065 
1206	 0.592870424565791 
1207	 0.595467854125198 
1208	 0.598021536302384 
1209	 0.60055467887581 
1210	 0.603077382354987 
1211	 0.605596835619054 
1212	 0.608127435346659 
1213	 0.610621175395737 
1214	 0.613091593945253 
1215	 0.615569376960518 
1216	 0.618021898523823 
1217	 0.620430668069861 
1218	 0.622847550455546 
1219	 0.62522934644511 
1220	 0.627538424958661 
1221	 0.629945114118673 
1222	 0.632263538691051 
1223	 0.634620341702107 
1224	 0.636930035721355 
1225	 0.639206032266047 
1226	 0.641425340650768 
1227	 0.643615517379788 
1228	 0.645785549871453 
1229	 0.647917221950798 
1230	 0.650020323142784 
1231	 0.652107104087231 
1232	 0.65417295963699 
1233	 0.656189145030089 
1234	 0.658169936034922 
1235	 0.660118216714438 
1236	 0.662073149795408 
1237	 0.664019309861882 
1238	 0.665924603394692 
1239	 0.667807164135872 
1240	 0.669699610684957 
1241	 0.671564821798788 
1242	 0.673295114203269 
1243	 0.675048376189678 
1244	 0.676795347041925 
1245	 0.678487347707433 
1246	 0.680141227640802 
1247	 0.681755179793762 
1248	 0.683327597502905 
1249	 0.68488405681983 
1250	 0.686405807895342 
1251	 0.687884016054753 
1252	 0.689348467044656 
1253	 0.690762092780176 
1254	 0.692117959277386 
1255	 0.693460205318016 
1256	 0.694766076181282 
1257	 0.696061546005637 
1258	 0.697357507413623 
1259	 0.698586271466584 
1260	 0.699753925121817 
1261	 0.700933423803333 
1262	 0.702048150972021 
1263	 0.703210752832689 
1264	 0.704326202207277 
1265	 0.705452555466248 
1266	 0.706543097926986 
1267	 0.707586078230016 
1268	 0.708630365901191 
1269	 0.709664907725336 
1270	 0.710699239746843 
1271	 0.711710990612076 
1272	 0.712731937817539 
1273	 0.713754747072702 
1274	 0.714781674892711 
1275	 0.715809804342383 
1276	 0.716822131075127 
1277	 0.717848768257087 
1278	 0.718840029606666 
1279	 0.719815816657435 
1280	 0.720754559866795 
1281	 0.721641076967886 
1282	 0.722540553362324 
1283	 0.723425174125726 
1284	 0.724285927959184 
1285	 0.725133898719329 
1286	 0.725982800458082 
1287	 0.726810381104093 
1288	 0.727605655520578 
1289	 0.728401286377115 
1290	 0.729194318067112 
1291	 0.729974343929391 
1292	 0.730741261740067 
1293	 0.731485446705153 
1294	 0.732219999279628 
1295	 0.732936653614804 
1296	 0.73363181911016 
1297	 0.734305171850639 
1298	 0.734970757243764 
1299	 0.735605844370239 
1300	 0.7362145061556 
1301	 0.736794693263236 
1302	 0.737338979128303 
1303	 0.737881260847982 
1304	 0.738400141527623 
1305	 0.738907262071674 
1306	 0.739401177218564 
1307	 0.739893412291445 
1308	 0.740352758961508 
1309	 0.74084353199957 
1310	 0.741306244750728 
1311	 0.741777662405307 
1312	 0.742206662726885 
1313	 0.742615779914274 
1314	 0.742998382869097 
1315	 0.743353547665702 
1316	 0.743694760104514 
1317	 0.744013062235004 
1318	 0.744318824529167 
1319	 0.744604776641692 
1320	 0.744883531628692 
1321	 0.745143258997195 
1322	 0.745403342652177 
1323	 0.745676112528459 
1324	 0.745904263950412 
1325	 0.746114413097628 
1326	 0.746303575829302 
1327	 0.746456085061858 
1328	 0.746599809570221 
1329	 0.74673061221489 
1330	 0.74684792438765 
1331	 0.746963518488937 
1332	 0.747039561073954 
1333	 0.74708381367881 
1334	 0.747127996166588 
1335	 0.747129390928473 
1336	 0.74709615199952 
1337	 0.747036761789447 
1338	 0.746951801813089 
1339	 0.746849182002678 
1340	 0.74671226916528 
1341	 0.746569740888692 
1342	 0.746420087070244 
1343	 0.746241456276018 
1344	 0.746051325016625 
1345	 0.745819087395957 
1346	 0.745558971505063 
1347	 0.74527319264524 
1348	 0.744948422289163 
1349	 0.7446113905696 
1350	 0.744230092545473 
1351	 0.743876848064641 
1352	 0.743516046312675 
1353	 0.743158718711746 
1354	 0.742804909055651 
1355	 0.742470986401204 
1356	 0.742132317802844 
1357	 0.741813706642373 
1358	 0.741527472652452 
1359	 0.741237881178445 
1360	 0.740950052430544 
1361	 0.740684533071515 
1362	 0.740385296582029 
1363	 0.740085920754841 
1364	 0.739768271402104 
1365	 0.739429196901015 
1366	 0.739085519324582 
1367	 0.738740672910839 
1368	 0.738375402692357 
1369	 0.738008228542456 
1370	 0.737589550830736 
1371	 0.737154329682407 
1372	 0.736675043169272 
1373	 0.736167621871343 
1374	 0.735594384179347 
1375	 0.734989586681128 
1376	 0.734309411597905 
1377	 0.733568458813516 
1378	 0.732748378547774 
1379	 0.731859050842243 
1380	 0.730913918347979 
1381	 0.729902804658974 
1382	 0.728818935508468 
1383	 0.727686287125309 
1384	 0.726468198602758 
1385	 0.725201590515634 
1386	 0.723813987091729 
1387	 0.722378917884463 
1388	 0.720797140816681 
1389	 0.719119804957597 
1390	 0.717274263469848 
1391	 0.71528901404757 
1392	 0.713107183442482 
1393	 0.710856171232062 
1394	 0.708545558019312 
1395	 0.706362670188381 
1396	 0.704114760957578 
1397	 0.702205654750114 
1398	 0.700395564678304 
1399	 0.698865786944738 
1400	 0.697654177688333 
1401	 0.696406363185013 
1402	 0.695445103473874 
1403	 0.694186801986678 
1404	 0.693014519322258 
1405	 0.69147120883195 
1406	 0.689807252646929 
1407	 0.687756274576509 
1408	 0.685341856257802 
1409	 0.682818098760426 
1410	 0.679869907602818 
1411	 0.677077049629295 
1412	 0.673990870124074 
1413	 0.671371776404234 
1414	 0.668681754875864 
1415	 0.666593999578321 
1416	 0.664867767870035 
1417	 0.663584842231523 
1418	 0.662853166934686 
1419	 0.662326522047646 
1420	 0.662387120998584 
1421	 0.662353579349279 
1422	 0.662692161492957 
1423	 0.66274097090381 
1424	 0.662752931419738 
1425	 0.662618161911933 
1426	 0.662193838550053 
1427	 0.661493323195295 
1428	 0.660465476151564 
1429	 0.659293738791343 
1430	 0.657996688677888 
1431	 0.656404540385538 
1432	 0.655000159974111 
1433	 0.653458386132559 
1434	 0.652218050319925 
1435	 0.651041301435675 
1436	 0.650118403644988 
1437	 0.649446706759996 
1438	 0.648806127523842 
1439	 0.648417280325116 
1440	 0.647857307528744 
1441	 0.647395207492415 
1442	 0.64670528194743 
1443	 0.645891591493579 
1444	 0.645009343631097 
1445	 0.64386961638271 
1446	 0.6429641165097 
1447	 0.641916880810614 
1448	 0.641271366228882 
1449	 0.640820868742253 
1450	 0.640606939093991 
1451	 0.640792868899198 
1452	 0.640923301557983 
1453	 0.641355387816458 
1454	 0.641549938629055 
1455	 0.641728430422909 
1456	 0.641778937376836 
1457	 0.641567965422993 
1458	 0.641504629652119 
1459	 0.64123716369962 
1460	 0.641329701089523 
1461	 0.641538121792481 
1462	 0.642041750892379 
1463	 0.642923772453163 
1464	 0.643891745759428 
1465	 0.645118368593516 
1466	 0.646466945177826 
1467	 0.647751927599418 
1468	 0.649011307567025 
1469	 0.650075868108384 
1470	 0.650963454507239 
1471	 0.651712686414922 
1472	 0.652302870589376 
1473	 0.652766232240643 
1474	 0.653063059340091 
1475	 0.653301903158982 
1476	 0.653397839575331 
1477	 0.653465437836222 
1478	 0.65344871768116 
1479	 0.653395328119268 
1480	 0.65327206396845 
1481	 0.653121835553868 
1482	 0.652925388448775 
1483	 0.652692459844804 
1484	 0.652407915203415 
1485	 0.652108187593826 
1486	 0.651762776002936 
1487	 0.651423250986529 
1488	 0.65104930903313 
1489	 0.650706168920172 
1490	 0.650349641401407 
1491	 0.650034326102912 
1492	 0.649755090690481 
1493	 0.649471196422439 
1494	 0.649188841808402 
1495	 0.648950356520166 
1496	 0.648719445772621 
1497	 0.648530442430495 
1498	 0.648385706127624 
1499	 0.648269048527338 
1500	 0.64818507123473 
1501	 0.648121932677188 
1502	 0.648113099688176 
1503	 0.648090629376782 
1504	 0.648092405315712 
1505	 0.648070102766461 
1506	 0.648038527937159 
1507	 0.648002964595087 
1508	 0.647946202048347 
1509	 0.647900780093801 
1510	 0.647833711451735 
1511	 0.647812291668016 
1512	 0.647801669386147 
1513	 0.647827531599899 
1514	 0.647872658026112 
1515	 0.647980999122298 
1516	 0.648098578438024 
1517	 0.648314706853508 
1518	 0.648621900473511 
1519	 0.648981817618883 
1520	 0.649427515290233 
1521	 0.649923794780931 
1522	 0.650450562355113 
1523	 0.65102962319135 
1524	 0.651597503476682 
1525	 0.652199266608296 
1526	 0.652775444679009 
1527	 0.653357818113776 
1528	 0.653906758167977 
1529	 0.654441807552796 
1530	 0.654967601413085 
1531	 0.655478244007967 
1532	 0.655964194220976 
1533	 0.656442904454293 
1534	 0.65689138985218 
1535	 0.657307978081375 
1536	 0.657707052390148 
1537	 0.658093092459958 
1538	 0.658444767182298 
1539	 0.658767826545001 
1540	 0.659064262362495 
1541	 0.659340921370698 
1542	 0.659572604263472 
1543	 0.659749945782848 
1544	 0.659946546585373 
1545	 0.660118772503558 
1546	 0.660288799155648 
1547	 0.66046166814365 
1548	 0.660626063741075 
1549	 0.660753358996018 
1550	 0.660928032865592 
1551	 0.661114463850685 
1552	 0.661330025586419 
1553	 0.66157610923842 
1554	 0.661828943483192 
1555	 0.662102642739146 
1556	 0.66238702636476 
1557	 0.662681286998643 
1558	 0.662993845783659 
1559	 0.663345728072162 
1560	 0.663661550421196 
1561	 0.663979941656041 
1562	 0.664282341181083 
1563	 0.664550695754083 
1564	 0.664840521306957 
1565	 0.665144990060528 
1566	 0.665429306614408 
1567	 0.665715894409132 
1568	 0.665982902000182 
1569	 0.666224582296253 
1570	 0.666473423881558 
1571	 0.666724103732142 
1572	 0.66695557906312 
1573	 0.667181835276918 
1574	 0.667393430074782 
1575	 0.667581046902722 
1576	 0.667771143868151 
1577	 0.667957162915028 
1578	 0.668135038422459 
1579	 0.668310396258915 
1580	 0.668470689702354 
1581	 0.668616155308544 
1582	 0.668760592005164 
1583	 0.668905880340778 
1584	 0.669025966815919 
1585	 0.669122977908954 
1586	 0.669229651447785 
1587	 0.669313787106132 
1588	 0.669413957527729 
1589	 0.669527570685908 
1590	 0.669644159619804 
1591	 0.669766638213966 
1592	 0.669885698517458 
1593	 0.670011663063712 
1594	 0.670135465746354 
1595	 0.670256352525632 
1596	 0.670374668669986 
1597	 0.670504850438473 
1598	 0.670610884956311 
1599	 0.670700341226212 
1600	 0.670787731585839 
1601	 0.67085917426797 
1602	 0.670931200360855 
1603	 0.671001128037344 
1604	 0.671067113490872 
1605	 0.671135411205766 
1606	 0.671185323221541 
1607	 0.671225699695785 
1608	 0.671260649356687 
1609	 0.671294064574881 
1610	 0.671296902748643 
1611	 0.67128940285311 
1612	 0.671257461763643 
1613	 0.671188891392819 
1614	 0.671111459528666 
1615	 0.670997459233585 
1616	 0.670909947010701 
1617	 0.670832112263738 
1618	 0.670737589807383 
1619	 0.670653118802784 
1620	 0.670560053901498 
1621	 0.67044521482637 
1622	 0.670329848983875 
1623	 0.670230266954383 
1624	 0.670103484630264 
1625	 0.669958123130588 
1626	 0.669796364666461 
1627	 0.669589128017524 
1628	 0.669422056184303 
1629	 0.669266144902987 
1630	 0.669107110743505 
1631	 0.668983639949193 
1632	 0.668830621546512 
1633	 0.668649742078813 
1634	 0.668477311767867 
1635	 0.668310118929974 
1636	 0.668126909240044 
1637	 0.667939412418871 
1638	 0.667734840636693 
1639	 0.667500460967616 
1640	 0.667276675499458 
1641	 0.667065105911728 
1642	 0.666828775628481 
1643	 0.666573061701832 
1644	 0.666329584590509 
1645	 0.666089656094197 
1646	 0.665816149222137 
1647	 0.66555926058945 
1648	 0.665249318461578 
1649	 0.664874719427278 
1650	 0.664504064439665 
1651	 0.664118773560049 
1652	 0.663711628558884 
1653	 0.663291741811275 
1654	 0.662849374777974 
1655	 0.66237493623981 
1656	 0.661888776328228 
1657	 0.661399446608692 
1658	 0.660868016049117 
1659	 0.660319319000161 
1660	 0.659732905488059 
1661	 0.65912600201358 
1662	 0.658448096602513 
1663	 0.657716895979381 
1664	 0.656932932343854 
1665	 0.656103066888791 
1666	 0.655185867443398 
1667	 0.654199404880564 
1668	 0.653175904572229 
1669	 0.652074944969399 
1670	 0.650933179460649 
1671	 0.649752797469247 
1672	 0.648507393076065 
1673	 0.647195267970471 
1674	 0.645832691135176 
1675	 0.644402578479353 
1676	 0.642988634937221 
1677	 0.64153118766391 
1678	 0.640067540039242 
1679	 0.638553583497263 
1680	 0.637110580632323 
1681	 0.63563912180261 
1682	 0.634277237950869 
1683	 0.632989285747854 
1684	 0.631804125720525 
1685	 0.63068333207567 
1686	 0.629666081377568 
1687	 0.628759607562407 
1688	 0.627918863647595 
1689	 0.627164267143695 
1690	 0.626483568939854 
1691	 0.625898490658223 
1692	 0.625378496145533 
1693	 0.624956389849451 
1694	 0.624536654714004 
1695	 0.624190626599274 
1696	 0.62382497220971 
1697	 0.623481445604925 
1698	 0.623118408615233 
1699	 0.622772444210353 
1700	 0.622387407728154 
1701	 0.621981402764163 
1702	 0.621552327390032 
1703	 0.621086413117989 
1704	 0.620637207029222 
1705	 0.620187502889003 
1706	 0.619718334789804 
1707	 0.619237726167378 
1708	 0.618673539189989 
1709	 0.618068366351129 
1710	 0.617400864148038 
1711	 0.616636876271744 
1712	 0.615827934369562 
1713	 0.614890474537592 
1714	 0.613837925130401 
1715	 0.612777807223299 
1716	 0.611635326986106 
1717	 0.610480923200504 
1718	 0.609315662120376 
1719	 0.608084824532347 
1720	 0.606884456578543 
1721	 0.605679205255356 
1722	 0.604539767311297 
1723	 0.603560484719278 
1724	 0.602660556939628 
1725	 0.601915756591559 
1726	 0.601339120566864 
1727	 0.600833482637664 
1728	 0.600475894240044 
1729	 0.60024420401038 
1730	 0.600114895900806 
1731	 0.600120633256723 
1732	 0.600232993851229 
1733	 0.600380957126731 
1734	 0.600587647708458 
1735	 0.600835429319197 
1736	 0.601077230028877 
1737	 0.601340191449832 
1738	 0.601590919940115 
1739	 0.601829800113341 
1740	 0.602041890051243 
1741	 0.602284745176098 
1742	 0.602569410159202 
1743	 0.602812669940104 
1744	 0.603059439376017 
1745	 0.60327433483175 
1746	 0.603420777301888 
1747	 0.603603336368571 
1748	 0.603804540714725 
1749	 0.603991162813486 
1750	 0.604198144482574 
1751	 0.604353145335369 
1752	 0.604492391343074 
1753	 0.604586348661458 
1754	 0.604624309118082 
1755	 0.604677605396336 
1756	 0.604681136395778 
1757	 0.604734085182126 
1758	 0.604801278225569 
1759	 0.604885582479239 
1760	 0.605011171684676 
1761	 0.605156761379371 
1762	 0.605353121728084 
1763	 0.605608748341493 
1764	 0.605868369940044 
1765	 0.606146419680837 
1766	 0.606470048724936 
1767	 0.606803222486373 
1768	 0.607182615948296 
1769	 0.607594644999938 
1770	 0.60796442407413 
1771	 0.608335889311169 
1772	 0.608675737355609 
1773	 0.60898212774839 
1774	 0.609315047160298 
1775	 0.609590217942616 
1776	 0.609837565785416 
1777	 0.610072162040061 
1778	 0.610237831713168 
1779	 0.610386612260781 
1780	 0.610535176546215 
1781	 0.610658680678975 
1782	 0.610755884196304 
1783	 0.610839909720389 
1784	 0.610927345088395 
1785	 0.611029369838289 
1786	 0.611106586757806 
1787	 0.611178793227482 
1788	 0.611264993146566 
1789	 0.611323526438899 
1790	 0.611405197570491 
1791	 0.611516857901578 
1792	 0.611649962165306 
1793	 0.611790803237336 
1794	 0.611954511015474 
1795	 0.61211351516866 
1796	 0.612259570628331 
1797	 0.612428126006939 
1798	 0.612583083934371 
1799	 0.61273230819129 
1800	 0.612906207249362 
1801	 0.614109144948429 
1802	 0.614290900779458 
1803	 0.614494831521571 
1804	 0.614703480574501 
1805	 0.614922669990665 
1806	 0.615148295566185 
1807	 0.615402269152898 
1808	 0.615637375586633 
1809	 0.61588127360412 
1810	 0.616096208638956 
1811	 0.616298644292817 
1812	 0.616498669744511 
1813	 0.61666709903748 
1814	 0.61685788104627 
1815	 0.617058502522265 
1816	 0.617265062528527 
1817	 0.617473617877478 
1818	 0.617686332503176 
1819	 0.61789681130195 
1820	 0.618108557509864 
1821	 0.618324695655542 
1822	 0.618531993215554 
1823	 0.618770393409029 
1824	 0.619001432142948 
1825	 0.619224488399417 
1826	 0.619444013216401 
1827	 0.619639916311135 
1828	 0.619877362349254 
1829	 0.62014451575989 
1830	 0.620382213170281 
1831	 0.620626985616504 
1832	 0.620878414993468 
1833	 0.621081406876891 
1834	 0.621286335810951 
1835	 0.62154654918687 
1836	 0.621799746587705 
1837	 0.622028390082162 
1838	 0.62227150138717 
1839	 0.622478271515279 
1840	 0.622641043628773 
1841	 0.622814310784311 
1842	 0.622985444435219 
1843	 0.623150892289319 
1844	 0.623292982632345 
1845	 0.623394446290679 
1846	 0.623483529090593 
1847	 0.62353823059379 
1848	 0.623553835659522 
1849	 0.623536475054616 
1850	 0.623505804100332 
1851	 0.623452244639592 
1852	 0.623350869234983 
1853	 0.62321769411089 
1854	 0.623070038699863 
1855	 0.622873260827138 
1856	 0.622629899602836 
1857	 0.622365996407403 
1858	 0.622042038747442 
1859	 0.621665465537982 
1860	 0.621227666313769 
1861	 0.62074493934477 
1862	 0.620217668700331 
1863	 0.619654266552253 
1864	 0.618991561654978 
1865	 0.618289400013567 
1866	 0.617509348217833 
1867	 0.616576859325311 
1868	 0.615616662101593 
1869	 0.614535626107601 
1870	 0.613345419282942 
1871	 0.612075838778951 
1872	 0.61071643265635 
1873	 0.609247748872894 
1874	 0.607708476297057 
1875	 0.606099051847507 
1876	 0.604262541373518 
1877	 0.602380645308225 
1878	 0.600304664144331 
1879	 0.598007908406461 
1880	 0.595734413729965 
1881	 0.593250744673592 
1882	 0.590570668705672 
1883	 0.587797273115026 
1884	 0.584887477131117 
1885	 0.581577993689013 
1886	 0.578202303243592 
1887	 0.57455910938899 
1888	 0.570603439406764 
1889	 0.566781922441015 
1890	 0.562718747463503 
1891	 0.558591227741617 
1892	 0.554456908044905 
1893	 0.550103900700787 
1894	 0.545499414068406 
1895	 0.540986384716551 
1896	 0.536324379319113 
1897	 0.531578359549877 
1898	 0.527186119509512 
1899	 0.522663347741607 
1900	 0.518232335818859 
1901	 0.513962071340237 
1902	 0.509428715792082 
1903	 0.505112331901388 
1904	 0.500872117946904 
1905	 0.496645970507741 
1906	 0.492490354787104 
1907	 0.488779141943794 
1908	 0.485044783157724 
1909	 0.48145020184182 
1910	 0.478082365871336 
1911	 0.474610854288543 
1912	 0.471342593209702 
1913	 0.468173558105758 
1914	 0.465057200612533 
1915	 0.462167065950306 
1916	 0.459511250658428 
1917	 0.456860506860092 
1918	 0.454348672440125 
1919	 0.451981436067152 
1920	 0.449532102385725 
1921	 0.447250434921072 
1922	 0.445036888383902 
1923	 0.44285835290361 
1924	 0.440950214083707 
1925	 0.439084640076558 
1926	 0.437323140546307 
1927	 0.435711989884256 
1928	 0.434165671931047 
1929	 0.432662538006441 
1930	 0.431316846368286 
1931	 0.430084624780683 
1932	 0.428921666260363 
1933	 0.427949516808879 
1934	 0.427044283387997 
1935	 0.426215977956004 
1936	 0.425533258183566 
1937	 0.42491882179167 
1938	 0.424370731362278 
1939	 0.423949158651769 
1940	 0.423643872827347 
1941	 0.423405682035614 
1942	 0.423276649714442 
1943	 0.42326316553826 
1944	 0.423315461753629 
1945	 0.423488202095086 
1946	 0.423765776947817 
1947	 0.424088864957388 
1948	 0.424522771193284 
1949	 0.42504218190754 
1950	 0.425590041609552 
1951	 0.426205991111303 
1952	 0.42687399921109 
1953	 0.427591542562781 
1954	 0.428334338485371 
1955	 0.42918453571343 
1956	 0.430028036031353 
1957	 0.430909685072313 
1958	 0.43184858015624 
1959	 0.432737884346443 
1960	 0.433653474070195 
1961	 0.434569789608028 
1962	 0.435458170872512 
1963	 0.436399376585976 
1964	 0.437383734096545 
1965	 0.438350081154834 
1966	 0.439339513267623 
1967	 0.4403449881466 
1968	 0.441284380590483 
1969	 0.442252439929248 
1970	 0.443201438957794 
1971	 0.444132363022744 
1972	 0.445135194592314 
1973	 0.446099528454294 
1974	 0.447081808498511 
1975	 0.448110784697702 
1976	 0.44909554348802 
1977	 0.450056305057209 
1978	 0.451028832669342 
1979	 0.451979789696991 
1980	 0.452939401267041 
1981	 0.453977256326145 
1982	 0.454964600740664 
1983	 0.455991810195993 
1984	 0.457024705068166 
1985	 0.457939357840604 
1986	 0.458859873801348 
1987	 0.459790335857516 
1988	 0.460675951980955 
1989	 0.46161116571834 
1990	 0.462595045025847 
1991	 0.463551936610051 
1992	 0.464518781062485 
1993	 0.465492309768618 
1994	 0.466391163580135 
1995	 0.467306056697779 
1996	 0.468189567733067 
1997	 0.469028493487715 
1998	 0.469927580822789 
1999	 0.470862901593334 
2000	 0.471752258254196 
2001	 0.47268884694189 
2002	 0.47354456753872 
2003	 0.474337982260635 
2004	 0.475129611642391 
2005	 0.475886035997208 
2006	 0.476620930839046 
2007	 0.477367770435731 
2008	 0.478034724482854 
2009	 0.478650338588647 
2010	 0.479243085282192 
2011	 0.479754128810783 
2012	 0.480253203930484 
2013	 0.480702806563589 
2014	 0.481121469877409 
2015	 0.481487219215632 
2016	 0.481840533628868 
2017	 0.482071129631159 
2018	 0.482243224705535 
2019	 0.48232123514687 
2020	 0.482298062677958 
2021	 0.482187645032878 
2022	 0.482019695791469 
2023	 0.481744597415724 
2024	 0.481342305789279 
2025	 0.480860590560427 
2026	 0.480279649246992 
2027	 0.479551255666435 
2028	 0.478825212797014 
2029	 0.477996854751334 
2030	 0.477182834582742 
2031	 0.476335793513385 
2032	 0.475485421570627 
2033	 0.474526864472356 
2034	 0.47372434041859 
2035	 0.472943394971349 
2036	 0.472240203966743 
2037	 0.471711861000978 
2038	 0.471270559362585 
2039	 0.470928370501718 
2040	 0.47067991655688 
2041	 0.470560184504098 
2042	 0.470543484515708 
2043	 0.470655016616073 
2044	 0.470922308000618 
2045	 0.471245210780439 
2046	 0.471694340565861 
2047	 0.472193077409681 
2048	 0.472749093109553 
2049	 0.473397807035611 
2050	 0.474147610811 
2051	 0.474943514077376 
2052	 0.475836352762431 
2053	 0.476813488284992 
2054	 0.477777130548035 
2055	 0.478784178983956 
2056	 0.479815551614532 
2057	 0.480839174182646 
2058	 0.481955277998453 
2059	 0.483162251020792 
2060	 0.484340275993257 
2061	 0.48559974076345 
2062	 0.486795110063053 
2063	 0.48794797099424 
2064	 0.489123360928646 
2065	 0.490297771407067 
2066	 0.491444848898346 
2067	 0.492663523100422 
2068	 0.493835608583091 
2069	 0.494990735206137 
2070	 0.496174261353355 
2071	 0.497257230107336 
2072	 0.498276346122635 
2073	 0.499279391105693 
2074	 0.500214682589211 
2075	 0.501155219301048 
2076	 0.502099855492855 
2077	 0.502977668893104 
2078	 0.503848762121344 
2079	 0.504637114302614 
2080	 0.505346326019705 
2081	 0.506024697210012 
2082	 0.506648233293334 
2083	 0.507209123035243 
2084	 0.507775601522762 
2085	 0.508293360126636 
2086	 0.508775185750159 
2087	 0.509236945153524 
2088	 0.509636661378415 
2089	 0.50997458825963 
2090	 0.510293469112574 
2091	 0.510572715717778 
2092	 0.510810372324408 
2093	 0.511011434404604 
2094	 0.51117818690433 
2095	 0.511272357629633 
2096	 0.511383548584983 
2097	 0.511482627357273 
2098	 0.511566788895578 
2099	 0.511618605912802 
2100	 0.511687313133745 
2101	 0.511719978371238 
2102	 0.511717133930582 
2103	 0.511713493070476 
2104	 0.511704665419391 
2105	 0.511670621217717 
2106	 0.51161972597251 
2107	 0.511551674155223 
2108	 0.511462805230838 
2109	 0.511360351768505 
2110	 0.511240015956806 
2111	 0.51110381566993 
2112	 0.510945742534254 
2113	 0.510784051033536 
2114	 0.510635136147646 
2115	 0.510432967954082 
2116	 0.510206712653776 
2117	 0.509954262868262 
2118	 0.509659796416084 
2119	 0.509315164263065 
2120	 0.508950525345727 
2121	 0.50856355921994 
2122	 0.508129891560542 
2123	 0.507656655735707 
2124	 0.507145341564022 
2125	 0.506619283941367 
2126	 0.506008211477702 
2127	 0.505341941722335 
2128	 0.504619731354367 
2129	 0.503804259692845 
2130	 0.502972480499444 
2131	 0.502121491451803 
2132	 0.501194492685234 
2133	 0.500229923183899 
2134	 0.499207972813267 
2135	 0.498015855370806 
2136	 0.496810112818294 
2137	 0.495529514244619 
2138	 0.494123527912683 
2139	 0.492758020617009 
2140	 0.491389647104588 
2141	 0.489944915066949 
2142	 0.488503585246144 
2143	 0.486931225479525 
2144	 0.485238913883421 
2145	 0.483555474762959 
2146	 0.481752562715285 
2147	 0.480009564521125 
2148	 0.478316929935421 
2149	 0.476545627154624 
2150	 0.474798219634354 
2151	 0.472948780760752 
2152	 0.470965107348891 
2153	 0.46902079825277 
2154	 0.467049201406219 
2155	 0.465006774243249 
2156	 0.46307217594941 
2157	 0.461181077877851 
2158	 0.459302051592083 
2159	 0.457482981537103 
2160	 0.45562838747236 
2161	 0.453742260421732 
2162	 0.451957750453952 
2163	 0.450118873560829 
2164	 0.448487447524188 
2165	 0.447012105634909 
2166	 0.445568865223792 
2167	 0.444255073619359 
2168	 0.442976002136941 
2169	 0.441716137514246 
2170	 0.440569583168012 
2171	 0.439486853649239 
2172	 0.438521867503519 
2173	 0.437693129566314 
2174	 0.436910404625151 
2175	 0.43620015987071 
2176	 0.43559190820215 
2177	 0.435014277392004 
2178	 0.434466945025995 
2179	 0.434034643472385 
2180	 0.433672439295484 
2181	 0.433415784706148 
2182	 0.433273828728859 
2183	 0.433177448969341 
2184	 0.433185143369264 
2185	 0.433217752476568 
2186	 0.433320422854253 
2187	 0.43343506841157 
2188	 0.433611955842 
2189	 0.433781826951801 
2190	 0.434015263505646 
2191	 0.434176243375352 
2192	 0.434356810216209 
2193	 0.434448429461448 
2194	 0.434464592965097 
2195	 0.434442024903407 
2196	 0.434369160181239 
2197	 0.434237856183152 
2198	 0.434086607424502 
2199	 0.433861735956216 
2200	 0.433569381329852 
2201	 0.433195519450093 
2202	 0.432830315682831 
2203	 0.432350407452243 
2204	 0.43201494668786 
2205	 0.431664615556827 
2206	 0.431482527782412 
2207	 0.431375833889203 
2208	 0.43142739864189 
2209	 0.431628265484663 
2210	 0.431923798344311 
2211	 0.43239393457592 
2212	 0.432869268681922 
2213	 0.433530477001779 
2214	 0.434039817075105 
2215	 0.434570548883561 
2216	 0.4349924714919 
2217	 0.435317030357105 
2218	 0.435581845334523 
2219	 0.43578257240708 
2220	 0.435917071356938 
2221	 0.435974204835407 
2222	 0.435970216791547 
2223	 0.435892487320619 
2224	 0.435782777020184 
2225	 0.435604553538459 
2226	 0.435322846678421 
2227	 0.434963230002268 
2228	 0.434552716569066 
2229	 0.433976691983472 
2230	 0.433281264923022 
2231	 0.432475414890515 
2232	 0.43155268499624 
2233	 0.430459906000182 
2234	 0.429293824650996 
2235	 0.427868857784803 
2236	 0.426241840971 
2237	 0.424430419257568 
2238	 0.422353305748879 
2239	 0.420192694235609 
2240	 0.417871592368796 
2241	 0.415389295547862 
2242	 0.412827497995423 
2243	 0.410010627279951 
2244	 0.406846947337177 
2245	 0.403742636423952 
2246	 0.400301008003729 
2247	 0.397123924980946 
2248	 0.39403067039816 
2249	 0.391037577370116 
2250	 0.388127290275359 
2251	 0.385446130893889 
2252	 0.382708864610575 
2253	 0.380222495041053 
2254	 0.377896953004425 
2255	 0.375671007225364 
2256	 0.373732575698208 
2257	 0.37184361205075 
2258	 0.369968405768712 
2259	 0.3682563972248 
2260	 0.366367124279504 
2261	 0.364419888514543 
2262	 0.36247935313548 
2263	 0.360357023557776 
2264	 0.358523509735667 
2265	 0.356713127694325 
2266	 0.355173094674694 
2267	 0.353807275017001 
2268	 0.352725304163473 
2269	 0.351811960208982 
2270	 0.351277139799769 
2271	 0.351093086543408 
2272	 0.351126552145004 
2273	 0.351608410561902 
2274	 0.352062758674265 
2275	 0.352760293376665 
2276	 0.35341921507391 
2277	 0.354217906686693 
2278	 0.35487918840027 
2279	 0.355573579994278 
2280	 0.356144885733184 
2281	 0.356564773935416 
2282	 0.356992064021687 
2283	 0.35736754067291 
2284	 0.357689271621256 
2285	 0.358057151852143 
2286	 0.358371667517815 
2287	 0.358656117041327 
2288	 0.358996355089847 
2289	 0.359308726107976 
2290	 0.359652880483579 
2291	 0.360029494997565 
2292	 0.36037118023844 
2293	 0.360721812763626 
2294	 0.361050070306803 
2295	 0.361353086610642 
2296	 0.361713798420969 
2297	 0.362064935281961 
2298	 0.362419513749217 
2299	 0.362768197808056 
2300	 0.363158004597198 
2301	 0.363454661293861 
2302	 0.363696158333374 
2303	 0.363949068855012 
2304	 0.364146288997194 
2305	 0.364371380149492 
2306	 0.364621283322563 
2307	 0.364852020256074 
2308	 0.365056954786685 
2309	 0.365285364975163 
2310	 0.365480608828865 
2311	 0.365759296507255 
2312	 0.366104797436456 
2313	 0.366437060354033 
2314	 0.366828524808266 
2315	 0.36719660847987 
2316	 0.367543500720785 
2317	 0.367908357902064 
2318	 0.368302300730786 
2319	 0.368657373717662 
2320	 0.369027243481952 
2321	 0.369316872447072 
2322	 0.369565704514439 
2323	 0.369772139240696 
2324	 0.369907565668698 
2325	 0.370029232445449 
2326	 0.370117289292879 
2327	 0.370179033328523 
2328	 0.370222712854049 
2329	 0.370213867021467 
2330	 0.370171949931631 
2331	 0.370067853719728 
2332	 0.369916240424976 
2333	 0.369688943479834 
2334	 0.369417405679497 
2335	 0.369101695764533 
2336	 0.368662624505411 
2337	 0.368185449434433 
2338	 0.367687979872803 
2339	 0.367043278437651 
2340	 0.366391105844801 
2341	 0.365708563670064 
2342	 0.364962216423583 
2343	 0.364261639049049 
2344	 0.363531319898228 
2345	 0.362836670495987 
2346	 0.362205912286605 
2347	 0.361578139555265 
2348	 0.361031076842688 
2349	 0.360626779593093 
2350	 0.360261757105125 
2351	 0.35997139112382 
2352	 0.359830572969299 
2353	 0.359680014200986 
2354	 0.359519184584408 
2355	 0.359444932688857 
2356	 0.359391020887553 
2357	 0.359387880492295 
2358	 0.359405733619707 
2359	 0.35936253042578 
2360	 0.359293745980483 
2361	 0.359164041380646 
2362	 0.359054783616068 
2363	 0.359011636857783 
2364	 0.358917482406837 
2365	 0.358793455225076 
2366	 0.358620118476432 
2367	 0.358422319380727 
2368	 0.358262816230573 
2369	 0.358097706744949 
2370	 0.357973587559964 
2371	 0.357759961093488 
2372	 0.357413362254433 
2373	 0.357109295903972 
2374	 0.356717245265458 
2375	 0.35625150300279 
2376	 0.355861552335197 
2377	 0.355419978788428 
2378	 0.354965296670215 
2379	 0.354562653602225 
2380	 0.354119434854333 
2381	 0.353664516668471 
2382	 0.353189478673075 
2383	 0.352680138622104 
2384	 0.352172097879843 
2385	 0.351640650558549 
2386	 0.351158799718987 
2387	 0.350673769400714 
2388	 0.350240885958326 
2389	 0.349897976912776 
2390	 0.349432665687359 
2391	 0.348962014413611 
2392	 0.348479859238257 
2393	 0.347881882023472 
2394	 0.347376425233691 
2395	 0.34692136880758 
2396	 0.346438949756015 
2397	 0.345995833449554 
2398	 0.345525322789283 
2399	 0.345009266360095 
2400	 0.344564330625408 
2401	 0.344136881148682 
2402	 0.343715960398583 
2403	 0.343297988045078 
2404	 0.342872413095284 
2405	 0.342506402121995 
2406	 0.342078465848924 
2407	 0.341621369211751 
2408	 0.341210502155509 
2409	 0.34086346380081 
2410	 0.340660275440139 
2411	 0.340581492859408 
2412	 0.340512826956352 
2413	 0.340400359410201 
2414	 0.340244819052591 
2415	 0.340097208655407 
2416	 0.339951113858882 
2417	 0.339767015463529 
2418	 0.339592760542002 
2419	 0.339436321954257 
2420	 0.339292772501248 
2421	 0.339132337024579 
2422	 0.338916703250918 
2423	 0.338724260869543 
2424	 0.33851480373295 
2425	 0.338286926072784 
2426	 0.338142375120642 
2427	 0.337941546100147 
2428	 0.337766511920176 
2429	 0.337625186218413 
2430	 0.337329790910663 
2431	 0.337084701864263 
2432	 0.336710154141244 
2433	 0.33610196777879 
2434	 0.335582830559344 
2435	 0.335058586179721 
2436	 0.334566416647794 
2437	 0.334161988301509 
2438	 0.333761447752991 
2439	 0.333283144483007 
2440	 0.332716929035942 
2441	 0.332268119540144 
2442	 0.331852287886612 
2443	 0.33144209783536 
2444	 0.331005149333908 
2445	 0.330467416609643 
2446	 0.329873002752356 
2447	 0.329145622830477 
2448	 0.328435765845843 
2449	 0.327885031639295 
2450	 0.327396894382167 
2451	 0.326803468642444 
2452	 0.326261021939475 
2453	 0.325790225689699 
2454	 0.325135164387952 
2455	 0.324532215603437 
2456	 0.324130124149436 
2457	 0.323656381321152 
2458	 0.323173597768495 
2459	 0.322808596251183 
2460	 0.322162594070023 
2461	 0.321443870220358 
2462	 0.32087578901293 
2463	 0.320345013634034 
2464	 0.320125884246292 
2465	 0.319729656351764 
2466	 0.319046267777456 
2467	 0.318453122780312 
2468	 0.317790901844148 
2469	 0.317217464573591 
2470	 0.316809672856635 
2471	 0.316389782688977 
2472	 0.315854583046991 
2473	 0.315422723205874 
2474	 0.315190226116259 
2475	 0.314872450457401 
2476	 0.314610462663956 
2477	 0.314345245787442 
2478	 0.313727366271334 
2479	 0.313169109951047 
2480	 0.312602424058713 
2481	 0.312125254027475 
2482	 0.311867467304725 
2483	 0.311284526977256 
2484	 0.311107045146988 
2485	 0.310622439870649 
2486	 0.310067321551413 
2487	 0.309922539711046 
2488	 0.309319653471473 
2489	 0.308834741861713 
2490	 0.308451276866402 
2491	 0.307879189884012 
2492	 0.307630892587983 
2493	 0.307380920424898 
2494	 0.307181541186904 
2495	 0.307087291689345 
2496	 0.306728551250845 
2497	 0.306372700041395 
2498	 0.306048620751137 
2499	 0.305768473480468 
2500	 0.305787211058013 
