Wavelength	spectrum00001.asd
350	 5.24847643211352E-02 
351	 5.17683076068359E-02 
352	 5.01830660555603E-02 
353	 4.83334563462354E-02 
354	 4.68214988663544E-02 
355	 4.72802865619792E-02 
356	 4.80002456417931E-02 
357	 4.70009214500025E-02 
358	 4.33482390400548E-02 
359	 4.14999402964896E-02 
360	 4.25277636226336E-02 
361	 4.49745085312853E-02 
362	 4.40601337395122E-02 
363	 4.19505243542478E-02 
364	 4.07947447318248E-02 
365	 4.17041662227264E-02 
366	 0.042525442713224 
367	 4.20180295420481E-02 
368	 4.03487118413745E-02 
369	 4.12215188383425E-02 
370	 4.16105934249071E-02 
371	 4.10007521358014E-02 
372	 4.04345204805269E-02 
373	 0.040544383301627 
374	 4.05393197761579E-02 
375	 0.040366349687095 
376	 4.12722528413448E-02 
377	 4.12273814038693E-02 
378	 4.09605736460263E-02 
379	 4.12636749232403E-02 
380	 4.03530347875879E-02 
381	 4.05441055526014E-02 
382	 4.11157286499244E-02 
383	 3.99255904727565E-02 
384	 4.03968867888574E-02 
385	 4.09280889144365E-02 
386	 4.05813386966093E-02 
387	 0.040287911508193 
388	 4.02541332866326E-02 
389	 3.97224756717151E-02 
390	 3.84668231620555E-02 
391	 0.039242141289075 
392	 3.97845203801145E-02 
393	 0.039577259568179 
394	 0.03938279796476 
395	 3.95577035701967E-02 
396	 3.97687507499353E-02 
397	 3.97384293188062E-02 
398	 3.94229026310698E-02 
399	 3.92599374910565E-02 
400	 3.92843355984264E-02 
401	 3.92912117272042E-02 
402	 3.85643315353162E-02 
403	 3.87474520004228E-02 
404	 3.93919872656282E-02 
405	 3.86726829563998E-02 
406	 3.90250192905559E-02 
407	 3.92757569999842E-02 
408	 3.87810852046292E-02 
409	 3.89553945563679E-02 
410	 3.87915863435773E-02 
411	 3.85529238561952E-02 
412	 0.038714233746564 
413	 3.87245108087334E-02 
414	 3.84024731778451E-02 
415	 3.80708226880777E-02 
416	 3.84140065316695E-02 
417	 3.85079807519214E-02 
418	 3.84518434142342E-02 
419	 3.84723721326883E-02 
420	 3.86710630595216E-02 
421	 3.86371557540352E-02 
422	 0.038655523212372 
423	 3.91240313326944E-02 
424	 3.91904241062231E-02 
425	 3.91136214908072E-02 
426	 0.039144069517168 
427	 3.94101208024567E-02 
428	 3.95097759251066E-02 
429	 3.96150864633313E-02 
430	 3.98665085999348E-02 
431	 3.98675448483986E-02 
432	 4.00844481587027E-02 
433	 4.04296705665788E-02 
434	 4.05541208492447E-02 
435	 4.08349731000691E-02 
436	 4.11557514381305E-02 
437	 4.13946210420131E-02 
438	 4.14970715469982E-02 
439	 4.17206428573938E-02 
440	 4.19901942643474E-02 
441	 4.21882936882589E-02 
442	 0.042481092417894 
443	 4.27479110296464E-02 
444	 4.29705481976411E-02 
445	 4.32166068410897E-02 
446	 4.34387558840437E-02 
447	 4.36223906790783E-02 
448	 4.37598034297564E-02 
449	 4.38298996397656E-02 
450	 4.39818114522418E-02 
451	 4.41658265436596E-02 
452	 0.044264326133086 
453	 4.42852391542774E-02 
454	 4.43293288883325E-02 
455	 0.044390480383083 
456	 4.43442506898398E-02 
457	 0.044587060465583 
458	 4.47247677127881E-02 
459	 4.45116677245001E-02 
460	 4.47002629695645E-02 
461	 4.47176442894276E-02 
462	 4.45517425335607E-02 
463	 4.45099844223105E-02 
464	 4.47162094233239E-02 
465	 4.48638812139077E-02 
466	 4.48129701944323E-02 
467	 4.47496664262432E-02 
468	 4.47895436825044E-02 
469	 4.48923024278627E-02 
470	 4.49782572495973E-02 
471	 4.50635826745698E-02 
472	 4.50836210338093E-02 
473	 4.50730231753017E-02 
474	 4.51382520974166E-02 
475	 4.51913331480103E-02 
476	 4.52613525672145E-02 
477	 0.045374988007086 
478	 0.045524512317436 
479	 4.55956891993394E-02 
480	 4.56939215177818E-02 
481	 4.59439755273866E-02 
482	 4.59907720549059E-02 
483	 0.046093028896693 
484	 4.63207083907029E-02 
485	 4.64801598710369E-02 
486	 4.67116714333078E-02 
487	 4.68830074605672E-02 
488	 4.69329872966904E-02 
489	 4.72062650892681E-02 
490	 4.74762126694778E-02 
491	 4.77204847335766E-02 
492	 4.80344090632432E-02 
493	 4.83945605505066E-02 
494	 4.87211852571732E-02 
495	 0.049004875463711 
496	 4.93602165930013E-02 
497	 4.97452738805559E-02 
498	 5.01098348929491E-02 
499	 5.04467310036636E-02 
500	 5.09809080900475E-02 
501	 5.14121966822325E-02 
502	 5.17254273548505E-02 
503	 5.21690155235943E-02 
504	 5.27269358482504E-02 
505	 5.33063130361533E-02 
506	 5.38440505208608E-02 
507	 5.43879093630094E-02 
508	 5.49312197410136E-02 
509	 5.55019237289644E-02 
510	 5.61327071871855E-02 
511	 5.67831575657534E-02 
512	 5.74888763150859E-02 
513	 5.82410415503707E-02 
514	 5.89699791655322E-02 
515	 5.96795835297124E-02 
516	 6.04243082192559E-02 
517	 6.12515027204596E-02 
518	 6.21362936463847E-02 
519	 6.30476611579045E-02 
520	 6.39653402336892E-02 
521	 6.48865850910666E-02 
522	 6.59159638278913E-02 
523	 6.69707269780457E-02 
524	 6.80213134046561E-02 
525	 6.92042982536646E-02 
526	 7.04120528411799E-02 
527	 0.071648631308681 
528	 7.29505267449295E-02 
529	 7.42988880841664E-02 
530	 7.56586946390119E-02 
531	 7.70852108178795E-02 
532	 7.87198674430356E-02 
533	 0.080318470006208 
534	 8.19309774724103E-02 
535	 8.36389711319343E-02 
536	 8.54173407988632E-02 
537	 8.72929835070536E-02 
538	 8.92467959214416E-02 
539	 9.12388242897115E-02 
540	 9.32690522548906E-02 
541	 9.53701203662807E-02 
542	 9.75349883259563E-02 
543	 9.96807780425758E-02 
544	 0.101925168019085 
545	 0.104217297879495 
546	 0.106490618538024 
547	 0.108869159309309 
548	 0.111286021075161 
549	 0.113718459696642 
550	 0.116188760504172 
551	 0.118661456422767 
552	 0.12118207509764 
553	 0.123773733871476 
554	 0.126359043319567 
555	 0.128944199444441 
556	 0.131550562605531 
557	 0.134199575197531 
558	 0.136863794839252 
559	 0.139517736148049 
560	 0.14213421611917 
561	 0.144688249606788 
562	 0.147160427759244 
563	 0.149566544416907 
564	 0.15193748501577 
565	 0.154312484769284 
566	 0.156644770334187 
567	 0.158935839804839 
568	 0.161217726598868 
569	 0.163407074870461 
570	 0.165532658283272 
571	 0.16761282574307 
572	 0.169593785104871 
573	 0.171553960444756 
574	 0.173453963678328 
575	 0.175231072573768 
576	 0.176975681880079 
577	 0.178572140936299 
578	 0.180034412394474 
579	 0.181530466804272 
580	 0.182933850312289 
581	 0.184262837908311 
582	 0.185553164817926 
583	 0.186791223692684 
584	 0.187933954073388 
585	 0.188993180588407 
586	 0.190013725874597 
587	 0.190979407389385 
588	 0.191877835666597 
589	 0.192708939666591 
590	 0.193495918671667 
591	 0.194154463235581 
592	 0.194721896675726 
593	 0.19525248397412 
594	 0.195698020922478 
595	 0.196061256857641 
596	 0.196347951924947 
597	 0.19656758102228 
598	 0.196792639793674 
599	 0.196980236187932 
600	 0.197100802292315 
601	 0.197210334533461 
602	 0.197286050805626 
603	 0.197331415021624 
604	 0.197355308444494 
605	 0.197331652412081 
606	 0.197273909574423 
607	 0.19718688029963 
608	 0.197060522639942 
609	 0.196879601323285 
610	 0.196721916631636 
611	 0.196626761933327 
612	 0.196434697400857 
613	 0.19621199828183 
614	 0.195984151601424 
615	 0.195744904811476 
616	 0.195451721650659 
617	 0.195178325937929 
618	 0.194959677410115 
619	 0.194737407466006 
620	 0.194503721347641 
621	 0.194258252838053 
622	 0.194005357885201 
623	 0.193747729584116 
624	 0.193471777477989 
625	 0.193200497214298 
626	 0.192987676011387 
627	 0.192810834532087 
628	 0.192612102888558 
629	 0.192366567225639 
630	 0.19214259697332 
631	 0.191946083703461 
632	 0.191760414512096 
633	 0.191567839306618 
634	 0.191432706091702 
635	 0.191311984061707 
636	 0.19118929481378 
637	 0.19109319356442 
638	 0.190939874898428 
639	 0.190781008146607 
640	 0.190673113547279 
641	 0.190567297666691 
642	 0.190508223259872 
643	 0.190486314207561 
644	 0.190459897866781 
645	 0.190430290155981 
646	 0.190428724624002 
647	 0.190459697419816 
648	 0.190477030030162 
649	 0.190524111051146 
650	 0.190582457881218 
651	 0.190634132917775 
652	 0.190748281735278 
653	 0.190860019931204 
654	 0.190962904115061 
655	 0.191100196334289 
656	 0.191271063008536 
657	 0.191459759660031 
658	 0.191656680845514 
659	 0.19186943798752 
660	 0.192125875755745 
661	 0.192386760283125 
662	 0.192610454247867 
663	 0.192892571156416 
664	 0.193202272389323 
665	 0.193534352024724 
666	 0.193912742216247 
667	 0.194248725486333 
668	 0.194602958229685 
669	 0.195024173178062 
670	 0.195453993076822 
671	 0.195896701346767 
672	 0.196333502984685 
673	 0.196759409359743 
674	 0.19731758317618 
675	 0.197865458553183 
676	 0.198361949780904 
677	 0.198915941898622 
678	 0.199547834011284 
679	 0.200177868066811 
680	 0.200754767084136 
681	 0.201388487589386 
682	 0.202066554188355 
683	 0.202771297054184 
684	 0.203483956197501 
685	 0.204216699626707 
686	 0.204969718746943 
687	 0.205752017310433 
688	 0.206587950061218 
689	 0.207440374089325 
690	 0.208256859266031 
691	 0.209046513557188 
692	 0.21004816514995 
693	 0.210945842319374 
694	 0.211795758840352 
695	 0.212858481551597 
696	 0.213905789973922 
697	 0.214873513389074 
698	 0.215812355043417 
699	 0.216921257564816 
700	 0.217993533403141 
701	 0.219059282459712 
702	 0.220185270623007 
703	 0.221296090151117 
704	 0.22246650814807 
705	 0.223692066426303 
706	 0.22491001296726 
707	 0.226090422394656 
708	 0.227299599707901 
709	 0.228568332632134 
710	 0.229846384899395 
711	 0.231143976434988 
712	 0.232440088362107 
713	 0.233727908920333 
714	 0.235084079694467 
715	 0.236461545650406 
716	 0.237831207943822 
717	 0.239181459486047 
718	 0.240535257810889 
719	 0.24192146948286 
720	 0.243331791540598 
721	 0.244693797195117 
722	 0.246045592462962 
723	 0.247423256263474 
724	 0.248835746708633 
725	 0.250194035644234 
726	 0.251536886891169 
727	 0.252926187942936 
728	 0.254411404514356 
729	 0.255766533671907 
730	 0.257063258916418 
731	 0.258375239804273 
732	 0.259707987574797 
733	 0.261023202069899 
734	 0.262310235873861 
735	 0.263579506618344 
736	 0.264883970990414 
737	 0.26613401733246 
738	 0.267305636266678 
739	 0.268432108835366 
740	 0.26963078347615 
741	 0.270775558595114 
742	 0.271818750414328 
743	 0.27287568480935 
744	 0.273943824025756 
745	 0.274966006784012 
746	 0.275899038865439 
747	 0.276808178625568 
748	 0.277687368076862 
749	 0.278492329065243 
750	 0.279184367044354 
751	 0.279944218345224 
752	 0.280673630424058 
753	 0.281304584921523 
754	 0.281848804070666 
755	 0.282361694076952 
756	 0.282837371869575 
757	 0.283270012585488 
758	 0.283711930484718 
759	 0.284015439097152 
760	 0.284236768961361 
761	 0.284501300104752 
762	 0.284689566082632 
763	 0.284807762503562 
764	 0.284880839209154 
765	 0.284941307362313 
766	 0.284964085156652 
767	 0.284895875604888 
768	 0.284735665915759 
769	 0.284616807784252 
770	 0.28442060510905 
771	 0.284130533077353 
772	 0.283778507583166 
773	 0.28342786835051 
774	 0.283056953473588 
775	 0.282639893770612 
776	 0.282155773454513 
777	 0.28163971938095 
778	 0.28109134839294 
779	 0.280499243196055 
780	 0.279842613740231 
781	 0.279190147680102 
782	 0.278527131114551 
783	 0.277819163057571 
784	 0.277052785815854 
785	 0.276287336316391 
786	 0.275505387268909 
787	 0.274655355863269 
788	 0.273784081898665 
789	 0.272916989829777 
790	 0.272032336000797 
791	 0.27106120274151 
792	 0.270127641586661 
793	 0.269211064473815 
794	 0.268263594817575 
795	 0.267246944471364 
796	 0.266213324007443 
797	 0.265182318624993 
798	 0.264151959793586 
799	 0.263080333192637 
800	 0.262005482529554 
801	 0.260949729721453 
802	 0.259913304374237 
803	 0.258828717032149 
804	 0.25773328682684 
805	 0.256655081864753 
806	 0.255584779199541 
807	 0.254485813786827 
808	 0.253402055979381 
809	 0.252355645836264 
810	 0.251241376814679 
811	 0.25014997328725 
812	 0.249062130818355 
813	 0.247932593972909 
814	 0.246864866121879 
815	 0.245819961060271 
816	 0.244751631351109 
817	 0.24362907413778 
818	 0.242570529748723 
819	 0.241505055103704 
820	 0.240408405250968 
821	 0.239379269013193 
822	 0.238387579454808 
823	 0.23737049207504 
824	 0.236304550565937 
825	 0.235308997714593 
826	 0.234361528961285 
827	 0.233416273766945 
828	 0.232425181047364 
829	 0.231397723005202 
830	 0.230404353607409 
831	 0.229463718246707 
832	 0.228546118471001 
833	 0.227666767387683 
834	 0.22676634806813 
835	 0.225823560297648 
836	 0.224888060668644 
837	 0.223959296644309 
838	 0.22308503337694 
839	 0.22227880095715 
840	 0.22143486394856 
841	 0.220580011840183 
842	 0.21976244083462 
843	 0.219010956408889 
844	 0.21821381265071 
845	 0.217427973595268 
846	 0.216663602054732 
847	 0.215895094874193 
848	 0.215152793549352 
849	 0.214426798102179 
850	 0.213702118603354 
851	 0.212968709134398 
852	 0.21230175765583 
853	 0.211644580438178 
854	 0.210955985651053 
855	 0.210287006805421 
856	 0.209620115082601 
857	 0.208997968789538 
858	 0.208440164690968 
859	 0.207818908415839 
860	 0.207218342271924 
861	 0.206661443772752 
862	 0.206128651568963 
863	 0.205559647774058 
864	 0.205001024680157 
865	 0.204471128238383 
866	 0.20395398079153 
867	 0.2034263743826 
868	 0.202941740693757 
869	 0.202501650408459 
870	 0.202026588364444 
871	 0.20156707258678 
872	 0.201141047331283 
873	 0.200741698005695 
874	 0.200321970455535 
875	 0.199955180789839 
876	 0.19959124445213 
877	 0.199184943442917 
878	 0.198852502014886 
879	 0.198532599340455 
880	 0.198200137965941 
881	 0.197860453005294 
882	 0.197564456000932 
883	 0.197315154182513 
884	 0.197073162051563 
885	 0.196778869047372 
886	 0.196464345515171 
887	 0.196175556109042 
888	 0.195937623245053 
889	 0.195746905397401 
890	 0.195589342977769 
891	 0.195379888256997 
892	 0.195109365590368 
893	 0.194909992908496 
894	 0.19479012457036 
895	 0.194686709753233 
896	 0.19453755942384 
897	 0.194331847775713 
898	 0.194207452951775 
899	 0.194099115360976 
900	 0.193926869271405 
901	 0.19384755288237 
902	 0.193777312406059 
903	 0.193685588245796 
904	 0.193579681649056 
905	 0.193494866045633 
906	 0.193446732166059 
907	 0.193416306992793 
908	 0.193368193417317 
909	 0.193336666491875 
910	 0.193314725917625 
911	 0.193301338170742 
912	 0.193304019271824 
913	 0.193312810168002 
914	 0.193332737036463 
915	 0.193354159761914 
916	 0.193349159506542 
917	 0.193394535111775 
918	 0.193485525444055 
919	 0.193587473441573 
920	 0.193649268192538 
921	 0.19368883547183 
922	 0.193755458487167 
923	 0.193858089729202 
924	 0.193875246275076 
925	 0.194032496411587 
926	 0.194214201224892 
927	 0.194283952315237 
928	 0.194432785105757 
929	 0.194620778980412 
930	 0.194782879752487 
931	 0.194886475687293 
932	 0.195084943238407 
933	 0.195277411782372 
934	 0.195460396100216 
935	 0.19567295891105 
936	 0.195850275639549 
937	 0.196063499827414 
938	 0.196274131354391 
939	 0.196403898035287 
940	 0.196675676192231 
941	 0.196929274650137 
942	 0.197135829628422 
943	 0.197399031886098 
944	 0.197672653463071 
945	 0.197955961370228 
946	 0.198252382450933 
947	 0.198560750584039 
948	 0.198834770831263 
949	 0.199055884297511 
950	 0.199299985722403 
951	 0.199721940667993 
952	 0.20001459140638 
953	 0.200275067301396 
954	 0.200598943471097 
955	 0.200960898263846 
956	 0.201236383955814 
957	 0.201526146896164 
958	 0.201884982822125 
959	 0.202206598294845 
960	 0.202566330059581 
961	 0.202909737328856 
962	 0.203223016049389 
963	 0.203626855133336 
964	 0.203942544577118 
965	 0.204305774284465 
966	 0.20477673686207 
967	 0.205064392903796 
968	 0.205446860216315 
969	 0.205912285999023 
970	 0.206364647967064 
971	 0.206722150806846 
972	 0.207098411235051 
973	 0.207540198136792 
974	 0.208033322641973 
975	 0.208467750454887 
976	 0.208888337094954 
977	 0.209352454859476 
978	 0.209867700254642 
979	 0.210276693788954 
980	 0.210731816411976 
981	 0.211255874688871 
982	 0.211811961813809 
983	 0.212337956268195 
984	 0.212851772569044 
985	 0.213371162934476 
986	 0.213921989253972 
987	 0.214562986901554 
988	 0.215078493989396 
989	 0.21556944089697 
990	 0.216173515034585 
991	 0.21672616004076 
992	 0.217290020520097 
993	 0.21788304620858 
994	 0.218495104580683 
995	 0.219068981474828 
996	 0.219774796972893 
997	 0.220398013341735 
998	 0.220799492353105 
999	 0.221550350614433 
1000	 0.222282262072386 
1001	 0.228236738580966 
1002	 0.228945015232557 
1003	 0.22966405411975 
1004	 0.230371394480314 
1005	 0.231105445653825 
1006	 0.231809384797014 
1007	 0.23244267855206 
1008	 0.233179327981298 
1009	 0.233961811954282 
1010	 0.234737427451178 
1011	 0.235576139372031 
1012	 0.236373711212435 
1013	 0.237118167871863 
1014	 0.237921627511069 
1015	 0.238746627424558 
1016	 0.239570324173836 
1017	 0.240453677315579 
1018	 0.241324162081415 
1019	 0.242206947546085 
1020	 0.243110187711744 
1021	 0.243999230211362 
1022	 0.244906033250761 
1023	 0.245786892956348 
1024	 0.246621377105481 
1025	 0.24752864776799 
1026	 0.248438204975432 
1027	 0.249362616548092 
1028	 0.250341785146631 
1029	 0.251335787727244 
1030	 0.252235918687522 
1031	 0.253225787256955 
1032	 0.254217649087018 
1033	 0.255181989075852 
1034	 0.256230200410772 
1035	 0.257247333212071 
1036	 0.258282919157978 
1037	 0.259343852153448 
1038	 0.260407810367698 
1039	 0.261479423763198 
1040	 0.262561666808233 
1041	 0.263631612655899 
1042	 0.264756804106338 
1043	 0.265919800155622 
1044	 0.267049456105252 
1045	 0.268281975758008 
1046	 0.269520911158872 
1047	 0.270649502532786 
1048	 0.271841721076549 
1049	 0.273012691427307 
1050	 0.27417559882338 
1051	 0.275493806051267 
1052	 0.276828491129086 
1053	 0.278178793098642 
1054	 0.279616225309194 
1055	 0.280996645782941 
1056	 0.282347099242219 
1057	 0.283724652685823 
1058	 0.285091094627164 
1059	 0.286453814270835 
1060	 0.287924300775974 
1061	 0.289387831092689 
1062	 0.290919305502516 
1063	 0.292479290554242 
1064	 0.293927764344696 
1065	 0.295416368576897 
1066	 0.296874829564131 
1067	 0.298365789085864 
1068	 0.300009344907478 
1069	 0.30160153687491 
1070	 0.30324092540389 
1071	 0.304943410131266 
1072	 0.306656063937288 
1073	 0.308235842954133 
1074	 0.30989943706448 
1075	 0.311560075553818 
1076	 0.313208976933548 
1077	 0.314988689419279 
1078	 0.316714061227011 
1079	 0.318485342026202 
1080	 0.320306745928537 
1081	 0.321998654268416 
1082	 0.323759052820478 
1083	 0.325500390868504 
1084	 0.327190316110226 
1085	 0.329021770483424 
1086	 0.330838803760966 
1087	 0.332664777552506 
1088	 0.334549788837689 
1089	 0.336474358610283 
1090	 0.338268886139113 
1091	 0.3401468706897 
1092	 0.342010743945609 
1093	 0.343822840426651 
1094	 0.345781634141769 
1095	 0.347685944903246 
1096	 0.349645088489912 
1097	 0.35167732782891 
1098	 0.353572184485398 
1099	 0.355542290722674 
1100	 0.357485415296611 
1101	 0.359401255632714 
1102	 0.361474491171464 
1103	 0.363504266788182 
1104	 0.365530628175838 
1105	 0.367615446412231 
1106	 0.369733378661396 
1107	 0.371724315011586 
1108	 0.373770930954077 
1109	 0.375770544207402 
1110	 0.37777675707317 
1111	 0.379916202808938 
1112	 0.381986319047065 
1113	 0.384153360847871 
1114	 0.386357198234359 
1115	 0.388391106033966 
1116	 0.39052426924167 
1117	 0.392638737300966 
1118	 0.394762875125607 
1119	 0.396913053581079 
1120	 0.399075560044454 
1121	 0.40123010310691 
1122	 0.403420663936383 
1123	 0.405650869787691 
1124	 0.407718140146034 
1125	 0.409884574011025 
1126	 0.412029322627768 
1127	 0.414126029393289 
1128	 0.416393995485066 
1129	 0.418567127127971 
1130	 0.420774493175202 
1131	 0.423050941700767 
1132	 0.425135286495131 
1133	 0.427284108822403 
1134	 0.429420659363341 
1135	 0.431568217804914 
1136	 0.433743972494593 
1137	 0.435910875359527 
1138	 0.438076362300281 
1139	 0.440250950315781 
1140	 0.442465719219762 
1141	 0.444503575196322 
1142	 0.446648637917241 
1143	 0.448763736024808 
1144	 0.450831125301188 
1145	 0.453047712709055 
1146	 0.45513551957971 
1147	 0.45725320850324 
1148	 0.45943713429709 
1149	 0.461445521856993 
1150	 0.463526751821557 
1151	 0.465598022374922 
1152	 0.46766468269012 
1153	 0.469728425673664 
1154	 0.471789306308443 
1155	 0.473870764008182 
1156	 0.475911415143998 
1157	 0.477893647454071 
1158	 0.479859456670949 
1159	 0.481821054034672 
1160	 0.483748938332788 
1161	 0.485649131230028 
1162	 0.487688407477523 
1163	 0.48965191891007 
1164	 0.491646329097969 
1165	 0.493673271781188 
1166	 0.495545154883992 
1167	 0.497460936492609 
1168	 0.499348342501416 
1169	 0.501230332315645 
1170	 0.503118134102643 
1171	 0.504973525592081 
1172	 0.50679678497132 
1173	 0.508637565603504 
1174	 0.510452364353375 
1175	 0.512234437038272 
1176	 0.514028302067502 
1177	 0.515797175546139 
1178	 0.517487692236562 
1179	 0.519278786811171 
1180	 0.521020416420644 
1181	 0.52276502020863 
1182	 0.52455404071504 
1183	 0.526220932741627 
1184	 0.527889170795125 
1185	 0.529538183870261 
1186	 0.531196697957101 
1187	 0.532836979247188 
1188	 0.534486917223334 
1189	 0.536153654905776 
1190	 0.537812976519298 
1191	 0.539457179206819 
1192	 0.541071774216693 
1193	 0.542687533831374 
1194	 0.544293159542148 
1195	 0.54588326332299 
1196	 0.547467863302985 
1197	 0.549033725781198 
1198	 0.550626281100369 
1199	 0.552252970269101 
1200	 0.553762566456826 
1201	 0.555327107079404 
1202	 0.556860021262368 
1203	 0.558332539691275 
1204	 0.559881843487302 
1205	 0.561392331286079 
1206	 0.562894034720633 
1207	 0.564426216641711 
1208	 0.56595871860218 
1209	 0.567481766003296 
1210	 0.56902514914932 
1211	 0.570560439146171 
1212	 0.572090385342842 
1213	 0.57362890542312 
1214	 0.575165906493806 
1215	 0.576727649386159 
1216	 0.578309172739821 
1217	 0.579857090425865 
1218	 0.581416227153959 
1219	 0.582967410659694 
1220	 0.584466491299767 
1221	 0.586039142442248 
1222	 0.587559828386416 
1223	 0.589084260278585 
1224	 0.590560665359065 
1225	 0.59199915413049 
1226	 0.593392183889742 
1227	 0.594749713720731 
1228	 0.596085879432292 
1229	 0.597388950883264 
1230	 0.598664423159511 
1231	 0.59991548440269 
1232	 0.601143157747128 
1233	 0.602326792357343 
1234	 0.603488492091307 
1235	 0.604622041521683 
1236	 0.60575272900299 
1237	 0.606888823049819 
1238	 0.607967856059964 
1239	 0.609011196051277 
1240	 0.61003858988163 
1241	 0.611061939744375 
1242	 0.612009698179716 
1243	 0.612959449920568 
1244	 0.613916870316218 
1245	 0.614824564505283 
1246	 0.615686013858386 
1247	 0.61653388826041 
1248	 0.61736621436421 
1249	 0.618172534394069 
1250	 0.618945331959805 
1251	 0.61969497186476 
1252	 0.62042729782526 
1253	 0.621136332757841 
1254	 0.621828408557295 
1255	 0.622481474958946 
1256	 0.623094137809825 
1257	 0.623705252512882 
1258	 0.624285008802722 
1259	 0.62485011412738 
1260	 0.62540430250339 
1261	 0.625955607921006 
1262	 0.626471386896613 
1263	 0.627016724391949 
1264	 0.627529604220468 
1265	 0.628042740804615 
1266	 0.628534683721971 
1267	 0.628990792908655 
1268	 0.629470515289172 
1269	 0.629946671107552 
1270	 0.630435831253538 
1271	 0.630937925942428 
1272	 0.631431395495203 
1273	 0.631920516676649 
1274	 0.632422923287401 
1275	 0.632935807805984 
1276	 0.633431273801794 
1277	 0.633921457478396 
1278	 0.634421823764722 
1279	 0.634919205006422 
1280	 0.63540807202578 
1281	 0.635910924114823 
1282	 0.63639764503963 
1283	 0.636861260219691 
1284	 0.637320170069144 
1285	 0.637772733435606 
1286	 0.638217274312383 
1287	 0.638670746436813 
1288	 0.639116429720715 
1289	 0.639569601698886 
1290	 0.640038046183616 
1291	 0.640485544491981 
1292	 0.640932954137671 
1293	 0.641352748759673 
1294	 0.641743095998174 
1295	 0.642152989454054 
1296	 0.642555527966307 
1297	 0.642954039655927 
1298	 0.643373303788811 
1299	 0.64376082148951 
1300	 0.644136312513682 
1301	 0.644483154494345 
1302	 0.644798563977117 
1303	 0.645116528310505 
1304	 0.645424721949262 
1305	 0.64570892592764 
1306	 0.645977356619777 
1307	 0.646243835710483 
1308	 0.646473796001471 
1309	 0.646720790004993 
1310	 0.646969219945451 
1311	 0.647241546489364 
1312	 0.647461101392122 
1313	 0.647671216359168 
1314	 0.647848203223726 
1315	 0.647982148220654 
1316	 0.648125740610385 
1317	 0.648251808756024 
1318	 0.648383376668792 
1319	 0.648525372239918 
1320	 0.648631983388159 
1321	 0.648723088285872 
1322	 0.648805871987128 
1323	 0.648867027006829 
1324	 0.648918208492603 
1325	 0.648968995542745 
1326	 0.648999134191604 
1327	 0.649012664164552 
1328	 0.649006271856751 
1329	 0.648974544137759 
1330	 0.648945551560745 
1331	 0.648923633339437 
1332	 0.648860200452953 
1333	 0.648782545580307 
1334	 0.648682427252767 
1335	 0.648564877157771 
1336	 0.648402799674707 
1337	 0.648260900620048 
1338	 0.648127460854142 
1339	 0.647965613146978 
1340	 0.647797144726137 
1341	 0.647595696641967 
1342	 0.647368047799656 
1343	 0.64713226883179 
1344	 0.646873770012484 
1345	 0.6466073764109 
1346	 0.646331334432046 
1347	 0.64604520486954 
1348	 0.645750600237407 
1349	 0.645434785119103 
1350	 0.645093110423961 
1351	 0.644761726614752 
1352	 0.644415402681474 
1353	 0.644071398856901 
1354	 0.643728440063767 
1355	 0.643395172868113 
1356	 0.643054724428779 
1357	 0.642725653201729 
1358	 0.642417928562907 
1359	 0.642101519643015 
1360	 0.641788055016763 
1361	 0.6414735147796 
1362	 0.641131295837915 
1363	 0.64079440898497 
1364	 0.64044686790451 
1365	 0.640093542302919 
1366	 0.639713783144944 
1367	 0.639326175330999 
1368	 0.638922671444609 
1369	 0.638499264871654 
1370	 0.638051254822259 
1371	 0.637601164210229 
1372	 0.637113336744305 
1373	 0.636590750143509 
1374	 0.636047789334599 
1375	 0.635475753559252 
1376	 0.63488950299036 
1377	 0.63428736101397 
1378	 0.633642380792975 
1379	 0.632976247485074 
1380	 0.632276569017063 
1381	 0.631533978597942 
1382	 0.630767783033919 
1383	 0.629964584329166 
1384	 0.629156866024867 
1385	 0.62834217700526 
1386	 0.627488888405007 
1387	 0.62663401450928 
1388	 0.625738198784406 
1389	 0.624808053062202 
1390	 0.623833031844064 
1391	 0.622838810217214 
1392	 0.621761983337284 
1393	 0.620670065295226 
1394	 0.619531090966046 
1395	 0.618430552083646 
1396	 0.617298580561257 
1397	 0.616268864401575 
1398	 0.61527281042752 
1399	 0.614329308826587 
1400	 0.613473228879246 
1401	 0.612573648046009 
1402	 0.611748542517036 
1403	 0.610774259273446 
1404	 0.609803947749747 
1405	 0.608662099739906 
1406	 0.607410551533264 
1407	 0.606040810370579 
1408	 0.604508363417754 
1409	 0.602961272435626 
1410	 0.601233770601191 
1411	 0.599639190639873 
1412	 0.597935547646887 
1413	 0.596503838428305 
1414	 0.595132978213468 
1415	 0.594016089960171 
1416	 0.593106593208007 
1417	 0.592380589267577 
1418	 0.591910126074111 
1419	 0.591516484062362 
1420	 0.591371446465237 
1421	 0.591196403507837 
1422	 0.591170282682615 
1423	 0.591037994943053 
1424	 0.590905655052377 
1425	 0.590716302182646 
1426	 0.590415605552361 
1427	 0.590033343534855 
1428	 0.589521916690627 
1429	 0.588976285092609 
1430	 0.588393858275177 
1431	 0.58770235940995 
1432	 0.587112487020671 
1433	 0.586490107286453 
1434	 0.586001863325526 
1435	 0.585565190103211 
1436	 0.585226821631876 
1437	 0.585003577146747 
1438	 0.58479021439363 
1439	 0.584684608095908 
1440	 0.584502083420285 
1441	 0.584359182557354 
1442	 0.584123226974463 
1443	 0.583824844313409 
1444	 0.58351602889754 
1445	 0.583092462817005 
1446	 0.582808940496192 
1447	 0.582500773635927 
1448	 0.582352508310585 
1449	 0.582320435103274 
1450	 0.582365745037181 
1451	 0.58257207436529 
1452	 0.582743382748041 
1453	 0.583038088797748 
1454	 0.583219548440334 
1455	 0.583360341641291 
1456	 0.58347304005831 
1457	 0.583478440629894 
1458	 0.583553822918807 
1459	 0.583545844599175 
1460	 0.583714164464594 
1461	 0.58395151533049 
1462	 0.584313068534624 
1463	 0.584865839981675 
1464	 0.585438351385224 
1465	 0.586111910393677 
1466	 0.586831348898889 
1467	 0.587508679687598 
1468	 0.588188914088048 
1469	 0.588773531848978 
1470	 0.589279520513379 
1471	 0.589729156097644 
1472	 0.590115239011991 
1473	 0.590432164894655 
1474	 0.590675009956596 
1475	 0.590882483978026 
1476	 0.591003513444284 
1477	 0.591152943839601 
1478	 0.591279939097612 
1479	 0.591385944259031 
1480	 0.591490213801325 
1481	 0.591550147772967 
1482	 0.59156630660721 
1483	 0.591579011793349 
1484	 0.591572821634398 
1485	 0.591545690642278 
1486	 0.591494862091646 
1487	 0.591439532734406 
1488	 0.591354717993374 
1489	 0.591284431524557 
1490	 0.591204216197946 
1491	 0.591145874455662 
1492	 0.591099699232509 
1493	 0.591053912255897 
1494	 0.591025645594234 
1495	 0.590988141638737 
1496	 0.590933849936361 
1497	 0.590905490585697 
1498	 0.590878425414671 
1499	 0.590877838307492 
1500	 0.590907306039478 
1501	 0.590936523844062 
1502	 0.590995336204732 
1503	 0.591032423484515 
1504	 0.591056372912605 
1505	 0.591092128800579 
1506	 0.591124413933553 
1507	 0.591159132263531 
1508	 0.591216490932249 
1509	 0.591251285129535 
1510	 0.591249234057472 
1511	 0.591283733625817 
1512	 0.591325121346159 
1513	 0.591374451046133 
1514	 0.591440077862894 
1515	 0.591527671648953 
1516	 0.591612206373906 
1517	 0.591730188147624 
1518	 0.591875452461477 
1519	 0.592052793444291 
1520	 0.592265406937745 
1521	 0.592492914084838 
1522	 0.592749010247767 
1523	 0.593036607501394 
1524	 0.593297555643794 
1525	 0.59356599148251 
1526	 0.593810506362255 
1527	 0.594042491283106 
1528	 0.59426400225669 
1529	 0.594467883871489 
1530	 0.594682215774766 
1531	 0.594892708928303 
1532	 0.595098759881671 
1533	 0.595312423502498 
1534	 0.59550244476013 
1535	 0.59567920960379 
1536	 0.595844290436231 
1537	 0.596000424146455 
1538	 0.596134982706048 
1539	 0.596249744969938 
1540	 0.596363171272099 
1541	 0.596463762716204 
1542	 0.59655162354439 
1543	 0.596628388866207 
1544	 0.596705124043602 
1545	 0.596760709561779 
1546	 0.596834710108751 
1547	 0.596918525205868 
1548	 0.596999603365462 
1549	 0.597079777696403 
1550	 0.597168311824768 
1551	 0.597270827801178 
1552	 0.597352111455346 
1553	 0.597424784849579 
1554	 0.597505948059442 
1555	 0.597572141339249 
1556	 0.597655839794544 
1557	 0.597753128470308 
1558	 0.597856376033896 
1559	 0.597972558468995 
1560	 0.598075550323213 
1561	 0.598180012147053 
1562	 0.598287699574973 
1563	 0.598384303599075 
1564	 0.598491229882997 
1565	 0.598617103843884 
1566	 0.598727518492667 
1567	 0.598835795840873 
1568	 0.598932700136361 
1569	 0.5990213234997 
1570	 0.599104821776226 
1571	 0.599172805846314 
1572	 0.59924915297425 
1573	 0.599321666360097 
1574	 0.599401804538819 
1575	 0.599486145244545 
1576	 0.599574646273428 
1577	 0.599693253518323 
1578	 0.599763101154373 
1579	 0.599813033852504 
1580	 0.599854283210388 
1581	 0.599845439182748 
1582	 0.599868539628243 
1583	 0.599901276178025 
1584	 0.599940596711933 
1585	 0.599991557559097 
1586	 0.600042070198804 
1587	 0.600106871978518 
1588	 0.600157372000997 
1589	 0.60020094987055 
1590	 0.600245300753387 
1591	 0.600272505835959 
1592	 0.600320044165985 
1593	 0.600392164387432 
1594	 0.600441291032183 
1595	 0.600495390362939 
1596	 0.600533189486774 
1597	 0.600547746817343 
1598	 0.600561417604282 
1599	 0.60056392737643 
1600	 0.600572838083779 
1601	 0.600577365085261 
1602	 0.600584725915031 
1603	 0.600602307327448 
1604	 0.600608777111393 
1605	 0.600614429682006 
1606	 0.600607101068513 
1607	 0.600592437285727 
1608	 0.600569855004965 
1609	 0.600538010164484 
1610	 0.600494067729735 
1611	 0.600438956961664 
1612	 0.600376899496848 
1613	 0.600293556210135 
1614	 0.60022055950451 
1615	 0.600149647734966 
1616	 0.600075761779103 
1617	 0.600016934493178 
1618	 0.599933438914847 
1619	 0.599836021605566 
1620	 0.599728896232077 
1621	 0.599593708969439 
1622	 0.599470924215686 
1623	 0.599359712619269 
1624	 0.599226697132593 
1625	 0.599080549249267 
1626	 0.598937867144835 
1627	 0.598775265533432 
1628	 0.598625100630937 
1629	 0.598499704011482 
1630	 0.598350266296539 
1631	 0.598176945771981 
1632	 0.598021966308626 
1633	 0.597864446652975 
1634	 0.597710749357549 
1635	 0.597587159661585 
1636	 0.597435358661828 
1637	 0.597268381043334 
1638	 0.597090826919577 
1639	 0.596893657196872 
1640	 0.596695771029956 
1641	 0.596488871313193 
1642	 0.596280142270189 
1643	 0.596071226894213 
1644	 0.595852778085757 
1645	 0.595635060537426 
1646	 0.595399039327065 
1647	 0.595138816563715 
1648	 0.594885412655935 
1649	 0.59463507467735 
1650	 0.594362418967424 
1651	 0.594097392687661 
1652	 0.593799403107789 
1653	 0.593475968145129 
1654	 0.593122576164209 
1655	 0.592720515339029 
1656	 0.592333719856129 
1657	 0.591941097975785 
1658	 0.591523562529045 
1659	 0.591119869976738 
1660	 0.590671595987368 
1661	 0.590199887217297 
1662	 0.589675556678753 
1663	 0.589114784895012 
1664	 0.588504397175611 
1665	 0.587840823534122 
1666	 0.587121507844601 
1667	 0.58636329030275 
1668	 0.585554285765024 
1669	 0.584682017969997 
1670	 0.583777763242369 
1671	 0.582825941563497 
1672	 0.581824039689359 
1673	 0.580780009423899 
1674	 0.579677398178735 
1675	 0.578503866162814 
1676	 0.577346244921124 
1677	 0.576164448096264 
1678	 0.574947462159969 
1679	 0.573701868681464 
1680	 0.572440624579279 
1681	 0.571127562501877 
1682	 0.569826465103093 
1683	 0.568511745725981 
1684	 0.567249281233402 
1685	 0.566002390529885 
1686	 0.564760405652278 
1687	 0.563548265003222 
1688	 0.562328488638105 
1689	 0.561104394913248 
1690	 0.55987169265243 
1691	 0.558644618822543 
1692	 0.557459790561789 
1693	 0.556300006160612 
1694	 0.555098628338704 
1695	 0.553923018679456 
1696	 0.552685202506521 
1697	 0.551379723957984 
1698	 0.550076498264492 
1699	 0.548768592972437 
1700	 0.547466475659671 
1701	 0.546126341983943 
1702	 0.544831209889118 
1703	 0.543506310356798 
1704	 0.542313441904308 
1705	 0.541181197058857 
1706	 0.540103044371671 
1707	 0.539168255620807 
1708	 0.538206975728153 
1709	 0.537243352044187 
1710	 0.536356367977979 
1711	 0.53543577373593 
1712	 0.534548142058359 
1713	 0.53367829663042 
1714	 0.532748670244405 
1715	 0.531867537708001 
1716	 0.530969353938967 
1717	 0.530080911846602 
1718	 0.529250993921269 
1719	 0.528384687740001 
1720	 0.527562154173875 
1721	 0.526790060880624 
1722	 0.526070670575276 
1723	 0.525491851734666 
1724	 0.525023602589903 
1725	 0.524677887525253 
1726	 0.524496420898585 
1727	 0.524467546842313 
1728	 0.52458049839169 
1729	 0.524836898463049 
1730	 0.525225583694631 
1731	 0.525665870569408 
1732	 0.526213021697908 
1733	 0.526798216687744 
1734	 0.527378035374643 
1735	 0.528017209565989 
1736	 0.528595519354957 
1737	 0.529093206991005 
1738	 0.529530721953151 
1739	 0.529858734707375 
1740	 0.530073387307033 
1741	 0.530244886141258 
1742	 0.530337017671604 
1743	 0.530371474658227 
1744	 0.530314399841749 
1745	 0.530275414065698 
1746	 0.530160346166614 
1747	 0.530093935780144 
1748	 0.530044316939253 
1749	 0.530026140250815 
1750	 0.5300319611164 
1751	 0.530056606625342 
1752	 0.530108189461991 
1753	 0.53016771117284 
1754	 0.530217878434993 
1755	 0.530329647399479 
1756	 0.530449624934211 
1757	 0.530684376550356 
1758	 0.530992348942632 
1759	 0.531361988863577 
1760	 0.531834637562752 
1761	 0.532385615030409 
1762	 0.533009508887844 
1763	 0.533715195409744 
1764	 0.53445303234901 
1765	 0.535228903747375 
1766	 0.536043412285692 
1767	 0.536836834854497 
1768	 0.537636456100252 
1769	 0.538423430561231 
1770	 0.539146343040102 
1771	 0.539842726633659 
1772	 0.540480401303051 
1773	 0.541080830737003 
1774	 0.541670823659256 
1775	 0.542226523320426 
1776	 0.542779698491284 
1777	 0.543237035655849 
1778	 0.543597093487025 
1779	 0.543927291011731 
1780	 0.544219355806349 
1781	 0.5445116609878 
1782	 0.544773265905666 
1783	 0.54499936934887 
1784	 0.54518978215307 
1785	 0.545308011677307 
1786	 0.545440090724092 
1787	 0.545543302775181 
1788	 0.545632935734471 
1789	 0.545704718192635 
1790	 0.54580005562516 
1791	 0.545890631462842 
1792	 0.545983864101895 
1793	 0.546098326571502 
1794	 0.54619638877786 
1795	 0.546288460306269 
1796	 0.546370688972054 
1797	 0.54645699411183 
1798	 0.546565199383964 
1799	 0.546657595017639 
1800	 0.546760250359069 
1801	 0.548426538460629 
1802	 0.548547877171761 
1803	 0.548683322376254 
1804	 0.548829230459886 
1805	 0.548960556056905 
1806	 0.54910481131907 
1807	 0.549267727198427 
1808	 0.549425000076221 
1809	 0.549572455456919 
1810	 0.549735545137481 
1811	 0.54991024694796 
1812	 0.550081353447879 
1813	 0.550234949214466 
1814	 0.550445855296649 
1815	 0.550632919072358 
1816	 0.550817499569198 
1817	 0.551008323893308 
1818	 0.551190998128087 
1819	 0.551383972534086 
1820	 0.551612450802189 
1821	 0.551801604667409 
1822	 0.551964422186297 
1823	 0.552152943299484 
1824	 0.552323995473737 
1825	 0.552462527715576 
1826	 0.552641112258294 
1827	 0.552843283391374 
1828	 0.553033805251856 
1829	 0.55323145800442 
1830	 0.553433339395767 
1831	 0.553633851479244 
1832	 0.553845104784033 
1833	 0.554053389298954 
1834	 0.554251535775894 
1835	 0.554448702720046 
1836	 0.554647507900765 
1837	 0.554845537090345 
1838	 0.555059966511964 
1839	 0.555240486890337 
1840	 0.55540158499966 
1841	 0.555561802666019 
1842	 0.555703357653563 
1843	 0.555856221982322 
1844	 0.555995570706635 
1845	 0.556115375010051 
1846	 0.556228575478098 
1847	 0.556319558984041 
1848	 0.556392886433863 
1849	 0.556455265073017 
1850	 0.556504529247625 
1851	 0.556544702221971 
1852	 0.556548302806486 
1853	 0.556525078662432 
1854	 0.556484908587901 
1855	 0.55639599500131 
1856	 0.55626693381498 
1857	 0.556118780092031 
1858	 0.555941593831801 
1859	 0.555744356125251 
1860	 0.555521531282507 
1861	 0.555270757887933 
1862	 0.555001508082494 
1863	 0.554711175647848 
1864	 0.554358049869226 
1865	 0.553965715216288 
1866	 0.553552193153772 
1867	 0.553054733914527 
1868	 0.552504779095272 
1869	 0.551895184394989 
1870	 0.551219849672109 
1871	 0.55048010898182 
1872	 0.549692208409555 
1873	 0.548852822138048 
1874	 0.547959220617657 
1875	 0.547013967959627 
1876	 0.545922270996748 
1877	 0.544815969600833 
1878	 0.543614189895782 
1879	 0.542269193425401 
1880	 0.540929212005691 
1881	 0.539444616864362 
1882	 0.53783427017472 
1883	 0.536131380058397 
1884	 0.534331863385386 
1885	 0.532250726495887 
1886	 0.530079281722747 
1887	 0.527739234017918 
1888	 0.525154855971866 
1889	 0.522621207716291 
1890	 0.519927500541216 
1891	 0.517166281986364 
1892	 0.514378083999881 
1893	 0.511471204214833 
1894	 0.508411496660071 
1895	 0.505422471846489 
1896	 0.502325834038782 
1897	 0.49921287734538 
1898	 0.496350288776965 
1899	 0.493393640751568 
1900	 0.490512869506761 
1901	 0.487748860729308 
1902	 0.484834378478402 
1903	 0.482067669662709 
1904	 0.479372467785826 
1905	 0.476707312250844 
1906	 0.474134784289171 
1907	 0.471832858416838 
1908	 0.469535233887583 
1909	 0.467364284227907 
1910	 0.465305797397503 
1911	 0.463186452275455 
1912	 0.461216920379064 
1913	 0.459309344528979 
1914	 0.457458284329621 
1915	 0.455761570801605 
1916	 0.454229831098231 
1917	 0.452711530179408 
1918	 0.451292613741847 
1919	 0.449964700168717 
1920	 0.448593374133086 
1921	 0.44733412703676 
1922	 0.44613063890447 
1923	 0.444962567615521 
1924	 0.443955398153074 
1925	 0.442984548544091 
1926	 0.442072358414524 
1927	 0.441233966296096 
1928	 0.440456641793831 
1929	 0.439725201663294 
1930	 0.43907415614374 
1931	 0.438486107753437 
1932	 0.437965899499597 
1933	 0.437539236361755 
1934	 0.437166141215852 
1935	 0.436867089717201 
1936	 0.436637698968246 
1937	 0.436446613017116 
1938	 0.436285525295764 
1939	 0.436214768212514 
1940	 0.436211504440981 
1941	 0.436266169871136 
1942	 0.436377238916841 
1943	 0.436570198450533 
1944	 0.436799980144168 
1945	 0.437074012627034 
1946	 0.437426895083411 
1947	 0.437811507978327 
1948	 0.438238944358004 
1949	 0.43872321212553 
1950	 0.439202971551654 
1951	 0.439703921132397 
1952	 0.440228357461109 
1953	 0.440771801269772 
1954	 0.441309030541744 
1955	 0.441918888134456 
1956	 0.442555578240872 
1957	 0.443202224949709 
1958	 0.443889936949532 
1959	 0.444543207464134 
1960	 0.445180612826367 
1961	 0.445819647434548 
1962	 0.446435960364866 
1963	 0.447078957749119 
1964	 0.447739253860426 
1965	 0.448381155717489 
1966	 0.449027659723774 
1967	 0.449687036431593 
1968	 0.450289305490528 
1969	 0.450920883310054 
1970	 0.451559976047799 
1971	 0.452159494440763 
1972	 0.452791968224279 
1973	 0.4534044622518 
1974	 0.454023468703424 
1975	 0.454660395454339 
1976	 0.455273784480022 
1977	 0.455867020521888 
1978	 0.456473611581924 
1979	 0.457071233801529 
1980	 0.457664625429356 
1981	 0.458307766051671 
1982	 0.458935144927358 
1983	 0.45956133076047 
1984	 0.460178967385515 
1985	 0.46072867275233 
1986	 0.46126488807095 
1987	 0.461806013387272 
1988	 0.462325636368381 
1989	 0.462852900014242 
1990	 0.46337574178915 
1991	 0.463912294945701 
1992	 0.464463610102154 
1993	 0.465000155829028 
1994	 0.465512457765891 
1995	 0.46605288134548 
1996	 0.466548004537975 
1997	 0.467004735995217 
1998	 0.467484495053864 
1999	 0.467963848852063 
2000	 0.468428646432983 
2001	 0.468914612081638 
2002	 0.469358376265046 
2003	 0.469774740137569 
2004	 0.470183548651709 
2005	 0.470559949719047 
2006	 0.470932637470953 
2007	 0.471310044968564 
2008	 0.471656348476994 
2009	 0.471987831773673 
2010	 0.472294845293427 
2011	 0.472543456591863 
2012	 0.472795917770223 
2013	 0.472993712228019 
2014	 0.473145432649143 
2015	 0.473274961215565 
2016	 0.473396855544464 
2017	 0.473433937300398 
2018	 0.473420846485311 
2019	 0.473365633588063 
2020	 0.473256884553404 
2021	 0.473073824951272 
2022	 0.472870645342631 
2023	 0.472618006229202 
2024	 0.472258642636502 
2025	 0.47187358646308 
2026	 0.471453570578243 
2027	 0.470963269428367 
2028	 0.470474508197636 
2029	 0.469961649598 
2030	 0.46942841484255 
2031	 0.468856457881403 
2032	 0.468297166413694 
2033	 0.467691548277241 
2034	 0.467148981545133 
2035	 0.466611465023485 
2036	 0.46610442753178 
2037	 0.465698811457965 
2038	 0.465345701554403 
2039	 0.465051938030573 
2040	 0.464824779400716 
2041	 0.464666862568731 
2042	 0.464567055667856 
2043	 0.464531594728704 
2044	 0.464588631267309 
2045	 0.464672839849368 
2046	 0.464808433936956 
2047	 0.464983342663392 
2048	 0.465216547889922 
2049	 0.465471117299223 
2050	 0.465757294035382 
2051	 0.466093199425628 
2052	 0.466449723719777 
2053	 0.466853111378746 
2054	 0.467282710048148 
2055	 0.467757458676609 
2056	 0.468241928239151 
2057	 0.468756574390911 
2058	 0.469282340504209 
2059	 0.469842056142242 
2060	 0.470388193638113 
2061	 0.470963973414399 
2062	 0.471505572101449 
2063	 0.472029219334495 
2064	 0.472549259008551 
2065	 0.473053612838083 
2066	 0.473548231395638 
2067	 0.474061340813177 
2068	 0.474561719889426 
2069	 0.47503272145362 
2070	 0.475493107697754 
2071	 0.475932653679694 
2072	 0.476340101541962 
2073	 0.476741437217287 
2074	 0.477135852379153 
2075	 0.477514620133441 
2076	 0.477880084721874 
2077	 0.478218283543481 
2078	 0.478555883433215 
2079	 0.478845573402699 
2080	 0.479085532058236 
2081	 0.479319633707222 
2082	 0.479538883397205 
2083	 0.47970646380279 
2084	 0.479888201714271 
2085	 0.480046711467027 
2086	 0.480176992565619 
2087	 0.48028442838688 
2088	 0.480376175406011 
2089	 0.480429810073152 
2090	 0.480491967052659 
2091	 0.48055209352157 
2092	 0.480585848191363 
2093	 0.48061972042572 
2094	 0.480617546705958 
2095	 0.48055801000012 
2096	 0.480526006487032 
2097	 0.48050368786687 
2098	 0.480445619823078 
2099	 0.480392102763727 
2100	 0.480333966944325 
2101	 0.480235434747398 
2102	 0.480098317446395 
2103	 0.479954782775909 
2104	 0.479781791462239 
2105	 0.479619221018301 
2106	 0.479449471333885 
2107	 0.479263179198959 
2108	 0.479078506101552 
2109	 0.478875362998616 
2110	 0.478646044587304 
2111	 0.478410904523538 
2112	 0.478171282683558 
2113	 0.477914529493151 
2114	 0.477645913797503 
2115	 0.477359419607414 
2116	 0.477067094590777 
2117	 0.476754326044321 
2118	 0.476391844511985 
2119	 0.475991880759013 
2120	 0.475586831402625 
2121	 0.475124716001587 
2122	 0.474701427177077 
2123	 0.474285764044724 
2124	 0.473864764501709 
2125	 0.473470449561948 
2126	 0.47302576869007 
2127	 0.47255455264596 
2128	 0.472084199955974 
2129	 0.471591068882377 
2130	 0.47108134621819 
2131	 0.470585280888682 
2132	 0.470042235739284 
2133	 0.469463641108521 
2134	 0.468862027062994 
2135	 0.468200022306986 
2136	 0.467550370847501 
2137	 0.466867833042582 
2138	 0.466148674925703 
2139	 0.465424592399534 
2140	 0.46468765285302 
2141	 0.463932312767842 
2142	 0.463168178157217 
2143	 0.462365017377899 
2144	 0.461539869805669 
2145	 0.460696842104931 
2146	 0.459786708583962 
2147	 0.458921003126942 
2148	 0.458076171427275 
2149	 0.4572036793929 
2150	 0.456369254272304 
2151	 0.455472535511641 
2152	 0.454509522052951 
2153	 0.453559461285595 
2154	 0.452612876716032 
2155	 0.451611635867751 
2156	 0.450648211786859 
2157	 0.449700034715896 
2158	 0.44875202143219 
2159	 0.447812368399619 
2160	 0.446853894815994 
2161	 0.445881493751214 
2162	 0.444948718644195 
2163	 0.443975916955608 
2164	 0.443100798745132 
2165	 0.442294798985755 
2166	 0.44150464172688 
2167	 0.44076644518785 
2168	 0.44005099147371 
2169	 0.439345626167155 
2170	 0.438702273451381 
2171	 0.438092845495502 
2172	 0.437540185902571 
2173	 0.437049384085821 
2174	 0.436606771111796 
2175	 0.436186733825428 
2176	 0.435801161044585 
2177	 0.435443585767368 
2178	 0.435103574445857 
2179	 0.434820805079997 
2180	 0.434570322181661 
2181	 0.43438674756874 
2182	 0.434262039696184 
2183	 0.434173721726652 
2184	 0.434162339872851 
2185	 0.434143339040576 
2186	 0.434174440908066 
2187	 0.434172682983869 
2188	 0.434174295982021 
2189	 0.434173973950943 
2190	 0.434168785142558 
2191	 0.434157210165294 
2192	 0.434181128525406 
2193	 0.434134347987402 
2194	 0.434049201892596 
2195	 0.433937913075504 
2196	 0.433781207764998 
2197	 0.433593681071157 
2198	 0.433398596735767 
2199	 0.433180534366187 
2200	 0.432921361930245 
2201	 0.432616641729811 
2202	 0.432323592116485 
2203	 0.431980488333627 
2204	 0.431697888870636 
2205	 0.431400163163492 
2206	 0.431199145592027 
2207	 0.43103379858064 
2208	 0.430954566164706 
2209	 0.430964508638828 
2210	 0.4310139356356 
2211	 0.431153714537588 
2212	 0.431286343536509 
2213	 0.431509636971392 
2214	 0.431651587374511 
2215	 0.431807736680885 
2216	 0.431883216124133 
2217	 0.431888527042542 
2218	 0.431868645667109 
2219	 0.431815526337854 
2220	 0.431700244540568 
2221	 0.431551134570062 
2222	 0.431338374993724 
2223	 0.431033155189095 
2224	 0.430684050378638 
2225	 0.430292567103181 
2226	 0.429825865179236 
2227	 0.429299992496002 
2228	 0.428733869729337 
2229	 0.428066620740665 
2230	 0.427327566074585 
2231	 0.426477071237453 
2232	 0.425555893681373 
2233	 0.424473468135528 
2234	 0.423297471922164 
2235	 0.421930669698949 
2236	 0.420414186513976 
2237	 0.41873902979458 
2238	 0.416832982716982 
2239	 0.414877757149893 
2240	 0.412817282275083 
2241	 0.4105971175853 
2242	 0.408308375011014 
2243	 0.405804380216899 
2244	 0.40301448313152 
2245	 0.400241413220716 
2246	 0.39720005966978 
2247	 0.394326517789683 
2248	 0.391515496896785 
2249	 0.388687025323551 
2250	 0.385861135013004 
2251	 0.383166300541477 
2252	 0.380343890783662 
2253	 0.377691405910905 
2254	 0.37509156368768 
2255	 0.372568961906723 
2256	 0.370294062137329 
2257	 0.367992033908048 
2258	 0.365736790332243 
2259	 0.363643765813788 
2260	 0.361383768588726 
2261	 0.359028832458111 
2262	 0.356768624445786 
2263	 0.354424249284631 
2264	 0.35226261390784 
2265	 0.350178179192803 
2266	 0.348206174049955 
2267	 0.346321933766386 
2268	 0.344611793864727 
2269	 0.342972073180755 
2270	 0.341614457428485 
2271	 0.340502964593253 
2272	 0.339495602509038 
2273	 0.338779781998853 
2274	 0.338030094922449 
2275	 0.337432559799182 
2276	 0.336757604283764 
2277	 0.33616862532728 
2278	 0.335445011734273 
2279	 0.334639958628282 
2280	 0.333786485747474 
2281	 0.332848031295653 
2282	 0.331864618307871 
2283	 0.330843787562163 
2284	 0.329768478199174 
2285	 0.328556899627268 
2286	 0.327332944848508 
2287	 0.32601661751472 
2288	 0.324651130010339 
2289	 0.323348830212144 
2290	 0.321991303098809 
2291	 0.320700792781695 
2292	 0.319417834946945 
2293	 0.318072184265845 
2294	 0.316841124525378 
2295	 0.315659292816728 
2296	 0.314582980564412 
2297	 0.313736373042902 
2298	 0.31307741699835 
2299	 0.312566545804358 
2300	 0.312233870322353 
2301	 0.312097107680343 
2302	 0.312140952472724 
2303	 0.312365450280911 
2304	 0.312830123749266 
2305	 0.313404636731551 
2306	 0.314149667500863 
2307	 0.315024411506757 
2308	 0.316066581385659 
2309	 0.317223179255508 
2310	 0.318566903550968 
2311	 0.319941265222898 
2312	 0.321504243999902 
2313	 0.322985771462832 
2314	 0.32454193031105 
2315	 0.326003739767713 
2316	 0.327494443133917 
2317	 0.32878807675049 
2318	 0.330005277079006 
2319	 0.331023392810579 
2320	 0.331869367868292 
2321	 0.332557385706913 
2322	 0.333069764003019 
2323	 0.333445136946226 
2324	 0.333621727194954 
2325	 0.333685467186021 
2326	 0.333594256345167 
2327	 0.333396542822265 
2328	 0.333039272343603 
2329	 0.332615906549332 
2330	 0.332115709165082 
2331	 0.33143281449986 
2332	 0.330674029081478 
2333	 0.329800590777962 
2334	 0.328716171408005 
2335	 0.327609379858959 
2336	 0.32637950070148 
2337	 0.32499317834558 
2338	 0.323700468134451 
2339	 0.322360537654844 
2340	 0.321069916866283 
2341	 0.319908075069487 
2342	 0.318748726040446 
2343	 0.31771654833213 
2344	 0.316891308333669 
2345	 0.316336435384824 
2346	 0.316034203787999 
2347	 0.316014587878306 
2348	 0.316205894781183 
2349	 0.316600882314281 
2350	 0.317213541391073 
2351	 0.317991054190631 
2352	 0.318853164976352 
2353	 0.31976464024201 
2354	 0.320658698448958 
2355	 0.321516737111823 
2356	 0.322367371074524 
2357	 0.323095050945633 
2358	 0.323718572967854 
2359	 0.324228038079801 
2360	 0.324578225084834 
2361	 0.324807301916486 
2362	 0.324932833909143 
2363	 0.324970500041583 
2364	 0.324997223186253 
2365	 0.324998043695981 
2366	 0.324981225430337 
2367	 0.325015889099464 
2368	 0.325006470907922 
2369	 0.324938673681124 
2370	 0.324913760734579 
2371	 0.324806953099052 
2372	 0.324658904052595 
2373	 0.324556904399996 
2374	 0.324380828331943 
2375	 0.324191336407156 
2376	 0.324043787279546 
2377	 0.32387891870255 
2378	 0.323698610357374 
2379	 0.323585029802267 
2380	 0.323485399038277 
2381	 0.323349899409579 
2382	 0.323217747039847 
2383	 0.323120032076656 
2384	 0.322970882309946 
2385	 0.322768494027114 
2386	 0.322598349910045 
2387	 0.322417663597115 
2388	 0.32229087721451 
2389	 0.322190756533825 
2390	 0.32204712169907 
2391	 0.321930988346862 
2392	 0.321792467153364 
2393	 0.321623394378209 
2394	 0.321515141863422 
2395	 0.32145166983177 
2396	 0.321284204707804 
2397	 0.321076131260106 
2398	 0.320852275473742 
2399	 0.320546504979349 
2400	 0.320328298753485 
2401	 0.320158008408002 
2402	 0.319937702806542 
2403	 0.319779445754092 
2404	 0.319600778926959 
2405	 0.319384588683 
2406	 0.319264291743121 
2407	 0.319153157787662 
2408	 0.318996636334398 
2409	 0.318908934007847 
2410	 0.318789490171262 
2411	 0.318629018828884 
2412	 0.31861114353707 
2413	 0.318619036292949 
2414	 0.318568302444395 
2415	 0.31856079256011 
2416	 0.318487506538143 
2417	 0.318468307230894 
2418	 0.318501761571791 
2419	 0.318419099874735 
2420	 0.318445402330525 
2421	 0.318408660318039 
2422	 0.318245408495057 
2423	 0.318128181894299 
2424	 0.317939731673587 
2425	 0.317794496911521 
2426	 0.317690446815311 
2427	 0.317612996918145 
2428	 0.317524457541805 
2429	 0.317319493928961 
2430	 0.31721425592311 
2431	 0.317158563248873 
2432	 0.317054765815055 
2433	 0.31687040240708 
2434	 0.316508688632374 
2435	 0.316182002404536 
2436	 0.315883312873517 
2437	 0.315519239144401 
2438	 0.315173792838954 
2439	 0.314814329637384 
2440	 0.314383052473776 
2441	 0.313991097503633 
2442	 0.313679529059264 
2443	 0.313227980995207 
2444	 0.312826401604427 
2445	 0.312403517335569 
2446	 0.311824845078087 
2447	 0.311429190188615 
2448	 0.310912769962122 
2449	 0.310356079246486 
2450	 0.309945811577554 
2451	 0.309257309545838 
2452	 0.308607478307494 
2453	 0.308099245658829 
2454	 0.307456026451172 
2455	 0.307022152397975 
2456	 0.30665440642393 
2457	 0.306053953537242 
2458	 0.305503464755429 
2459	 0.304948266355487 
2460	 0.304356823423305 
2461	 0.303789140405718 
2462	 0.303184355232286 
2463	 0.302665183858763 
2464	 0.302120307319609 
2465	 0.301600563375903 
2466	 0.30125023677344 
2467	 0.300820663148563 
2468	 0.300165798954898 
2469	 0.299590724698196 
2470	 0.299052191413186 
2471	 0.298424472705562 
2472	 0.298011439056173 
2473	 0.297497225162176 
2474	 0.296986719134961 
2475	 0.296752093423484 
2476	 0.296369792375063 
2477	 0.296140306514877 
2478	 0.296100412981794 
2479	 0.295711879546236 
2480	 0.295291682093393 
2481	 0.294943865676456 
2482	 0.294422867868616 
2483	 0.294247395715933 
2484	 0.294012641656623 
2485	 0.293843069918447 
2486	 0.293751428688155 
2487	 0.293543602090985 
2488	 0.293421857830276 
2489	 0.293391052511619 
2490	 0.29316707107175 
2491	 0.292914462663183 
2492	 0.292849012582 
2493	 0.292783623746291 
2494	 0.29276932995135 
2495	 0.292953472876135 
2496	 0.293140929885223 
2497	 0.293134986995947 
2498	 0.293014602586866 
2499	 0.293029554670807 
2500	 0.293000132496809 
