Wavelength	spectrum00021.asd
350	 6.95986901934968E-02 
351	 6.68105307318656E-02 
352	 6.31081114382799E-02 
353	 5.99778803331675E-02 
354	 5.79611975779619E-02 
355	 5.76733433752596E-02 
356	 5.75011741959903E-02 
357	 5.58395868010888E-02 
358	 5.21957475414108E-02 
359	 5.02721639859626E-02 
360	 0.049964034790536 
361	 4.92430610784263E-02 
362	 4.86428227202285E-02 
363	 4.79179640709843E-02 
364	 4.68156617379662E-02 
365	 4.50920794161561E-02 
366	 4.59192992047591E-02 
367	 4.67920876793802E-02 
368	 4.52782088655902E-02 
369	 4.36177453146697E-02 
370	 4.34014234951984E-02 
371	 4.36334901406979E-02 
372	 4.22572550263147E-02 
373	 4.22075033766491E-02 
374	 0.042413665625301 
375	 0.042343388104419 
376	 4.28765853006982E-02 
377	 4.26632991395358E-02 
378	 4.18720235065017E-02 
379	 0.041052662007594 
380	 4.04682022481044E-02 
381	 4.03592929246369E-02 
382	 3.99467317521918E-02 
383	 3.82841048048621E-02 
384	 3.90079259089819E-02 
385	 3.93996738516878E-02 
386	 3.81615813505552E-02 
387	 3.72028219751936E-02 
388	 3.64836734657668E-02 
389	 3.61621387189206E-02 
390	 3.62439154436362E-02 
391	 3.62798181121345E-02 
392	 3.63595643926147E-02 
393	 0.03617724351548 
394	 3.52918574847962E-02 
395	 3.45883186538233E-02 
396	 0.034347220187389 
397	 0.034411549050119 
398	 3.40997733527996E-02 
399	 3.34838287610566E-02 
400	 0.033103103376398 
401	 3.32003067829647E-02 
402	 3.21399494051104E-02 
403	 3.15550674853049E-02 
404	 3.16274189239687E-02 
405	 3.14167728617241E-02 
406	 0.0314367736753 
407	 3.12370873605818E-02 
408	 3.06706942130788E-02 
409	 3.04190732702223E-02 
410	 2.99863322462791E-02 
411	 2.95632349487374E-02 
412	 2.94718543919375E-02 
413	 0.02962164692556 
414	 2.92645729676831E-02 
415	 2.85433389989064E-02 
416	 2.83785608019608E-02 
417	 2.84832620664691E-02 
418	 2.85401129685203E-02 
419	 2.83402707262893E-02 
420	 0.027885396606309 
421	 2.76402702938082E-02 
422	 2.76284172303807E-02 
423	 2.76537590369391E-02 
424	 2.75330468297983E-02 
425	 2.72801606445339E-02 
426	 2.70107595983834E-02 
427	 2.69256381029301E-02 
428	 2.66771395627824E-02 
429	 0.026595350062801 
430	 2.68255081732687E-02 
431	 2.64745746418905E-02 
432	 2.62915412834919E-02 
433	 2.63317404236661E-02 
434	 2.62702180885931E-02 
435	 2.62530923127092E-02 
436	 2.62389624422922E-02 
437	 2.61977804297581E-02 
438	 2.61434185102795E-02 
439	 2.61201918433008E-02 
440	 2.60964321983147E-02 
441	 2.60365246169188E-02 
442	 2.59831474675109E-02 
443	 2.59788103963462E-02 
444	 2.60464432976242E-02 
445	 0.026171491013126 
446	 2.60195311942609E-02 
447	 2.58551567647042E-02 
448	 2.58866598553207E-02 
449	 2.60022912340081E-02 
450	 2.60140571055493E-02 
451	 2.59758485716384E-02 
452	 2.60131917528355E-02 
453	 2.59932887499181E-02 
454	 2.60392038159394E-02 
455	 0.026113730063552 
456	 2.59955422068959E-02 
457	 2.61292939216809E-02 
458	 2.62253571731713E-02 
459	 0.02607945936138 
460	 2.62583195436962E-02 
461	 2.63625524523905E-02 
462	 2.63334599970856E-02 
463	 2.63213891594274E-02 
464	 2.64919084235068E-02 
465	 0.026636938860435 
466	 2.66816556075633E-02 
467	 2.68260155987795E-02 
468	 2.69269337068436E-02 
469	 2.70159961836843E-02 
470	 2.71740228387163E-02 
471	 2.74881504586044E-02 
472	 2.76471706781994E-02 
473	 2.77603236845839E-02 
474	 0.028237481481012 
475	 2.86025678543999E-02 
476	 2.88188025683146E-02 
477	 2.90003709866716E-02 
478	 2.94170299347585E-02 
479	 2.99636479584015E-02 
480	 0.030582443216468 
481	 3.12267970406216E-02 
482	 3.18561013815261E-02 
483	 3.25308023831155E-02 
484	 3.32766941743942E-02 
485	 0.034069674298432 
486	 3.50725587110218E-02 
487	 0.036104961901414 
488	 3.70553596301617E-02 
489	 0.03827615207459 
490	 0.03959376164475 
491	 4.09381810709474E-02 
492	 4.23225682978745E-02 
493	 4.39133953969944E-02 
494	 0.045549898145244 
495	 0.047198033964268 
496	 0.049099454673906 
497	 5.10393608205133E-02 
498	 5.30275815370974E-02 
499	 5.51193446084452E-02 
500	 5.72651575981268E-02 
501	 5.94749403668584E-02 
502	 6.17954416322002E-02 
503	 6.42945787038921E-02 
504	 6.68567101938452E-02 
505	 6.94644580298663E-02 
506	 7.21256502926868E-02 
507	 7.48501691402117E-02 
508	 7.76767763860795E-02 
509	 8.05561227235053E-02 
510	 8.34172421432883E-02 
511	 8.63738598086249E-02 
512	 8.93568434854302E-02 
513	 0.092341580846502 
514	 9.53926687120259E-02 
515	 9.84345380307802E-02 
516	 0.101503099160353 
517	 0.1046324696628 
518	 0.107750190350782 
519	 0.110857107497483 
520	 0.113974822855534 
521	 0.11713247691322 
522	 0.120277987057035 
523	 0.123425998635297 
524	 0.126586840043228 
525	 0.129763921622913 
526	 0.132799005719528 
527	 0.135833168878945 
528	 0.13904120600634 
529	 0.142106653439045 
530	 0.145151077970825 
531	 0.148232940843048 
532	 0.151309838242898 
533	 0.154352274153162 
534	 0.157370986222274 
535	 0.160381873761417 
536	 0.163398787126095 
537	 0.166380333593278 
538	 0.169321492611798 
539	 0.172240538547747 
540	 0.175122010140102 
541	 0.177945036813826 
542	 0.180715602425125 
543	 0.18347712461603 
544	 0.186265384213098 
545	 0.188971491467528 
546	 0.191518470907758 
547	 0.194197481439425 
548	 0.196833831648741 
549	 0.199402643229701 
550	 0.202023130038595 
551	 0.204586307484817 
552	 0.207186628805364 
553	 0.209871754517753 
554	 0.212472902747209 
555	 0.215034307188628 
556	 0.217594784859642 
557	 0.220185937520276 
558	 0.222792671510505 
559	 0.225396447557082 
560	 0.227959205981324 
561	 0.230422640183874 
562	 0.232776579362392 
563	 0.23505579761551 
564	 0.237298353161392 
565	 0.239488179331666 
566	 0.241648640563641 
567	 0.243819867821816 
568	 0.246041684992361 
569	 0.248200257190509 
570	 0.250303734948203 
571	 0.252402812759603 
572	 0.254595358038416 
573	 0.256769567279449 
574	 0.258892457149484 
575	 0.260960936180491 
576	 0.262945955587406 
577	 0.264856051656454 
578	 0.266732634007888 
579	 0.268644689465317 
580	 0.270564175781375 
581	 0.272503860895788 
582	 0.274469568204893 
583	 0.27640598959947 
584	 0.278414342250406 
585	 0.280471480712596 
586	 0.282492477116085 
587	 0.284535936900498 
588	 0.286602917802998 
589	 0.288667503648861 
590	 0.290672378834443 
591	 0.292643721891769 
592	 0.294576601269997 
593	 0.296446788961874 
594	 0.298192252287507 
595	 0.29990881248948 
596	 0.301630346110117 
597	 0.3033293453104 
598	 0.305108753709733 
599	 0.306896619687262 
600	 0.308645875919994 
601	 0.31044293022799 
602	 0.312213660790727 
603	 0.313993593924195 
604	 0.315834754615769 
605	 0.317576950930983 
606	 0.319356834354103 
607	 0.321194398316621 
608	 0.322932897841404 
609	 0.324580354235123 
610	 0.326186253467177 
611	 0.327815171906277 
612	 0.329523355268074 
613	 0.331171652353198 
614	 0.332732233952616 
615	 0.334259461204626 
616	 0.33577336964239 
617	 0.337313415481164 
618	 0.338878037885234 
619	 0.340398922956252 
620	 0.341875105797717 
621	 0.343381642814542 
622	 0.344965205544287 
623	 0.346394513701046 
624	 0.347844643474812 
625	 0.34933276527315 
626	 0.350722236787455 
627	 0.352127759774886 
628	 0.353543309844922 
629	 0.354953291024996 
630	 0.35637908055053 
631	 0.357749877520558 
632	 0.359093729230666 
633	 0.360475414406789 
634	 0.361889322098039 
635	 0.363254320583429 
636	 0.364553104711704 
637	 0.365849650297981 
638	 0.367173764722792 
639	 0.368503982629266 
640	 0.369795915197941 
641	 0.37096823176203 
642	 0.372209663207454 
643	 0.37354027090089 
644	 0.374866781120082 
645	 0.376127237633437 
646	 0.377327927652329 
647	 0.378507562838888 
648	 0.379740888594213 
649	 0.380955239257717 
650	 0.382135623230585 
651	 0.383293930865815 
652	 0.384473999746526 
653	 0.385674393146443 
654	 0.386847637530698 
655	 0.387924570730295 
656	 0.389078400762467 
657	 0.390273666483119 
658	 0.391449660829876 
659	 0.392567966101243 
660	 0.393689481890219 
661	 0.394823714505663 
662	 0.395958601311272 
663	 0.397103784866075 
664	 0.39817905792374 
665	 0.399225391878122 
666	 0.400395902031328 
667	 0.401468891054955 
668	 0.40250979056825 
669	 0.403600139184805 
670	 0.404721817542409 
671	 0.405781865334745 
672	 0.406808984171011 
673	 0.407879763930506 
674	 0.408949157357043 
675	 0.409981298702102 
676	 0.411000177089657 
677	 0.412097108031689 
678	 0.413177022111164 
679	 0.414191963263916 
680	 0.41515524388229 
681	 0.416233736639442 
682	 0.41724616087425 
683	 0.418162251215312 
684	 0.419054577953576 
685	 0.420064852256254 
686	 0.421082500571473 
687	 0.422065499336539 
688	 0.42310988172898 
689	 0.42414300489404 
690	 0.425051599802392 
691	 0.425828908670545 
692	 0.426862845813121 
693	 0.427814024363886 
694	 0.428667002567777 
695	 0.429609464437861 
696	 0.430623128651189 
697	 0.431564909290085 
698	 0.432416764843142 
699	 0.433382251691915 
700	 0.434293278208664 
701	 0.4351618196985 
702	 0.436036651746239 
703	 0.436887175979003 
704	 0.437823588882655 
705	 0.438740478776355 
706	 0.439433640718489 
707	 0.440319517763038 
708	 0.441292627153605 
709	 0.442210845556077 
710	 0.442990606842745 
711	 0.443777121187271 
712	 0.444623579260318 
713	 0.445524664082929 
714	 0.446385603318721 
715	 0.447161610616461 
716	 0.447906359526345 
717	 0.448727388891127 
718	 0.449523440669116 
719	 0.450303941450355 
720	 0.451086268380659 
721	 0.451875764371751 
722	 0.452633421765993 
723	 0.453390412651201 
724	 0.454168313893174 
725	 0.454868479914447 
726	 0.455501035120175 
727	 0.456208153333512 
728	 0.457164759131183 
729	 0.457914964432302 
730	 0.458572094198357 
731	 0.459258567208586 
732	 0.459977617727739 
733	 0.460687204438378 
734	 0.461339503495726 
735	 0.461940520271419 
736	 0.462692222399989 
737	 0.463427636476653 
738	 0.464093801953655 
739	 0.464729326040052 
740	 0.465415244921188 
741	 0.466152687170715 
742	 0.466867781951306 
743	 0.467394104081314 
744	 0.468083369325908 
745	 0.468822281190209 
746	 0.469445714583938 
747	 0.47006941103683 
748	 0.47070699953867 
749	 0.471334360850885 
750	 0.471927167749096 
751	 0.472661844816859 
752	 0.473328877524404 
753	 0.473852904744335 
754	 0.47438182548942 
755	 0.475034528684697 
756	 0.475682114346478 
757	 0.476231923166323 
758	 0.476893042077442 
759	 0.477427580519972 
760	 0.477912474429195 
761	 0.478531572073859 
762	 0.479107959515151 
763	 0.479694306404294 
764	 0.480292540558037 
765	 0.480841587839195 
766	 0.481459664880598 
767	 0.482065772129566 
768	 0.482591702867668 
769	 0.48307451956931 
770	 0.483654423069297 
771	 0.484267930078031 
772	 0.484795227676629 
773	 0.485265671824539 
774	 0.485783336450529 
775	 0.486350517899598 
776	 0.486885016644606 
777	 0.487389340098013 
778	 0.48789462815277 
779	 0.488410632885237 
780	 0.488897475664754 
781	 0.489510250551981 
782	 0.490077931605075 
783	 0.490453085154761 
784	 0.490902059793661 
785	 0.491420563120832 
786	 0.491935286649023 
787	 0.492364239551072 
788	 0.492889925214451 
789	 0.493456055363177 
790	 0.49397158934726 
791	 0.49434721073159 
792	 0.494838890182494 
793	 0.49538725650236 
794	 0.495887878938697 
795	 0.496296396422532 
796	 0.49669585566707 
797	 0.497148535783154 
798	 0.497669398644902 
799	 0.498107072893692 
800	 0.498535691957056 
801	 0.498960959689672 
802	 0.499341110382863 
803	 0.499794938458284 
804	 0.50024408774112 
805	 0.500642473743605 
806	 0.501032990772355 
807	 0.501452229666617 
808	 0.501944577912902 
809	 0.502484244587285 
810	 0.502843457617514 
811	 0.503243494879967 
812	 0.503621829922426 
813	 0.503869509146704 
814	 0.504377893170412 
815	 0.504878702179926 
816	 0.50525847128153 
817	 0.505588637981566 
818	 0.505958733867194 
819	 0.50636502761785 
820	 0.506775083801613 
821	 0.507139540293132 
822	 0.507563155266162 
823	 0.507948249038627 
824	 0.508246416090963 
825	 0.508736492447176 
826	 0.509195514132769 
827	 0.509591458368259 
828	 0.509968771052305 
829	 0.510239917607027 
830	 0.510591843532195 
831	 0.511044556383773 
832	 0.511461379286015 
833	 0.511849702622172 
834	 0.512250670953312 
835	 0.512657849087473 
836	 0.512984644218594 
837	 0.513321874306978 
838	 0.513670689950102 
839	 0.5140064368244 
840	 0.514288036207221 
841	 0.514663380785266 
842	 0.515114531279345 
843	 0.515541391144952 
844	 0.515835052768325 
845	 0.516120709751106 
846	 0.516441516071292 
847	 0.516772555482246 
848	 0.517154102916989 
849	 0.517477056248148 
850	 0.517735214996854 
851	 0.518063863126305 
852	 0.51840159291172 
853	 0.518678836862282 
854	 0.518914498296814 
855	 0.519319122394369 
856	 0.51970580170558 
857	 0.519996819990753 
858	 0.52019441484642 
859	 0.520431889112026 
860	 0.520756824902002 
861	 0.521117128954684 
862	 0.52142024883635 
863	 0.521695921048598 
864	 0.521949776193194 
865	 0.522231354018238 
866	 0.522605722183958 
867	 0.522904036524867 
868	 0.523189267266861 
869	 0.523516705929973 
870	 0.523880193044139 
871	 0.524126006534161 
872	 0.524319795515268 
873	 0.524549698200345 
874	 0.524833062211411 
875	 0.525156188443296 
876	 0.525470510747167 
877	 0.525747432859914 
878	 0.526071610836169 
879	 0.526332575689724 
880	 0.526523638445374 
881	 0.526721885127551 
882	 0.527135209076581 
883	 0.527488798681819 
884	 0.527738834631232 
885	 0.528025361486661 
886	 0.528235118791573 
887	 0.528404081319271 
888	 0.52859763078011 
889	 0.5288839734747 
890	 0.529202909124209 
891	 0.529424600194862 
892	 0.529524452146261 
893	 0.529667554701451 
894	 0.529904021026303 
895	 0.530164676473182 
896	 0.530374951246509 
897	 0.530541286651909 
898	 0.53070357963608 
899	 0.530906072186764 
900	 0.531145190492644 
901	 0.531243837414755 
902	 0.531379440171325 
903	 0.531593325017621 
904	 0.53182503027754 
905	 0.531906410776781 
906	 0.53205541938371 
907	 0.532275589456532 
908	 0.532419335765965 
909	 0.532583875516904 
910	 0.53273061153037 
911	 0.532885981772082 
912	 0.533133617119839 
913	 0.533314490302125 
914	 0.533438418786449 
915	 0.533571025147271 
916	 0.533804473800068 
917	 0.534003269616975 
918	 0.534214249475427 
919	 0.534476534169136 
920	 0.534746530829646 
921	 0.534933774261305 
922	 0.53511363603168 
923	 0.535353423507668 
924	 0.535582501073391 
925	 0.535774964022516 
926	 0.535994994404275 
927	 0.536310877816567 
928	 0.536714084129757 
929	 0.536971378806071 
930	 0.537123850976605 
931	 0.537319831952896 
932	 0.537567823579987 
933	 0.537918715803393 
934	 0.538326771549339 
935	 0.538707069852361 
936	 0.53909213438136 
937	 0.539399758920357 
938	 0.539621337530555 
939	 0.539819938287166 
940	 0.540110376165292 
941	 0.540492017801335 
942	 0.540865372139481 
943	 0.541096768389155 
944	 0.541383427340689 
945	 0.541725128893621 
946	 0.542069692283773 
947	 0.542337280688137 
948	 0.542464102988215 
949	 0.54251872415386 
950	 0.54261611635288 
951	 0.542875161475943 
952	 0.543129509823703 
953	 0.543329426623865 
954	 0.543465458172674 
955	 0.543558822838183 
956	 0.543743707913665 
957	 0.543872871682536 
958	 0.543889169328496 
959	 0.543986623278522 
960	 0.544133897663857 
961	 0.544241852925092 
962	 0.544287883326476 
963	 0.544408383655104 
964	 0.544506034315704 
965	 0.544578565847179 
966	 0.544637877832317 
967	 0.544668014929411 
968	 0.544771643100811 
969	 0.544963182956693 
970	 0.545168468791043 
971	 0.545173644065095 
972	 0.545271776348983 
973	 0.545434298409745 
974	 0.545575702745132 
975	 0.545751414946026 
976	 0.545933214841314 
977	 0.546111550549598 
978	 0.546282109770069 
979	 0.546431860045057 
980	 0.546643498407074 
981	 0.546829733634878 
982	 0.54691376171655 
983	 0.547040870533778 
984	 0.547185129106866 
985	 0.547399614236355 
986	 0.547697292667442 
987	 0.5479099530024 
988	 0.547911737727818 
989	 0.547972300720798 
990	 0.548330128173355 
991	 0.54863057375021 
992	 0.548746533022378 
993	 0.548853230996357 
994	 0.549138664673924 
995	 0.549407597228483 
996	 0.549670200951188 
997	 0.549813754338611 
998	 0.549853154849231 
999	 0.550349695914998 
1000	 0.550552543691347 
1001	 0.557691055049692 
1002	 0.557941443717537 
1003	 0.558183088282885 
1004	 0.558403575857954 
1005	 0.558621613984158 
1006	 0.558824140622626 
1007	 0.558999437317661 
1008	 0.559185862407495 
1009	 0.559348893684841 
1010	 0.559552051364649 
1011	 0.559785578303945 
1012	 0.560000116653688 
1013	 0.560206892211772 
1014	 0.560436182305616 
1015	 0.560665767933371 
1016	 0.56091531347398 
1017	 0.561150952688891 
1018	 0.561398996004988 
1019	 0.561591596384338 
1020	 0.561761557594168 
1021	 0.561928301896781 
1022	 0.562082097129102 
1023	 0.562231760045609 
1024	 0.562352005270238 
1025	 0.56250905727961 
1026	 0.562705397904237 
1027	 0.562858905970686 
1028	 0.563020503802399 
1029	 0.563141100140753 
1030	 0.563259087205482 
1031	 0.563369748934664 
1032	 0.56349063862014 
1033	 0.56365407678674 
1034	 0.563804606346426 
1035	 0.563946201535112 
1036	 0.564078805494737 
1037	 0.564197535744085 
1038	 0.564346080700332 
1039	 0.564484666910102 
1040	 0.564643089451183 
1041	 0.564851691750501 
1042	 0.565030058765465 
1043	 0.5651880132861 
1044	 0.565372012000785 
1045	 0.565553895658953 
1046	 0.565726735408942 
1047	 0.565880802712514 
1048	 0.566032105471069 
1049	 0.566222893583352 
1050	 0.566422086089736 
1051	 0.566665731937554 
1052	 0.566925370130218 
1053	 0.567165911933628 
1054	 0.567393716799644 
1055	 0.567633534508535 
1056	 0.567874833368204 
1057	 0.568120562942246 
1058	 0.568368037958239 
1059	 0.568610431991747 
1060	 0.568903527972039 
1061	 0.569183192820627 
1062	 0.569452135094351 
1063	 0.569728603175723 
1064	 0.56996250533182 
1065	 0.570188431084069 
1066	 0.570445776229206 
1067	 0.570733358327359 
1068	 0.571016483086665 
1069	 0.571267328064459 
1070	 0.571538320027675 
1071	 0.57181077011203 
1072	 0.572091007936086 
1073	 0.572355337073064 
1074	 0.572629192660216 
1075	 0.572902820849848 
1076	 0.573167424213853 
1077	 0.573419204816399 
1078	 0.573678074641386 
1079	 0.573953767011168 
1080	 0.574175440995871 
1081	 0.57439122723327 
1082	 0.574651304035635 
1083	 0.574885944315341 
1084	 0.575128956731365 
1085	 0.575417901933197 
1086	 0.575671545623327 
1087	 0.575913429523145 
1088	 0.576137725832799 
1089	 0.576362167128612 
1090	 0.576535957280618 
1091	 0.576695349667158 
1092	 0.576867671443937 
1093	 0.577021967654752 
1094	 0.577193043220161 
1095	 0.577367601346893 
1096	 0.577531752508267 
1097	 0.577695089799191 
1098	 0.577829982466325 
1099	 0.577971030053935 
1100	 0.578118023871929 
1101	 0.578249801883642 
1102	 0.578368955158649 
1103	 0.578469549967223 
1104	 0.578549708663636 
1105	 0.578619185545396 
1106	 0.578703447210564 
1107	 0.578794550991092 
1108	 0.57888708888526 
1109	 0.578977992859075 
1110	 0.57904432259475 
1111	 0.579091516554447 
1112	 0.579132622874218 
1113	 0.579145585133734 
1114	 0.579128926352649 
1115	 0.579123214665588 
1116	 0.579119259141812 
1117	 0.579094556889007 
1118	 0.579074062063533 
1119	 0.579074188815618 
1120	 0.579035141356008 
1121	 0.578968297714871 
1122	 0.578912232577366 
1123	 0.578853940270527 
1124	 0.578746487833334 
1125	 0.578641124640082 
1126	 0.578542930016197 
1127	 0.578402390468911 
1128	 0.578233917456904 
1129	 0.578047703753458 
1130	 0.577840569569489 
1131	 0.577619843506977 
1132	 0.577398258486217 
1133	 0.577154713746381 
1134	 0.576885812859422 
1135	 0.576593642560056 
1136	 0.576265650412886 
1137	 0.575935464621584 
1138	 0.57559951931483 
1139	 0.575225801315316 
1140	 0.574823964852775 
1141	 0.574427264956584 
1142	 0.57398590126661 
1143	 0.573545117336076 
1144	 0.573099115485726 
1145	 0.572576357038238 
1146	 0.572060474239913 
1147	 0.571524940317785 
1148	 0.570950139095599 
1149	 0.570418518107996 
1150	 0.569871833416356 
1151	 0.569317476193925 
1152	 0.568750118758841 
1153	 0.568179559798401 
1154	 0.56759164927593 
1155	 0.56698826369708 
1156	 0.5663686830779 
1157	 0.565731875437503 
1158	 0.565113371753207 
1159	 0.564491018884926 
1160	 0.563850126250008 
1161	 0.563237676312829 
1162	 0.562602874701753 
1163	 0.561963360890783 
1164	 0.561335977836367 
1165	 0.56070348841527 
1166	 0.560093169732372 
1167	 0.559472308597327 
1168	 0.558863191300341 
1169	 0.558257343987982 
1170	 0.557665013900979 
1171	 0.557045783857227 
1172	 0.556425943296305 
1173	 0.555787804456852 
1174	 0.555123636170349 
1175	 0.55448454032466 
1176	 0.553856850144698 
1177	 0.553212503141264 
1178	 0.552589840358923 
1179	 0.551898930887233 
1180	 0.551227764416998 
1181	 0.550557290672964 
1182	 0.54986064088925 
1183	 0.549240623609092 
1184	 0.54862039900211 
1185	 0.548005377957799 
1186	 0.547426069364066 
1187	 0.546866848028619 
1188	 0.546349739390938 
1189	 0.545861745751912 
1190	 0.545398450558608 
1191	 0.544988364303082 
1192	 0.544581674702235 
1193	 0.544169543324697 
1194	 0.543811547365336 
1195	 0.543484188289871 
1196	 0.543184210415009 
1197	 0.542915523015443 
1198	 0.542688407344642 
1199	 0.542477132677282 
1200	 0.542312010576472 
1201	 0.542194046756346 
1202	 0.542110144276311 
1203	 0.542083509087449 
1204	 0.542105505564792 
1205	 0.54218663305006 
1206	 0.542304967307085 
1207	 0.542527715240843 
1208	 0.542802641884729 
1209	 0.543190033147734 
1210	 0.543672490818724 
1211	 0.544243609401685 
1212	 0.544914968425798 
1213	 0.545666861707206 
1214	 0.546505760889793 
1215	 0.547437268996003 
1216	 0.548496335958063 
1217	 0.549562682031323 
1218	 0.550710633541299 
1219	 0.551887990132349 
1220	 0.553067609348606 
1221	 0.554321409395609 
1222	 0.555568686784159 
1223	 0.556821386153863 
1224	 0.558003211115978 
1225	 0.55915706120171 
1226	 0.56024698634054 
1227	 0.561284700429066 
1228	 0.562283759982003 
1229	 0.563252188153291 
1230	 0.564151288843578 
1231	 0.564990636754209 
1232	 0.565792310167954 
1233	 0.566530517373375 
1234	 0.5672257880854 
1235	 0.567867126541304 
1236	 0.568493063502764 
1237	 0.569081660255557 
1238	 0.569637281443101 
1239	 0.570183344892088 
1240	 0.570670268392442 
1241	 0.571120921294281 
1242	 0.571519428114401 
1243	 0.571914053088355 
1244	 0.572277974296369 
1245	 0.572639681356292 
1246	 0.572992673922891 
1247	 0.573311899787567 
1248	 0.573614699207566 
1249	 0.573894585998666 
1250	 0.574141626028137 
1251	 0.574374106684664 
1252	 0.57458827443192 
1253	 0.574788565527377 
1254	 0.574969386209444 
1255	 0.575135862935821 
1256	 0.575278930471115 
1257	 0.575424559761087 
1258	 0.575560125885091 
1259	 0.575683042618856 
1260	 0.57579561050114 
1261	 0.575911325851167 
1262	 0.576015743344314 
1263	 0.576120106624053 
1264	 0.57621654697982 
1265	 0.576321167913877 
1266	 0.576403699414612 
1267	 0.576455929599707 
1268	 0.576539944560279 
1269	 0.576626147473025 
1270	 0.57672097158759 
1271	 0.576827794247253 
1272	 0.576943050852018 
1273	 0.577054962527779 
1274	 0.577191495303463 
1275	 0.577367888875095 
1276	 0.577512940042146 
1277	 0.57763886568209 
1278	 0.577795033212971 
1279	 0.577956375316395 
1280	 0.578115598338613 
1281	 0.578303577227041 
1282	 0.578480333082176 
1283	 0.578643745471831 
1284	 0.578802006391566 
1285	 0.578957735203956 
1286	 0.579109676375425 
1287	 0.579283042983967 
1288	 0.57945549318027 
1289	 0.579634326996748 
1290	 0.579835486407857 
1291	 0.58002539016803 
1292	 0.580218089039417 
1293	 0.580385296387483 
1294	 0.580549946829685 
1295	 0.580701788040031 
1296	 0.580818861919581 
1297	 0.580954438662632 
1298	 0.581119567778674 
1299	 0.581235069182745 
1300	 0.581324137474755 
1301	 0.581412532630344 
1302	 0.581462791552513 
1303	 0.581530457664268 
1304	 0.581630293780728 
1305	 0.581688858081061 
1306	 0.581731973444079 
1307	 0.581759324115829 
1308	 0.58176215782558 
1309	 0.581740974792917 
1310	 0.581730917246783 
1311	 0.581728964891326 
1312	 0.581680216589411 
1313	 0.581618357373928 
1314	 0.581531185763857 
1315	 0.581406592386675 
1316	 0.581278683932696 
1317	 0.581142836464557 
1318	 0.580985522590634 
1319	 0.58080301647338 
1320	 0.580618213238439 
1321	 0.580430325748029 
1322	 0.580216437854516 
1323	 0.579995061612847 
1324	 0.579744071518954 
1325	 0.57946239102378 
1326	 0.579171296048012 
1327	 0.578867282585364 
1328	 0.578539672461 
1329	 0.578199665957921 
1330	 0.577834647227973 
1331	 0.577450462333756 
1332	 0.57703754412406 
1333	 0.576610600550376 
1334	 0.576140541753922 
1335	 0.575656404813678 
1336	 0.575147845583491 
1337	 0.574610045101496 
1338	 0.574037003294257 
1339	 0.573480325399905 
1340	 0.572916573210568 
1341	 0.572320021898612 
1342	 0.571727588637196 
1343	 0.571090055689437 
1344	 0.570411737168323 
1345	 0.569710027669039 
1346	 0.568977781424321 
1347	 0.5682443995982 
1348	 0.567497966130437 
1349	 0.566712567773672 
1350	 0.565902193119054 
1351	 0.565084684203936 
1352	 0.564215679029628 
1353	 0.563365273210502 
1354	 0.562518500973652 
1355	 0.561680144941031 
1356	 0.560849726303732 
1357	 0.560004907381514 
1358	 0.559164307771653 
1359	 0.558313332905649 
1360	 0.55745497849648 
1361	 0.556573555886663 
1362	 0.555694527158597 
1363	 0.554846881465212 
1364	 0.553943388527651 
1365	 0.553051112389403 
1366	 0.552054763622809 
1367	 0.551005048491795 
1368	 0.549910098507024 
1369	 0.548749730731426 
1370	 0.547552408172276 
1371	 0.54632835224607 
1372	 0.54504323316801 
1373	 0.543712587179073 
1374	 0.54230793657658 
1375	 0.54084008353664 
1376	 0.539309403609563 
1377	 0.537702548009775 
1378	 0.536035197952613 
1379	 0.534300083361076 
1380	 0.532524836422544 
1381	 0.530690542398066 
1382	 0.528802311313127 
1383	 0.526828887775438 
1384	 0.524877179117675 
1385	 0.52289315211256 
1386	 0.520905760514853 
1387	 0.518916661080875 
1388	 0.516955461761044 
1389	 0.514990687089302 
1390	 0.513025628712356 
1391	 0.511134952091442 
1392	 0.509132401673381 
1393	 0.507200064043691 
1394	 0.50518291033849 
1395	 0.503089020140533 
1396	 0.500982093984227 
1397	 0.498746124981827 
1398	 0.496426640339407 
1399	 0.493965842238331 
1400	 0.491388590370287 
1401	 0.488742245272153 
1402	 0.48595786923418 
1403	 0.48313265460452 
1404	 0.480228560323033 
1405	 0.477335357914345 
1406	 0.474345442458219 
1407	 0.471409992189556 
1408	 0.468429398128906 
1409	 0.465572380295827 
1410	 0.462700048968325 
1411	 0.459992739365322 
1412	 0.457375722697688 
1413	 0.454941024758556 
1414	 0.452629374763079 
1415	 0.450460036606304 
1416	 0.448461604092876 
1417	 0.446565961680428 
1418	 0.444822143317427 
1419	 0.443135351366172 
1420	 0.441551190981834 
1421	 0.440069208704291 
1422	 0.438664655703634 
1423	 0.43734739188566 
1424	 0.436165408606325 
1425	 0.435006989058605 
1426	 0.433957975037321 
1427	 0.432984362338355 
1428	 0.432084920044826 
1429	 0.431311897013324 
1430	 0.430590281938614 
1431	 0.429935369063301 
1432	 0.429374048896701 
1433	 0.428901532599792 
1434	 0.428493463851908 
1435	 0.428177273650674 
1436	 0.427895727911848 
1437	 0.427677325607716 
1438	 0.427510111618958 
1439	 0.427391497690055 
1440	 0.42733389988625 
1441	 0.427350729839657 
1442	 0.427387801056264 
1443	 0.427479585822845 
1444	 0.427590809389789 
1445	 0.427735124275419 
1446	 0.427901359372355 
1447	 0.428095004409706 
1448	 0.428318730482728 
1449	 0.428582706767887 
1450	 0.428846911354312 
1451	 0.429134062414894 
1452	 0.42943454802019 
1453	 0.429751522592991 
1454	 0.430065683960686 
1455	 0.430402085772819 
1456	 0.43073007153441 
1457	 0.431055603593522 
1458	 0.431373742077504 
1459	 0.431685238318952 
1460	 0.432003722660364 
1461	 0.432303031681045 
1462	 0.432627167301274 
1463	 0.432954658083379 
1464	 0.433315141859173 
1465	 0.433695852965552 
1466	 0.434107400693754 
1467	 0.4345340869971 
1468	 0.434990521461786 
1469	 0.435462569992245 
1470	 0.435915696652239 
1471	 0.436385948803559 
1472	 0.436871255687596 
1473	 0.437343522215726 
1474	 0.437824100616523 
1475	 0.438281138057382 
1476	 0.4387210139081 
1477	 0.439171072171337 
1478	 0.439613244357889 
1479	 0.44004992830632 
1480	 0.440503382147948 
1481	 0.44091553915491 
1482	 0.44129933558755 
1483	 0.441685741343149 
1484	 0.442059415990925 
1485	 0.442418821869319 
1486	 0.442768594975488 
1487	 0.443109918293037 
1488	 0.443420266746143 
1489	 0.443754736552846 
1490	 0.444092243679234 
1491	 0.444441768583011 
1492	 0.444810019927157 
1493	 0.445165742344985 
1494	 0.445521272115018 
1495	 0.44587779892759 
1496	 0.446219621803313 
1497	 0.446583927926314 
1498	 0.44696869488249 
1499	 0.447346591427431 
1500	 0.447729618230154 
1501	 0.44811599592153 
1502	 0.448506003089331 
1503	 0.448887800432946 
1504	 0.449274351113575 
1505	 0.449653800370373 
1506	 0.450017276109727 
1507	 0.450390899142096 
1508	 0.450772122215648 
1509	 0.451146912231404 
1510	 0.451524640729689 
1511	 0.451894002323328 
1512	 0.452257887135136 
1513	 0.452615846574521 
1514	 0.452976427683919 
1515	 0.453318186509547 
1516	 0.453644675765672 
1517	 0.453965880497903 
1518	 0.454261248024595 
1519	 0.454567000041937 
1520	 0.454881678656178 
1521	 0.455186388053247 
1522	 0.455472125689037 
1523	 0.455785521030903 
1524	 0.456073684791352 
1525	 0.456350604884822 
1526	 0.456618678695997 
1527	 0.456877976643006 
1528	 0.457138186263268 
1529	 0.457385205021562 
1530	 0.457643009656717 
1531	 0.457908572487629 
1532	 0.45816569734358 
1533	 0.458423788547888 
1534	 0.458669979788719 
1535	 0.458908715103507 
1536	 0.459146356987772 
1537	 0.459379433362189 
1538	 0.459601761787637 
1539	 0.459825596551859 
1540	 0.460027284021159 
1541	 0.460203714007976 
1542	 0.460395722574201 
1543	 0.460594488842079 
1544	 0.460760320488968 
1545	 0.460928270757647 
1546	 0.461059147379379 
1547	 0.461151388675367 
1548	 0.46123753922184 
1549	 0.46130748132275 
1550	 0.461363682399186 
1551	 0.461396706911911 
1552	 0.461428144538107 
1553	 0.461451588023477 
1554	 0.461462009245967 
1555	 0.461439002135606 
1556	 0.461461137489911 
1557	 0.46148942769456 
1558	 0.461530988275021 
1559	 0.461615360634528 
1560	 0.46167290616928 
1561	 0.461710475202894 
1562	 0.461772108858456 
1563	 0.461842850710278 
1564	 0.461914472345719 
1565	 0.461999361638795 
1566	 0.462081443397654 
1567	 0.462151528745221 
1568	 0.462245884916611 
1569	 0.46235566684038 
1570	 0.462468303366751 
1571	 0.462599502108601 
1572	 0.462723452572152 
1573	 0.462856487411297 
1574	 0.462971362740312 
1575	 0.463079714473615 
1576	 0.463181654992737 
1577	 0.463267170617439 
1578	 0.46335572406796 
1579	 0.463432679700481 
1580	 0.463527577460064 
1581	 0.463628602292238 
1582	 0.463731963309017 
1583	 0.463864350536341 
1584	 0.463965076311437 
1585	 0.464046868083326 
1586	 0.464130717459836 
1587	 0.464189781230096 
1588	 0.464269256881487 
1589	 0.464361407661918 
1590	 0.464450322024796 
1591	 0.46454594619688 
1592	 0.464640701298195 
1593	 0.464744219682883 
1594	 0.464830691504218 
1595	 0.464918600681977 
1596	 0.464985984669808 
1597	 0.465020301936349 
1598	 0.465069997136269 
1599	 0.465110456318672 
1600	 0.465163920234146 
1601	 0.465236092930781 
1602	 0.465297301815027 
1603	 0.465364911848656 
1604	 0.465416716065219 
1605	 0.465464460596513 
1606	 0.465493294472621 
1607	 0.465504058589038 
1608	 0.46551047976052 
1609	 0.465508232542667 
1610	 0.465489372190554 
1611	 0.465454353433598 
1612	 0.465418345135524 
1613	 0.465374071402212 
1614	 0.465314781513466 
1615	 0.465245492055207 
1616	 0.465173236598623 
1617	 0.465085919350698 
1618	 0.464993998808241 
1619	 0.464912208234459 
1620	 0.464806456150993 
1621	 0.464688166023338 
1622	 0.464546820496247 
1623	 0.464376585853461 
1624	 0.464205602139274 
1625	 0.464016852789125 
1626	 0.463823610082459 
1627	 0.463620600863187 
1628	 0.463422734934506 
1629	 0.4632140687443 
1630	 0.46301128898486 
1631	 0.462824431363306 
1632	 0.462622422715257 
1633	 0.462412578045618 
1634	 0.462203969011715 
1635	 0.46200020494213 
1636	 0.461775602867602 
1637	 0.461538856657902 
1638	 0.461296441979622 
1639	 0.461038622724129 
1640	 0.460769688841461 
1641	 0.460514454558966 
1642	 0.460218163556409 
1643	 0.459880283325013 
1644	 0.459547696381608 
1645	 0.459197040536701 
1646	 0.458835037931778 
1647	 0.458482782179678 
1648	 0.458091802404192 
1649	 0.457668709730441 
1650	 0.457228795039702 
1651	 0.456772146611975 
1652	 0.456288369060649 
1653	 0.455786975042287 
1654	 0.455252335329928 
1655	 0.454682504455217 
1656	 0.454083331185948 
1657	 0.453464162126683 
1658	 0.452796470039584 
1659	 0.452099225286664 
1660	 0.451355390041882 
1661	 0.450576505757602 
1662	 0.44973114533777 
1663	 0.448835608590746 
1664	 0.44786413193863 
1665	 0.446841497203544 
1666	 0.445716950214512 
1667	 0.444507382992048 
1668	 0.443242358869532 
1669	 0.441893571951553 
1670	 0.440472133041974 
1671	 0.438979566459178 
1672	 0.437412633206572 
1673	 0.435769175971183 
1674	 0.434041015749438 
1675	 0.432226530027165 
1676	 0.430397638572416 
1677	 0.428509658088296 
1678	 0.426554429998785 
1679	 0.424537495713205 
1680	 0.422479306888859 
1681	 0.420342411220516 
1682	 0.418171033416519 
1683	 0.415966002329238 
1684	 0.413769754689906 
1685	 0.411538656688645 
1686	 0.409274310113635 
1687	 0.406993514647045 
1688	 0.404669061769549 
1689	 0.402278146612369 
1690	 0.399886344618773 
1691	 0.397503392094819 
1692	 0.395113695359395 
1693	 0.39271373288506 
1694	 0.390266297634322 
1695	 0.387789791921786 
1696	 0.385266448789421 
1697	 0.382687652167495 
1698	 0.380074335927341 
1699	 0.377425691971019 
1700	 0.37482750897677 
1701	 0.372168477114428 
1702	 0.369640837581113 
1703	 0.367123854797389 
1704	 0.364775079106075 
1705	 0.36252444173974 
1706	 0.360337840740341 
1707	 0.358415713233745 
1708	 0.356559574164952 
1709	 0.354804320426733 
1710	 0.35319447132337 
1711	 0.351579507250548 
1712	 0.350050934933469 
1713	 0.348555265352438 
1714	 0.347092719917368 
1715	 0.345761885216251 
1716	 0.344430171729993 
1717	 0.34317048983814 
1718	 0.341984628282011 
1719	 0.340797923054408 
1720	 0.339711970751497 
1721	 0.338724971425277 
1722	 0.337854941487819 
1723	 0.337196096327761 
1724	 0.336739165581987 
1725	 0.336480001467618 
1726	 0.336499271114938 
1727	 0.336776381759244 
1728	 0.337260689869295 
1729	 0.338015543065473 
1730	 0.338983775613705 
1731	 0.340037408455175 
1732	 0.341281301182445 
1733	 0.342563831205148 
1734	 0.343854164615095 
1735	 0.345178219068043 
1736	 0.34636559595607 
1737	 0.347431485300867 
1738	 0.348335479007273 
1739	 0.349036914484885 
1740	 0.349555592667816 
1741	 0.349931801907847 
1742	 0.350099342395228 
1743	 0.350179610380123 
1744	 0.350091580400697 
1745	 0.349959801647351 
1746	 0.349680021341075 
1747	 0.34943918431262 
1748	 0.349128777341123 
1749	 0.348894928969562 
1750	 0.348660564195552 
1751	 0.348502768945531 
1752	 0.34838939912441 
1753	 0.348350624449791 
1754	 0.348336935936924 
1755	 0.348479781242848 
1756	 0.348708434387348 
1757	 0.349093029006337 
1758	 0.349639547426568 
1759	 0.350273014075561 
1760	 0.351053992441075 
1761	 0.352041706527393 
1762	 0.353135262331317 
1763	 0.354384878857567 
1764	 0.355732540028184 
1765	 0.357127130444007 
1766	 0.358607645265772 
1767	 0.360055640795068 
1768	 0.361549938019312 
1769	 0.363033781317984 
1770	 0.364380208234388 
1771	 0.365727699346 
1772	 0.366978016250986 
1773	 0.368084078759503 
1774	 0.369178417935643 
1775	 0.370168114214933 
1776	 0.371087255443158 
1777	 0.371940187014137 
1778	 0.37264843247073 
1779	 0.373315903626892 
1780	 0.37392392249751 
1781	 0.374430007803429 
1782	 0.37492096954194 
1783	 0.375323626617839 
1784	 0.375622199481437 
1785	 0.375886763553086 
1786	 0.376119219297911 
1787	 0.376301955281567 
1788	 0.376479042269101 
1789	 0.3766319681226 
1790	 0.376763063634894 
1791	 0.376847250379111 
1792	 0.376957330585275 
1793	 0.377055468221464 
1794	 0.377180327873212 
1795	 0.377306620712192 
1796	 0.377390328482522 
1797	 0.377457713728367 
1798	 0.377547039868017 
1799	 0.377670070259041 
1800	 0.377828170725477 
1801	 0.380544104307939 
1802	 0.380688466487074 
1803	 0.380852349318417 
1804	 0.381031070552285 
1805	 0.381232911510162 
1806	 0.381421985818182 
1807	 0.381607197936812 
1808	 0.381815466082023 
1809	 0.382038369016708 
1810	 0.382251656917859 
1811	 0.382475815140863 
1812	 0.382704194924684 
1813	 0.382913189116098 
1814	 0.383157641602828 
1815	 0.383396991674669 
1816	 0.383652201147237 
1817	 0.383919603716539 
1818	 0.384180375718737 
1819	 0.384466779584362 
1820	 0.384793916620753 
1821	 0.385104979221957 
1822	 0.385418932346516 
1823	 0.385743684680831 
1824	 0.386061316568527 
1825	 0.386361364701226 
1826	 0.386662978919714 
1827	 0.386967789200926 
1828	 0.387257128072426 
1829	 0.38752964317087 
1830	 0.387813926540591 
1831	 0.388101361795016 
1832	 0.388374711566926 
1833	 0.388644669220528 
1834	 0.388921344714376 
1835	 0.389187842064654 
1836	 0.389429797258044 
1837	 0.389684342197512 
1838	 0.389940587956285 
1839	 0.390204707163764 
1840	 0.390478313079205 
1841	 0.390742326006344 
1842	 0.391024093464837 
1843	 0.391269309111391 
1844	 0.391498861564509 
1845	 0.391712188393798 
1846	 0.391919560082685 
1847	 0.392108152464198 
1848	 0.392252653316347 
1849	 0.392371288001783 
1850	 0.392460561258241 
1851	 0.392518133816991 
1852	 0.392540032545166 
1853	 0.392524213440949 
1854	 0.392478698307479 
1855	 0.392389800211983 
1856	 0.39224616472884 
1857	 0.392069537554004 
1858	 0.391864653531193 
1859	 0.391600084899056 
1860	 0.391290769365023 
1861	 0.390912732811764 
1862	 0.390485085927967 
1863	 0.389995869153029 
1864	 0.389428519769099 
1865	 0.388832669965644 
1866	 0.388183920260223 
1867	 0.387422315671711 
1868	 0.386619348028334 
1869	 0.3857200759601 
1870	 0.384722615168313 
1871	 0.383656015097095 
1872	 0.382500893989884 
1873	 0.381255126725837 
1874	 0.379931985966178 
1875	 0.378528508366182 
1876	 0.376913169016273 
1877	 0.375238424990776 
1878	 0.37337868998966 
1879	 0.371305406806558 
1880	 0.369229965178796 
1881	 0.366941706042686 
1882	 0.364466704598818 
1883	 0.361857618681142 
1884	 0.359082463911687 
1885	 0.355934032754841 
1886	 0.352667368093092 
1887	 0.349105593971759 
1888	 0.345235271708754 
1889	 0.341461206050588 
1890	 0.337416120151681 
1891	 0.333304151017799 
1892	 0.329151644011866 
1893	 0.324786629505742 
1894	 0.32014840353457 
1895	 0.315619094271368 
1896	 0.310961753732189 
1897	 0.306262496032356 
1898	 0.301913296323072 
1899	 0.297436923039758 
1900	 0.293045479891158 
1901	 0.288814550892981 
1902	 0.284387192932689 
1903	 0.280195448333759 
1904	 0.276121253397844 
1905	 0.272109652655715 
1906	 0.268226682897004 
1907	 0.264755979402375 
1908	 0.26131011756787 
1909	 0.258075706434432 
1910	 0.255072758658777 
1911	 0.252006881310742 
1912	 0.249212048490585 
1913	 0.246561604396167 
1914	 0.243974144220278 
1915	 0.241639355426654 
1916	 0.239577084374186 
1917	 0.237555309920576 
1918	 0.235663528388413 
1919	 0.23398456549288 
1920	 0.232310011062734 
1921	 0.23079062157543 
1922	 0.2293687341617 
1923	 0.228016969265 
1924	 0.226886670906994 
1925	 0.225846505319655 
1926	 0.224903221785294 
1927	 0.224118507182574 
1928	 0.223377061833144 
1929	 0.222698892863431 
1930	 0.222116322268437 
1931	 0.221628562233863 
1932	 0.221226069682177 
1933	 0.220955858047498 
1934	 0.220745622600605 
1935	 0.220586960156629 
1936	 0.220516952598198 
1937	 0.220504042635423 
1938	 0.220540276258053 
1939	 0.220655717796288 
1940	 0.220859423154078 
1941	 0.221109108723245 
1942	 0.221379907758469 
1943	 0.22171956567397 
1944	 0.222082850489945 
1945	 0.22248650161932 
1946	 0.222986461602251 
1947	 0.22349824559623 
1948	 0.224053881313471 
1949	 0.2246568057625 
1950	 0.225246842774392 
1951	 0.225836152256923 
1952	 0.226464829994181 
1953	 0.227112124720452 
1954	 0.227759635767961 
1955	 0.228488529370737 
1956	 0.229204804792231 
1957	 0.229950806327447 
1958	 0.230753568697946 
1959	 0.231501826740803 
1960	 0.232252540490105 
1961	 0.233003588954535 
1962	 0.233721879539683 
1963	 0.234481712348933 
1964	 0.235261295265547 
1965	 0.23605000437514 
1966	 0.23687177119349 
1967	 0.237695945183734 
1968	 0.23845688634021 
1969	 0.239251065283279 
1970	 0.240031429040937 
1971	 0.240793996431777 
1972	 0.241641732077744 
1973	 0.242473419100639 
1974	 0.243305268953957 
1975	 0.244171258650765 
1976	 0.245000869538678 
1977	 0.245799154023567 
1978	 0.246619420127212 
1979	 0.247435386346329 
1980	 0.248242932077581 
1981	 0.249104788369005 
1982	 0.249913521317561 
1983	 0.250734161899712 
1984	 0.251551315443772 
1985	 0.252303831447757 
1986	 0.253086401869261 
1987	 0.25385335627944 
1988	 0.254585044637485 
1989	 0.255359077330442 
1990	 0.256166515790233 
1991	 0.256937628085377 
1992	 0.257719428126392 
1993	 0.258498294981315 
1994	 0.259193934399135 
1995	 0.259895147716342 
1996	 0.26059655527961 
1997	 0.261268038599388 
1998	 0.261938958373223 
1999	 0.262617228023637 
2000	 0.26324798385408 
2001	 0.263859034607411 
2002	 0.264446260947679 
2003	 0.265004751206044 
2004	 0.265551956732002 
2005	 0.26606453825216 
2006	 0.266575056316793 
2007	 0.26709366237144 
2008	 0.267560579897003 
2009	 0.268012618669066 
2010	 0.268431657133816 
2011	 0.268767818959732 
2012	 0.269097027643767 
2013	 0.269373077676706 
2014	 0.269593811855287 
2015	 0.269803813417434 
2016	 0.26999549225792 
2017	 0.270121883171408 
2018	 0.270224500283944 
2019	 0.270264582512295 
2020	 0.270239019436868 
2021	 0.270165493819051 
2022	 0.270055702596316 
2023	 0.269919074006014 
2024	 0.269731781171438 
2025	 0.269507570783441 
2026	 0.269239188777221 
2027	 0.268902960403723 
2028	 0.268577950254742 
2029	 0.268207608453935 
2030	 0.267853465582801 
2031	 0.267512938521967 
2032	 0.267142136124315 
2033	 0.266719742154061 
2034	 0.266353820811523 
2035	 0.265990792733731 
2036	 0.265638031598161 
2037	 0.265335743228186 
2038	 0.265062303796685 
2039	 0.264815125785305 
2040	 0.26457390024759 
2041	 0.264394900425475 
2042	 0.264269919689114 
2043	 0.264165483552469 
2044	 0.264094205465504 
2045	 0.264059980570311 
2046	 0.264062071306698 
2047	 0.264089391319878 
2048	 0.264159081207052 
2049	 0.264250591537097 
2050	 0.264377133144648 
2051	 0.264515843289498 
2052	 0.264668128527906 
2053	 0.264824909141267 
2054	 0.265004269540037 
2055	 0.265184512663658 
2056	 0.265403531176672 
2057	 0.265663452856244 
2058	 0.265921610804964 
2059	 0.266206557465427 
2060	 0.266480514024745 
2061	 0.266768168369478 
2062	 0.267038528990847 
2063	 0.267305829818654 
2064	 0.267565094316615 
2065	 0.267814050142625 
2066	 0.268051311452468 
2067	 0.268306046372468 
2068	 0.268556330406845 
2069	 0.268791764383537 
2070	 0.269035890241507 
2071	 0.269246390883995 
2072	 0.269425893761631 
2073	 0.269609177633131 
2074	 0.269789075923582 
2075	 0.269942250237256 
2076	 0.270083356302663 
2077	 0.270208141668164 
2078	 0.270298029025669 
2079	 0.270393836033 
2080	 0.270494559784169 
2081	 0.270570945726498 
2082	 0.270634866221 
2083	 0.270684092791566 
2084	 0.270713215561291 
2085	 0.270732276788328 
2086	 0.270746385568072 
2087	 0.270755892969034 
2088	 0.2707497167372 
2089	 0.270734343546541 
2090	 0.270704919319258 
2091	 0.270674053486884 
2092	 0.270606133552456 
2093	 0.270501619705064 
2094	 0.270403475851732 
2095	 0.270283898375172 
2096	 0.270159367882216 
2097	 0.270035993903465 
2098	 0.269910043835732 
2099	 0.269754793733819 
2100	 0.26956876266911 
2101	 0.269375256022798 
2102	 0.269170100140955 
2103	 0.2689392887171 
2104	 0.268687432863304 
2105	 0.268418212952902 
2106	 0.268129188120495 
2107	 0.267817027903602 
2108	 0.267490666564486 
2109	 0.267134436129708 
2110	 0.266748433326895 
2111	 0.266342336285049 
2112	 0.265894055411312 
2113	 0.265453671504502 
2114	 0.265016373740899 
2115	 0.264545181691648 
2116	 0.264061433252051 
2117	 0.263565243457655 
2118	 0.263024788788646 
2119	 0.262435443339221 
2120	 0.261854360471782 
2121	 0.261230700890085 
2122	 0.260649912547471 
2123	 0.260081955045582 
2124	 0.259502427018639 
2125	 0.258958815000786 
2126	 0.258364789331575 
2127	 0.257722206664723 
2128	 0.257109394171257 
2129	 0.256473038290226 
2130	 0.25586263005434 
2131	 0.255292941154344 
2132	 0.254696367531712 
2133	 0.254099780889874 
2134	 0.25350494963383 
2135	 0.252840219748588 
2136	 0.252208369695706 
2137	 0.251566969625557 
2138	 0.250896427732269 
2139	 0.250266105771967 
2140	 0.249668258666369 
2141	 0.249043423066683 
2142	 0.248414983981648 
2143	 0.247801748891466 
2144	 0.247167831734879 
2145	 0.246580881927236 
2146	 0.246005597445738 
2147	 0.245479872813245 
2148	 0.244999212526778 
2149	 0.244530125812929 
2150	 0.244103403787807 
2151	 0.243687225853467 
2152	 0.243273794887165 
2153	 0.242907028082795 
2154	 0.242528293196262 
2155	 0.242174807226702 
2156	 0.241831392207656 
2157	 0.241485366132338 
2158	 0.24117484024007 
2159	 0.240900996495517 
2160	 0.240618611745676 
2161	 0.240352110394403 
2162	 0.240089952158163 
2163	 0.23981139749287 
2164	 0.239588338762986 
2165	 0.239396380597125 
2166	 0.239218047219497 
2167	 0.239091703904448 
2168	 0.238944425355098 
2169	 0.238775902245392 
2170	 0.238651125031477 
2171	 0.238541809655612 
2172	 0.238454857069526 
2173	 0.238399862482521 
2174	 0.238366287862243 
2175	 0.238347502635164 
2176	 0.238345031279512 
2177	 0.238363018848605 
2178	 0.238409246405931 
2179	 0.238462287571178 
2180	 0.238524578975482 
2181	 0.238611623037544 
2182	 0.238726356319115 
2183	 0.238841039867392 
2184	 0.238970653230847 
2185	 0.239111164095259 
2186	 0.239250169765903 
2187	 0.23941726176587 
2188	 0.23961712258263 
2189	 0.239810837313586 
2190	 0.240026546148431 
2191	 0.240231656130652 
2192	 0.240425936419043 
2193	 0.24063333992853 
2194	 0.240849945533037 
2195	 0.241063236918451 
2196	 0.241281192785633 
2197	 0.241504628027446 
2198	 0.241720223680546 
2199	 0.241935588953926 
2200	 0.242134308981471 
2201	 0.242323468509433 
2202	 0.242520461694047 
2203	 0.24270130581087 
2204	 0.242896196598573 
2205	 0.243113527733456 
2206	 0.243302691109113 
2207	 0.24348366240072 
2208	 0.24365949096442 
2209	 0.243817894438138 
2210	 0.243984816792874 
2211	 0.244161505182774 
2212	 0.244311111174669 
2213	 0.244448091687594 
2214	 0.24458004615744 
2215	 0.244709559588313 
2216	 0.244808646453525 
2217	 0.244912709563389 
2218	 0.244970331654762 
2219	 0.244969521447587 
2220	 0.244964085605087 
2221	 0.244938689314236 
2222	 0.244894770965395 
2223	 0.244824547802883 
2224	 0.244731936001988 
2225	 0.244589307295292 
2226	 0.244373301870251 
2227	 0.244087382081977 
2228	 0.243743100721751 
2229	 0.243322138054695 
2230	 0.242811380111065 
2231	 0.242261233448316 
2232	 0.241661838767751 
2233	 0.24096408377302 
2234	 0.240244940300099 
2235	 0.239336720406221 
2236	 0.238294711672165 
2237	 0.237157919638565 
2238	 0.235828546061826 
2239	 0.234495223593797 
2240	 0.233131717888959 
2241	 0.231618302591219 
2242	 0.230076855066524 
2243	 0.228326830425447 
2244	 0.226349362400366 
2245	 0.22433783123847 
2246	 0.222102772050269 
2247	 0.219924892194061 
2248	 0.21776770917965 
2249	 0.215506070076034 
2250	 0.213194724832919 
2251	 0.210874244874767 
2252	 0.208315760457014 
2253	 0.205828812978358 
2254	 0.203299463694927 
2255	 0.200728173639583 
2256	 0.198378211215305 
2257	 0.196008143772566 
2258	 0.193731071328886 
2259	 0.191590099341005 
2260	 0.189384235137156 
2261	 0.1871799293935 
2262	 0.18505144384276 
2263	 0.182885795911249 
2264	 0.18088870230947 
2265	 0.179023786937682 
2266	 0.177139365833837 
2267	 0.175391962008246 
2268	 0.173571905055342 
2269	 0.171709570116285 
2270	 0.169916204413374 
2271	 0.168098156092732 
2272	 0.166367446909373 
2273	 0.164754896679598 
2274	 0.163073075034207 
2275	 0.161464751853838 
2276	 0.159761143005933 
2277	 0.157964242948721 
2278	 0.156206370648299 
2279	 0.1543816471627 
2280	 0.152605511312519 
2281	 0.150908979808948 
2282	 0.14913143575477 
2283	 0.14734129066294 
2284	 0.145565819329965 
2285	 0.143565597107304 
2286	 0.141601397157759 
2287	 0.139582578476578 
2288	 0.137498116914587 
2289	 0.135597899807063 
2290	 0.133610218216633 
2291	 0.131606501010111 
2292	 0.129627995049455 
2293	 0.12754756522449 
2294	 0.125570519129635 
2295	 0.123671476182578 
2296	 0.12188511619591 
2297	 0.120324737070955 
2298	 0.118888950515747 
2299	 0.117747981862015 
2300	 0.116858401223449 
2301	 0.116193574245432 
2302	 0.11578172880432 
2303	 0.115621122773762 
2304	 0.115702158555776 
2305	 0.116017767541996 
2306	 0.116637758904501 
2307	 0.117439817614006 
2308	 0.118481080165568 
2309	 0.119717232824119 
2310	 0.121250344564574 
2311	 0.122837656879363 
2312	 0.12474118535211 
2313	 0.126475993768553 
2314	 0.128316777298588 
2315	 0.1299905885299 
2316	 0.131579619879611 
2317	 0.133053195087083 
2318	 0.134509515009109 
2319	 0.135673563458176 
2320	 0.136679013866722 
2321	 0.137453638220843 
2322	 0.137910713874109 
2323	 0.138286593862249 
2324	 0.138512887903073 
2325	 0.138539548736841 
2326	 0.138372052734779 
2327	 0.138079322482678 
2328	 0.137532335914938 
2329	 0.136931917624038 
2330	 0.13625683224376 
2331	 0.135403915686393 
2332	 0.134402775057029 
2333	 0.13330004873386 
2334	 0.131973477762677 
2335	 0.130582572961594 
2336	 0.12913426694263 
2337	 0.127603810253777 
2338	 0.126150315340399 
2339	 0.12462512160606 
2340	 0.123132592938409 
2341	 0.121765511367052 
2342	 0.12045139951067 
2343	 0.119393079567903 
2344	 0.118578629702778 
2345	 0.118005198709948 
2346	 0.117775913698916 
2347	 0.117842277018744 
2348	 0.118119790429573 
2349	 0.11873228683938 
2350	 0.119588561421182 
2351	 0.120570859946119 
2352	 0.1216823956146 
2353	 0.122920005688668 
2354	 0.124093504156847 
2355	 0.125203723006436 
2356	 0.126235017164949 
2357	 0.127012740260846 
2358	 0.127740936619685 
2359	 0.128273178043556 
2360	 0.128592070627366 
2361	 0.128881244934617 
2362	 0.128989971571487 
2363	 0.128973968363251 
2364	 0.129032307320852 
2365	 0.129034226721417 
2366	 0.128947859516263 
2367	 0.12889432177152 
2368	 0.128766999290767 
2369	 0.128601914010928 
2370	 0.128493103745191 
2371	 0.128397428534178 
2372	 0.128362846987169 
2373	 0.128335138589062 
2374	 0.128257311099992 
2375	 0.128177726798249 
2376	 0.128087526620552 
2377	 0.1280234380407 
2378	 0.127982298346708 
2379	 0.127970196364055 
2380	 0.127942376266605 
2381	 0.12786731332797 
2382	 0.127818065353317 
2383	 0.127771951060636 
2384	 0.127712175332532 
2385	 0.127651804781729 
2386	 0.127633460914291 
2387	 0.127626556840886 
2388	 0.127613196153316 
2389	 0.127626455517459 
2390	 0.127614407633649 
2391	 0.127566317146339 
2392	 0.127560606026324 
2393	 0.127626077777384 
2394	 0.127534057851281 
2395	 0.127373921149648 
2396	 0.127257746670412 
2397	 0.127040441089414 
2398	 0.126974064622956 
2399	 0.127006453132627 
2400	 0.126949323284738 
2401	 0.126941377248541 
2402	 0.126785775851291 
2403	 0.126613006968023 
2404	 0.126457845256854 
2405	 0.126284495212092 
2406	 0.126140541144005 
2407	 0.126083040589647 
2408	 0.125994555148324 
2409	 0.12580062518513 
2410	 0.125565116018925 
2411	 0.125331336870389 
2412	 0.125096415728427 
2413	 0.124905446332414 
2414	 0.124790263905568 
2415	 0.124657462850195 
2416	 0.124420971140395 
2417	 0.124152928106692 
2418	 0.1239818970415 
2419	 0.123772561711397 
2420	 0.123557661814748 
2421	 0.123509189667161 
2422	 0.123286740635326 
2423	 0.122929384346553 
2424	 0.122606880439034 
2425	 0.122195467073076 
2426	 0.12194228416961 
2427	 0.121841892010704 
2428	 0.121710570403291 
2429	 0.121514122781468 
2430	 0.121169941583508 
2431	 0.120699486703397 
2432	 0.120278852319756 
2433	 0.119905333341605 
2434	 0.119532884727674 
2435	 0.119225220971534 
2436	 0.118849949487979 
2437	 0.118405715008377 
2438	 0.117923135718865 
2439	 0.117444878026456 
2440	 0.116979071866787 
2441	 0.11650909021731 
2442	 0.116207500517104 
2443	 0.115788678983841 
2444	 0.115329622905918 
2445	 0.114934422738141 
2446	 0.114211857379105 
2447	 0.113540469543235 
2448	 0.112952912533989 
2449	 0.112349433062466 
2450	 0.112006337356458 
2451	 0.111635140019921 
2452	 0.111082757737802 
2453	 0.110426627905714 
2454	 0.109817727074363 
2455	 0.109287273916732 
2456	 0.108691774126907 
2457	 0.108134245968812 
2458	 0.107542688675098 
2459	 0.106776327280031 
2460	 0.106152565378408 
2461	 0.105754786485985 
2462	 0.105271471801272 
2463	 0.104845960571536 
2464	 0.104489515372451 
2465	 0.104052221352668 
2466	 0.103624072958024 
2467	 0.103251898369318 
2468	 0.102920909044682 
2469	 0.10258882535586 
2470	 0.10230488563573 
2471	 0.101873590185122 
2472	 0.101379951767142 
2473	 0.101097518053976 
2474	 0.100951932649872 
2475	 0.100933850554854 
2476	 0.100857345242848 
2477	 0.100447053365659 
2478	 9.97880813840528E-02 
2479	 9.92507401168564E-02 
2480	 9.90546743751168E-02 
2481	 9.87598489453709E-02 
2482	 9.86699051585059E-02 
2483	 9.84164272869443E-02 
2484	 0.098299553418755 
2485	 9.84824844805904E-02 
2486	 9.84037430731301E-02 
2487	 9.82409728658741E-02 
2488	 9.82034327505058E-02 
2489	 9.80716875670817E-02 
2490	 9.77651776149207E-02 
2491	 9.76003298892547E-02 
2492	 9.76093852991231E-02 
2493	 9.75783228047781E-02 
2494	 9.78066349552179E-02 
2495	 9.81095136145268E-02 
2496	 9.80171451117067E-02 
2497	 9.78595650715482E-02 
2498	 9.78538467840453E-02 
2499	 9.78932821476334E-02 
2500	 9.80298143645666E-02 
