Wavelength	spectrum00009.asd
350	 0.163361297839422 
351	 0.158706034162609 
352	 0.153818469553692 
353	 0.150823499149493 
354	 0.150872610776663 
355	 0.148844530832968 
356	 0.145363657284241 
357	 0.142144766787207 
358	 0.139717107271 
359	 0.138753778639762 
360	 0.138089729653634 
361	 0.135945488341166 
362	 0.133552620920481 
363	 0.132434809901258 
364	 0.132416258170822 
365	 0.131134948922612 
366	 0.130786484950425 
367	 0.130579361857093 
368	 0.129496824938445 
369	 0.12790620588552 
370	 0.128222158784352 
371	 0.129096485760008 
372	 0.127519572840273 
373	 0.126463029183844 
374	 0.125965657505737 
375	 0.1258758051875 
376	 0.126285958944536 
377	 0.125280829245466 
378	 0.124005315354481 
379	 0.123740086925 
380	 0.123076926268015 
381	 0.123870280175154 
382	 0.124399762077242 
383	 0.121589334892622 
384	 0.121170336526293 
385	 0.121869049343639 
386	 0.121985940824565 
387	 0.120468022260749 
388	 0.120114705478342 
389	 0.120439579480344 
390	 0.120168643540539 
391	 0.118625365659978 
392	 0.118615614686897 
393	 0.119492238087159 
394	 0.11857699054224 
395	 0.117907912753901 
396	 0.117679971063201 
397	 0.117674229115703 
398	 0.117417037323549 
399	 0.117041730197283 
400	 0.116586348640012 
401	 0.11613288685075 
402	 0.116015467612321 
403	 0.115852158265188 
404	 0.115548004513775 
405	 0.115269078318402 
406	 0.115480014304458 
407	 0.115449976933983 
408	 0.114928062632455 
409	 0.11490460066642 
410	 0.114873235176817 
411	 0.114791955248198 
412	 0.114749151047946 
413	 0.114780399595201 
414	 0.114556069405501 
415	 0.114323996018784 
416	 0.114800707657386 
417	 0.115258957729268 
418	 0.115464002303337 
419	 0.115404644228125 
420	 0.115291606379962 
421	 0.115412317308465 
422	 0.115773347511202 
423	 0.116220962809332 
424	 0.116528219732152 
425	 0.11679000293485 
426	 0.117095354923545 
427	 0.117489211512346 
428	 0.117985633849428 
429	 0.118609343144046 
430	 0.11929825069763 
431	 0.119714320216087 
432	 0.120296731753769 
433	 0.121046765808068 
434	 0.121747343313789 
435	 0.122661097806704 
436	 0.123654204807049 
437	 0.124600132845899 
438	 0.125427142459813 
439	 0.126643173370017 
440	 0.12795351781686 
441	 0.129006182926871 
442	 0.130266461246833 
443	 0.131705795960218 
444	 0.13327806114027 
445	 0.134930903414177 
446	 0.136506374035772 
447	 0.138150209096726 
448	 0.140006470108189 
449	 0.142102851606859 
450	 0.144373796162754 
451	 0.1466960377493 
452	 0.14896906177343 
453	 0.151358058174578 
454	 0.15384009674571 
455	 0.156446066596665 
456	 0.159289835196335 
457	 0.162293912052479 
458	 0.165349657946271 
459	 0.168483381731503 
460	 0.172148198654316 
461	 0.17574858077077 
462	 0.179281733091754 
463	 0.183094322946329 
464	 0.187359222853161 
465	 0.191672041367688 
466	 0.195862200940526 
467	 0.200218830181589 
468	 0.204936067327864 
469	 0.209959921480026 
470	 0.215142267181381 
471	 0.220302404381328 
472	 0.225603084456965 
473	 0.231126877881431 
474	 0.236868427883006 
475	 0.242812138386076 
476	 0.248888746155108 
477	 0.255045523896903 
478	 0.261274249356812 
479	 0.267685567977926 
480	 0.274280048366349 
481	 0.281014382225032 
482	 0.287898739974766 
483	 0.294759445801169 
484	 0.301608169968087 
485	 0.308655984982871 
486	 0.315779034846681 
487	 0.322952444036568 
488	 0.330136430581252 
489	 0.33718583617809 
490	 0.344197815120414 
491	 0.351250882592589 
492	 0.358382682060602 
493	 0.365326038415594 
494	 0.37216775440662 
495	 0.378976980715615 
496	 0.385695635300238 
497	 0.392326298934502 
498	 0.398838015292909 
499	 0.405208983602205 
500	 0.411582297436033 
501	 0.417810939345908 
502	 0.423845482441504 
503	 0.429741573169504 
504	 0.43563864588943 
505	 0.441514139007253 
506	 0.447277608344398 
507	 0.452739601914121 
508	 0.458110126223135 
509	 0.463428947557603 
510	 0.468650565780335 
511	 0.47377482493688 
512	 0.478736477326537 
513	 0.483536485793768 
514	 0.488281246198848 
515	 0.493016689458946 
516	 0.497664071828497 
517	 0.502146421450637 
518	 0.506517382449801 
519	 0.510804206088935 
520	 0.515042920724541 
521	 0.519266711896615 
522	 0.523424790018458 
523	 0.527498971868516 
524	 0.531489866168673 
525	 0.535431962370862 
526	 0.539316377647859 
527	 0.543142695876537 
528	 0.546915494851163 
529	 0.550642711940681 
530	 0.554223113785814 
531	 0.557735499217735 
532	 0.561438014833332 
533	 0.565011393723395 
534	 0.568506334967589 
535	 0.571998653638404 
536	 0.575395367323401 
537	 0.57879130769534 
538	 0.582208922187702 
539	 0.585618610551604 
540	 0.588890793711662 
541	 0.59209516872732 
542	 0.59528441162164 
543	 0.59843618821529 
544	 0.601633860611662 
545	 0.604781322355897 
546	 0.607777714725404 
547	 0.610774201200011 
548	 0.61378075794154 
549	 0.616786873086899 
550	 0.619767098930342 
551	 0.622675637084066 
552	 0.62555098647564 
553	 0.628439540876687 
554	 0.631352112062715 
555	 0.634293253350137 
556	 0.63716872937109 
557	 0.639891331927245 
558	 0.642819384406786 
559	 0.64573548602093 
560	 0.648517387593919 
561	 0.651256241641131 
562	 0.653919724082964 
563	 0.656471617409291 
564	 0.658928836163804 
565	 0.661501674832855 
566	 0.664080380484519 
567	 0.666612840112294 
568	 0.669100307822234 
569	 0.671584383259443 
570	 0.674068196237458 
571	 0.676576447018699 
572	 0.67920440945018 
573	 0.681768216445506 
574	 0.684232646899368 
575	 0.686608801531172 
576	 0.688781766071552 
577	 0.69085245794956 
578	 0.692928532307835 
579	 0.695097520316304 
580	 0.697237253336126 
581	 0.699295898489635 
582	 0.70128486615202 
583	 0.703340641309442 
584	 0.705389306641637 
585	 0.707411868185981 
586	 0.709427304637 
587	 0.711439777729883 
588	 0.713472148381428 
589	 0.715507178862621 
590	 0.717461196777553 
591	 0.719388338998087 
592	 0.721282971623001 
593	 0.723111832287197 
594	 0.724816056818484 
595	 0.726444236392209 
596	 0.728028918213137 
597	 0.729583765204399 
598	 0.731239507651312 
599	 0.732855347937093 
600	 0.734326328905228 
601	 0.735726773089377 
602	 0.737212956790882 
603	 0.738788834855346 
604	 0.740364590355828 
605	 0.741812513143117 
606	 0.743187001923338 
607	 0.744528399404395 
608	 0.74583278833048 
609	 0.747153072880126 
610	 0.748457600713968 
611	 0.749699492957693 
612	 0.750827012924204 
613	 0.752051323941938 
614	 0.753325065433097 
615	 0.754446434600559 
616	 0.755486600195525 
617	 0.756547299506377 
618	 0.757667918571117 
619	 0.758780780064437 
620	 0.759777161428122 
621	 0.760790921262073 
622	 0.761950325897477 
623	 0.76292782033031 
624	 0.763841349785071 
625	 0.764757152021042 
626	 0.765674592834478 
627	 0.766593871649662 
628	 0.767506831756374 
629	 0.768402127405229 
630	 0.769260644306723 
631	 0.770118005479783 
632	 0.770950385628772 
633	 0.771742075776684 
634	 0.772746604224304 
635	 0.773650614827181 
636	 0.774371467772147 
637	 0.775166573070721 
638	 0.775882595837554 
639	 0.776656979073484 
640	 0.777561976321794 
641	 0.778238117722598 
642	 0.778880246955542 
643	 0.779630966683478 
644	 0.7805553793289 
645	 0.781357892059972 
646	 0.782012418130241 
647	 0.782598508723471 
648	 0.783305673680342 
649	 0.783970882793732 
650	 0.784622281763819 
651	 0.785320377291935 
652	 0.786016487172127 
653	 0.786680630209385 
654	 0.787277547552864 
655	 0.787785935281539 
656	 0.788443294441632 
657	 0.789128152281465 
658	 0.789729960869128 
659	 0.790275519785224 
660	 0.790948772594107 
661	 0.791660237351712 
662	 0.792259341401218 
663	 0.792913109143578 
664	 0.793565058526228 
665	 0.794163497781986 
666	 0.79468005246106 
667	 0.79522901252933 
668	 0.795846545377312 
669	 0.796493837937176 
670	 0.79698666680258 
671	 0.797486662461331 
672	 0.798062628927325 
673	 0.798703094956083 
674	 0.799167122011751 
675	 0.799657915796432 
676	 0.800246232269493 
677	 0.800798766558544 
678	 0.801475591792531 
679	 0.802092024398975 
680	 0.80249684542558 
681	 0.80286246023235 
682	 0.803312529399474 
683	 0.80382482482854 
684	 0.804305227772013 
685	 0.80484887653279 
686	 0.805374855528195 
687	 0.805863525728983 
688	 0.806404903058919 
689	 0.806988706214566 
690	 0.807460648359621 
691	 0.807769486892637 
692	 0.808351301879997 
693	 0.808864439835761 
694	 0.809260725377209 
695	 0.809685423847193 
696	 0.810173602016587 
697	 0.810579751488073 
698	 0.810919501005845 
699	 0.811495437883809 
700	 0.812066759366903 
701	 0.812548786010316 
702	 0.812928883912577 
703	 0.813261933491096 
704	 0.813706655668068 
705	 0.81417862495434 
706	 0.814455025727377 
707	 0.814737281375421 
708	 0.815187748745162 
709	 0.815818150562103 
710	 0.816422942669557 
711	 0.816764890897164 
712	 0.816992268037882 
713	 0.817339498863034 
714	 0.81785228364425 
715	 0.818177310340434 
716	 0.818366791366436 
717	 0.818751073761222 
718	 0.819213973857121 
719	 0.819706366536377 
720	 0.82017068613342 
721	 0.820526985039189 
722	 0.820790214868214 
723	 0.821087025793386 
724	 0.821485606407306 
725	 0.821688417472748 
726	 0.821828591697943 
727	 0.822148973534758 
728	 0.822868355228299 
729	 0.823257200546675 
730	 0.823512070477064 
731	 0.823819773415255 
732	 0.824132309554824 
733	 0.8244386127429 
734	 0.82467308039819 
735	 0.82484299843014 
736	 0.825271550377468 
737	 0.825743419780184 
738	 0.82610138312074 
739	 0.826278417740236 
740	 0.826559918557023 
741	 0.826885556336575 
742	 0.827158305010573 
743	 0.827294559672758 
744	 0.827565023813399 
745	 0.827817464708336 
746	 0.827927093648466 
747	 0.828277366640437 
748	 0.828554891096056 
749	 0.828786067303748 
750	 0.829173662477848 
751	 0.829637389849827 
752	 0.829961429591105 
753	 0.830084347609447 
754	 0.83016031977579 
755	 0.830385927476433 
756	 0.830680264062194 
757	 0.830930100492917 
758	 0.831162273267736 
759	 0.831287542461813 
760	 0.831438950898674 
761	 0.831790482335364 
762	 0.832057364809447 
763	 0.832325813226049 
764	 0.832582947496054 
765	 0.832698451019558 
766	 0.832959450108768 
767	 0.833187015759627 
768	 0.833264354180891 
769	 0.833419802523679 
770	 0.833659953118725 
771	 0.833926730020468 
772	 0.834152042680009 
773	 0.83440022760245 
774	 0.834604166294372 
775	 0.834736799098831 
776	 0.834814995511147 
777	 0.834876297166173 
778	 0.835070434283984 
779	 0.835377385948899 
780	 0.835471312040161 
781	 0.835724039069704 
782	 0.83598374043039 
783	 0.836072799828646 
784	 0.836267564415272 
785	 0.836466218847373 
786	 0.836631831442933 
787	 0.836769453739515 
788	 0.836882479462163 
789	 0.837084537575869 
790	 0.837316436531625 
791	 0.837328923567175 
792	 0.83759700187611 
793	 0.837898747477559 
794	 0.838021789630997 
795	 0.838138919270284 
796	 0.838217010600072 
797	 0.838334159712987 
798	 0.838532178071339 
799	 0.838489528092679 
800	 0.838583070211173 
801	 0.838849801032932 
802	 0.839047421346142 
803	 0.8391984728067 
804	 0.83936584620886 
805	 0.839528643483747 
806	 0.839531788960709 
807	 0.839720816593492 
808	 0.840015660500684 
809	 0.840249828204681 
810	 0.8403474680374 
811	 0.840471617609976 
812	 0.840637739807152 
813	 0.840796141254969 
814	 0.840956574141522 
815	 0.841159319545283 
816	 0.841316109455078 
817	 0.841268990948801 
818	 0.841437108714881 
819	 0.841680054860617 
820	 0.841856600651035 
821	 0.841975638717776 
822	 0.842058369347907 
823	 0.842119229415558 
824	 0.842190588200148 
825	 0.842368053233297 
826	 0.842547830951052 
827	 0.842690451418844 
828	 0.842790803172785 
829	 0.842822033697627 
830	 0.842999578871874 
831	 0.843284615262522 
832	 0.843429902890451 
833	 0.843622617480854 
834	 0.843762718382048 
835	 0.843804768660454 
836	 0.843845838285986 
837	 0.843961043990784 
838	 0.844068701148629 
839	 0.844112706076911 
840	 0.844228664643372 
841	 0.844372548350196 
842	 0.844559696140325 
843	 0.844794317285376 
844	 0.844935892008255 
845	 0.844999356986074 
846	 0.845085519728727 
847	 0.845317400269352 
848	 0.845497648094121 
849	 0.845673269640117 
850	 0.845835532206642 
851	 0.845884409924586 
852	 0.846131230148126 
853	 0.846340059615534 
854	 0.846381635092698 
855	 0.84660247498824 
856	 0.846751683898077 
857	 0.846754088203147 
858	 0.846669986240753 
859	 0.846808017806592 
860	 0.847036056398622 
861	 0.84724047766017 
862	 0.847353772505777 
863	 0.84750203483238 
864	 0.847657149010884 
865	 0.847808550705341 
866	 0.847970980852476 
867	 0.848172791106967 
868	 0.848335275901707 
869	 0.848443980217326 
870	 0.848587070099146 
871	 0.848640977781902 
872	 0.848665840245769 
873	 0.84872503072203 
874	 0.848796222938847 
875	 0.848876346816286 
876	 0.848998371004029 
877	 0.849174284192565 
878	 0.849306264355283 
879	 0.849447297043938 
880	 0.84957029201013 
881	 0.849647732876857 
882	 0.849865754999787 
883	 0.850073587932376 
884	 0.850206340584889 
885	 0.850295879173386 
886	 0.85044078881702 
887	 0.850590106527672 
888	 0.850682216054591 
889	 0.850678920350024 
890	 0.85074330808272 
891	 0.850823881419049 
892	 0.850879888666811 
893	 0.850957571783665 
894	 0.85118644228222 
895	 0.851368592088097 
896	 0.851387054690655 
897	 0.851557755020059 
898	 0.851669509321265 
899	 0.851777767956017 
900	 0.851967792724879 
901	 0.852090562829663 
902	 0.852208832834222 
903	 0.852284007503392 
904	 0.852262355610401 
905	 0.852266724769034 
906	 0.852407931667387 
907	 0.852622456011866 
908	 0.852740333668562 
909	 0.852798670909669 
910	 0.852938598810927 
911	 0.853173614149511 
912	 0.853375113501948 
913	 0.853459241325122 
914	 0.853563992764982 
915	 0.853755143290568 
916	 0.853951196849179 
917	 0.854205192768542 
918	 0.854415860317305 
919	 0.854542813953521 
920	 0.854709039479308 
921	 0.854864209745773 
922	 0.854966965850018 
923	 0.85502330297398 
924	 0.855149776859812 
925	 0.855267105979057 
926	 0.855442425517083 
927	 0.855722528181014 
928	 0.855947982609488 
929	 0.856060099664498 
930	 0.856158736924598 
931	 0.856349857608662 
932	 0.856430807124276 
933	 0.856623740540822 
934	 0.856905260928351 
935	 0.85712776722021 
936	 0.85731544637331 
937	 0.857465666630225 
938	 0.857609454650649 
939	 0.857780750409389 
940	 0.857873697129754 
941	 0.8579848735082 
942	 0.858147907148377 
943	 0.858325412954265 
944	 0.858518282783248 
945	 0.858668306744508 
946	 0.858784789458332 
947	 0.858939452089222 
948	 0.859013060842714 
949	 0.85907869982175 
950	 0.859181591601845 
951	 0.859299351857214 
952	 0.859543876978083 
953	 0.859690081166626 
954	 0.859645863118445 
955	 0.859600597005931 
956	 0.859560770121836 
957	 0.859694626498463 
958	 0.85998209602862 
959	 0.860060785558175 
960	 0.860168901642213 
961	 0.860252646899295 
962	 0.86028170505079 
963	 0.860395771650882 
964	 0.860502457027978 
965	 0.860639104542971 
966	 0.860816850260453 
967	 0.860921061502695 
968	 0.860986316372931 
969	 0.861066660430002 
970	 0.861183469487678 
971	 0.861263179083173 
972	 0.86128996703812 
973	 0.861337951623015 
974	 0.861438467305267 
975	 0.861413519396885 
976	 0.861538323264796 
977	 0.861716219259177 
978	 0.86182980345021 
979	 0.86210398157648 
980	 0.862250971207403 
981	 0.862247479234389 
982	 0.862223827650374 
983	 0.862462465616716 
984	 0.862651966250717 
985	 0.862807636599642 
986	 0.86297167036503 
987	 0.862857198090891 
988	 0.862820804391884 
989	 0.862949378868526 
990	 0.863162386234782 
991	 0.863224428410408 
992	 0.863259699175458 
993	 0.863371370093698 
994	 0.863591204676636 
995	 0.863760347200831 
996	 0.863888022239361 
997	 0.86387311133818 
998	 0.863755854134747 
999	 0.864147205307464 
1000	 0.864251504727064 
1001	 0.864471903831242 
1002	 0.864531859901499 
1003	 0.86462363230411 
1004	 0.864720353843991 
1005	 0.86480626196668 
1006	 0.864919492184735 
1007	 0.865078151792513 
1008	 0.865183428687826 
1009	 0.865282916243857 
1010	 0.865358497195794 
1011	 0.865370781078934 
1012	 0.865443379811451 
1013	 0.865546232671606 
1014	 0.86562319500277 
1015	 0.865691634295154 
1016	 0.865809624643289 
1017	 0.865910323724926 
1018	 0.865994252239928 
1019	 0.866143112523337 
1020	 0.866284343930571 
1021	 0.866394776010442 
1022	 0.866461149836873 
1023	 0.866592498403543 
1024	 0.866752574257048 
1025	 0.866876642683845 
1026	 0.867022626112926 
1027	 0.867152675031961 
1028	 0.86726262671584 
1029	 0.86734278555694 
1030	 0.867429477974802 
1031	 0.867511135946375 
1032	 0.86758055135476 
1033	 0.867659211701645 
1034	 0.867732958112495 
1035	 0.867840881460651 
1036	 0.867927072069344 
1037	 0.867969916074595 
1038	 0.868062425875929 
1039	 0.868196431677581 
1040	 0.868284205178003 
1041	 0.868384177561936 
1042	 0.868475315904131 
1043	 0.86853263087973 
1044	 0.868596575013683 
1045	 0.868698383145584 
1046	 0.868780977645264 
1047	 0.868881365452508 
1048	 0.868989511620161 
1049	 0.86908222381367 
1050	 0.869166538730998 
1051	 0.869276836421951 
1052	 0.869392278117951 
1053	 0.869508399921431 
1054	 0.869641564338726 
1055	 0.869779126339953 
1056	 0.869914498532291 
1057	 0.870043808251046 
1058	 0.870178126372266 
1059	 0.87034581440529 
1060	 0.870448505352146 
1061	 0.870511529868187 
1062	 0.870574283623498 
1063	 0.870570875428087 
1064	 0.87060952273031 
1065	 0.87070859860959 
1066	 0.87080411072475 
1067	 0.870915336052257 
1068	 0.871032894051659 
1069	 0.871164728670364 
1070	 0.871274506881294 
1071	 0.871382191066582 
1072	 0.871494530029004 
1073	 0.871597831076741 
1074	 0.871663044529578 
1075	 0.871742256799999 
1076	 0.871827094548755 
1077	 0.871919090628632 
1078	 0.872021124962194 
1079	 0.872124519759163 
1080	 0.872242732890512 
1081	 0.872335595009882 
1082	 0.872400334437776 
1083	 0.872500621594886 
1084	 0.872612000485306 
1085	 0.872719768667688 
1086	 0.87281639080482 
1087	 0.872926781107997 
1088	 0.872986213391902 
1089	 0.873028378565957 
1090	 0.873069248248426 
1091	 0.873121375303213 
1092	 0.87321836039298 
1093	 0.873321914440392 
1094	 0.873414647081659 
1095	 0.873491269269127 
1096	 0.873559720307 
1097	 0.8736320435707 
1098	 0.873730171209132 
1099	 0.873839886484215 
1100	 0.873915173288017 
1101	 0.873972640533058 
1102	 0.874031849208161 
1103	 0.874087056297851 
1104	 0.87413561037008 
1105	 0.874181530843108 
1106	 0.874211938174146 
1107	 0.874253451383253 
1108	 0.874295230701637 
1109	 0.874329335511318 
1110	 0.874384882455919 
1111	 0.874411292407635 
1112	 0.874416201967225 
1113	 0.874446980470355 
1114	 0.874461068015589 
1115	 0.874461576030693 
1116	 0.874475617626897 
1117	 0.87446940905688 
1118	 0.874469054498796 
1119	 0.874493818970566 
1120	 0.874491144949829 
1121	 0.874478919599414 
1122	 0.874440572196897 
1123	 0.874392288109203 
1124	 0.874324186618582 
1125	 0.874241579920395 
1126	 0.87417266585478 
1127	 0.874091397578542 
1128	 0.873983487172079 
1129	 0.873884935131404 
1130	 0.873761287511973 
1131	 0.873631215079691 
1132	 0.873507232260605 
1133	 0.873348767152229 
1134	 0.87321556163503 
1135	 0.873067581620952 
1136	 0.87291331704812 
1137	 0.872742384164542 
1138	 0.872566868194254 
1139	 0.872372997958208 
1140	 0.872153462156809 
1141	 0.871956479375038 
1142	 0.871741921484824 
1143	 0.871497151486224 
1144	 0.871261110208628 
1145	 0.871010557252001 
1146	 0.87075184082881 
1147	 0.8704962586416 
1148	 0.870232542825426 
1149	 0.869974442495743 
1150	 0.869706657214211 
1151	 0.869432980139614 
1152	 0.869135274433066 
1153	 0.868810588263937 
1154	 0.868483787423585 
1155	 0.868152277139852 
1156	 0.867793540684057 
1157	 0.867407985209919 
1158	 0.867035573890959 
1159	 0.86664611581355 
1160	 0.866264773969756 
1161	 0.865886462784815 
1162	 0.865494325899704 
1163	 0.865098083138384 
1164	 0.864684233872639 
1165	 0.864277595619483 
1166	 0.863902586994629 
1167	 0.863537686730587 
1168	 0.8631938833595 
1169	 0.862856606960919 
1170	 0.862533448595939 
1171	 0.862223230860066 
1172	 0.86191862836686 
1173	 0.861633688075003 
1174	 0.861376603926451 
1175	 0.861120050968572 
1176	 0.860890351081794 
1177	 0.860635776217786 
1178	 0.860368846338359 
1179	 0.860096970991886 
1180	 0.859862113271452 
1181	 0.859639526655835 
1182	 0.859435140449086 
1183	 0.859277605622704 
1184	 0.859128870468254 
1185	 0.858993937962358 
1186	 0.858904193249776 
1187	 0.858863278247662 
1188	 0.858837838687497 
1189	 0.858842038809211 
1190	 0.858853846630097 
1191	 0.858902927338001 
1192	 0.858936388347219 
1193	 0.858956488520855 
1194	 0.859015458040726 
1195	 0.859090614497458 
1196	 0.859178434634047 
1197	 0.859299258650839 
1198	 0.859421160570343 
1199	 0.859534185004803 
1200	 0.859645372344111 
1201	 0.85978243887104 
1202	 0.859933284478568 
1203	 0.860072919860693 
1204	 0.860229334754076 
1205	 0.860392211074634 
1206	 0.860539068836152 
1207	 0.860725762408816 
1208	 0.860944791802127 
1209	 0.861165082553734 
1210	 0.861395227432257 
1211	 0.861645873239702 
1212	 0.86190997518792 
1213	 0.862192255295447 
1214	 0.862494472159576 
1215	 0.862813963578202 
1216	 0.863160291522124 
1217	 0.863501818556714 
1218	 0.863856983558204 
1219	 0.864213745719562 
1220	 0.864581443186421 
1221	 0.86494428090676 
1222	 0.865285138417084 
1223	 0.865650082160787 
1224	 0.86599187276393 
1225	 0.866317741053847 
1226	 0.866632007869354 
1227	 0.866939766790578 
1228	 0.867236976826882 
1229	 0.867518707696355 
1230	 0.867793473039718 
1231	 0.868056556556965 
1232	 0.868327246824891 
1233	 0.86859259363549 
1234	 0.86884836280926 
1235	 0.86910442595683 
1236	 0.869358696191529 
1237	 0.869619427666881 
1238	 0.869847732682238 
1239	 0.870069831816296 
1240	 0.870273089423631 
1241	 0.870448601555842 
1242	 0.87059376026893 
1243	 0.870750017907671 
1244	 0.870903130484937 
1245	 0.87105350554422 
1246	 0.871201162520906 
1247	 0.871336679535963 
1248	 0.871470527314634 
1249	 0.871588961516326 
1250	 0.871693074562574 
1251	 0.871789537445606 
1252	 0.871875487819724 
1253	 0.871957528737944 
1254	 0.872032850592437 
1255	 0.872096097984705 
1256	 0.87217138656461 
1257	 0.872202773986558 
1258	 0.872188104506786 
1259	 0.872188351525387 
1260	 0.872151322588082 
1261	 0.872139687740119 
1262	 0.872150155418577 
1263	 0.872163326505478 
1264	 0.872174323384224 
1265	 0.872186109540615 
1266	 0.872211384364557 
1267	 0.872244212551663 
1268	 0.872273243502924 
1269	 0.872320468322488 
1270	 0.872342153198767 
1271	 0.872351016012247 
1272	 0.872355248766672 
1273	 0.872341530851349 
1274	 0.872341472410732 
1275	 0.872340706586207 
1276	 0.872341279108171 
1277	 0.872331459793023 
1278	 0.872351910297373 
1279	 0.872397797143577 
1280	 0.872428570626368 
1281	 0.872486753495678 
1282	 0.872520806997216 
1283	 0.872520336446917 
1284	 0.872532055970324 
1285	 0.872544642037649 
1286	 0.872550859555352 
1287	 0.872579819389248 
1288	 0.872621114558715 
1289	 0.872658881107425 
1290	 0.872707463029341 
1291	 0.872753511367536 
1292	 0.872789065492837 
1293	 0.872847256139458 
1294	 0.872930444709735 
1295	 0.872989716607787 
1296	 0.873054240782172 
1297	 0.87310490141632 
1298	 0.873149590254405 
1299	 0.87317047294682 
1300	 0.873175608151818 
1301	 0.873176945732078 
1302	 0.873153208919667 
1303	 0.873132992536522 
1304	 0.873120558273917 
1305	 0.873093693253718 
1306	 0.873036782147316 
1307	 0.873004067445352 
1308	 0.872967647715158 
1309	 0.872950770379192 
1310	 0.872942846826424 
1311	 0.872971583132593 
1312	 0.872942024106602 
1313	 0.872900524223404 
1314	 0.87284750610931 
1315	 0.872765773662226 
1316	 0.872682197627517 
1317	 0.872595146226799 
1318	 0.872500663006285 
1319	 0.872380035497754 
1320	 0.872279071098026 
1321	 0.872196070872774 
1322	 0.872091452040514 
1323	 0.8719789834612 
1324	 0.871866417798509 
1325	 0.871744380428843 
1326	 0.871620393607667 
1327	 0.871503562308793 
1328	 0.871372909212718 
1329	 0.871246121829066 
1330	 0.87108851566057 
1331	 0.870931736425568 
1332	 0.870730932027387 
1333	 0.870487563499549 
1334	 0.8702228157058 
1335	 0.869961686302533 
1336	 0.86967541215814 
1337	 0.869393395327847 
1338	 0.869119592499441 
1339	 0.868821753675058 
1340	 0.868507556312483 
1341	 0.868183272826376 
1342	 0.86784503214451 
1343	 0.867505216721744 
1344	 0.867161390118519 
1345	 0.866795043244047 
1346	 0.866418784719914 
1347	 0.866033364492498 
1348	 0.865628507323837 
1349	 0.865217123353585 
1350	 0.864790789290613 
1351	 0.86437237968318 
1352	 0.863936823670185 
1353	 0.863516411221528 
1354	 0.863099981268691 
1355	 0.862702668378863 
1356	 0.862314777618958 
1357	 0.861935242689429 
1358	 0.861574107864573 
1359	 0.861217142587965 
1360	 0.860867226884117 
1361	 0.860528281334072 
1362	 0.860166345720747 
1363	 0.859809562903521 
1364	 0.859439658602158 
1365	 0.859046029257689 
1366	 0.858675202608673 
1367	 0.858317458578487 
1368	 0.857942887614811 
1369	 0.857567505142626 
1370	 0.857187361065076 
1371	 0.856798797688226 
1372	 0.856410240559334 
1373	 0.856031533065628 
1374	 0.855625292751264 
1375	 0.85521936861315 
1376	 0.854765853416356 
1377	 0.854291068469649 
1378	 0.853772343190897 
1379	 0.853220500458437 
1380	 0.852625541707249 
1381	 0.851986962976967 
1382	 0.851319266124676 
1383	 0.850608219465603 
1384	 0.84987162243391 
1385	 0.849129228141414 
1386	 0.848325819007188 
1387	 0.847464569189012 
1388	 0.84659723863769 
1389	 0.845678196698494 
1390	 0.844756692908726 
1391	 0.843852395607647 
1392	 0.842880186760588 
1393	 0.84192054374332 
1394	 0.84093514209885 
1395	 0.839934601876316 
1396	 0.838923314841889 
1397	 0.837889198802646 
1398	 0.836851296550203 
1399	 0.835745618386757 
1400	 0.834616899051813 
1401	 0.83341583964744 
1402	 0.832147799013407 
1403	 0.830845571590529 
1404	 0.829473356136004 
1405	 0.828126028828813 
1406	 0.826748783190834 
1407	 0.825372694384999 
1408	 0.823973885584068 
1409	 0.822610052733583 
1410	 0.821213268826744 
1411	 0.819895673407844 
1412	 0.818592300575392 
1413	 0.817404421774088 
1414	 0.816283087840049 
1415	 0.815234039401089 
1416	 0.814302448570282 
1417	 0.813382652410414 
1418	 0.812532927119981 
1419	 0.811679140255868 
1420	 0.810853682343671 
1421	 0.810047067648951 
1422	 0.809249064642454 
1423	 0.808471214432948 
1424	 0.807718553715326 
1425	 0.806967632456591 
1426	 0.806285889075263 
1427	 0.805618662911949 
1428	 0.804990117237938 
1429	 0.804428297879585 
1430	 0.803858135471327 
1431	 0.803298869943253 
1432	 0.802769463825093 
1433	 0.802256395149828 
1434	 0.801786202806108 
1435	 0.801346499364212 
1436	 0.800928632342471 
1437	 0.800551705222628 
1438	 0.800183115952719 
1439	 0.799832449442512 
1440	 0.7994973970196 
1441	 0.799181149248422 
1442	 0.79888109454505 
1443	 0.798603507922452 
1444	 0.798323417189038 
1445	 0.79806131952365 
1446	 0.797799266979199 
1447	 0.797527202025501 
1448	 0.797279645356068 
1449	 0.797044781609626 
1450	 0.796823952982247 
1451	 0.796620847822327 
1452	 0.796425667731194 
1453	 0.79625956617246 
1454	 0.796073134819299 
1455	 0.795890784871555 
1456	 0.795696811696387 
1457	 0.795466980544415 
1458	 0.795269659006203 
1459	 0.795086820998477 
1460	 0.794904023114367 
1461	 0.794731779740076 
1462	 0.794574146975403 
1463	 0.794422242132258 
1464	 0.794275959061155 
1465	 0.794156279488833 
1466	 0.79402171596868 
1467	 0.793895538968146 
1468	 0.793777783609965 
1469	 0.793648709693896 
1470	 0.793539481299042 
1471	 0.793416619763643 
1472	 0.793287854276529 
1473	 0.793152703384591 
1474	 0.793029753246284 
1475	 0.792858987871342 
1476	 0.792667461070014 
1477	 0.792454390494504 
1478	 0.792211087328385 
1479	 0.791951683615404 
1480	 0.791667568766657 
1481	 0.791384222951956 
1482	 0.791072119155926 
1483	 0.790779365191957 
1484	 0.790508170815366 
1485	 0.790194592239056 
1486	 0.789864540879546 
1487	 0.789532450994679 
1488	 0.789154955935152 
1489	 0.788825002454207 
1490	 0.788501594447697 
1491	 0.788212440486208 
1492	 0.787945165105601 
1493	 0.787708275342524 
1494	 0.787492173912744 
1495	 0.787321356642874 
1496	 0.787179523373864 
1497	 0.787082877483319 
1498	 0.78704498808599 
1499	 0.787016213639269 
1500	 0.7870096218551 
1501	 0.787043223521843 
1502	 0.787116789685086 
1503	 0.787198281481833 
1504	 0.787329472506259 
1505	 0.787446940321617 
1506	 0.7875520263897 
1507	 0.787683784568419 
1508	 0.787829187398221 
1509	 0.787987119098094 
1510	 0.78815325965838 
1511	 0.788348464030372 
1512	 0.78856362474638 
1513	 0.788794229368355 
1514	 0.789070091703562 
1515	 0.789333154321166 
1516	 0.789593471808355 
1517	 0.78986500921748 
1518	 0.790134107809021 
1519	 0.790415210861167 
1520	 0.790705441638026 
1521	 0.791010970780528 
1522	 0.791317792938636 
1523	 0.791662461335023 
1524	 0.791996160961487 
1525	 0.79233716402787 
1526	 0.792701390721504 
1527	 0.79307259131725 
1528	 0.793459392736087 
1529	 0.793872054700823 
1530	 0.794286208458341 
1531	 0.79470986406078 
1532	 0.79512948941712 
1533	 0.795551587291678 
1534	 0.796000993246776 
1535	 0.796451542283562 
1536	 0.796922696572018 
1537	 0.79744114851825 
1538	 0.797913578965905 
1539	 0.798384864564288 
1540	 0.798823388581523 
1541	 0.799246297995363 
1542	 0.799633969629373 
1543	 0.79999892572664 
1544	 0.800324132783341 
1545	 0.800621071004674 
1546	 0.800873197835869 
1547	 0.801079406118696 
1548	 0.801266348169587 
1549	 0.801410162631609 
1550	 0.801545375858492 
1551	 0.80166189008227 
1552	 0.801755170212383 
1553	 0.801814780982005 
1554	 0.801881645972639 
1555	 0.801925154875885 
1556	 0.801984223063875 
1557	 0.802035992007165 
1558	 0.802116649826397 
1559	 0.802213905098865 
1560	 0.802312712084188 
1561	 0.802431108291095 
1562	 0.802550031402662 
1563	 0.802659631814693 
1564	 0.802795426271969 
1565	 0.80294919408034 
1566	 0.803113683042493 
1567	 0.803292251686854 
1568	 0.803483146331547 
1569	 0.803684059511492 
1570	 0.803903870243786 
1571	 0.804165459184321 
1572	 0.804386917136464 
1573	 0.804614878487499 
1574	 0.804815628630901 
1575	 0.804967392932266 
1576	 0.805146414380212 
1577	 0.805322175221785 
1578	 0.805510097060269 
1579	 0.805706759292633 
1580	 0.805911626247337 
1581	 0.806122029994314 
1582	 0.806344597130844 
1583	 0.806595114239759 
1584	 0.806821120818748 
1585	 0.807038963576722 
1586	 0.807264290263095 
1587	 0.807477482709293 
1588	 0.807697524588888 
1589	 0.807944138696334 
1590	 0.808161167577813 
1591	 0.808342367545412 
1592	 0.808556330978619 
1593	 0.80876251892574 
1594	 0.808994351538251 
1595	 0.809269273560881 
1596	 0.809526733327192 
1597	 0.809783298217483 
1598	 0.81004462148487 
1599	 0.810302447891721 
1600	 0.810569277897879 
1601	 0.810847536804721 
1602	 0.811124775346956 
1603	 0.811406311475228 
1604	 0.811684704270344 
1605	 0.811959171712527 
1606	 0.812240187443825 
1607	 0.812523223494188 
1608	 0.812811165244644 
1609	 0.813130538863697 
1610	 0.813404914114855 
1611	 0.813663315850552 
1612	 0.813902574106797 
1613	 0.814098843385778 
1614	 0.81430138497657 
1615	 0.814487408900972 
1616	 0.814687343142361 
1617	 0.814893342418227 
1618	 0.815091760743227 
1619	 0.815309590108767 
1620	 0.81549633877978 
1621	 0.815664753680253 
1622	 0.815818160045818 
1623	 0.815939016085682 
1624	 0.816073939710185 
1625	 0.816187695437017 
1626	 0.816327753267753 
1627	 0.816489270557933 
1628	 0.816647277346346 
1629	 0.8168398694603 
1630	 0.816993665102839 
1631	 0.817127295807855 
1632	 0.817255624329779 
1633	 0.817359053907793 
1634	 0.817458174857776 
1635	 0.817561343101334 
1636	 0.817642688109967 
1637	 0.817701598310787 
1638	 0.817758609219697 
1639	 0.817800005515643 
1640	 0.817841658340708 
1641	 0.817870020715055 
1642	 0.817913646054363 
1643	 0.817973887142681 
1644	 0.818011664173067 
1645	 0.818069439929053 
1646	 0.818082966064859 
1647	 0.81806778974792 
1648	 0.818025017070537 
1649	 0.817948083739607 
1650	 0.817849180443818 
1651	 0.817719898960159 
1652	 0.817575675777764 
1653	 0.817421162231801 
1654	 0.817226743633833 
1655	 0.817000632699848 
1656	 0.816750670819939 
1657	 0.816478651758253 
1658	 0.816156612120702 
1659	 0.815804127701075 
1660	 0.815414639380161 
1661	 0.815003335358199 
1662	 0.814505259708053 
1663	 0.813954244687814 
1664	 0.813333796450397 
1665	 0.812615882865594 
1666	 0.811858931341215 
1667	 0.811071854620355 
1668	 0.810210570482307 
1669	 0.809280124324267 
1670	 0.808293585295987 
1671	 0.807234877261454 
1672	 0.806114298277172 
1673	 0.804939382445631 
1674	 0.80369164742385 
1675	 0.80235051346363 
1676	 0.801022565195993 
1677	 0.799632732648612 
1678	 0.798254611522446 
1679	 0.796835970170409 
1680	 0.795472680518692 
1681	 0.794100575537645 
1682	 0.792791832511086 
1683	 0.791527948311413 
1684	 0.790344655564622 
1685	 0.789198986202715 
1686	 0.788141903964186 
1687	 0.787164670596077 
1688	 0.786255478918369 
1689	 0.785432006936446 
1690	 0.78463583987559 
1691	 0.783915778331602 
1692	 0.783245884889651 
1693	 0.782615985103899 
1694	 0.782034751760468 
1695	 0.781542156656363 
1696	 0.781008635170594 
1697	 0.780506548287756 
1698	 0.779964536790499 
1699	 0.779417453879979 
1700	 0.778846977822155 
1701	 0.778266180598905 
1702	 0.77764327414648 
1703	 0.776966144070857 
1704	 0.776314334091212 
1705	 0.775622992989623 
1706	 0.774982084002224 
1707	 0.774418704344074 
1708	 0.773809168432128 
1709	 0.773181762584403 
1710	 0.772501526786569 
1711	 0.771732395706154 
1712	 0.770974060266485 
1713	 0.770148725274376 
1714	 0.769243967437101 
1715	 0.768342908782476 
1716	 0.767354677236418 
1717	 0.76634266441752 
1718	 0.765347282616176 
1719	 0.764320947609542 
1720	 0.763328312262132 
1721	 0.762349563339394 
1722	 0.761435281589743 
1723	 0.760665673823462 
1724	 0.760002624814837 
1725	 0.759483009498575 
1726	 0.759105024353422 
1727	 0.75885773980376 
1728	 0.758773035626174 
1729	 0.758826250508767 
1730	 0.75903185748076 
1731	 0.759307253783372 
1732	 0.759641342755979 
1733	 0.76006057524376 
1734	 0.76053317894449 
1735	 0.761054830742605 
1736	 0.761619648326002 
1737	 0.762169121358703 
1738	 0.762672946037766 
1739	 0.763131536730737 
1740	 0.763523829043406 
1741	 0.763915698806626 
1742	 0.764302600901367 
1743	 0.764652360032314 
1744	 0.764976195735898 
1745	 0.765280528269798 
1746	 0.765527266897641 
1747	 0.765796271176793 
1748	 0.76605741277469 
1749	 0.766325696998465 
1750	 0.766631519935891 
1751	 0.766866424192927 
1752	 0.767073708953486 
1753	 0.767269311830453 
1754	 0.767394370481627 
1755	 0.767573024401617 
1756	 0.767754410592723 
1757	 0.767986237109169 
1758	 0.768230263672221 
1759	 0.768506111841549 
1760	 0.768825709406722 
1761	 0.769163340190705 
1762	 0.769554862514339 
1763	 0.769972836896874 
1764	 0.770405121608185 
1765	 0.770919961572403 
1766	 0.771477453188425 
1767	 0.771993237335169 
1768	 0.772554220972914 
1769	 0.773115335292553 
1770	 0.773616516693808 
1771	 0.77420013467205 
1772	 0.774748161964817 
1773	 0.775215075299784 
1774	 0.775687538634893 
1775	 0.776065163012545 
1776	 0.776417300919615 
1777	 0.776785249050326 
1778	 0.777063135240867 
1779	 0.777293858612048 
1780	 0.777508669944243 
1781	 0.77766131340693 
1782	 0.777776058883922 
1783	 0.777887331050194 
1784	 0.778004269594506 
1785	 0.778082840780664 
1786	 0.778178166274032 
1787	 0.778297173954844 
1788	 0.778403386450191 
1789	 0.778506502642905 
1790	 0.778602741768911 
1791	 0.77869589760347 
1792	 0.778764981732992 
1793	 0.778796619358067 
1794	 0.778868827219663 
1795	 0.778963575031941 
1796	 0.779064275082046 
1797	 0.779201842055152 
1798	 0.779297043912308 
1799	 0.779374986802032 
1800	 0.779487556100861 
1801	 0.77974293772206 
1802	 0.779863975804599 
1803	 0.780002441478257 
1804	 0.780157116281895 
1805	 0.780291676565616 
1806	 0.780407964745837 
1807	 0.780521942381378 
1808	 0.780639767564731 
1809	 0.780705754565488 
1810	 0.780834138410367 
1811	 0.78101713328936 
1812	 0.781175747666155 
1813	 0.781339065138257 
1814	 0.78151788259412 
1815	 0.781670130998865 
1816	 0.781832184010869 
1817	 0.782007615447814 
1818	 0.782210208650792 
1819	 0.782371429244774 
1820	 0.782528749838522 
1821	 0.782683232979962 
1822	 0.782812530755602 
1823	 0.782938181605429 
1824	 0.78309418545249 
1825	 0.783245606806178 
1826	 0.783386786292158 
1827	 0.783506088547921 
1828	 0.783664604700587 
1829	 0.783829988059041 
1830	 0.784003546209855 
1831	 0.784202703186026 
1832	 0.784413623725666 
1833	 0.784573049925075 
1834	 0.784718975699965 
1835	 0.784885400250173 
1836	 0.785034876452785 
1837	 0.785203033265987 
1838	 0.785412608823704 
1839	 0.785583204148016 
1840	 0.785737505666839 
1841	 0.785888391634476 
1842	 0.786037195317716 
1843	 0.786163602252318 
1844	 0.786262259251895 
1845	 0.786371519572726 
1846	 0.786466175865358 
1847	 0.786513833259455 
1848	 0.786558875138678 
1849	 0.786605015989859 
1850	 0.786617106980163 
1851	 0.786613876007866 
1852	 0.786575587901652 
1853	 0.78648710945322 
1854	 0.786360971931672 
1855	 0.786182279495593 
1856	 0.785983184151939 
1857	 0.785754017198034 
1858	 0.785475011910246 
1859	 0.785153861230084 
1860	 0.784773231657115 
1861	 0.784375223635973 
1862	 0.783951450270631 
1863	 0.783487235241694 
1864	 0.782969299470311 
1865	 0.782413305217235 
1866	 0.781794090534631 
1867	 0.781083755975315 
1868	 0.780362083106175 
1869	 0.779556723931866 
1870	 0.778677178680781 
1871	 0.777744280177325 
1872	 0.776761439014213 
1873	 0.775713695317766 
1874	 0.774604584349509 
1875	 0.773446307936832 
1876	 0.772144714174437 
1877	 0.770824824269789 
1878	 0.769360050733966 
1879	 0.767746698450227 
1880	 0.766136788152128 
1881	 0.764365229930919 
1882	 0.762426419725505 
1883	 0.760442586347152 
1884	 0.758355172003253 
1885	 0.755970275689954 
1886	 0.753558652388212 
1887	 0.750952394299401 
1888	 0.748107840523124 
1889	 0.74536077400707 
1890	 0.742415034341503 
1891	 0.739378508785604 
1892	 0.736333290010184 
1893	 0.733140183206581 
1894	 0.729766975438978 
1895	 0.726455395145926 
1896	 0.723029864287462 
1897	 0.719530930042721 
1898	 0.71626109255829 
1899	 0.712863874873333 
1900	 0.709527928629142 
1901	 0.706298925661605 
1902	 0.702899009510942 
1903	 0.699677955032935 
1904	 0.696479390646791 
1905	 0.69327843005216 
1906	 0.690139876461095 
1907	 0.687316819327769 
1908	 0.684439253402248 
1909	 0.681708636192509 
1910	 0.679136828252007 
1911	 0.676407141637581 
1912	 0.67382447368414 
1913	 0.671319911494475 
1914	 0.668835477850872 
1915	 0.666550527595798 
1916	 0.664464998763781 
1917	 0.662409025529094 
1918	 0.660453009344049 
1919	 0.65860979954907 
1920	 0.656725046550993 
1921	 0.654984607746811 
1922	 0.653299619617723 
1923	 0.651653335804815 
1924	 0.650202624076557 
1925	 0.648796398399433 
1926	 0.647477224972509 
1927	 0.646276557659555 
1928	 0.645124118582995 
1929	 0.644028357844654 
1930	 0.643019504767826 
1931	 0.642077314742329 
1932	 0.641195341844812 
1933	 0.640459466779826 
1934	 0.639794365559791 
1935	 0.639185554560015 
1936	 0.638666656477339 
1937	 0.638195473448829 
1938	 0.637754173326526 
1939	 0.637416954156636 
1940	 0.637156412435337 
1941	 0.636979348515029 
1942	 0.636885990822677 
1943	 0.636863121720092 
1944	 0.636903840100476 
1945	 0.637051814648773 
1946	 0.637274069018811 
1947	 0.637557212186596 
1948	 0.637911538225821 
1949	 0.638262507701755 
1950	 0.638643885455629 
1951	 0.639041522590822 
1952	 0.639496197779887 
1953	 0.639979429958491 
1954	 0.64051184497647 
1955	 0.641113933634886 
1956	 0.641735292447502 
1957	 0.642402653478163 
1958	 0.643097694669869 
1959	 0.643756412556663 
1960	 0.64441056275549 
1961	 0.645063964158901 
1962	 0.645677045109124 
1963	 0.646342850669031 
1964	 0.647053220996027 
1965	 0.647731190035213 
1966	 0.648420181705426 
1967	 0.649103951552283 
1968	 0.649736378846073 
1969	 0.650394200652626 
1970	 0.651060781231656 
1971	 0.651724313393609 
1972	 0.652430298891454 
1973	 0.653111730200581 
1974	 0.653818822496629 
1975	 0.654560366287454 
1976	 0.65528183427506 
1977	 0.656011888058848 
1978	 0.656728053053266 
1979	 0.657428581474635 
1980	 0.65811445353011 
1981	 0.658841048490584 
1982	 0.659583250681832 
1983	 0.660361528904842 
1984	 0.661133017816839 
1985	 0.661841759878445 
1986	 0.662545146949874 
1987	 0.663261126020127 
1988	 0.66394126935193 
1989	 0.664673721263225 
1990	 0.665450622169954 
1991	 0.666206441019989 
1992	 0.666967229995902 
1993	 0.667753199113538 
1994	 0.668499034495386 
1995	 0.669275974780037 
1996	 0.670039308089635 
1997	 0.670751589311537 
1998	 0.671490233641372 
1999	 0.672230224991937 
2000	 0.672940506423955 
2001	 0.673674143430071 
2002	 0.674352084889025 
2003	 0.674980727354267 
2004	 0.675605051624688 
2005	 0.676193979616356 
2006	 0.676781180164234 
2007	 0.677382635183901 
2008	 0.677920151734092 
2009	 0.678432608047734 
2010	 0.678945552284126 
2011	 0.679371686577815 
2012	 0.679769334245702 
2013	 0.680099649104892 
2014	 0.680374424403406 
2015	 0.680591032707426 
2016	 0.68074938356348 
2017	 0.68085190888192 
2018	 0.680904699537227 
2019	 0.680898235777833 
2020	 0.68083249846794 
2021	 0.680701829897442 
2022	 0.680515036399129 
2023	 0.68028270635193 
2024	 0.679961868178215 
2025	 0.679563558379722 
2026	 0.679090576199245 
2027	 0.678501098104239 
2028	 0.677913661036185 
2029	 0.677242846944143 
2030	 0.676591490184852 
2031	 0.675926283049725 
2032	 0.675242833886283 
2033	 0.674480424365035 
2034	 0.673824639027513 
2035	 0.673166648108072 
2036	 0.672569730655201 
2037	 0.672112068969357 
2038	 0.671710914033539 
2039	 0.671386401496771 
2040	 0.671128410380859 
2041	 0.670978690459216 
2042	 0.670922456579344 
2043	 0.670934894348422 
2044	 0.671061297101401 
2045	 0.671224348547838 
2046	 0.671452694238025 
2047	 0.671731177944517 
2048	 0.672070865923222 
2049	 0.672466495357761 
2050	 0.672930209022843 
2051	 0.673430151323848 
2052	 0.673980797267245 
2053	 0.674572145051101 
2054	 0.675196706436582 
2055	 0.67586486391145 
2056	 0.676552412589248 
2057	 0.677268847380835 
2058	 0.678026587826494 
2059	 0.678824918007171 
2060	 0.679623369878993 
2061	 0.680484424400058 
2062	 0.681317442094902 
2063	 0.682140412144257 
2064	 0.682970919203785 
2065	 0.683809434843261 
2066	 0.684625765497606 
2067	 0.685498973317767 
2068	 0.686324351369274 
2069	 0.687132490350589 
2070	 0.687956953208256 
2071	 0.688714506562726 
2072	 0.689405758467803 
2073	 0.690116089528029 
2074	 0.690796808974411 
2075	 0.691486222314177 
2076	 0.692188816439065 
2077	 0.692851945567354 
2078	 0.6935253124056 
2079	 0.694134161152207 
2080	 0.694715118594057 
2081	 0.695241153200514 
2082	 0.69570959683918 
2083	 0.696122875447438 
2084	 0.696542362205294 
2085	 0.696908697612932 
2086	 0.697262858346334 
2087	 0.697622771973009 
2088	 0.697915636159021 
2089	 0.698150269422073 
2090	 0.698370606364409 
2091	 0.698549056482763 
2092	 0.69871060912125 
2093	 0.69884497714986 
2094	 0.698965296817632 
2095	 0.699045875749684 
2096	 0.699137175085634 
2097	 0.699222938630551 
2098	 0.699297358841557 
2099	 0.699363875404666 
2100	 0.699438149696718 
2101	 0.699506568643027 
2102	 0.699579195640063 
2103	 0.699613473151001 
2104	 0.699630835567942 
2105	 0.699647264593316 
2106	 0.699623001397569 
2107	 0.699630873882028 
2108	 0.699658287769374 
2109	 0.699679382301116 
2110	 0.699721089461207 
2111	 0.699726550028916 
2112	 0.699717848676721 
2113	 0.699701167936135 
2114	 0.699658192958996 
2115	 0.699610685702882 
2116	 0.699565217050075 
2117	 0.699515127167168 
2118	 0.699414671608327 
2119	 0.699276760464321 
2120	 0.699144816554594 
2121	 0.698988303398595 
2122	 0.698814783075603 
2123	 0.698649050203418 
2124	 0.698437478163298 
2125	 0.698207788713871 
2126	 0.697913628708606 
2127	 0.697596594510919 
2128	 0.697210299096843 
2129	 0.696738775334172 
2130	 0.696247922886404 
2131	 0.695734273478525 
2132	 0.695145253621804 
2133	 0.694520068590653 
2134	 0.693814174701599 
2135	 0.693007917367047 
2136	 0.69219926571959 
2137	 0.691346543979712 
2138	 0.690432109399484 
2139	 0.689522436851885 
2140	 0.688605751258446 
2141	 0.687625564452791 
2142	 0.686624605127985 
2143	 0.685565082445594 
2144	 0.684432511356862 
2145	 0.683297379769298 
2146	 0.682087079688334 
2147	 0.680925207045699 
2148	 0.67979325627156 
2149	 0.678611875548879 
2150	 0.67745998950116 
2151	 0.676243159877232 
2152	 0.674920089791541 
2153	 0.673646242042866 
2154	 0.672381449953088 
2155	 0.671090807258375 
2156	 0.669849064630073 
2157	 0.668651175546812 
2158	 0.667430521316409 
2159	 0.666223712402071 
2160	 0.664994179239668 
2161	 0.663735687981796 
2162	 0.662539803602047 
2163	 0.661308486194959 
2164	 0.660197363073157 
2165	 0.659169114634022 
2166	 0.658168733140074 
2167	 0.657239004976724 
2168	 0.656339367889261 
2169	 0.655440541307622 
2170	 0.654654754437097 
2171	 0.653927449002673 
2172	 0.65328467505001 
2173	 0.652745715515687 
2174	 0.652276547201076 
2175	 0.651845172455319 
2176	 0.65148922472015 
2177	 0.651147978998295 
2178	 0.650839038572487 
2179	 0.650593617176828 
2180	 0.650398058980413 
2181	 0.650242726550852 
2182	 0.650145392888925 
2183	 0.650084283021863 
2184	 0.65003466256104 
2185	 0.650084767577396 
2186	 0.65024416560732 
2187	 0.650383520846896 
2188	 0.650596499533863 
2189	 0.650785502181946 
2190	 0.650947566166958 
2191	 0.651156825751681 
2192	 0.651421083770576 
2193	 0.651655441423174 
2194	 0.651893833683009 
2195	 0.652135921718743 
2196	 0.652363820837121 
2197	 0.652600481901698 
2198	 0.652842401234554 
2199	 0.653117218394524 
2200	 0.653354662697032 
2201	 0.653574850309867 
2202	 0.653806595853335 
2203	 0.654031081325797 
2204	 0.65424935807165 
2205	 0.654482050201783 
2206	 0.654681004549604 
2207	 0.654835674049461 
2208	 0.655038424454615 
2209	 0.65524458927781 
2210	 0.655463852110764 
2211	 0.655726904633923 
2212	 0.655956664144512 
2213	 0.656155875551541 
2214	 0.656382840445976 
2215	 0.656632650589326 
2216	 0.656854450177356 
2217	 0.657084550922279 
2218	 0.657302938853996 
2219	 0.657490749292015 
2220	 0.657677201066906 
2221	 0.657891267709772 
2222	 0.658063843863149 
2223	 0.658178755114455 
2224	 0.658230931334474 
2225	 0.658214354337875 
2226	 0.658156305789872 
2227	 0.658066786425696 
2228	 0.657962078379512 
2229	 0.657753547785422 
2230	 0.65749702803731 
2231	 0.657130806820309 
2232	 0.656653205421715 
2233	 0.656126880215534 
2234	 0.655544694908296 
2235	 0.65485725880739 
2236	 0.654078433082158 
2237	 0.653240682912429 
2238	 0.652294177355538 
2239	 0.651302177759084 
2240	 0.650276587873117 
2241	 0.649128570013009 
2242	 0.647912460884921 
2243	 0.646575929991838 
2244	 0.645077666941367 
2245	 0.643576437523469 
2246	 0.641927707865297 
2247	 0.640329972536276 
2248	 0.638769979173488 
2249	 0.637130214038195 
2250	 0.635432347254782 
2251	 0.63378869548194 
2252	 0.631993177274166 
2253	 0.630226668661265 
2254	 0.628503602510229 
2255	 0.626815595236965 
2256	 0.625311226453273 
2257	 0.623856774964989 
2258	 0.622497482126888 
2259	 0.621266155485377 
2260	 0.620068544660598 
2261	 0.618917984695979 
2262	 0.617887236635618 
2263	 0.616942391603561 
2264	 0.616097202199986 
2265	 0.615400728956958 
2266	 0.614668507746611 
2267	 0.614007541376987 
2268	 0.613363555950791 
2269	 0.612720267020953 
2270	 0.612130148112768 
2271	 0.611602722727179 
2272	 0.611083950318679 
2273	 0.610635613805235 
2274	 0.610130671063829 
2275	 0.609597882709272 
2276	 0.609103956113433 
2277	 0.608584808244138 
2278	 0.608091424619821 
2279	 0.60763925563865 
2280	 0.607219377630261 
2281	 0.606805795028811 
2282	 0.606411767619931 
2283	 0.606051418396255 
2284	 0.605729111342959 
2285	 0.605401817508993 
2286	 0.605130901167598 
2287	 0.604919428573315 
2288	 0.604686922895996 
2289	 0.60445380539212 
2290	 0.604257731364612 
2291	 0.604074356540991 
2292	 0.603923120550414 
2293	 0.603758758727235 
2294	 0.603593763945985 
2295	 0.603451988656079 
2296	 0.603351266227257 
2297	 0.603305968046925 
2298	 0.603339330449425 
2299	 0.603360265143116 
2300	 0.603394101985141 
2301	 0.603493584501761 
2302	 0.603610585632408 
2303	 0.603821271708783 
2304	 0.604135521723412 
2305	 0.604425556025474 
2306	 0.604734113103745 
2307	 0.605141507673095 
2308	 0.605544804665066 
2309	 0.606106216897823 
2310	 0.606839860615378 
2311	 0.607550568251379 
2312	 0.608364787786633 
2313	 0.609159153402074 
2314	 0.610003789802153 
2315	 0.610792386151051 
2316	 0.611605285537531 
2317	 0.612334051878905 
2318	 0.612981981970648 
2319	 0.613598091812488 
2320	 0.614195715529799 
2321	 0.614705397841993 
2322	 0.615157344612957 
2323	 0.615562158089056 
2324	 0.615893136194102 
2325	 0.616145521927478 
2326	 0.616336381062416 
2327	 0.616460437978823 
2328	 0.616459086020141 
2329	 0.61648943401758 
2330	 0.616535198813855 
2331	 0.616439115894568 
2332	 0.6163598484699 
2333	 0.616224874437199 
2334	 0.615928855948469 
2335	 0.615626941169709 
2336	 0.615302056405344 
2337	 0.614881897947814 
2338	 0.614467651876555 
2339	 0.614040623650481 
2340	 0.613603122316681 
2341	 0.61320559010031 
2342	 0.612768818611819 
2343	 0.612376322863652 
2344	 0.612089919423762 
2345	 0.611836258724169 
2346	 0.611734020913944 
2347	 0.611853825639602 
2348	 0.612068866636479 
2349	 0.612345984638213 
2350	 0.612698752658527 
2351	 0.613106934070445 
2352	 0.613569292679455 
2353	 0.614103635898163 
2354	 0.614670895539838 
2355	 0.615254762539513 
2356	 0.61582255254887 
2357	 0.616338101586624 
2358	 0.61682496786753 
2359	 0.617301909806629 
2360	 0.617692101285826 
2361	 0.617979985569868 
2362	 0.618171500251099 
2363	 0.618277687410269 
2364	 0.618441420906353 
2365	 0.618601448314727 
2366	 0.618769974110249 
2367	 0.618930388420752 
2368	 0.618919180064388 
2369	 0.618875214809996 
2370	 0.618901661452852 
2371	 0.618861370865163 
2372	 0.618882655901227 
2373	 0.619001788521954 
2374	 0.61897125145209 
2375	 0.618934573048427 
2376	 0.618928616887955 
2377	 0.618805737056542 
2378	 0.618718825724157 
2379	 0.618711110692123 
2380	 0.618706662314039 
2381	 0.618727891908666 
2382	 0.618786788332263 
2383	 0.618931220161516 
2384	 0.619003467390085 
2385	 0.619081894115785 
2386	 0.619100524472712 
2387	 0.619079287787119 
2388	 0.619026569235167 
2389	 0.618883612704706 
2390	 0.61884051283773 
2391	 0.618822690206526 
2392	 0.61878237937224 
2393	 0.618769206185516 
2394	 0.618775850630458 
2395	 0.618804001630918 
2396	 0.618734748327998 
2397	 0.618686442231134 
2398	 0.618579367971661 
2399	 0.618340413362851 
2400	 0.618129981572387 
2401	 0.61790662869754 
2402	 0.617739562806837 
2403	 0.617573533272919 
2404	 0.617458519269373 
2405	 0.61727976558314 
2406	 0.616966044713716 
2407	 0.616694629962683 
2408	 0.616505725431225 
2409	 0.616440021356356 
2410	 0.616499953684372 
2411	 0.616532092876632 
2412	 0.616460216055523 
2413	 0.616305700470216 
2414	 0.616133179831938 
2415	 0.615917146375977 
2416	 0.615641989226543 
2417	 0.615313333272607 
2418	 0.614855471008236 
2419	 0.614431977650642 
2420	 0.614167055255939 
2421	 0.613915820844527 
2422	 0.613596220395847 
2423	 0.613084319187123 
2424	 0.61243738516841 
2425	 0.612006267544981 
2426	 0.611677856135554 
2427	 0.611371174371414 
2428	 0.611216437351645 
2429	 0.610734609248064 
2430	 0.610212407230568 
2431	 0.609898418340836 
2432	 0.609228714559978 
2433	 0.608492889501937 
2434	 0.60791869864117 
2435	 0.607164331496631 
2436	 0.606376209306762 
2437	 0.605900273241337 
2438	 0.605380315283836 
2439	 0.604687086532348 
2440	 0.604132065740154 
2441	 0.603475046231313 
2442	 0.602655476376984 
2443	 0.602010100376343 
2444	 0.601340832035292 
2445	 0.600502435190058 
2446	 0.599759243451586 
2447	 0.59896072937213 
2448	 0.598026028536796 
2449	 0.597277404217981 
2450	 0.596616049448198 
2451	 0.5957945472517 
2452	 0.595178522369592 
2453	 0.594552615141669 
2454	 0.59364783570698 
2455	 0.592868609432963 
2456	 0.592135582150157 
2457	 0.591448577407819 
2458	 0.590911986102602 
2459	 0.590465258119146 
2460	 0.589847600950504 
2461	 0.589294152780544 
2462	 0.588832890134573 
2463	 0.588032405767544 
2464	 0.587420994559506 
2465	 0.586837589446358 
2466	 0.586226513568131 
2467	 0.585821967682497 
2468	 0.585499329047866 
2469	 0.585290615968375 
2470	 0.584897663518187 
2471	 0.584502623632542 
2472	 0.58397136766742 
2473	 0.583579821790261 
2474	 0.583623319810898 
2475	 0.583502707618145 
2476	 0.583511383986815 
2477	 0.583392299758388 
2478	 0.58275325669182 
2479	 0.582347510586371 
2480	 0.582318047286751 
2481	 0.582085103887096 
2482	 0.581904057477272 
2483	 0.581777714813833 
2484	 0.581343942766008 
2485	 0.581237884696875 
2486	 0.581427780662633 
2487	 0.581305975548401 
2488	 0.581267221585274 
2489	 0.581055254816754 
2490	 0.580375615187846 
2491	 0.579806917065438 
2492	 0.579396467707415 
2493	 0.57908090457388 
2494	 0.579003338270618 
2495	 0.579270450357149 
2496	 0.579722307223732 
2497	 0.579948365065523 
2498	 0.579998097906885 
2499	 0.580006128260147 
2500	 0.580163264247807 
