Wavelength	spectrum00019.asd
350	 6.13141377012691E-02 
351	 6.15294937591063E-02 
352	 6.02305860161409E-02 
353	 5.77161457465443E-02 
354	 5.75263811433634E-02 
355	 5.75168040097147E-02 
356	 5.74847241132929E-02 
357	 5.72347916855167E-02 
358	 0.055063833997331 
359	 5.40324019682869E-02 
360	 0.054386824412897 
361	 5.50344379546404E-02 
362	 5.78873655293541E-02 
363	 5.78867025072163E-02 
364	 5.46993569468304E-02 
365	 5.47946743200411E-02 
366	 5.52605602086994E-02 
367	 5.58654633137775E-02 
368	 5.66003756172815E-02 
369	 5.61164159505267E-02 
370	 5.68774210897661E-02 
371	 5.81773984991217E-02 
372	 5.78694905427861E-02 
373	 5.85670772928812E-02 
374	 5.99552207544376E-02 
375	 6.09321016278098E-02 
376	 0.059728819347101 
377	 6.08095757378385E-02 
378	 0.062064587181269 
379	 6.12271469563728E-02 
380	 6.16739488187172E-02 
381	 0.063066546720629 
382	 0.064073893093825 
383	 6.32823917323449E-02 
384	 6.40601022317119E-02 
385	 6.54418856592936E-02 
386	 6.63021036158407E-02 
387	 0.066060612585904 
388	 6.59151861876583E-02 
389	 6.65015882830759E-02 
390	 6.78123902668121E-02 
391	 6.82142877811383E-02 
392	 6.96122435525942E-02 
393	 7.13512648408793E-02 
394	 7.13349661399739E-02 
395	 7.13673941577166E-02 
396	 7.20623710003451E-02 
397	 7.31525240381453E-02 
398	 7.31854132832376E-02 
399	 7.38615442238516E-02 
400	 7.47869751973908E-02 
401	 7.52261802428565E-02 
402	 7.56481911668026E-02 
403	 7.66561606042464E-02 
404	 7.78489659535616E-02 
405	 7.81934685699185E-02 
406	 7.84942016848446E-02 
407	 7.92849638162441E-02 
408	 8.05850680847964E-02 
409	 8.15999273385644E-02 
410	 8.22309062971265E-02 
411	 8.29999544116817E-02 
412	 8.43493263176517E-02 
413	 8.51993425712241E-02 
414	 8.59119840375434E-02 
415	 0.086710243657752 
416	 8.76128803663375E-02 
417	 8.87197606997092E-02 
418	 8.97597981137401E-02 
419	 9.05930492034744E-02 
420	 9.14930372405962E-02 
421	 9.26838679064776E-02 
422	 9.40042251277453E-02 
423	 9.51482985564666E-02 
424	 9.60736930286908E-02 
425	 9.69730167304092E-02 
426	 9.79892767487447E-02 
427	 9.91790153018297E-02 
428	 0.100326558429684 
429	 0.101428410709986 
430	 0.102492076565719 
431	 0.103347039562595 
432	 0.10454974449882 
433	 0.105934560599521 
434	 0.106982805111281 
435	 0.108014060986301 
436	 0.109206903979367 
437	 0.110497486997641 
438	 0.11146599379882 
439	 0.112510587202137 
440	 0.113694409201632 
441	 0.114947287071014 
442	 0.116085823228552 
443	 0.117267727462197 
444	 0.118442711326157 
445	 0.119417438479233 
446	 0.12055927906359 
447	 0.121683344313368 
448	 0.122691341921855 
449	 0.123894434976301 
450	 0.124989033933961 
451	 0.125928665435298 
452	 0.126806145236792 
453	 0.127888585351179 
454	 0.128919805007695 
455	 0.129818353733579 
456	 0.130741502681297 
457	 0.131600319414985 
458	 0.132390828481505 
459	 0.133185253539149 
460	 0.13424792775197 
461	 0.135160148224058 
462	 0.135806195044485 
463	 0.136291280131648 
464	 0.136930433869332 
465	 0.137678828694817 
466	 0.138353353773483 
467	 0.138620833337976 
468	 0.139089593637214 
469	 0.139638750383568 
470	 0.140022978253378 
471	 0.140480833300519 
472	 0.140728361089043 
473	 0.140840081760432 
474	 0.141147961191637 
475	 0.141155736804941 
476	 0.141170843225511 
477	 0.14134921319511 
478	 0.141221890929289 
479	 0.141009179299808 
480	 0.140856961728464 
481	 0.14080462397383 
482	 0.140391979320773 
483	 0.1399224258022 
484	 0.139540194625534 
485	 0.139141602408659 
486	 0.138722926994879 
487	 0.138123754405343 
488	 0.137289615874878 
489	 0.13656967343126 
490	 0.135835669634438 
491	 0.135045799902676 
492	 0.134196708041326 
493	 0.13315198458776 
494	 0.132077996604076 
495	 0.131036275099351 
496	 0.129849942543236 
497	 0.128736115559653 
498	 0.12760250250135 
499	 0.126311007784943 
500	 0.124970111117285 
501	 0.123623175421853 
502	 0.122258591379897 
503	 0.120824912957943 
504	 0.1194380221978 
505	 0.118029795190447 
506	 0.116552246035285 
507	 0.115100442205075 
508	 0.113524653012018 
509	 0.111938143570999 
510	 0.110502876762134 
511	 0.108793722533759 
512	 0.10718928150568 
513	 0.105793516921055 
514	 0.104266638536848 
515	 0.102646898988165 
516	 0.101034617349082 
517	 9.94991642528115E-02 
518	 9.79043942262905E-02 
519	 9.63966905866664E-02 
520	 9.49543516755202E-02 
521	 9.34481156311312E-02 
522	 9.19668597911949E-02 
523	 9.05006026407915E-02 
524	 8.90401294529758E-02 
525	 8.76014539829146E-02 
526	 8.61406483179169E-02 
527	 8.47436798180988E-02 
528	 8.34926283989052E-02 
529	 8.21882786220446E-02 
530	 8.08639627499221E-02 
531	 7.95689842349516E-02 
532	 7.83524628620024E-02 
533	 7.71170396068819E-02 
534	 7.59111670473346E-02 
535	 0.074773858767428 
536	 7.36091783594447E-02 
537	 7.25026875204038E-02 
538	 7.14569590612643E-02 
539	 7.04237220421053E-02 
540	 6.93740109105818E-02 
541	 6.83455673040514E-02 
542	 6.73767352310773E-02 
543	 0.066497249736082 
544	 6.56712847863422E-02 
545	 6.48217596334792E-02 
546	 6.39106534798738E-02 
547	 6.31211957100426E-02 
548	 6.23500128929439E-02 
549	 6.15831102855055E-02 
550	 6.08924550892864E-02 
551	 0.060206130252562 
552	 5.95464164377983E-02 
553	 5.89310847656313E-02 
554	 5.83234963718964E-02 
555	 5.77399396567888E-02 
556	 0.057195785403633 
557	 5.66979522315646E-02 
558	 5.61814228921293E-02 
559	 5.57336581313108E-02 
560	 5.53504595117934E-02 
561	 5.48816291090321E-02 
562	 5.44794488107263E-02 
563	 5.41355566218427E-02 
564	 5.37974436165349E-02 
565	 5.34240416487875E-02 
566	 5.30520199433542E-02 
567	 5.27079439463218E-02 
568	 5.24040754025394E-02 
569	 5.20944081713612E-02 
570	 5.17537402361982E-02 
571	 0.051400668733352 
572	 5.11383739044198E-02 
573	 0.050900737381863 
574	 5.06741283360051E-02 
575	 5.04663417658404E-02 
576	 5.03016223082645E-02 
577	 5.01257155062398E-02 
578	 4.99365071257846E-02 
579	 4.97955653241098E-02 
580	 4.96361993062173E-02 
581	 4.94807693292616E-02 
582	 4.93576070562234E-02 
583	 4.92496633578009E-02 
584	 4.91415307824272E-02 
585	 4.90448155165798E-02 
586	 4.89812298864881E-02 
587	 4.89097204624588E-02 
588	 4.88094084396685E-02 
589	 4.86855743300679E-02 
590	 0.048576969631631 
591	 4.85211617424176E-02 
592	 4.85036672830391E-02 
593	 4.84859020172477E-02 
594	 4.84108774758835E-02 
595	 0.048364481645676 
596	 4.83596554536159E-02 
597	 4.83434978283763E-02 
598	 4.83536496240321E-02 
599	 4.83867257279761E-02 
600	 4.84241885066789E-02 
601	 4.84209864358123E-02 
602	 4.84718663405529E-02 
603	 4.85520827238915E-02 
604	 4.85968602122999E-02 
605	 4.86673869777799E-02 
606	 4.87354472244904E-02 
607	 4.87959693169316E-02 
608	 4.88805977158499E-02 
609	 4.89749827585908E-02 
610	 0.049097417160828 
611	 4.92573154660338E-02 
612	 4.94184250285663E-02 
613	 4.95241413548772E-02 
614	 4.96164682281362E-02 
615	 4.97870915099206E-02 
616	 4.99096540959029E-02 
617	 5.00612717926981E-02 
618	 5.02793049015675E-02 
619	 5.04854464764363E-02 
620	 5.06982737618347E-02 
621	 5.09205741784464E-02 
622	 5.11495477201311E-02 
623	 5.13708659813484E-02 
624	 5.15999553716658E-02 
625	 5.18492161293444E-02 
626	 5.21262242340569E-02 
627	 5.24247022736885E-02 
628	 5.27274960762742E-02 
629	 5.30288505234819E-02 
630	 5.33567128697285E-02 
631	 5.36785549782789E-02 
632	 5.40065145996493E-02 
633	 5.43687156257889E-02 
634	 5.47534355919562E-02 
635	 5.51596715952361E-02 
636	 5.55813060627267E-02 
637	 5.60035449012504E-02 
638	 5.64332877906373E-02 
639	 5.68803193922511E-02 
640	 5.73495850059339E-02 
641	 0.057827364073905 
642	 5.83243735877271E-02 
643	 5.88617159752763E-02 
644	 5.94561097557912E-02 
645	 6.00211087703734E-02 
646	 6.05965835298755E-02 
647	 6.12068784502414E-02 
648	 6.18231833197522E-02 
649	 6.24883870814736E-02 
650	 6.31761769112345E-02 
651	 6.38553439719183E-02 
652	 6.45712300436337E-02 
653	 6.53141609668442E-02 
654	 6.60813925516742E-02 
655	 6.68782663042778E-02 
656	 6.77286951580531E-02 
657	 6.86006072847427E-02 
658	 6.94767181029275E-02 
659	 7.03919616212608E-02 
660	 7.13272588100336E-02 
661	 7.22928322798175E-02 
662	 7.33088349352048E-02 
663	 7.43973610491386E-02 
664	 7.54770610274707E-02 
665	 7.65404677186144E-02 
666	 7.76599547936616E-02 
667	 0.078851002809187 
668	 8.00771696769244E-02 
669	 8.13104132183317E-02 
670	 8.25804877167792E-02 
671	 8.38718235977761E-02 
672	 0.085196984271712 
673	 0.086578894233129 
674	 8.80011000667611E-02 
675	 8.94421394956222E-02 
676	 9.09039131380266E-02 
677	 0.092414666268297 
678	 9.39365589088857E-02 
679	 9.55130240776281E-02 
680	 9.71593311023338E-02 
681	 9.87456675016047E-02 
682	 0.100399958071535 
683	 0.102111010243616 
684	 0.103798898623219 
685	 0.105516736675916 
686	 0.107287832464734 
687	 0.109102742208258 
688	 0.110914097885163 
689	 0.112729509783434 
690	 0.114583517510497 
691	 0.116495947548794 
692	 0.118403012123051 
693	 0.120307998920484 
694	 0.122233962643056 
695	 0.124202651246634 
696	 0.126121967654315 
697	 0.1280495375265 
698	 0.130016016175326 
699	 0.131976776269492 
700	 0.133969430380602 
701	 0.135957864950906 
702	 0.137907558707607 
703	 0.139865577609748 
704	 0.141826603588892 
705	 0.143784951360765 
706	 0.145737251962335 
707	 0.147681004970991 
708	 0.149590748574056 
709	 0.151467286975322 
710	 0.153360526431282 
711	 0.155213540208332 
712	 0.157060324465792 
713	 0.158932689525023 
714	 0.160756627555901 
715	 0.162502736059279 
716	 0.164214628774708 
717	 0.165972836730364 
718	 0.167680144106295 
719	 0.169359380135378 
720	 0.171012713442537 
721	 0.172571712991308 
722	 0.174143486062367 
723	 0.175733797741724 
724	 0.17729450324237 
725	 0.178715872188925 
726	 0.180133138384302 
727	 0.181569271371156 
728	 0.182961037251428 
729	 0.184314065179899 
730	 0.185640923441165 
731	 0.186934838879716 
732	 0.188154481136194 
733	 0.189376665424024 
734	 0.190573819715014 
735	 0.191711627773902 
736	 0.192848389551694 
737	 0.193935092068341 
738	 0.194967972472615 
739	 0.195979933612948 
740	 0.197058088188566 
741	 0.198067745197528 
742	 0.198960746389105 
743	 0.199859473142789 
744	 0.200784990096161 
745	 0.201691601347997 
746	 0.202528254528981 
747	 0.203293758505758 
748	 0.2040904113116 
749	 0.204902388683888 
750	 0.205650037919806 
751	 0.206369770408029 
752	 0.207051414777986 
753	 0.207697552837236 
754	 0.208331348784168 
755	 0.209010334301147 
756	 0.209681171706165 
757	 0.210282245252658 
758	 0.210797072004299 
759	 0.21136262100712 
760	 0.211959690098607 
761	 0.212502554029058 
762	 0.213028240162456 
763	 0.213535760898819 
764	 0.214041412454715 
765	 0.214578670028615 
766	 0.215080962704426 
767	 0.215541588700413 
768	 0.215987987503676 
769	 0.216498794460759 
770	 0.216996454088218 
771	 0.217468313764655 
772	 0.217921634835948 
773	 0.218332802601901 
774	 0.218761455002496 
775	 0.219191190032764 
776	 0.219553123866947 
777	 0.219952310516087 
778	 0.220393201521503 
779	 0.220823883498962 
780	 0.221122170487668 
781	 0.221511505156296 
782	 0.221925135979791 
783	 0.222265821556271 
784	 0.222640966548836 
785	 0.223044697290458 
786	 0.223444531045015 
787	 0.223797763911379 
788	 0.224110753411423 
789	 0.224462640332669 
790	 0.22485329229898 
791	 0.22518626804949 
792	 0.225525417118091 
793	 0.225855284793859 
794	 0.226169120363281 
795	 0.22652330729476 
796	 0.226839637488398 
797	 0.227142609414512 
798	 0.227478108226969 
799	 0.227792193825144 
800	 0.228121347130708 
801	 0.228457816541565 
802	 0.228758634386536 
803	 0.229020097083802 
804	 0.229276595451112 
805	 0.229557416114343 
806	 0.229874687511089 
807	 0.230196993387198 
808	 0.230456695440734 
809	 0.230647293069721 
810	 0.230960086150512 
811	 0.231263300901119 
812	 0.231545344383721 
813	 0.231842323327261 
814	 0.232139345403512 
815	 0.232369323990813 
816	 0.232576862733452 
817	 0.232888366296287 
818	 0.233155562328218 
819	 0.233375840414033 
820	 0.233576214388228 
821	 0.233792201861218 
822	 0.234018126695143 
823	 0.234274386956182 
824	 0.234558682466122 
825	 0.234780594886618 
826	 0.235036871246462 
827	 0.235304906898282 
828	 0.235510883339304 
829	 0.235634783156664 
830	 0.235781235413132 
831	 0.236025994887511 
832	 0.236380137005589 
833	 0.236557262779977 
834	 0.236651543277155 
835	 0.236776703108575 
836	 0.236976635638986 
837	 0.2372159414493 
838	 0.237435486594539 
839	 0.237608224404062 
840	 0.237818775269607 
841	 0.237959315834735 
842	 0.238056534798038 
843	 0.23819035946176 
844	 0.238403035752092 
845	 0.238576967959791 
846	 0.238701803308982 
847	 0.238843511264035 
848	 0.238931230344872 
849	 0.239035832537165 
850	 0.239181451555336 
851	 0.239314859641334 
852	 0.239450876434804 
853	 0.239621975729073 
854	 0.239796676601216 
855	 0.239794146710133 
856	 0.239889119434777 
857	 0.240070759441644 
858	 0.240245922189415 
859	 0.240405990757147 
860	 0.240449749093919 
861	 0.240475093122175 
862	 0.240630548843811 
863	 0.240699081652587 
864	 0.240761806622029 
865	 0.240860177192869 
866	 0.240978642405765 
867	 0.241062565881209 
868	 0.241186362736711 
869	 0.241360874354857 
870	 0.241487974267729 
871	 0.241520312035128 
872	 0.2415913757693 
873	 0.241755398297825 
874	 0.241800763783713 
875	 0.241877882249849 
876	 0.241976528127261 
877	 0.242057779827547 
878	 0.242170947298436 
879	 0.242229611631841 
880	 0.24225762337548 
881	 0.242320478251374 
882	 0.242376454320862 
883	 0.242462354834581 
884	 0.242578523404502 
885	 0.242694538140854 
886	 0.242796863336512 
887	 0.242922994159602 
888	 0.243059188568521 
889	 0.243131742951186 
890	 0.243174116204932 
891	 0.24319154198594 
892	 0.243213865197946 
893	 0.243315227054738 
894	 0.243415909855298 
895	 0.243475057143701 
896	 0.243503875095872 
897	 0.243621081997218 
898	 0.243672666916478 
899	 0.243702713303438 
900	 0.243787630221029 
901	 0.243845008339834 
902	 0.243933012120359 
903	 0.244039921804558 
904	 0.244116870712786 
905	 0.244128765810111 
906	 0.244132588747464 
907	 0.244156581927413 
908	 0.244202946367983 
909	 0.244294986459623 
910	 0.244347990620841 
911	 0.244368249935225 
912	 0.244451808097527 
913	 0.244507648680326 
914	 0.244555307606567 
915	 0.244617816374262 
916	 0.244698887875014 
917	 0.244783259390198 
918	 0.244905017312138 
919	 0.245053288129867 
920	 0.245122313573202 
921	 0.245156385641905 
922	 0.245190849562014 
923	 0.245267733150318 
924	 0.2454589482366 
925	 0.245522567359552 
926	 0.245543383835645 
927	 0.245656864704475 
928	 0.245774192768251 
929	 0.245851888341476 
930	 0.245912327844039 
931	 0.246008080666726 
932	 0.246180903191346 
933	 0.246301009974461 
934	 0.246386694573847 
935	 0.246524260279871 
936	 0.246667299523449 
937	 0.246794863876848 
938	 0.246887839971263 
939	 0.246947957843499 
940	 0.247090156775813 
941	 0.247242628327551 
942	 0.247398823700905 
943	 0.247603655750355 
944	 0.247722327995385 
945	 0.247751364801317 
946	 0.247753672680796 
947	 0.247833934561612 
948	 0.248006203724021 
949	 0.248143652953499 
950	 0.248215948814781 
951	 0.248334201912654 
952	 0.248430140484877 
953	 0.248521923665959 
954	 0.248640000793312 
955	 0.248804526178228 
956	 0.24887940211698 
957	 0.248966425964892 
958	 0.24909120914188 
959	 0.249071057200132 
960	 0.249130948684407 
961	 0.249229488100303 
962	 0.249315305113771 
963	 0.249448804223423 
964	 0.24946140757536 
965	 0.249457019169549 
966	 0.249543544224929 
967	 0.249666934628554 
968	 0.249766168009942 
969	 0.249772494739644 
970	 0.249714080441028 
971	 0.249843881355144 
972	 0.249928102415747 
973	 0.249997691078032 
974	 0.250104227465802 
975	 0.250117108904518 
976	 0.250209817706753 
977	 0.250327050354375 
978	 0.250381099120383 
979	 0.250432232766852 
980	 0.250425205316812 
981	 0.250409138664938 
982	 0.250458598553997 
983	 0.250623415454182 
984	 0.250631668061521 
985	 0.250703824844389 
986	 0.251030195907222 
987	 0.251111280435673 
988	 0.251072536890596 
989	 0.251067248735763 
990	 0.251181747869466 
991	 0.251230563668794 
992	 0.25126252492439 
993	 0.251357476698646 
994	 0.251534586762223 
995	 0.251571327482279 
996	 0.251695918879202 
997	 0.251821020372954 
998	 0.251821662561102 
999	 0.251837705288212 
1000	 0.251957798983268 
1001	 0.254508911359668 
1002	 0.254536344768245 
1003	 0.254569332003307 
1004	 0.2546220824465 
1005	 0.254700129958299 
1006	 0.25478283643153 
1007	 0.254861890471671 
1008	 0.254961838869783 
1009	 0.255092435918525 
1010	 0.255205777812274 
1011	 0.255354706032859 
1012	 0.25543978883945 
1013	 0.255474624046493 
1014	 0.25553261880986 
1015	 0.255555262184868 
1016	 0.25558935198935 
1017	 0.255700254146981 
1018	 0.25579418392468 
1019	 0.255878669522172 
1020	 0.25596146270882 
1021	 0.256003588890242 
1022	 0.255993162561036 
1023	 0.256038039624522 
1024	 0.25607900055625 
1025	 0.25612589696452 
1026	 0.256200988924929 
1027	 0.256258799874509 
1028	 0.256299382259534 
1029	 0.256360022788084 
1030	 0.256409140248042 
1031	 0.256467484387357 
1032	 0.256496200051729 
1033	 0.2565237776458 
1034	 0.256566939486896 
1035	 0.256577228295685 
1036	 0.256569511205753 
1037	 0.256528145017566 
1038	 0.25651580882257 
1039	 0.256492029401026 
1040	 0.256489833145381 
1041	 0.256518858653901 
1042	 0.256526679278367 
1043	 0.256529830010397 
1044	 0.256526996871639 
1045	 0.256508087763871 
1046	 0.256521588087417 
1047	 0.25654076566796 
1048	 0.256548571782906 
1049	 0.256579896083079 
1050	 0.256612038110462 
1051	 0.256649026413554 
1052	 0.256680480417105 
1053	 0.256701503501119 
1054	 0.25670729156435 
1055	 0.25673126648256 
1056	 0.256736816653522 
1057	 0.256783976556399 
1058	 0.256864364128528 
1059	 0.256945684585518 
1060	 0.257006806746943 
1061	 0.257090785149101 
1062	 0.257173244620442 
1063	 0.257230863200273 
1064	 0.257331741957867 
1065	 0.257425130869555 
1066	 0.257494819522108 
1067	 0.257627649154024 
1068	 0.25774291514297 
1069	 0.257828038108282 
1070	 0.25793705447985 
1071	 0.258063060088696 
1072	 0.258150354096842 
1073	 0.258237565666844 
1074	 0.258342755560297 
1075	 0.258433921405183 
1076	 0.25855227505167 
1077	 0.258675313392536 
1078	 0.258814388759117 
1079	 0.25897524777228 
1080	 0.259087640901929 
1081	 0.259181683673251 
1082	 0.259284162303535 
1083	 0.259369123737603 
1084	 0.259455113539632 
1085	 0.259589152405888 
1086	 0.259718979446194 
1087	 0.259865608586448 
1088	 0.259983665899638 
1089	 0.260104172857275 
1090	 0.260209617981234 
1091	 0.2602923739962 
1092	 0.260392778327721 
1093	 0.260502759957231 
1094	 0.260592749021036 
1095	 0.260686840923901 
1096	 0.260782361587899 
1097	 0.260864074289985 
1098	 0.260951856281519 
1099	 0.261053452904038 
1100	 0.261150900774951 
1101	 0.261243249334831 
1102	 0.261325058662909 
1103	 0.261391557240051 
1104	 0.261435394560208 
1105	 0.261480488506241 
1106	 0.26154113669766 
1107	 0.261617688338284 
1108	 0.261700706471797 
1109	 0.261775690671018 
1110	 0.261839360536447 
1111	 0.26189790317045 
1112	 0.261959224600099 
1113	 0.262018127768682 
1114	 0.262095078227822 
1115	 0.262161884060289 
1116	 0.262206639557441 
1117	 0.262275138269903 
1118	 0.262329062440646 
1119	 0.262360498232352 
1120	 0.262404147163197 
1121	 0.262458694548811 
1122	 0.262499275688598 
1123	 0.262518686720288 
1124	 0.262561208765107 
1125	 0.262610249008192 
1126	 0.262628510329511 
1127	 0.262666702403817 
1128	 0.262730492988748 
1129	 0.26277443227306 
1130	 0.262821795503981 
1131	 0.262885255542215 
1132	 0.262931512922352 
1133	 0.262975812864704 
1134	 0.263021452265263 
1135	 0.263054670081018 
1136	 0.2630815432897 
1137	 0.263102160050305 
1138	 0.263099583998608 
1139	 0.263118363451522 
1140	 0.263146187787923 
1141	 0.263164779437808 
1142	 0.263201477921557 
1143	 0.263243144184111 
1144	 0.263258159401216 
1145	 0.263256633440994 
1146	 0.263248248687248 
1147	 0.263240303499397 
1148	 0.263247567159653 
1149	 0.263272473156189 
1150	 0.263297127274394 
1151	 0.263319530372362 
1152	 0.263349865122214 
1153	 0.263393673249123 
1154	 0.263420007253219 
1155	 0.263445298748417 
1156	 0.263467188268219 
1157	 0.263474561603685 
1158	 0.263484787518329 
1159	 0.263492967165045 
1160	 0.263508130217636 
1161	 0.263529357694471 
1162	 0.263551037621707 
1163	 0.263573170887509 
1164	 0.263600603251767 
1165	 0.263623495479389 
1166	 0.263639940799876 
1167	 0.263670252444171 
1168	 0.263709910415014 
1169	 0.263736154724895 
1170	 0.263752039566519 
1171	 0.263777289429792 
1172	 0.263796729600314 
1173	 0.263826564231192 
1174	 0.263871006637856 
1175	 0.263905493306027 
1176	 0.263936809252507 
1177	 0.263975048235638 
1178	 0.26401343130802 
1179	 0.264055078542611 
1180	 0.264089938073966 
1181	 0.264111337565666 
1182	 0.264136496102737 
1183	 0.264176777963546 
1184	 0.264221681264677 
1185	 0.26426551579565 
1186	 0.264310917831088 
1187	 0.264340485686235 
1188	 0.264393059218486 
1189	 0.264469120905858 
1190	 0.264533115156829 
1191	 0.264593053399266 
1192	 0.264666867382231 
1193	 0.264740276141793 
1194	 0.264822767746772 
1195	 0.264924261041292 
1196	 0.265020609945258 
1197	 0.265116443286839 
1198	 0.265209589913487 
1199	 0.26533075244477 
1200	 0.265451145877161 
1201	 0.26558401166061 
1202	 0.265737860808233 
1203	 0.265872050712046 
1204	 0.266024343972111 
1205	 0.266193411106859 
1206	 0.26636929203498 
1207	 0.266568262783675 
1208	 0.266785228595364 
1209	 0.267022543704677 
1210	 0.26727282774646 
1211	 0.267555957267441 
1212	 0.267870916598877 
1213	 0.268197787124251 
1214	 0.268559831723392 
1215	 0.26891831067317 
1216	 0.269280009766054 
1217	 0.269657453443279 
1218	 0.270047225080071 
1219	 0.270442468020107 
1220	 0.270859550084631 
1221	 0.27130030621064 
1222	 0.27172660627761 
1223	 0.272155816935247 
1224	 0.272576268044935 
1225	 0.27299210933406 
1226	 0.273390467089624 
1227	 0.273784548276926 
1228	 0.274165684803807 
1229	 0.274532428415012 
1230	 0.274887129539153 
1231	 0.27522492265598 
1232	 0.27556742872514 
1233	 0.275904943024652 
1234	 0.276227375953541 
1235	 0.276534834608743 
1236	 0.276856313213905 
1237	 0.27717860335943 
1238	 0.277486575161657 
1239	 0.27779014207926 
1240	 0.278108877507265 
1241	 0.278415200962296 
1242	 0.278699949690937 
1243	 0.278994044370395 
1244	 0.279303104716214 
1245	 0.279589989786791 
1246	 0.279858977606381 
1247	 0.280135546963648 
1248	 0.280414251780798 
1249	 0.280681145337999 
1250	 0.280942711638686 
1251	 0.281198381681492 
1252	 0.281443365365892 
1253	 0.281691052908062 
1254	 0.281944365201445 
1255	 0.282181849877741 
1256	 0.282409653537293 
1257	 0.282636053904096 
1258	 0.282852038297248 
1259	 0.283065447207288 
1260	 0.283275947221981 
1261	 0.283485992012383 
1262	 0.283687964503305 
1263	 0.283901687419339 
1264	 0.28408918945757 
1265	 0.284271761872475 
1266	 0.284443068422892 
1267	 0.284583139085726 
1268	 0.284751668173589 
1269	 0.284925716279881 
1270	 0.285105895826237 
1271	 0.285297981887723 
1272	 0.285487165781968 
1273	 0.285671118880581 
1274	 0.285871868307303 
1275	 0.286079504421404 
1276	 0.286293905214214 
1277	 0.286524049030101 
1278	 0.286751838007164 
1279	 0.286978542095995 
1280	 0.287213105587055 
1281	 0.287447454370033 
1282	 0.287694428911488 
1283	 0.287956257874605 
1284	 0.288214632794689 
1285	 0.288475972930443 
1286	 0.288741515630511 
1287	 0.289015812374762 
1288	 0.289290469725789 
1289	 0.289573481082194 
1290	 0.289870686599439 
1291	 0.290160973621233 
1292	 0.290448590972386 
1293	 0.290741169145904 
1294	 0.291032159335609 
1295	 0.291334110984324 
1296	 0.291651646772311 
1297	 0.291951047496451 
1298	 0.292244095107571 
1299	 0.292545060076143 
1300	 0.292842568002173 
1301	 0.293135305021748 
1302	 0.293442899103889 
1303	 0.293731527826743 
1304	 0.293998055425419 
1305	 0.29426894267322 
1306	 0.29452525368814 
1307	 0.294796642238662 
1308	 0.295068227858496 
1309	 0.295359750628946 
1310	 0.295630034549737 
1311	 0.295909294479392 
1312	 0.296164473568547 
1313	 0.296400798779569 
1314	 0.296636382972664 
1315	 0.296865961600603 
1316	 0.297086768781893 
1317	 0.29729387933534 
1318	 0.297507585074667 
1319	 0.297719338683122 
1320	 0.297926695481078 
1321	 0.298139977759255 
1322	 0.298336645311956 
1323	 0.298529867537731 
1324	 0.298703156146233 
1325	 0.298859380066154 
1326	 0.299011403647252 
1327	 0.299154694572042 
1328	 0.299281619019985 
1329	 0.299396169987225 
1330	 0.299505691481713 
1331	 0.299597028533353 
1332	 0.299687309686407 
1333	 0.299772857639956 
1334	 0.299857166828982 
1335	 0.299945688325272 
1336	 0.300034357829652 
1337	 0.300110904325773 
1338	 0.300197087650785 
1339	 0.300249739714731 
1340	 0.300275303390636 
1341	 0.300311013180643 
1342	 0.300331689112862 
1343	 0.300362955287528 
1344	 0.3004057208687 
1345	 0.300429898687153 
1346	 0.300456035668447 
1347	 0.300460181802102 
1348	 0.300450510392343 
1349	 0.300427173030943 
1350	 0.300378153155594 
1351	 0.300339489043625 
1352	 0.300291471636415 
1353	 0.300247455267893 
1354	 0.300209131149585 
1355	 0.300167764864993 
1356	 0.300117300046417 
1357	 0.300077733619813 
1358	 0.300045127265056 
1359	 0.300012065196996 
1360	 0.299993673833548 
1361	 0.299960824031475 
1362	 0.299921454133809 
1363	 0.29987409594746 
1364	 0.299828356969905 
1365	 0.299774882343269 
1366	 0.299724751985583 
1367	 0.29968274971567 
1368	 0.299621388839189 
1369	 0.29955661337043 
1370	 0.299472516087809 
1371	 0.299370252911456 
1372	 0.299268785131798 
1373	 0.299162987865852 
1374	 0.299038070249217 
1375	 0.298903507778273 
1376	 0.298760003361332 
1377	 0.298589636873389 
1378	 0.298431355531353 
1379	 0.298273682062108 
1380	 0.298113942305811 
1381	 0.297954184990711 
1382	 0.297792328423886 
1383	 0.297625477244147 
1384	 0.297464125583559 
1385	 0.297304411679483 
1386	 0.297144954435128 
1387	 0.296975375428338 
1388	 0.296831666171805 
1389	 0.296693149918957 
1390	 0.296572552835259 
1391	 0.296476506230564 
1392	 0.296386955922548 
1393	 0.296321345122511 
1394	 0.296263085948168 
1395	 0.296202010733182 
1396	 0.296166065496097 
1397	 0.296087093219667 
1398	 0.296009385215134 
1399	 0.295869406651571 
1400	 0.2957019194646 
1401	 0.295486338432358 
1402	 0.295226460302925 
1403	 0.294922342748165 
1404	 0.29456586326645 
1405	 0.294202919845945 
1406	 0.293788147442296 
1407	 0.293386240711608 
1408	 0.292975910880653 
1409	 0.292560495840889 
1410	 0.292127594385279 
1411	 0.291707193820598 
1412	 0.291273428177333 
1413	 0.290873384722105 
1414	 0.29048943099897 
1415	 0.290116606894343 
1416	 0.289755780965016 
1417	 0.289421061005244 
1418	 0.289101815503944 
1419	 0.288798623762052 
1420	 0.288530828007929 
1421	 0.288263445741937 
1422	 0.288005716066929 
1423	 0.287751598131671 
1424	 0.287509145326577 
1425	 0.287261039226913 
1426	 0.287028389203525 
1427	 0.2868030045676 
1428	 0.286584552622548 
1429	 0.286386154008135 
1430	 0.28617533247219 
1431	 0.285970092660163 
1432	 0.285750089184695 
1433	 0.285523916597054 
1434	 0.285290039838126 
1435	 0.285044971407025 
1436	 0.284800609264673 
1437	 0.284549288451683 
1438	 0.284305491819517 
1439	 0.284047164216342 
1440	 0.283825036082034 
1441	 0.283593118373449 
1442	 0.283430505639612 
1443	 0.283284371316908 
1444	 0.283227805730888 
1445	 0.283227076766127 
1446	 0.283301965305632 
1447	 0.283430058071322 
1448	 0.283663288536223 
1449	 0.283999612336987 
1450	 0.284377139756824 
1451	 0.284864042497124 
1452	 0.285361424745706 
1453	 0.285911204636856 
1454	 0.28646327343944 
1455	 0.287066668845229 
1456	 0.287650353754068 
1457	 0.288247805738699 
1458	 0.288824536113135 
1459	 0.289390930824854 
1460	 0.28995097396215 
1461	 0.290501138862515 
1462	 0.291033429044996 
1463	 0.291556893938888 
1464	 0.292069098254879 
1465	 0.292546212859798 
1466	 0.293050069849824 
1467	 0.293528854453653 
1468	 0.293995657921112 
1469	 0.294464938136352 
1470	 0.294885657895598 
1471	 0.295310927432074 
1472	 0.29571976426357 
1473	 0.296135173649401 
1474	 0.296546625538331 
1475	 0.296945854711067 
1476	 0.297355590989596 
1477	 0.297719325422598 
1478	 0.298056011228836 
1479	 0.298371942556701 
1480	 0.298659086237214 
1481	 0.298933065195037 
1482	 0.299184874658639 
1483	 0.299428856925534 
1484	 0.299642482001357 
1485	 0.299879917442014 
1486	 0.300114421889147 
1487	 0.300354361397441 
1488	 0.300598717939326 
1489	 0.30085718868851 
1490	 0.301106839491917 
1491	 0.301394718633433 
1492	 0.301705219279307 
1493	 0.302040889950944 
1494	 0.302402919641865 
1495	 0.302783126604029 
1496	 0.303192316130015 
1497	 0.303608686093906 
1498	 0.30405645323666 
1499	 0.304491297590909 
1500	 0.30493723042592 
1501	 0.30537186129145 
1502	 0.305804858706422 
1503	 0.306220923670616 
1504	 0.306629362582441 
1505	 0.307026113865476 
1506	 0.307417702254574 
1507	 0.307782108173604 
1508	 0.308134663998429 
1509	 0.308462577408341 
1510	 0.308753105539486 
1511	 0.309038072073661 
1512	 0.309309247148329 
1513	 0.309566413097369 
1514	 0.309812799294853 
1515	 0.310043912009222 
1516	 0.310253696520917 
1517	 0.310456998193097 
1518	 0.310647838365315 
1519	 0.310828039898787 
1520	 0.310995297648379 
1521	 0.311160500667155 
1522	 0.311310972981159 
1523	 0.311455302689728 
1524	 0.311593569557932 
1525	 0.311724866449064 
1526	 0.311853101165028 
1527	 0.311973729390024 
1528	 0.312096602474916 
1529	 0.312217181641217 
1530	 0.312336113525725 
1531	 0.312448979056907 
1532	 0.312575073140795 
1533	 0.312704277943129 
1534	 0.312836803158271 
1535	 0.312975878185904 
1536	 0.313121327639516 
1537	 0.313260520278514 
1538	 0.313429942186018 
1539	 0.31361347983217 
1540	 0.313818379583832 
1541	 0.314050477961252 
1542	 0.314280114698948 
1543	 0.314527918390309 
1544	 0.314769841182624 
1545	 0.315009026893099 
1546	 0.315262215083218 
1547	 0.315520045240204 
1548	 0.315790201502146 
1549	 0.316072667220521 
1550	 0.316361211127865 
1551	 0.316659096629183 
1552	 0.316962615572991 
1553	 0.317274806203662 
1554	 0.317591038976197 
1555	 0.317925846105476 
1556	 0.318236760005695 
1557	 0.318547038496823 
1558	 0.318842374004784 
1559	 0.319113490827276 
1560	 0.319394295831671 
1561	 0.319669148452363 
1562	 0.31995125667774 
1563	 0.320237437819483 
1564	 0.320521660757874 
1565	 0.320812476327672 
1566	 0.321094079246634 
1567	 0.321368943351687 
1568	 0.321645729206255 
1569	 0.321926882718117 
1570	 0.322192212397127 
1571	 0.322456409791996 
1572	 0.32270423055012 
1573	 0.322925249149057 
1574	 0.323159494995181 
1575	 0.323384041254321 
1576	 0.323623594063164 
1577	 0.323878362565129 
1578	 0.324125564620299 
1579	 0.324382900873246 
1580	 0.324625131469873 
1581	 0.324853144663553 
1582	 0.325087286005703 
1583	 0.325318220024857 
1584	 0.325548106352524 
1585	 0.325771131358538 
1586	 0.326010388852576 
1587	 0.326266648968783 
1588	 0.326502033651834 
1589	 0.326743682185984 
1590	 0.326972249255636 
1591	 0.327169182355739 
1592	 0.32738337230285 
1593	 0.327595657761994 
1594	 0.327825466547201 
1595	 0.328079748966968 
1596	 0.328312941749074 
1597	 0.328546390646002 
1598	 0.328779817744545 
1599	 0.328998627656866 
1600	 0.329221504628135 
1601	 0.329464956633656 
1602	 0.329682600094842 
1603	 0.329879242569925 
1604	 0.330076915152109 
1605	 0.330253768977553 
1606	 0.330446969186177 
1607	 0.330658780716695 
1608	 0.330851336672558 
1609	 0.331032711997108 
1610	 0.331224333895869 
1611	 0.331409824595761 
1612	 0.331594412661665 
1613	 0.331806350515606 
1614	 0.331984699891373 
1615	 0.33213874835617 
1616	 0.332288674188772 
1617	 0.332428458469638 
1618	 0.332549400020347 
1619	 0.332644653826582 
1620	 0.332751226366288 
1621	 0.332840380162403 
1622	 0.332941600854676 
1623	 0.333061142980176 
1624	 0.333174134550989 
1625	 0.333278483847284 
1626	 0.333394061402202 
1627	 0.333530689968427 
1628	 0.333641534589513 
1629	 0.333751778035417 
1630	 0.333846419240075 
1631	 0.33390171613293 
1632	 0.333980610666788 
1633	 0.334059354718626 
1634	 0.334148772895905 
1635	 0.33425795070702 
1636	 0.334358840483239 
1637	 0.334471805412626 
1638	 0.334564796747225 
1639	 0.334637670846619 
1640	 0.33472297324125 
1641	 0.334813212141675 
1642	 0.334886902844899 
1643	 0.334975201856212 
1644	 0.335026586089103 
1645	 0.335036640790772 
1646	 0.335052029657768 
1647	 0.3350542141541 
1648	 0.335050856880301 
1649	 0.335045841300171 
1650	 0.335028769898357 
1651	 0.335002053695041 
1652	 0.334960999584857 
1653	 0.334914744128582 
1654	 0.334851005797935 
1655	 0.334776172548218 
1656	 0.33467214977792 
1657	 0.334565772095722 
1658	 0.334395646464104 
1659	 0.334166294912332 
1660	 0.333939741344606 
1661	 0.333684888456686 
1662	 0.33339983146847 
1663	 0.333117213284986 
1664	 0.332770343980268 
1665	 0.332371190157147 
1666	 0.331928333736844 
1667	 0.331452383272633 
1668	 0.330914582707849 
1669	 0.33030911600606 
1670	 0.329682059865183 
1671	 0.329003741941456 
1672	 0.32829238388232 
1673	 0.327569275508093 
1674	 0.326769084103477 
1675	 0.325898018086464 
1676	 0.325018744425351 
1677	 0.324089117206624 
1678	 0.323136645001068 
1679	 0.322171948371877 
1680	 0.32114816051357 
1681	 0.320083734001135 
1682	 0.318962877360568 
1683	 0.317798590337769 
1684	 0.316589866038228 
1685	 0.315327800278291 
1686	 0.314018164079162 
1687	 0.312633299258011 
1688	 0.311246207464564 
1689	 0.309820681774808 
1690	 0.308361435646997 
1691	 0.306894903075708 
1692	 0.305406509739889 
1693	 0.30389108576961 
1694	 0.302330508239495 
1695	 0.300728535799101 
1696	 0.299097544906238 
1697	 0.297394561534968 
1698	 0.295716610434627 
1699	 0.294033135128234 
1700	 0.292400837281339 
1701	 0.290767495724474 
1702	 0.289191962318357 
1703	 0.28762182198688 
1704	 0.286166122214132 
1705	 0.284765232575795 
1706	 0.28341586062992 
1707	 0.282252859822388 
1708	 0.281119526834003 
1709	 0.280044123002123 
1710	 0.279077758920157 
1711	 0.278104727342423 
1712	 0.277214619859086 
1713	 0.276383842397813 
1714	 0.275568747981525 
1715	 0.274860462768767 
1716	 0.27417927915423 
1717	 0.273510783774063 
1718	 0.272889087266227 
1719	 0.272276438366708 
1720	 0.271699828875684 
1721	 0.271184716960913 
1722	 0.270748372168658 
1723	 0.270427063499598 
1724	 0.270189999549767 
1725	 0.270048290792332 
1726	 0.270055381629878 
1727	 0.27019195562962 
1728	 0.270439629385028 
1729	 0.270841338690067 
1730	 0.271391973296454 
1731	 0.272012665621602 
1732	 0.272735856139759 
1733	 0.273480010717525 
1734	 0.274218536555465 
1735	 0.274957134377424 
1736	 0.275630259014745 
1737	 0.276244696074915 
1738	 0.276725661013088 
1739	 0.277094301185125 
1740	 0.277332934260711 
1741	 0.277511286926887 
1742	 0.277585069609697 
1743	 0.277613060597831 
1744	 0.277544892415336 
1745	 0.277479980663841 
1746	 0.277350651772927 
1747	 0.277241600195037 
1748	 0.277105079121327 
1749	 0.277032566546504 
1750	 0.276948872050365 
1751	 0.276954195707836 
1752	 0.277015857206282 
1753	 0.277157961046816 
1754	 0.277362316404124 
1755	 0.277653244525639 
1756	 0.27802309179755 
1757	 0.278462577659985 
1758	 0.279030948626695 
1759	 0.279652530748632 
1760	 0.280358325625872 
1761	 0.281171382850948 
1762	 0.281996101858182 
1763	 0.282914695807058 
1764	 0.283908938218006 
1765	 0.284932143146535 
1766	 0.286049812353878 
1767	 0.287181286856599 
1768	 0.288354947698349 
1769	 0.289519847421455 
1770	 0.290583869982409 
1771	 0.291630550126281 
1772	 0.292580812091704 
1773	 0.293462186487726 
1774	 0.294352991243207 
1775	 0.295154733697453 
1776	 0.295913459337921 
1777	 0.29663427061517 
1778	 0.297275925916265 
1779	 0.297900531359806 
1780	 0.298478275663347 
1781	 0.298997890739557 
1782	 0.299491289501392 
1783	 0.299938906526091 
1784	 0.300379126887838 
1785	 0.300797082806223 
1786	 0.301179167645083 
1787	 0.301522262017244 
1788	 0.301862149780593 
1789	 0.302177738785675 
1790	 0.302487222217934 
1791	 0.302790283578946 
1792	 0.303085782302438 
1793	 0.303368013891362 
1794	 0.303620075470349 
1795	 0.30386728822939 
1796	 0.304129035853161 
1797	 0.304393319496502 
1798	 0.304659767119918 
1799	 0.304964531215675 
1800	 0.305247351424585 
1801	 0.304423704109582 
1802	 0.304735047287066 
1803	 0.305052987037555 
1804	 0.305368290427147 
1805	 0.305687072277809 
1806	 0.305996274926983 
1807	 0.306321928729643 
1808	 0.306631999860653 
1809	 0.306929387040406 
1810	 0.307217949998262 
1811	 0.307505154199113 
1812	 0.30778826755928 
1813	 0.30805252154598 
1814	 0.308324289802099 
1815	 0.308604515609065 
1816	 0.308888953740004 
1817	 0.309175454915511 
1818	 0.309454202388662 
1819	 0.309750652608095 
1820	 0.310062069536102 
1821	 0.310369516052043 
1822	 0.310677110796546 
1823	 0.311017333849739 
1824	 0.311319569796271 
1825	 0.311615561747605 
1826	 0.311906872145903 
1827	 0.312187507764396 
1828	 0.312456359909591 
1829	 0.31272148134883 
1830	 0.312975638684301 
1831	 0.313201118055053 
1832	 0.313452397488296 
1833	 0.313713808104486 
1834	 0.313984814723615 
1835	 0.314256610399639 
1836	 0.314506055641708 
1837	 0.314767142954174 
1838	 0.315024731285489 
1839	 0.315271359730876 
1840	 0.315527551666947 
1841	 0.315772719185319 
1842	 0.3159942387408 
1843	 0.3162266112349 
1844	 0.316475761479153 
1845	 0.316685172353013 
1846	 0.316922172407069 
1847	 0.317148249789663 
1848	 0.317342747508704 
1849	 0.317544426841996 
1850	 0.317698238549706 
1851	 0.317825964322293 
1852	 0.317896702541272 
1853	 0.31795012126555 
1854	 0.317977831633621 
1855	 0.31795838319614 
1856	 0.317939905813307 
1857	 0.317916529498993 
1858	 0.317825943548538 
1859	 0.317716950339126 
1860	 0.317598992522681 
1861	 0.317431359529935 
1862	 0.317219232427325 
1863	 0.316986066602595 
1864	 0.316701748581567 
1865	 0.316388090911217 
1866	 0.316017895749925 
1867	 0.315572087207603 
1868	 0.315112333895445 
1869	 0.314601971991439 
1870	 0.314057518019006 
1871	 0.313474784943778 
1872	 0.312881522962059 
1873	 0.312273260697509 
1874	 0.311615346083895 
1875	 0.310924403444386 
1876	 0.310159213418659 
1877	 0.309376301482094 
1878	 0.308497616372062 
1879	 0.307519562689016 
1880	 0.306558415037981 
1881	 0.305491570974166 
1882	 0.304325932791847 
1883	 0.303102734241327 
1884	 0.301827588796388 
1885	 0.300380888186623 
1886	 0.298878467378477 
1887	 0.297273597347888 
1888	 0.295551677014611 
1889	 0.29386853425761 
1890	 0.292072949434478 
1891	 0.290269049933024 
1892	 0.288466667953898 
1893	 0.286591854724082 
1894	 0.284614906568888 
1895	 0.28271460042837 
1896	 0.280787914432082 
1897	 0.278862987849411 
1898	 0.277117430793987 
1899	 0.275356408157388 
1900	 0.27365769189858 
1901	 0.27206571744339 
1902	 0.270425692232375 
1903	 0.268906160374682 
1904	 0.26746267056805 
1905	 0.266076785990289 
1906	 0.264765232331002 
1907	 0.263624351443759 
1908	 0.262521919777191 
1909	 0.26149496773504 
1910	 0.260541338477003 
1911	 0.259585200600911 
1912	 0.258711372286231 
1913	 0.257877402192328 
1914	 0.257083582565886 
1915	 0.256349189141585 
1916	 0.255698019539994 
1917	 0.255032202137033 
1918	 0.254402603652804 
1919	 0.253805752298971 
1920	 0.253173215464779 
1921	 0.252581572690559 
1922	 0.252001048303378 
1923	 0.251419401329184 
1924	 0.250907027573099 
1925	 0.250387661570402 
1926	 0.249889182668606 
1927	 0.249425282974368 
1928	 0.248961205925629 
1929	 0.248492593057386 
1930	 0.248054276741527 
1931	 0.247648076364154 
1932	 0.247260411408434 
1933	 0.246935010771568 
1934	 0.24667555796313 
1935	 0.246475254275594 
1936	 0.246330168211495 
1937	 0.246235810778939 
1938	 0.246196389927068 
1939	 0.246213076899348 
1940	 0.246280915959668 
1941	 0.246409711491469 
1942	 0.246586395787507 
1943	 0.246810547710616 
1944	 0.247065404268208 
1945	 0.247368020263743 
1946	 0.247742891396088 
1947	 0.248149611481453 
1948	 0.248636075472456 
1949	 0.249198865240594 
1950	 0.249778705065403 
1951	 0.250403011849176 
1952	 0.251076656423709 
1953	 0.251791541724705 
1954	 0.252529584791572 
1955	 0.253359171162494 
1956	 0.254187227371718 
1957	 0.255021932008547 
1958	 0.255865989749599 
1959	 0.256633595159085 
1960	 0.257391347108946 
1961	 0.258094236938834 
1962	 0.258743004607119 
1963	 0.259368170694569 
1964	 0.259965817284294 
1965	 0.260501892993856 
1966	 0.260999251941734 
1967	 0.261458898791498 
1968	 0.261857108751924 
1969	 0.262238517831221 
1970	 0.262587757309101 
1971	 0.262957266106998 
1972	 0.263335499885379 
1973	 0.263700836384214 
1974	 0.264107211316297 
1975	 0.264557246504031 
1976	 0.264989789123363 
1977	 0.265428915089614 
1978	 0.265894671074191 
1979	 0.266371361046652 
1980	 0.26684584315081 
1981	 0.267375226381539 
1982	 0.267880696402447 
1983	 0.268399005024705 
1984	 0.268944693476567 
1985	 0.269470602388455 
1986	 0.270035743137484 
1987	 0.270629132002478 
1988	 0.271219541096327 
1989	 0.271886364218844 
1990	 0.272600142749885 
1991	 0.273353862126397 
1992	 0.274166375279958 
1993	 0.275033801453158 
1994	 0.275856321408056 
1995	 0.276739681293072 
1996	 0.277622917383736 
1997	 0.278467808612921 
1998	 0.279346100297627 
1999	 0.280273098109302 
2000	 0.281126580531725 
2001	 0.28198424401107 
2002	 0.282786638962068 
2003	 0.283547335531246 
2004	 0.284275473549728 
2005	 0.284961470882866 
2006	 0.285610715205021 
2007	 0.286231079224489 
2008	 0.28679765807584 
2009	 0.287324774008083 
2010	 0.287834127511617 
2011	 0.288270322356907 
2012	 0.288670378840344 
2013	 0.289037535302032 
2014	 0.289353181310332 
2015	 0.289652590719647 
2016	 0.289929033554209 
2017	 0.290164830703632 
2018	 0.290369450029462 
2019	 0.290537997693873 
2020	 0.290659285114607 
2021	 0.290764990769485 
2022	 0.290833712457424 
2023	 0.290897407292787 
2024	 0.290960858452502 
2025	 0.290968434388321 
2026	 0.29094353559123 
2027	 0.290876402427318 
2028	 0.290803059596432 
2029	 0.290682422748322 
2030	 0.290577722036248 
2031	 0.290463758385101 
2032	 0.290355770797646 
2033	 0.290242554175543 
2034	 0.290129654894333 
2035	 0.290016778547265 
2036	 0.289911101068134 
2037	 0.289818705341804 
2038	 0.289701953099848 
2039	 0.289588979126729 
2040	 0.289483724787638 
2041	 0.289370462981333 
2042	 0.289234799042694 
2043	 0.289125869243782 
2044	 0.289039060619465 
2045	 0.288929165662098 
2046	 0.288811868163419 
2047	 0.288706827965117 
2048	 0.288588806892042 
2049	 0.288485042910647 
2050	 0.288396298836421 
2051	 0.288316945017495 
2052	 0.288247088345472 
2053	 0.288164391023423 
2054	 0.288080389644077 
2055	 0.28800195686217 
2056	 0.287917285189044 
2057	 0.287811811029171 
2058	 0.287733440921623 
2059	 0.287664304388497 
2060	 0.287603631137707 
2061	 0.287564761176484 
2062	 0.287514130878474 
2063	 0.287468562125016 
2064	 0.287417948821339 
2065	 0.287366752070398 
2066	 0.287305427094881 
2067	 0.287235896541478 
2068	 0.28716201795584 
2069	 0.287090785068252 
2070	 0.287009360410392 
2071	 0.286933316564733 
2072	 0.286864225439387 
2073	 0.286789939177058 
2074	 0.286709277616433 
2075	 0.286637533649797 
2076	 0.286574727333366 
2077	 0.286503387887831 
2078	 0.286436859480144 
2079	 0.286353528469087 
2080	 0.286263445650784 
2081	 0.286162914581634 
2082	 0.286039708471415 
2083	 0.285933014045808 
2084	 0.285811890750095 
2085	 0.285672553234595 
2086	 0.285537394585606 
2087	 0.285394249074787 
2088	 0.285251890913127 
2089	 0.285105595109515 
2090	 0.284967304434381 
2091	 0.284848997197444 
2092	 0.284694355833987 
2093	 0.28453129098653 
2094	 0.284350990290531 
2095	 0.284128223138986 
2096	 0.283922651435948 
2097	 0.283713164782955 
2098	 0.283514807693086 
2099	 0.283326282686679 
2100	 0.283114021158353 
2101	 0.282876388207213 
2102	 0.282624280104981 
2103	 0.282361342591598 
2104	 0.282067577161975 
2105	 0.281775042834606 
2106	 0.281490874599775 
2107	 0.281166815409341 
2108	 0.280808003957218 
2109	 0.280455975290139 
2110	 0.280098460867336 
2111	 0.279715281019092 
2112	 0.279303512450289 
2113	 0.278906073997701 
2114	 0.278489530884338 
2115	 0.278075003249665 
2116	 0.277676537332501 
2117	 0.277281309991376 
2118	 0.276855785110608 
2119	 0.276391490391134 
2120	 0.27598862489437 
2121	 0.275590889237251 
2122	 0.275208415932415 
2123	 0.274864578412534 
2124	 0.274510303094775 
2125	 0.274137898635591 
2126	 0.273811435741416 
2127	 0.273513947878116 
2128	 0.273229261348291 
2129	 0.272947878420493 
2130	 0.272715165602798 
2131	 0.272526108594177 
2132	 0.272343714089842 
2133	 0.272205993106039 
2134	 0.27207446699501 
2135	 0.271921271929062 
2136	 0.271777653943746 
2137	 0.271649040183431 
2138	 0.27152412726816 
2139	 0.271421022495757 
2140	 0.271339953692312 
2141	 0.271257606185654 
2142	 0.27117046244447 
2143	 0.271124616515399 
2144	 0.271108760880593 
2145	 0.271090719415303 
2146	 0.271099053624817 
2147	 0.271111074511377 
2148	 0.271112442898087 
2149	 0.27113852309306 
2150	 0.271193867845393 
2151	 0.271252721532118 
2152	 0.271339861688492 
2153	 0.27140489674493 
2154	 0.271454394478891 
2155	 0.271525176896254 
2156	 0.271580916136788 
2157	 0.271618425278013 
2158	 0.271670276121454 
2159	 0.271739657078648 
2160	 0.27177622916851 
2161	 0.271801599486017 
2162	 0.271818908444617 
2163	 0.271819435534657 
2164	 0.27181641389003 
2165	 0.27181840618774 
2166	 0.271790220942829 
2167	 0.271732893810062 
2168	 0.271679220993883 
2169	 0.271602022557003 
2170	 0.27153641114416 
2171	 0.271474337262369 
2172	 0.271414001823473 
2173	 0.271349917724133 
2174	 0.27129156091282 
2175	 0.271231046839366 
2176	 0.271212667809674 
2177	 0.271213377827511 
2178	 0.271250838581971 
2179	 0.271257811215892 
2180	 0.271282610861722 
2181	 0.271285692158198 
2182	 0.271270239137236 
2183	 0.271251906230245 
2184	 0.271230813989536 
2185	 0.271207051684091 
2186	 0.27117711958537 
2187	 0.271130408961857 
2188	 0.271086648714064 
2189	 0.271019459185455 
2190	 0.270921362813669 
2191	 0.270824152103027 
2192	 0.270727546307751 
2193	 0.270608486678358 
2194	 0.270461818512749 
2195	 0.270322667523626 
2196	 0.270176120678698 
2197	 0.270018755049255 
2198	 0.269865213663123 
2199	 0.269708123724155 
2200	 0.269532156214011 
2201	 0.269346046201102 
2202	 0.269133137754862 
2203	 0.268899866364314 
2204	 0.268659612037897 
2205	 0.268395338778335 
2206	 0.268125748195958 
2207	 0.267839987545817 
2208	 0.267569915299395 
2209	 0.267295246596548 
2210	 0.267019138497697 
2211	 0.266765278015055 
2212	 0.266481365743834 
2213	 0.266162647197424 
2214	 0.265868150681729 
2215	 0.265570495099964 
2216	 0.265276400081674 
2217	 0.265002498009942 
2218	 0.264714940870214 
2219	 0.264419965073597 
2220	 0.264129726042425 
2221	 0.263849936807755 
2222	 0.26354869868006 
2223	 0.263255170815644 
2224	 0.262905372640721 
2225	 0.262525481111444 
2226	 0.262122224231692 
2227	 0.261668309750014 
2228	 0.261194596866811 
2229	 0.260623419144578 
2230	 0.259983314008803 
2231	 0.25929805544776 
2232	 0.258544637849295 
2233	 0.257724045254517 
2234	 0.25689678418272 
2235	 0.255896843252398 
2236	 0.254769456631602 
2237	 0.253577622797066 
2238	 0.252220218856532 
2239	 0.250879182478678 
2240	 0.249530157570515 
2241	 0.248049909172713 
2242	 0.246552319671177 
2243	 0.244882025470198 
2244	 0.243008353051148 
2245	 0.241138976593725 
2246	 0.23910736578688 
2247	 0.237124493340886 
2248	 0.235162471321602 
2249	 0.233141537484443 
2250	 0.231096021172784 
2251	 0.229053443026328 
2252	 0.226831642406633 
2253	 0.224668802261712 
2254	 0.22250117226245 
2255	 0.220305088602318 
2256	 0.218308303342941 
2257	 0.216325653926554 
2258	 0.214389700466736 
2259	 0.212549350448925 
2260	 0.210668539866354 
2261	 0.208786067185143 
2262	 0.206958537618459 
2263	 0.20510668804271 
2264	 0.203377288771173 
2265	 0.201747509094581 
2266	 0.200103805595677 
2267	 0.198556936598109 
2268	 0.196955488767269 
2269	 0.195314289574591 
2270	 0.193743576991125 
2271	 0.192159813567358 
2272	 0.190660181078062 
2273	 0.189259231147912 
2274	 0.187821657219872 
2275	 0.186470154768608 
2276	 0.185028022604892 
2277	 0.18354802723317 
2278	 0.182049570022814 
2279	 0.180470609288701 
2280	 0.17891822513259 
2281	 0.177377495239851 
2282	 0.175794267291992 
2283	 0.174231886743982 
2284	 0.172612211965231 
2285	 0.170824660863491 
2286	 0.16909883130649 
2287	 0.167288618440804 
2288	 0.165418381433393 
2289	 0.163677565259538 
2290	 0.161849465776528 
2291	 0.160063804231734 
2292	 0.158337296499922 
2293	 0.156504550684143 
2294	 0.154791886862514 
2295	 0.153172023081778 
2296	 0.151635854042375 
2297	 0.150348751713518 
2298	 0.149275103842915 
2299	 0.148353677131675 
2300	 0.147608632148435 
2301	 0.147075463650306 
2302	 0.146730482130728 
2303	 0.146630144504584 
2304	 0.146784143286908 
2305	 0.147092091106737 
2306	 0.147652086335205 
2307	 0.148325722482422 
2308	 0.149162526386313 
2309	 0.150162674881539 
2310	 0.151388179539486 
2311	 0.152650258494024 
2312	 0.154113396473788 
2313	 0.155551904460464 
2314	 0.157081530650289 
2315	 0.158589384208648 
2316	 0.160200695707304 
2317	 0.161642235782386 
2318	 0.163093721951705 
2319	 0.164306673208803 
2320	 0.165387430781708 
2321	 0.166263737031802 
2322	 0.166899141819123 
2323	 0.16745377905467 
2324	 0.167841525635219 
2325	 0.16808919404179 
2326	 0.1682301313417 
2327	 0.168188409138574 
2328	 0.167914541041129 
2329	 0.167568425158441 
2330	 0.167101420683216 
2331	 0.166449718703979 
2332	 0.165741992864445 
2333	 0.164984093835767 
2334	 0.164030195360635 
2335	 0.163068081344907 
2336	 0.162048342473989 
2337	 0.160897476076343 
2338	 0.159813166094193 
2339	 0.158702089397353 
2340	 0.157583433289664 
2341	 0.156557354949296 
2342	 0.155574333185448 
2343	 0.154756077273949 
2344	 0.154161762550116 
2345	 0.153764289324501 
2346	 0.153622001324129 
2347	 0.153758827956668 
2348	 0.154039461863073 
2349	 0.154574199891348 
2350	 0.155357620906861 
2351	 0.156280812214199 
2352	 0.15735817168567 
2353	 0.158509323760887 
2354	 0.15961497049322 
2355	 0.160701524838673 
2356	 0.161681908297228 
2357	 0.162493077890154 
2358	 0.163203416649343 
2359	 0.163753266876503 
2360	 0.16421727085638 
2361	 0.164562569754275 
2362	 0.164758581597216 
2363	 0.164833806783241 
2364	 0.164814052752196 
2365	 0.164772433575981 
2366	 0.16472879354477 
2367	 0.164664122170658 
2368	 0.16460293891389 
2369	 0.164564573334375 
2370	 0.164505481538861 
2371	 0.164476455754651 
2372	 0.164476090255944 
2373	 0.164433010564669 
2374	 0.164417107424235 
2375	 0.16439470854494 
2376	 0.1643395427081 
2377	 0.164350430532027 
2378	 0.164383438624155 
2379	 0.164414061263754 
2380	 0.164420808531137 
2381	 0.164383144390674 
2382	 0.16437392221843 
2383	 0.164306710760202 
2384	 0.164365597471053 
2385	 0.164537901161075 
2386	 0.164633216764486 
2387	 0.164753082755371 
2388	 0.164849186710479 
2389	 0.164905533216988 
2390	 0.164964484135629 
2391	 0.165044211785083 
2392	 0.16509023961061 
2393	 0.165091786159172 
2394	 0.165087055535906 
2395	 0.165073712935271 
2396	 0.165061305124234 
2397	 0.165013335304849 
2398	 0.165050161475923 
2399	 0.165146997819961 
2400	 0.165184295619039 
2401	 0.165214667356233 
2402	 0.165269983047863 
2403	 0.165326432302037 
2404	 0.16533344566658 
2405	 0.165322208128616 
2406	 0.165286490174022 
2407	 0.165241405327854 
2408	 0.165225127571568 
2409	 0.165255507029635 
2410	 0.165356798397089 
2411	 0.165415244166445 
2412	 0.165416190652304 
2413	 0.165351455537741 
2414	 0.165149065575654 
2415	 0.165013303413728 
2416	 0.164900271547974 
2417	 0.164843365463894 
2418	 0.164898680053892 
2419	 0.164851265998267 
2420	 0.16482897476659 
2421	 0.164896518483772 
2422	 0.164893715916525 
2423	 0.164853251400821 
2424	 0.164904082842321 
2425	 0.164923486404453 
2426	 0.164868355286853 
2427	 0.164862542081992 
2428	 0.164790271904618 
2429	 0.164671628602375 
2430	 0.164544403733764 
2431	 0.164486582094668 
2432	 0.164483041039999 
2433	 0.164318860446913 
2434	 0.16413675253827 
2435	 0.163968814615912 
2436	 0.163715410301812 
2437	 0.163548605461615 
2438	 0.163573696776879 
2439	 0.163581047462696 
2440	 0.163532657333643 
2441	 0.163513136287256 
2442	 0.16336562313021 
2443	 0.16310212365913 
2444	 0.162924573578959 
2445	 0.162815071871819 
2446	 0.162653418550102 
2447	 0.1625468832135 
2448	 0.162411304983792 
2449	 0.162144056789781 
2450	 0.1618909775206 
2451	 0.161729178953461 
2452	 0.161567198726564 
2453	 0.16130373835397 
2454	 0.161062936793357 
2455	 0.16076279923399 
2456	 0.160412841022814 
2457	 0.160273627778133 
2458	 0.160202776502911 
2459	 0.160067090645901 
2460	 0.159982121868151 
2461	 0.159763783263165 
2462	 0.159521185432069 
2463	 0.159417977299758 
2464	 0.159105537797306 
2465	 0.158759347229378 
2466	 0.158552392778554 
2467	 0.158311903431726 
2468	 0.158260895119199 
2469	 0.158412118733612 
2470	 0.158418106278696 
2471	 0.158334687360767 
2472	 0.158276601335873 
2473	 0.158261099835415 
2474	 0.158268012954778 
2475	 0.158266240030304 
2476	 0.158307230563383 
2477	 0.158226733458965 
2478	 0.158225940195823 
2479	 0.158305303441223 
2480	 0.158194458091263 
2481	 0.158212413393042 
2482	 0.158191315124746 
2483	 0.158367022785967 
2484	 0.158521952228132 
2485	 0.158661730721109 
2486	 0.158710467220661 
2487	 0.158831444069824 
2488	 0.159226197615628 
2489	 0.159449149993545 
2490	 0.159598036683795 
2491	 0.159954919036777 
2492	 0.160112329746533 
2493	 0.160312605194769 
2494	 0.160865525637308 
2495	 0.161230424151327 
2496	 0.161421125892478 
2497	 0.161849798347085 
2498	 0.162312386434758 
2499	 0.162658475340702 
2500	 0.163078766598786 
