Wavelength	spectrum00016.asd
350	 5.70683393318036E-02 
351	 5.23073903499006E-02 
352	 5.04312962163989E-02 
353	 5.24636902269955E-02 
354	 0.050174117339625 
355	 5.05335006100804E-02 
356	 5.07734340970595E-02 
357	 4.82811527673135E-02 
358	 4.71407028185068E-02 
359	 4.65160324767306E-02 
360	 4.57610910530154E-02 
361	 4.45996999453276E-02 
362	 4.50167904353728E-02 
363	 4.43734305990527E-02 
364	 4.23081472333807E-02 
365	 4.19185576722553E-02 
366	 4.20737579562769E-02 
367	 0.042412598079866 
368	 4.25934331113055E-02 
369	 4.17564550837458E-02 
370	 4.15287424055612E-02 
371	 0.041695144859581 
372	 4.11024686772878E-02 
373	 4.05326747279895E-02 
374	 4.01040685970866E-02 
375	 0.039970826019692 
376	 4.04556996439268E-02 
377	 4.03175632940215E-02 
378	 4.01168530163641E-02 
379	 4.02209157169292E-02 
380	 3.83308487472819E-02 
381	 0.038269626359829 
382	 3.89792844234276E-02 
383	 0.037102610170446 
384	 3.82659755145893E-02 
385	 3.93451589391632E-02 
386	 3.83507565340988E-02 
387	 3.64291931150514E-02 
388	 3.55855515521087E-02 
389	 3.56992242752146E-02 
390	 0.035970016458368 
391	 3.58182221235135E-02 
392	 3.59654238884366E-02 
393	 3.60318133819947E-02 
394	 3.51138296250154E-02 
395	 3.49509230945552E-02 
396	 3.52750994714925E-02 
397	 3.56093232775961E-02 
398	 0.035637111788038 
399	 0.03515888076199 
400	 3.45019793907428E-02 
401	 3.40677800383511E-02 
402	 3.37507617263279E-02 
403	 3.40345773016229E-02 
404	 3.42100102254662E-02 
405	 3.29299951178295E-02 
406	 3.26965341888805E-02 
407	 3.29149340433788E-02 
408	 3.29312905403001E-02 
409	 3.29804614378339E-02 
410	 0.032291421828766 
411	 3.16749984397242E-02 
412	 3.20568425668233E-02 
413	 3.22378784886978E-02 
414	 3.19668273140512E-02 
415	 3.15414246069089E-02 
416	 3.16380050023473E-02 
417	 3.13564787687886E-02 
418	 3.11707708697993E-02 
419	 3.13298249008112E-02 
420	 3.09632531519264E-02 
421	 3.07974041152842E-02 
422	 3.08364322703556E-02 
423	 3.08243504717128E-02 
424	 3.09631716251324E-02 
425	 3.08572734915856E-02 
426	 3.05027363455502E-02 
427	 3.03756641699182E-02 
428	 3.01871163027428E-02 
429	 3.01569414366762E-02 
430	 3.03658185667682E-02 
431	 3.01241309836183E-02 
432	 3.01406214955343E-02 
433	 3.03377207149843E-02 
434	 3.02436353990343E-02 
435	 3.02255642691557E-02 
436	 0.030201268417159 
437	 3.01155548386028E-02 
438	 0.030026174204708 
439	 3.00351795375699E-02 
440	 3.00471013974689E-02 
441	 2.99557231515694E-02 
442	 2.98633340647671E-02 
443	 2.98872521630892E-02 
444	 0.029947459077166 
445	 2.98360033142219E-02 
446	 2.99287455813519E-02 
447	 3.00211367557023E-02 
448	 2.99465432479132E-02 
449	 2.98068887964069E-02 
450	 2.97886789358955E-02 
451	 2.98130093373777E-02 
452	 0.029742245032502 
453	 2.98135076558679E-02 
454	 2.99447637421908E-02 
455	 3.00013141076195E-02 
456	 2.98284175881875E-02 
457	 2.98502670903371E-02 
458	 2.98669616192422E-02 
459	 2.97167719591432E-02 
460	 2.98020485268202E-02 
461	 2.98362575198354E-02 
462	 2.97705651520083E-02 
463	 2.97013091067532E-02 
464	 2.97126936290401E-02 
465	 0.029814948044805 
466	 0.029903716425503 
467	 0.029709933766937 
468	 2.96125824217556E-02 
469	 2.96078043822295E-02 
470	 0.029608700991117 
471	 2.97156310945242E-02 
472	 2.97536844800369E-02 
473	 2.97109745060224E-02 
474	 2.97052628771705E-02 
475	 2.96261733267076E-02 
476	 2.95892708143843E-02 
477	 2.96351693249012E-02 
478	 2.95596268039111E-02 
479	 2.94878690398635E-02 
480	 0.029459417758719 
481	 2.94702975085145E-02 
482	 2.94569936311685E-02 
483	 2.94429690748041E-02 
484	 2.94502128825019E-02 
485	 2.94904397507936E-02 
486	 2.95844911450719E-02 
487	 2.95692409368291E-02 
488	 2.93948810343107E-02 
489	 2.94868846013777E-02 
490	 2.95568165293707E-02 
491	 2.95127492562302E-02 
492	 2.94070007381455E-02 
493	 2.94474102621706E-02 
494	 2.94558666646333E-02 
495	 2.93648640612325E-02 
496	 2.93734818371038E-02 
497	 2.93139546773804E-02 
498	 2.92363302968222E-02 
499	 2.92260548678747E-02 
500	 2.92141980170066E-02 
501	 2.91643313349294E-02 
502	 2.90975195763636E-02 
503	 2.90793227267701E-02 
504	 2.90430128083258E-02 
505	 2.90153342037065E-02 
506	 2.90256076613528E-02 
507	 2.90855143827053E-02 
508	 2.90342853057075E-02 
509	 2.89497931946178E-02 
510	 2.89810800947013E-02 
511	 2.89291176011218E-02 
512	 2.89086290540898E-02 
513	 2.89563788615215E-02 
514	 2.89769648602034E-02 
515	 2.88939040090765E-02 
516	 2.88459026822455E-02 
517	 2.89314039097658E-02 
518	 0.028902182091323 
519	 2.88397221382895E-02 
520	 0.028815752764087 
521	 2.88782959502863E-02 
522	 2.89302311969359E-02 
523	 2.89197570735436E-02 
524	 2.88648247191994E-02 
525	 2.89096176768477E-02 
526	 2.88975853982312E-02 
527	 2.88793102342074E-02 
528	 2.89392145666305E-02 
529	 2.89122664145426E-02 
530	 2.88913740734175E-02 
531	 2.89150269785484E-02 
532	 2.89460874055466E-02 
533	 2.89338824842695E-02 
534	 2.88929705995561E-02 
535	 2.88470647285198E-02 
536	 2.87881666163058E-02 
537	 2.87888458924612E-02 
538	 2.87935384369127E-02 
539	 2.87003514881709E-02 
540	 0.028690819918991 
541	 2.87349035745797E-02 
542	 2.87740021947702E-02 
543	 2.87437436131339E-02 
544	 2.87206737763142E-02 
545	 0.028714957807779 
546	 2.87156500542002E-02 
547	 2.87153549616807E-02 
548	 2.87273036948967E-02 
549	 2.87552532942248E-02 
550	 2.87921253364194E-02 
551	 2.87951362492363E-02 
552	 2.88327199367285E-02 
553	 2.89371194157238E-02 
554	 2.89992697001917E-02 
555	 0.029045186241739 
556	 2.91072538385347E-02 
557	 2.92138144765145E-02 
558	 2.93156137594822E-02 
559	 2.94407406172659E-02 
560	 2.95765975373506E-02 
561	 0.029644808453164 
562	 2.97296457745895E-02 
563	 2.98481661645163E-02 
564	 2.99898430874885E-02 
565	 3.01204523791232E-02 
566	 3.02354836761023E-02 
567	 3.03618680308901E-02 
568	 3.05445960874028E-02 
569	 3.07457894078919E-02 
570	 3.09300392410141E-02 
571	 3.10942282687639E-02 
572	 3.12966998926778E-02 
573	 3.15521216664331E-02 
574	 3.18482724138168E-02 
575	 3.21645402937596E-02 
576	 3.25247538338586E-02 
577	 3.28663272465912E-02 
578	 3.32073343869155E-02 
579	 3.36595472803009E-02 
580	 3.41706608293656E-02 
581	 0.034755099497327 
582	 0.035427706893739 
583	 3.61564658588134E-02 
584	 3.69919043880879E-02 
585	 3.79196498980733E-02 
586	 3.88891017229297E-02 
587	 3.99023512543714E-02 
588	 4.09367981768144E-02 
589	 4.19928901689974E-02 
590	 4.31097736887662E-02 
591	 4.42706209917882E-02 
592	 4.54357454718714E-02 
593	 4.65658841325416E-02 
594	 0.047651143120232 
595	 4.87591800221214E-02 
596	 4.98889060607248E-02 
597	 5.09779622307077E-02 
598	 5.20947225729984E-02 
599	 5.32280253672373E-02 
600	 5.43560973958739E-02 
601	 5.54570684781978E-02 
602	 5.65568048386223E-02 
603	 5.76380233446686E-02 
604	 5.86757817581584E-02 
605	 5.97434523557365E-02 
606	 6.07836949641421E-02 
607	 6.17910735362066E-02 
608	 6.28354868631027E-02 
609	 6.37900913611892E-02 
610	 6.47241190849294E-02 
611	 6.57065544181856E-02 
612	 6.66247788277556E-02 
613	 6.75268353061586E-02 
614	 6.84176861664707E-02 
615	 6.92805748897051E-02 
616	 7.01510326696699E-02 
617	 7.10250449668736E-02 
618	 7.18950181169064E-02 
619	 7.27598163135309E-02 
620	 7.36039362152724E-02 
621	 7.44194023058991E-02 
622	 7.52135585787092E-02 
623	 7.60473949356837E-02 
624	 7.68559181890209E-02 
625	 7.76434373458938E-02 
626	 0.078479874589389 
627	 7.92851780824186E-02 
628	 8.00873181735024E-02 
629	 0.080905412838881 
630	 8.16821753976609E-02 
631	 8.24523413421654E-02 
632	 8.32472876612509E-02 
633	 0.084080734038663 
634	 8.48636652504468E-02 
635	 0.085644251911737 
636	 8.64530493115743E-02 
637	 8.72792272513282E-02 
638	 0.088079635954256 
639	 8.88608662794502E-02 
640	 8.96476001113418E-02 
641	 0.090476993861618 
642	 9.13072907369319E-02 
643	 9.21392153959426E-02 
644	 0.092995635398775 
645	 9.38243093076063E-02 
646	 9.46848768122348E-02 
647	 9.55856383531512E-02 
648	 9.64289094970981E-02 
649	 9.72963750004247E-02 
650	 9.81791694057639E-02 
651	 9.90518510608281E-02 
652	 9.99413402670789E-02 
653	 0.100852899044494 
654	 0.101775016049432 
655	 0.102686675299327 
656	 0.103627926883423 
657	 0.104579177087534 
658	 0.105523934584717 
659	 0.10647294087676 
660	 0.10744185610485 
661	 0.108428611166888 
662	 0.109425611527492 
663	 0.110447874484804 
664	 0.11144169904565 
665	 0.112419931135987 
666	 0.113461411869531 
667	 0.114493514484777 
668	 0.115522620341015 
669	 0.116565969138037 
670	 0.117632383349962 
671	 0.118701293706482 
672	 0.119774487419636 
673	 0.120868012876606 
674	 0.122000795906828 
675	 0.123131837555662 
676	 0.124241507376972 
677	 0.125341532325273 
678	 0.126461687796959 
679	 0.127623963648427 
680	 0.128820155616831 
681	 0.129960898849322 
682	 0.131142660655616 
683	 0.132369380149305 
684	 0.133591110402966 
685	 0.134790757990812 
686	 0.135995467819447 
687	 0.137221253214561 
688	 0.13846263318266 
689	 0.139697698750758 
690	 0.140942842912917 
691	 0.142220212790223 
692	 0.143530822881874 
693	 0.144828264750373 
694	 0.14612123187414 
695	 0.147443503221439 
696	 0.148714652950486 
697	 0.150012737985321 
698	 0.151363559641285 
699	 0.15267950963604 
700	 0.154020585923422 
701	 0.155380980147694 
702	 0.156741872545262 
703	 0.158106471824582 
704	 0.1594684930793 
705	 0.160832894621412 
706	 0.162213842212014 
707	 0.163620503057206 
708	 0.164994527451686 
709	 0.166338755757156 
710	 0.167773619352766 
711	 0.169172828581162 
712	 0.170556816630738 
713	 0.17198248619692 
714	 0.173479825439595 
715	 0.174918302434059 
716	 0.176289803724463 
717	 0.177679332127371 
718	 0.179129144764235 
719	 0.180596038882694 
720	 0.182037276097177 
721	 0.183427473554923 
722	 0.184851819344054 
723	 0.186318601191268 
724	 0.187801277722617 
725	 0.189264301024734 
726	 0.190702524665819 
727	 0.192121265339609 
728	 0.193532405499328 
729	 0.194954123398694 
730	 0.196406432279674 
731	 0.197883926230472 
732	 0.19934461500498 
733	 0.200776906085628 
734	 0.20219859860246 
735	 0.203627439802126 
736	 0.205028768793823 
737	 0.206432557880062 
738	 0.207846758862096 
739	 0.209260617498412 
740	 0.210670014697754 
741	 0.212088570068738 
742	 0.213506950037012 
743	 0.214883598359979 
744	 0.216281035733984 
745	 0.217681465949454 
746	 0.219053838361888 
747	 0.220396963077698 
748	 0.221751831948405 
749	 0.223117361222331 
750	 0.224462090320229 
751	 0.225750066888933 
752	 0.227031455122603 
753	 0.228337288980288 
754	 0.229660167234215 
755	 0.230994383200581 
756	 0.232305115877795 
757	 0.233565992044235 
758	 0.234779649065665 
759	 0.23602971035705 
760	 0.237315051480601 
761	 0.238585294376085 
762	 0.239792875103911 
763	 0.240984198758265 
764	 0.242178312781838 
765	 0.243361319168718 
766	 0.244579264012195 
767	 0.245793107739606 
768	 0.246973471629217 
769	 0.248155920766214 
770	 0.249300883117464 
771	 0.25043521480556 
772	 0.251591984410017 
773	 0.252703720561911 
774	 0.253830301193407 
775	 0.254966088074661 
776	 0.256052581542245 
777	 0.257116109041557 
778	 0.258166072320876 
779	 0.259218430156719 
780	 0.260301095588251 
781	 0.261351668291183 
782	 0.262370120005514 
783	 0.263374164266525 
784	 0.264367861141781 
785	 0.265375175942418 
786	 0.266382735557858 
787	 0.267356879355341 
788	 0.268297985247503 
789	 0.269251055739007 
790	 0.270209288039879 
791	 0.271106062663302 
792	 0.272038546288159 
793	 0.272977160873107 
794	 0.27388253649422 
795	 0.274761969284287 
796	 0.275571661657374 
797	 0.276382264412558 
798	 0.277274264881349 
799	 0.278156775678854 
800	 0.279003655357617 
801	 0.279795033264441 
802	 0.280526769882028 
803	 0.281306833470238 
804	 0.28206333859843 
805	 0.282779469687587 
806	 0.283557279398165 
807	 0.284265866153887 
808	 0.28492199553157 
809	 0.285592276923418 
810	 0.286377536985674 
811	 0.287118618806758 
812	 0.28777583250446 
813	 0.288385937351031 
814	 0.289047933404287 
815	 0.289707575152152 
816	 0.290335357405025 
817	 0.290938889492117 
818	 0.291601959055407 
819	 0.292214188174062 
820	 0.292735197529979 
821	 0.293285279890878 
822	 0.293841808274919 
823	 0.294396396186092 
824	 0.294945665783442 
825	 0.2955004023584 
826	 0.296044157962157 
827	 0.296540392563379 
828	 0.296970250614521 
829	 0.29745952351938 
830	 0.297930145710501 
831	 0.298395781207027 
832	 0.298938565287897 
833	 0.299348065247205 
834	 0.299732069018429 
835	 0.300164654239908 
836	 0.300592985252339 
837	 0.30109140999348 
838	 0.301544971122929 
839	 0.301881981739455 
840	 0.302292617308384 
841	 0.302596490709221 
842	 0.302857486776629 
843	 0.303201772690397 
844	 0.303526912822955 
845	 0.303905047539329 
846	 0.304281548618337 
847	 0.304528761604296 
848	 0.30476944961377 
849	 0.305001916412718 
850	 0.30524868338668 
851	 0.305571987325013 
852	 0.305883903893308 
853	 0.306206359091577 
854	 0.306537169772578 
855	 0.306778676047415 
856	 0.306926746466314 
857	 0.307090209824779 
858	 0.307351922028807 
859	 0.307570473418116 
860	 0.307724005933136 
861	 0.307900826046693 
862	 0.30819468263766 
863	 0.308378838574915 
864	 0.308522723933581 
865	 0.308701748048129 
866	 0.308954556068841 
867	 0.309075385205239 
868	 0.309251230125534 
869	 0.309539553761093 
870	 0.309749865000263 
871	 0.309848243990611 
872	 0.309964493608215 
873	 0.310163705595546 
874	 0.31027688286392 
875	 0.310472694276252 
876	 0.310641094522053 
877	 0.31069345621158 
878	 0.310935960620907 
879	 0.311119885923523 
880	 0.311210859318074 
881	 0.311290143900528 
882	 0.311408946334069 
883	 0.311546125691741 
884	 0.311682436085643 
885	 0.311811868232594 
886	 0.31199062302594 
887	 0.312178246212983 
888	 0.312323798646614 
889	 0.312386527484161 
890	 0.312432074801136 
891	 0.312501601311824 
892	 0.312597721697083 
893	 0.312669487628051 
894	 0.312711540743582 
895	 0.312786302336555 
896	 0.312922454813777 
897	 0.313024018958729 
898	 0.313062745159075 
899	 0.313063302990459 
900	 0.313077442488503 
901	 0.313160365810111 
902	 0.31326157883163 
903	 0.313344237077681 
904	 0.313394042062112 
905	 0.313460406106765 
906	 0.313532201314487 
907	 0.313600692791493 
908	 0.313663252878215 
909	 0.313745280321301 
910	 0.313712002577926 
911	 0.313623911996658 
912	 0.313722601868854 
913	 0.313850976177167 
914	 0.313937055851823 
915	 0.313964861558686 
916	 0.313981399991804 
917	 0.314065107086728 
918	 0.314174166987953 
919	 0.314272116075413 
920	 0.31438577276062 
921	 0.314448148459512 
922	 0.314513288697631 
923	 0.314613186466369 
924	 0.314638860819135 
925	 0.314695426034251 
926	 0.314780771705899 
927	 0.314869318749034 
928	 0.314985129836452 
929	 0.315102062500519 
930	 0.315193438877577 
931	 0.315257392786374 
932	 0.315385645634645 
933	 0.315527111270247 
934	 0.315676973619438 
935	 0.315835351384774 
936	 0.315877314678626 
937	 0.315910827219882 
938	 0.315974537513912 
939	 0.316061106922522 
940	 0.316289655411299 
941	 0.316452390306572 
942	 0.316489181784089 
943	 0.316510991245037 
944	 0.316687163444195 
945	 0.316841883155401 
946	 0.316898472308553 
947	 0.316935842352687 
948	 0.317007347880951 
949	 0.317063388528996 
950	 0.317130480249259 
951	 0.317331788288775 
952	 0.317499000348677 
953	 0.317571624825256 
954	 0.317563724031713 
955	 0.317564100354554 
956	 0.317619807884751 
957	 0.317703287311634 
958	 0.317765977373409 
959	 0.317763508411824 
960	 0.317848682645218 
961	 0.317958305184452 
962	 0.318023064457404 
963	 0.318072589632276 
964	 0.318055250757193 
965	 0.31808360063891 
966	 0.318189182422152 
967	 0.318131728392583 
968	 0.318146028704492 
969	 0.318197490842831 
970	 0.318227256927422 
971	 0.318318084687948 
972	 0.318406913605096 
973	 0.318513679934794 
974	 0.318632957067343 
975	 0.318614965488525 
976	 0.31866973890876 
977	 0.318778583289008 
978	 0.318855278659384 
979	 0.3188605017247 
980	 0.318857171524852 
981	 0.31885543623408 
982	 0.318860022374429 
983	 0.318920177786089 
984	 0.318984676302106 
985	 0.319075976601944 
986	 0.319210969695412 
987	 0.319313294437447 
988	 0.319303418574048 
989	 0.319281347913122 
990	 0.319363031306674 
991	 0.319477993303792 
992	 0.319558179378261 
993	 0.319662365770682 
994	 0.319846812391252 
995	 0.320006745502641 
996	 0.319983171447831 
997	 0.3199154543842 
998	 0.319992567460722 
999	 0.320161425165542 
1000	 0.320349439679606 
1001	 0.325011549305842 
1002	 0.325102940208639 
1003	 0.325202683418033 
1004	 0.325270026378453 
1005	 0.325334229783185 
1006	 0.325392076488807 
1007	 0.325397531345172 
1008	 0.325479013531137 
1009	 0.325619012572481 
1010	 0.325721671990019 
1011	 0.325847447407269 
1012	 0.325947000774689 
1013	 0.326024835561311 
1014	 0.326090183449986 
1015	 0.326139469510837 
1016	 0.326185346614237 
1017	 0.326257664456634 
1018	 0.326332712414132 
1019	 0.326414450036343 
1020	 0.32648364877374 
1021	 0.326543558062264 
1022	 0.326568721859864 
1023	 0.326621133200108 
1024	 0.326693642290393 
1025	 0.326746499881893 
1026	 0.326797348397103 
1027	 0.326838301833367 
1028	 0.32686200568372 
1029	 0.326889530134126 
1030	 0.326954105445419 
1031	 0.326995086111096 
1032	 0.3270042045878 
1033	 0.327021532947238 
1034	 0.327024149868809 
1035	 0.327020638589281 
1036	 0.327023118880808 
1037	 0.327045237518879 
1038	 0.327058340297584 
1039	 0.327061018788199 
1040	 0.327053490993647 
1041	 0.327041970557835 
1042	 0.327039877441798 
1043	 0.327024317451235 
1044	 0.327032082915385 
1045	 0.327042044673771 
1046	 0.327052701543514 
1047	 0.327052204655192 
1048	 0.32702327665008 
1049	 0.327022608914768 
1050	 0.32702939350943 
1051	 0.327068755545109 
1052	 0.327135691439809 
1053	 0.327178164133662 
1054	 0.327235763244625 
1055	 0.327268134546213 
1056	 0.327252830552682 
1057	 0.327284666081137 
1058	 0.327342612874823 
1059	 0.327363571705124 
1060	 0.327410948666564 
1061	 0.327480200308923 
1062	 0.32750743689754 
1063	 0.327545646053246 
1064	 0.327590392227181 
1065	 0.327620505511657 
1066	 0.327670808152791 
1067	 0.327741099540425 
1068	 0.327824822316897 
1069	 0.327908579153309 
1070	 0.327981955204282 
1071	 0.328052730255643 
1072	 0.328105886827283 
1073	 0.328150015392611 
1074	 0.328193355190235 
1075	 0.328211650754335 
1076	 0.328248560146392 
1077	 0.328317936595797 
1078	 0.328379978128553 
1079	 0.328434311977764 
1080	 0.328505706906613 
1081	 0.328587660908277 
1082	 0.328660906812568 
1083	 0.328737949948874 
1084	 0.328816238982017 
1085	 0.328890681737193 
1086	 0.328957487425914 
1087	 0.329015514113237 
1088	 0.329078699406141 
1089	 0.329147944174189 
1090	 0.329187247042608 
1091	 0.32922486419752 
1092	 0.329288676861604 
1093	 0.329341144210572 
1094	 0.329415730528091 
1095	 0.329481896746081 
1096	 0.329524399383557 
1097	 0.329596130255762 
1098	 0.32963579893591 
1099	 0.32965450948878 
1100	 0.32968956740045 
1101	 0.329710642993922 
1102	 0.329745430949573 
1103	 0.329780764906063 
1104	 0.329835582226353 
1105	 0.329869191135957 
1106	 0.32989308661746 
1107	 0.32991393354656 
1108	 0.329948652509969 
1109	 0.330007660648887 
1110	 0.330054376848413 
1111	 0.330107562619085 
1112	 0.330160030349538 
1113	 0.330187731817291 
1114	 0.330220722451363 
1115	 0.330241638306694 
1116	 0.330250832674622 
1117	 0.330258208753905 
1118	 0.330268868963961 
1119	 0.330285017149177 
1120	 0.330304156730259 
1121	 0.330328593259335 
1122	 0.33033636437047 
1123	 0.330339847548461 
1124	 0.330346495283866 
1125	 0.330330245174604 
1126	 0.33032209977127 
1127	 0.330330696432904 
1128	 0.330319105616704 
1129	 0.330299496529096 
1130	 0.33028279372843 
1131	 0.330262252368107 
1132	 0.330238433467563 
1133	 0.330232146199399 
1134	 0.330243344318681 
1135	 0.330257603424485 
1136	 0.330289215849193 
1137	 0.330316227276764 
1138	 0.330335442467862 
1139	 0.330368502097733 
1140	 0.330408766319236 
1141	 0.330460783108702 
1142	 0.330506305406162 
1143	 0.330548578684914 
1144	 0.330593386919031 
1145	 0.330632959219734 
1146	 0.33067765775853 
1147	 0.330723327421003 
1148	 0.330761535142941 
1149	 0.330806576107586 
1150	 0.330836597924456 
1151	 0.330853845938179 
1152	 0.330860408152091 
1153	 0.330839375536695 
1154	 0.330841115106728 
1155	 0.330836034076124 
1156	 0.330842781748615 
1157	 0.330876148500696 
1158	 0.330893810820286 
1159	 0.33089785221405 
1160	 0.330920600159968 
1161	 0.330950093407403 
1162	 0.330959253556245 
1163	 0.330973266732829 
1164	 0.330998995893078 
1165	 0.33100193908922 
1166	 0.331003741116896 
1167	 0.331027840969342 
1168	 0.331046348732964 
1169	 0.331072118764419 
1170	 0.331119265939937 
1171	 0.331154480707079 
1172	 0.331186924120571 
1173	 0.331210831532187 
1174	 0.33123834660079 
1175	 0.3312521591857 
1176	 0.331244651357522 
1177	 0.331246234442408 
1178	 0.331243555590742 
1179	 0.331240143246973 
1180	 0.331260082447728 
1181	 0.331288431318403 
1182	 0.331327422890808 
1183	 0.331378203924622 
1184	 0.331421226416118 
1185	 0.331470932700087 
1186	 0.331537099658051 
1187	 0.331615194018373 
1188	 0.331700587725398 
1189	 0.331808271462065 
1190	 0.331899793370702 
1191	 0.331985543862117 
1192	 0.332079810188835 
1193	 0.33216615704494 
1194	 0.332272551380244 
1195	 0.332394462712899 
1196	 0.332521882285194 
1197	 0.332653434754697 
1198	 0.332796288185481 
1199	 0.332967144558071 
1200	 0.333144546892632 
1201	 0.333349697238815 
1202	 0.333551839953769 
1203	 0.333745776074762 
1204	 0.333968412469368 
1205	 0.334216494059647 
1206	 0.334476711733495 
1207	 0.33477752540988 
1208	 0.335105850078429 
1209	 0.335469953926214 
1210	 0.335864478742432 
1211	 0.336292673162387 
1212	 0.336764362032578 
1213	 0.337261006052125 
1214	 0.337800172794202 
1215	 0.338343541294821 
1216	 0.338905555590669 
1217	 0.339481241332473 
1218	 0.340065812047679 
1219	 0.340678609043355 
1220	 0.341298741510472 
1221	 0.341958300398313 
1222	 0.342595152357849 
1223	 0.34323738288049 
1224	 0.343880934202221 
1225	 0.344527972797802 
1226	 0.345159338839488 
1227	 0.345800268994889 
1228	 0.346407208355181 
1229	 0.3470084155112 
1230	 0.347571452005774 
1231	 0.348092730003207 
1232	 0.348622124583598 
1233	 0.349123909890521 
1234	 0.349621964630651 
1235	 0.35012565363843 
1236	 0.350611814228707 
1237	 0.351077715868633 
1238	 0.351541696923487 
1239	 0.351988826723367 
1240	 0.352444628269208 
1241	 0.352916858799675 
1242	 0.353347838963262 
1243	 0.353789186800113 
1244	 0.354235447550379 
1245	 0.354665100472811 
1246	 0.355085790658666 
1247	 0.355493931968172 
1248	 0.355891146125914 
1249	 0.356282424941624 
1250	 0.35665545632117 
1251	 0.357033959235181 
1252	 0.357419535552965 
1253	 0.357787892485508 
1254	 0.358154211924545 
1255	 0.358503965712551 
1256	 0.358830872633695 
1257	 0.359162512675089 
1258	 0.359485203300915 
1259	 0.35980651999712 
1260	 0.360130043116113 
1261	 0.360446843242195 
1262	 0.360743629882802 
1263	 0.361070835851876 
1264	 0.361368614154454 
1265	 0.361652503563842 
1266	 0.361950589362315 
1267	 0.362241154049491 
1268	 0.362539038452816 
1269	 0.362844483162333 
1270	 0.363155515082082 
1271	 0.363470581424779 
1272	 0.363782458269119 
1273	 0.36409706198857 
1274	 0.364420049483919 
1275	 0.364735044812122 
1276	 0.365064258566705 
1277	 0.365410219411566 
1278	 0.365756480343883 
1279	 0.366106501934509 
1280	 0.366459154335408 
1281	 0.366826758320934 
1282	 0.36717989757597 
1283	 0.367518232004794 
1284	 0.367866412776154 
1285	 0.368215014643178 
1286	 0.368552402586783 
1287	 0.368913567880645 
1288	 0.369291274977517 
1289	 0.36966205366737 
1290	 0.370040945466223 
1291	 0.370411859229373 
1292	 0.370775901187367 
1293	 0.371147180827437 
1294	 0.371522020127075 
1295	 0.37189102626973 
1296	 0.372261566062478 
1297	 0.372628300437578 
1298	 0.372985361208912 
1299	 0.373349344703126 
1300	 0.373725085533711 
1301	 0.374082781103616 
1302	 0.374432705817488 
1303	 0.374780925290231 
1304	 0.37511213800862 
1305	 0.37545158504332 
1306	 0.375804221815775 
1307	 0.376141813537459 
1308	 0.37646549152768 
1309	 0.376800843275443 
1310	 0.377121442459749 
1311	 0.377429006266542 
1312	 0.377742572021222 
1313	 0.378059829345671 
1314	 0.378362255972147 
1315	 0.378659713671788 
1316	 0.378949138934917 
1317	 0.379227029770752 
1318	 0.379504064107663 
1319	 0.379776636129091 
1320	 0.38004570064258 
1321	 0.380314453071425 
1322	 0.380569608889715 
1323	 0.380819281605313 
1324	 0.381059335255631 
1325	 0.381287291326708 
1326	 0.38150991570283 
1327	 0.381730820974364 
1328	 0.381936658179845 
1329	 0.382130000797312 
1330	 0.382316289668265 
1331	 0.382484273062362 
1332	 0.38265590992069 
1333	 0.382815700431115 
1334	 0.382990776593865 
1335	 0.383158611654133 
1336	 0.383335476588409 
1337	 0.383481873926369 
1338	 0.383623043843799 
1339	 0.383740402593009 
1340	 0.383831848935468 
1341	 0.383923137793213 
1342	 0.384003874919159 
1343	 0.38407654678086 
1344	 0.384140335411544 
1345	 0.384194906185014 
1346	 0.38424998710086 
1347	 0.384276288963661 
1348	 0.384285047185087 
1349	 0.384283292137919 
1350	 0.384255618158498 
1351	 0.384228524951733 
1352	 0.384190011867505 
1353	 0.384155289188895 
1354	 0.384112639376984 
1355	 0.38407423984912 
1356	 0.38404413997169 
1357	 0.384006055249691 
1358	 0.383961407313989 
1359	 0.38391983323656 
1360	 0.383883409183601 
1361	 0.383832471395165 
1362	 0.383784488640027 
1363	 0.383740244245785 
1364	 0.38369275297071 
1365	 0.383644612278497 
1366	 0.383588308126079 
1367	 0.383542083587842 
1368	 0.383455489304485 
1369	 0.383352088183629 
1370	 0.383229148497485 
1371	 0.383072234869796 
1372	 0.382925216982615 
1373	 0.382782766642254 
1374	 0.382604044073643 
1375	 0.382417705000395 
1376	 0.382197803113549 
1377	 0.3819331528792 
1378	 0.381671552842113 
1379	 0.381387729565102 
1380	 0.38110766355397 
1381	 0.380813456768664 
1382	 0.380530511247432 
1383	 0.380250521420791 
1384	 0.379970794049038 
1385	 0.379688483851598 
1386	 0.379422200934449 
1387	 0.379147092306914 
1388	 0.378907086542802 
1389	 0.378685383056167 
1390	 0.378489967633466 
1391	 0.378332131931859 
1392	 0.378174553143786 
1393	 0.378052981018578 
1394	 0.37793770384575 
1395	 0.377808585157536 
1396	 0.377702506457489 
1397	 0.377532395256893 
1398	 0.377362119706243 
1399	 0.377092994668756 
1400	 0.376767493782213 
1401	 0.376389956734439 
1402	 0.375946405494418 
1403	 0.375450884819748 
1404	 0.37490863393552 
1405	 0.374315496962187 
1406	 0.373642822330269 
1407	 0.372966998845946 
1408	 0.372235164305269 
1409	 0.371522744619677 
1410	 0.370784165737617 
1411	 0.370068062637879 
1412	 0.369341454954916 
1413	 0.368663252512369 
1414	 0.368000142592419 
1415	 0.367371435796849 
1416	 0.366773392682345 
1417	 0.366211765713604 
1418	 0.365691686968485 
1419	 0.365179021567098 
1420	 0.364702860733818 
1421	 0.364237905668469 
1422	 0.363778335091066 
1423	 0.363338313144986 
1424	 0.362924214053254 
1425	 0.362514307871968 
1426	 0.362140745548795 
1427	 0.361762021277231 
1428	 0.361404782138001 
1429	 0.361074730735227 
1430	 0.360725094013404 
1431	 0.360383435096965 
1432	 0.360016631112285 
1433	 0.359641889164623 
1434	 0.359245380163414 
1435	 0.358833385894166 
1436	 0.358398379594292 
1437	 0.3579204947863 
1438	 0.357495028254375 
1439	 0.357043774875697 
1440	 0.356669291131101 
1441	 0.356325920272811 
1442	 0.356051149175113 
1443	 0.355790738211981 
1444	 0.355663603808464 
1445	 0.355594472000514 
1446	 0.355676100520484 
1447	 0.35586916532069 
1448	 0.356191488727127 
1449	 0.35667856461066 
1450	 0.357216292583937 
1451	 0.357883314333769 
1452	 0.358586913564252 
1453	 0.35938455124167 
1454	 0.36018078988385 
1455	 0.361051280541825 
1456	 0.36189799909166 
1457	 0.362766376002512 
1458	 0.363609507954775 
1459	 0.364449260680058 
1460	 0.365271774147062 
1461	 0.366084241827308 
1462	 0.366861240701847 
1463	 0.367607319085993 
1464	 0.368349757557058 
1465	 0.36905877411691 
1466	 0.369775537110416 
1467	 0.370464907584799 
1468	 0.371151048359608 
1469	 0.37184455004526 
1470	 0.372494551841748 
1471	 0.373134749779206 
1472	 0.373775567350403 
1473	 0.374381900967792 
1474	 0.374960417757984 
1475	 0.375506212484931 
1476	 0.376035667865947 
1477	 0.376526956189952 
1478	 0.376967915286482 
1479	 0.377402355677168 
1480	 0.377823186837124 
1481	 0.378209057875024 
1482	 0.378561402754583 
1483	 0.378904186335822 
1484	 0.379206283596644 
1485	 0.379533278699139 
1486	 0.379851619645461 
1487	 0.380182100590366 
1488	 0.380510789878458 
1489	 0.380869867674503 
1490	 0.381227194295978 
1491	 0.381634744516045 
1492	 0.38205898272064 
1493	 0.38255244326762 
1494	 0.383108892259351 
1495	 0.383675746252057 
1496	 0.384307323572546 
1497	 0.384928769389114 
1498	 0.385573841064172 
1499	 0.3862020221996 
1500	 0.38684227198604 
1501	 0.387466686366893 
1502	 0.388083910107825 
1503	 0.388674459448978 
1504	 0.389250712572541 
1505	 0.389814525137594 
1506	 0.390361784262928 
1507	 0.390885296332265 
1508	 0.391405906305717 
1509	 0.391888875670232 
1510	 0.392341597814859 
1511	 0.392758977145043 
1512	 0.393133556756755 
1513	 0.393497835917562 
1514	 0.39382743322021 
1515	 0.394147934637259 
1516	 0.394461683093444 
1517	 0.39475377574066 
1518	 0.395018361326535 
1519	 0.395275753026969 
1520	 0.395515405961069 
1521	 0.395749561247191 
1522	 0.395968622048711 
1523	 0.39619251957666 
1524	 0.396380949866455 
1525	 0.396549638339637 
1526	 0.396710122335954 
1527	 0.396843528910242 
1528	 0.396987828660697 
1529	 0.397126926855007 
1530	 0.397271053988873 
1531	 0.397413494425761 
1532	 0.39755986916182 
1533	 0.397708816726482 
1534	 0.397861658994543 
1535	 0.398003089435995 
1536	 0.398186134947426 
1537	 0.398380085015246 
1538	 0.398609440194725 
1539	 0.398876143737384 
1540	 0.399149958801423 
1541	 0.39943965234894 
1542	 0.39975769784588 
1543	 0.400096354046142 
1544	 0.400457656910639 
1545	 0.400852317538278 
1546	 0.401250020936921 
1547	 0.40166851164622 
1548	 0.40208648874007 
1549	 0.402511639064409 
1550	 0.402948743209341 
1551	 0.403392583500399 
1552	 0.403846865538516 
1553	 0.404331294872998 
1554	 0.404782176903349 
1555	 0.405237653428491 
1556	 0.405660530797015 
1557	 0.406046337542206 
1558	 0.406444978187166 
1559	 0.406830558344102 
1560	 0.407218773982059 
1561	 0.407601837743149 
1562	 0.407998625220267 
1563	 0.40840064352846 
1564	 0.408798787574083 
1565	 0.409208704217855 
1566	 0.409610814974422 
1567	 0.410007123001002 
1568	 0.410397513879397 
1569	 0.410795143460282 
1570	 0.411171866816374 
1571	 0.411532272145648 
1572	 0.411885857731722 
1573	 0.41221587618833 
1574	 0.412563243714613 
1575	 0.412909434102532 
1576	 0.413260743862475 
1577	 0.41362283256044 
1578	 0.413983780884279 
1579	 0.414356653712621 
1580	 0.414705388851515 
1581	 0.415041910188697 
1582	 0.415382249878096 
1583	 0.415710728113311 
1584	 0.416034978811073 
1585	 0.416351257911716 
1586	 0.416685572270501 
1587	 0.417022637881043 
1588	 0.417354993944975 
1589	 0.417710742241972 
1590	 0.41804597259954 
1591	 0.418352666158404 
1592	 0.418676071596266 
1593	 0.4190018133435 
1594	 0.419331582404462 
1595	 0.419676768174631 
1596	 0.420004548186472 
1597	 0.420323507161501 
1598	 0.420645929821654 
1599	 0.420961031637159 
1600	 0.421276840879181 
1601	 0.421599384046054 
1602	 0.421913866294203 
1603	 0.422229554556107 
1604	 0.422525159504826 
1605	 0.422800666006533 
1606	 0.423085848179126 
1607	 0.423359706174548 
1608	 0.423638283843573 
1609	 0.42394150818778 
1610	 0.424215105275694 
1611	 0.424489463161913 
1612	 0.424722382292039 
1613	 0.424910998641396 
1614	 0.425103890539665 
1615	 0.425272897752048 
1616	 0.425435597789642 
1617	 0.425596148734982 
1618	 0.425747352181577 
1619	 0.425879131755951 
1620	 0.426010001942938 
1621	 0.426154134254464 
1622	 0.426266818005781 
1623	 0.426348223605337 
1624	 0.426435602484919 
1625	 0.426503650553946 
1626	 0.42657812839303 
1627	 0.426654933329165 
1628	 0.426737508766979 
1629	 0.426811590734389 
1630	 0.426900431638856 
1631	 0.426998562568363 
1632	 0.427111305823443 
1633	 0.427242464612753 
1634	 0.427371983165875 
1635	 0.427522939831508 
1636	 0.427654383576067 
1637	 0.427789386279511 
1638	 0.427900142999782 
1639	 0.427996527638255 
1640	 0.428072355955009 
1641	 0.42813843438857 
1642	 0.428165900474066 
1643	 0.428175656220591 
1644	 0.42814183431283 
1645	 0.428077136676686 
1646	 0.427958867002744 
1647	 0.427810766590484 
1648	 0.427589307282421 
1649	 0.427293395847136 
1650	 0.426964272516033 
1651	 0.426568221318133 
1652	 0.426149985653321 
1653	 0.425712255417837 
1654	 0.425216390711579 
1655	 0.424679811064235 
1656	 0.424080932223071 
1657	 0.423424441872844 
1658	 0.422708539421629 
1659	 0.421909247555252 
1660	 0.421115780974014 
1661	 0.420294626696688 
1662	 0.41942371082621 
1663	 0.418520707399042 
1664	 0.417578416514767 
1665	 0.416543879729564 
1666	 0.415554738384677 
1667	 0.414561987138329 
1668	 0.41359677049057 
1669	 0.412658784297501 
1670	 0.411713459711214 
1671	 0.410771320076437 
1672	 0.409834139875919 
1673	 0.408912759269915 
1674	 0.407967170199202 
1675	 0.407039260474179 
1676	 0.406080177480523 
1677	 0.405122675588091 
1678	 0.404087093109604 
1679	 0.403017484601099 
1680	 0.401875241029371 
1681	 0.400678010271146 
1682	 0.399376845435803 
1683	 0.398026311738138 
1684	 0.396567170077319 
1685	 0.394999854060072 
1686	 0.393339100151781 
1687	 0.391533389036347 
1688	 0.389732655498781 
1689	 0.387855769738029 
1690	 0.385936275823297 
1691	 0.384025026347029 
1692	 0.382026201632759 
1693	 0.379951847218741 
1694	 0.377809294573959 
1695	 0.37558314035064 
1696	 0.373299208565334 
1697	 0.370927065046187 
1698	 0.368519292559366 
1699	 0.366049123325509 
1700	 0.363648089447259 
1701	 0.361180804570424 
1702	 0.358843184037665 
1703	 0.356526391562493 
1704	 0.354357832346664 
1705	 0.352268696018183 
1706	 0.350281298669406 
1707	 0.348544914415349 
1708	 0.346880681981808 
1709	 0.345326321965594 
1710	 0.343916840429597 
1711	 0.342498724828027 
1712	 0.341200951019376 
1713	 0.339986289727609 
1714	 0.338773924402772 
1715	 0.337696868674688 
1716	 0.336649250279769 
1717	 0.335633837029963 
1718	 0.334717108659611 
1719	 0.333835512982159 
1720	 0.333015302927982 
1721	 0.332292174409996 
1722	 0.331702236900147 
1723	 0.33127994473916 
1724	 0.33100985599715 
1725	 0.330899171583955 
1726	 0.330987803366376 
1727	 0.331272855806325 
1728	 0.331740453165497 
1729	 0.332442776659819 
1730	 0.333349717817715 
1731	 0.334324119871201 
1732	 0.33545963803825 
1733	 0.336628924341294 
1734	 0.337759216344 
1735	 0.338935052088445 
1736	 0.340001766815107 
1737	 0.340934108018969 
1738	 0.34172525326063 
1739	 0.3423091548461 
1740	 0.342687831149257 
1741	 0.342967981119167 
1742	 0.343057135540771 
1743	 0.343078363435221 
1744	 0.342971592922312 
1745	 0.342818919938007 
1746	 0.342517927106402 
1747	 0.342288651128807 
1748	 0.342022192990932 
1749	 0.341816209126059 
1750	 0.341595891777425 
1751	 0.341517420970476 
1752	 0.341485792395143 
1753	 0.341596961820394 
1754	 0.34184880940984 
1755	 0.34219064701599 
1756	 0.342613747754812 
1757	 0.34316087803139 
1758	 0.343882195321109 
1759	 0.344683428622123 
1760	 0.345643508982933 
1761	 0.346774529804123 
1762	 0.347955721644542 
1763	 0.349295952987757 
1764	 0.350737971739375 
1765	 0.352238468079137 
1766	 0.353885725372591 
1767	 0.355541281741174 
1768	 0.357251243277723 
1769	 0.358966614079555 
1770	 0.36052372651986 
1771	 0.362044571506243 
1772	 0.363469187579339 
1773	 0.364776239456106 
1774	 0.366074843976617 
1775	 0.367244687160341 
1776	 0.368363033609636 
1777	 0.369465389345431 
1778	 0.370440495603206 
1779	 0.371378325570481 
1780	 0.372263934777843 
1781	 0.373077957921558 
1782	 0.373873731861171 
1783	 0.374612612107598 
1784	 0.375319955043789 
1785	 0.375897081414809 
1786	 0.376465064227534 
1787	 0.376991338647838 
1788	 0.377508059626468 
1789	 0.378005017810088 
1790	 0.378503434356446 
1791	 0.378993294565111 
1792	 0.379464253162712 
1793	 0.379919025118894 
1794	 0.38035521306801 
1795	 0.380741160288688 
1796	 0.38108300922332 
1797	 0.381446422316962 
1798	 0.381806775783791 
1799	 0.382213911476706 
1800	 0.382647767556704 
1801	 0.37691751697596 
1802	 0.377328892646084 
1803	 0.377768024501345 
1804	 0.378225594628761 
1805	 0.37870678577529 
1806	 0.379157094615134 
1807	 0.379636535354407 
1808	 0.380055804692101 
1809	 0.380425867637213 
1810	 0.380816329613129 
1811	 0.381179149861994 
1812	 0.381566854940264 
1813	 0.381970753760987 
1814	 0.382367604249671 
1815	 0.38277576596245 
1816	 0.383213279389112 
1817	 0.383654598035081 
1818	 0.38411866182159 
1819	 0.384568849467038 
1820	 0.385026487538817 
1821	 0.385475017210636 
1822	 0.385911997608445 
1823	 0.386370179095649 
1824	 0.386791695775532 
1825	 0.387210647432381 
1826	 0.387630620173255 
1827	 0.388033280971958 
1828	 0.388435502112244 
1829	 0.388854338711512 
1830	 0.389246689630381 
1831	 0.389606391190145 
1832	 0.389995386814141 
1833	 0.390378124993439 
1834	 0.390760331602962 
1835	 0.391153438968758 
1836	 0.391519870012264 
1837	 0.391901310896094 
1838	 0.392287362248475 
1839	 0.392658450920308 
1840	 0.393036196859703 
1841	 0.393404611707859 
1842	 0.393755668364884 
1843	 0.394104946477154 
1844	 0.394473085238798 
1845	 0.394792408867749 
1846	 0.395112285827996 
1847	 0.395405973583373 
1848	 0.395660473772266 
1849	 0.395886960352003 
1850	 0.396093934307285 
1851	 0.39628047626143 
1852	 0.396420475502703 
1853	 0.396521342934311 
1854	 0.396577927769838 
1855	 0.396566594262955 
1856	 0.396516928031524 
1857	 0.396449367223074 
1858	 0.396325531368738 
1859	 0.396152701108343 
1860	 0.395934090090849 
1861	 0.395667802281526 
1862	 0.395351123879214 
1863	 0.394998986476303 
1864	 0.394576019145409 
1865	 0.39411810349311 
1866	 0.393583623916699 
1867	 0.392969265741433 
1868	 0.392329378120224 
1869	 0.391581005272255 
1870	 0.390785180713209 
1871	 0.389931665867843 
1872	 0.389040883889572 
1873	 0.388088179335894 
1874	 0.387124878400108 
1875	 0.386114629082666 
1876	 0.384956406628193 
1877	 0.383780574697027 
1878	 0.382475222775673 
1879	 0.381038055250784 
1880	 0.379639186725178 
1881	 0.378088609684685 
1882	 0.376403748440354 
1883	 0.374661851617434 
1884	 0.37284659360358 
1885	 0.370777044121958 
1886	 0.368681121424244 
1887	 0.366447044175005 
1888	 0.36403466112225 
1889	 0.361707284053951 
1890	 0.359238166791143 
1891	 0.356754879383862 
1892	 0.354292845619343 
1893	 0.351746359781302 
1894	 0.349078000816301 
1895	 0.346519220320166 
1896	 0.343935282151447 
1897	 0.341368317563046 
1898	 0.339063265644214 
1899	 0.336749440095982 
1900	 0.33452515775837 
1901	 0.3324584553167 
1902	 0.330312846094118 
1903	 0.328317089970098 
1904	 0.326427464254303 
1905	 0.324618072039695 
1906	 0.322892176079326 
1907	 0.321389371809638 
1908	 0.31993705736258 
1909	 0.318582779471399 
1910	 0.317331731592181 
1911	 0.31606666110081 
1912	 0.314902786835778 
1913	 0.313777781298041 
1914	 0.312663144527213 
1915	 0.311626028440231 
1916	 0.310682029840849 
1917	 0.30972723242712 
1918	 0.308811647817116 
1919	 0.30793878010659 
1920	 0.307032620554679 
1921	 0.306181317642475 
1922	 0.305325558671905 
1923	 0.304472528726149 
1924	 0.303710654074122 
1925	 0.302926778427366 
1926	 0.302181204778113 
1927	 0.301482445945692 
1928	 0.300784547997094 
1929	 0.300073138557975 
1930	 0.299441071208957 
1931	 0.298853207530074 
1932	 0.298303467019423 
1933	 0.297855841038807 
1934	 0.297480092766984 
1935	 0.297158077836145 
1936	 0.296912801063808 
1937	 0.296736180035888 
1938	 0.296626718347699 
1939	 0.296593489220058 
1940	 0.296627829486409 
1941	 0.296747975866739 
1942	 0.296927392516872 
1943	 0.297184817999691 
1944	 0.297504866322753 
1945	 0.297868869746028 
1946	 0.298321165844679 
1947	 0.298819922038489 
1948	 0.299406426957469 
1949	 0.300098655055714 
1950	 0.300820684445251 
1951	 0.301614537566134 
1952	 0.30246957294722 
1953	 0.303373907540591 
1954	 0.304325334518448 
1955	 0.305392892317218 
1956	 0.306445521327069 
1957	 0.3075287886612 
1958	 0.308633567497586 
1959	 0.309631914780626 
1960	 0.310626905698898 
1961	 0.311542167472077 
1962	 0.312381175222832 
1963	 0.313166292849887 
1964	 0.313907012218077 
1965	 0.314566473536679 
1966	 0.315146365166752 
1967	 0.315698662851463 
1968	 0.316174758069797 
1969	 0.316644819220731 
1970	 0.317112718906943 
1971	 0.317582695761142 
1972	 0.318083091542115 
1973	 0.318568676721057 
1974	 0.319083586622646 
1975	 0.319634572299414 
1976	 0.320166266219749 
1977	 0.320684539561865 
1978	 0.321251941946476 
1979	 0.321829841756779 
1980	 0.32241380538441 
1981	 0.323090666174078 
1982	 0.323750288446453 
1983	 0.324431841035618 
1984	 0.325151493519201 
1985	 0.325813755674395 
1986	 0.326522352483779 
1987	 0.32728509950559 
1988	 0.328040626883808 
1989	 0.328897831252392 
1990	 0.32983842356594 
1991	 0.330822011696964 
1992	 0.331865669400555 
1993	 0.332993891160879 
1994	 0.334091507232132 
1995	 0.335301033532772 
1996	 0.336508764061906 
1997	 0.337704421270494 
1998	 0.338943689879386 
1999	 0.340263340543095 
2000	 0.341461536323786 
2001	 0.342691182062933 
2002	 0.34379603653794 
2003	 0.34479733131679 
2004	 0.34576779505095 
2005	 0.34665679503067 
2006	 0.347519837299269 
2007	 0.348357672649055 
2008	 0.349123847939569 
2009	 0.349836581276558 
2010	 0.350496043130288 
2011	 0.351026604005232 
2012	 0.351507627884539 
2013	 0.351937814000548 
2014	 0.352284480736959 
2015	 0.352601921605725 
2016	 0.352888798201696 
2017	 0.35311048342815 
2018	 0.353259097141459 
2019	 0.353391563531126 
2020	 0.35349567461044 
2021	 0.353521028619696 
2022	 0.353523052489762 
2023	 0.353499988882602 
2024	 0.3533987411965 
2025	 0.353270614473816 
2026	 0.353119617414202 
2027	 0.352924546434927 
2028	 0.352721278779908 
2029	 0.352494791203754 
2030	 0.352254799810991 
2031	 0.351986957507417 
2032	 0.351721150378876 
2033	 0.351438795006465 
2034	 0.351159248809169 
2035	 0.350870386517715 
2036	 0.350585340071264 
2037	 0.350322800106258 
2038	 0.350038457991932 
2039	 0.349761067170484 
2040	 0.349488118361769 
2041	 0.349223435362967 
2042	 0.348962791868431 
2043	 0.34869726160095 
2044	 0.348421307670882 
2045	 0.348176831334714 
2046	 0.347928879707556 
2047	 0.347703132455013 
2048	 0.347521313431462 
2049	 0.347334504420472 
2050	 0.347138801251381 
2051	 0.346973473945321 
2052	 0.346829534971114 
2053	 0.346691429509297 
2054	 0.346549508598204 
2055	 0.346423107764921 
2056	 0.346278918226333 
2057	 0.346132584995817 
2058	 0.345969639120092 
2059	 0.345785376774164 
2060	 0.345620613727624 
2061	 0.345448838697051 
2062	 0.345283045607646 
2063	 0.345138057844342 
2064	 0.344983686669856 
2065	 0.34483997759038 
2066	 0.344664389793994 
2067	 0.344464414486018 
2068	 0.344274975324594 
2069	 0.344087370405664 
2070	 0.343881961402136 
2071	 0.343691544215905 
2072	 0.343522130770368 
2073	 0.343334661234591 
2074	 0.343125767271926 
2075	 0.34294152664012 
2076	 0.342767745213534 
2077	 0.342598335356106 
2078	 0.342443504352988 
2079	 0.342283339518548 
2080	 0.342133459586821 
2081	 0.341968382057452 
2082	 0.341800757167621 
2083	 0.341631939456552 
2084	 0.341427446763657 
2085	 0.341202554097532 
2086	 0.340968782214299 
2087	 0.340699607314448 
2088	 0.340452585392087 
2089	 0.340206650902034 
2090	 0.339957807879609 
2091	 0.339731718786224 
2092	 0.339464955468025 
2093	 0.339190754126824 
2094	 0.33888623110532 
2095	 0.338530842883321 
2096	 0.338186683320781 
2097	 0.337851381780412 
2098	 0.337466806243982 
2099	 0.337085762636486 
2100	 0.336711907117508 
2101	 0.336285491761164 
2102	 0.335820330843175 
2103	 0.335358396913778 
2104	 0.334855314243717 
2105	 0.33438045295911 
2106	 0.333929483020174 
2107	 0.333429308440854 
2108	 0.332927447124402 
2109	 0.332390853111054 
2110	 0.331808280927957 
2111	 0.331224597244895 
2112	 0.330622850566165 
2113	 0.330009369658422 
2114	 0.329374044907947 
2115	 0.328731877632609 
2116	 0.328095064156036 
2117	 0.327431339872729 
2118	 0.326730780224647 
2119	 0.32600806455767 
2120	 0.325273390807172 
2121	 0.324468638270591 
2122	 0.323740746579848 
2123	 0.323039086043911 
2124	 0.32233157519039 
2125	 0.321660380497991 
2126	 0.320970456300561 
2127	 0.320238036905117 
2128	 0.319569640477424 
2129	 0.318894069264054 
2130	 0.318293838133696 
2131	 0.317754626556656 
2132	 0.317252879433567 
2133	 0.316796305211111 
2134	 0.316401822082565 
2135	 0.31602243331489 
2136	 0.315697546162025 
2137	 0.315425229012956 
2138	 0.315203684735057 
2139	 0.315023336291189 
2140	 0.314915799256695 
2141	 0.314797380778868 
2142	 0.31471193877275 
2143	 0.314633140706728 
2144	 0.314546504937814 
2145	 0.314524067459181 
2146	 0.314543155819686 
2147	 0.314579116313988 
2148	 0.314671202862321 
2149	 0.314758890661945 
2150	 0.314871398123484 
2151	 0.314972417067867 
2152	 0.315089027225904 
2153	 0.315189980944901 
2154	 0.315283435117711 
2155	 0.315368905663654 
2156	 0.31544462074182 
2157	 0.315516692161443 
2158	 0.315573045629529 
2159	 0.315612485728692 
2160	 0.315651570563257 
2161	 0.315673002329046 
2162	 0.315713297752981 
2163	 0.315755919233661 
2164	 0.315799870525653 
2165	 0.315859523837599 
2166	 0.3159054785364 
2167	 0.315942324307176 
2168	 0.315981929192838 
2169	 0.316015944463388 
2170	 0.31605528799434 
2171	 0.316105248960028 
2172	 0.316140123588339 
2173	 0.316163060627123 
2174	 0.316195513668399 
2175	 0.316222067277802 
2176	 0.316248519187893 
2177	 0.316281465249343 
2178	 0.316328066696927 
2179	 0.316358021731669 
2180	 0.316377282978057 
2181	 0.316413848293021 
2182	 0.316457570786297 
2183	 0.316490765645124 
2184	 0.316540989411059 
2185	 0.316557255733083 
2186	 0.316563232958854 
2187	 0.316537964280493 
2188	 0.316493046851586 
2189	 0.316423463816361 
2190	 0.3163316392823 
2191	 0.316203658849483 
2192	 0.316031884179726 
2193	 0.315858114959291 
2194	 0.315650863462614 
2195	 0.31544270035247 
2196	 0.315223508026446 
2197	 0.315000978881724 
2198	 0.314795101307816 
2199	 0.314585983143816 
2200	 0.314406992979069 
2201	 0.314268240417847 
2202	 0.314101364868673 
2203	 0.313935521528813 
2204	 0.313768903700497 
2205	 0.313601316974639 
2206	 0.313421287459922 
2207	 0.313244107638106 
2208	 0.313049148639872 
2209	 0.312838571994737 
2210	 0.312621816538113 
2211	 0.312399387528342 
2212	 0.312162637049563 
2213	 0.311914011510301 
2214	 0.31165274623848 
2215	 0.311357581793876 
2216	 0.311087961828555 
2217	 0.310833762227745 
2218	 0.310559592880196 
2219	 0.310303098272152 
2220	 0.310023008593823 
2221	 0.30973139295227 
2222	 0.309395344888434 
2223	 0.30907622830135 
2224	 0.30870770865774 
2225	 0.308320187247654 
2226	 0.307902725309385 
2227	 0.30736897799184 
2228	 0.306785780575518 
2229	 0.30608220355941 
2230	 0.305247966623547 
2231	 0.304370943111033 
2232	 0.303430068141777 
2233	 0.302378520689834 
2234	 0.301282404728226 
2235	 0.300003385041582 
2236	 0.298591273490745 
2237	 0.29704707912911 
2238	 0.295301864601473 
2239	 0.293533102185503 
2240	 0.291668826151289 
2241	 0.289703588394437 
2242	 0.287727008930724 
2243	 0.285531587864579 
2244	 0.283124353203003 
2245	 0.280690548730603 
2246	 0.27802892559262 
2247	 0.275426199928459 
2248	 0.272840241229141 
2249	 0.270171449252063 
2250	 0.267443805152386 
2251	 0.264744828343316 
2252	 0.26183579284924 
2253	 0.259031771719073 
2254	 0.25624785887113 
2255	 0.253407119671094 
2256	 0.2507831188261 
2257	 0.248172042018221 
2258	 0.245636724491725 
2259	 0.243223230050503 
2260	 0.240752237270152 
2261	 0.238285087917878 
2262	 0.235894854468383 
2263	 0.233455396758596 
2264	 0.231203170113305 
2265	 0.229114847418138 
2266	 0.226988481044087 
2267	 0.22497399431028 
2268	 0.222914351517567 
2269	 0.220814193309944 
2270	 0.218806891039468 
2271	 0.216802990571563 
2272	 0.214898621441729 
2273	 0.213111163311431 
2274	 0.211294048301232 
2275	 0.209607451368238 
2276	 0.207792407824955 
2277	 0.205932973390849 
2278	 0.204034735618677 
2279	 0.20200874206419 
2280	 0.200035791910326 
2281	 0.198095628729287 
2282	 0.196085177903484 
2283	 0.194077081349963 
2284	 0.192034175392233 
2285	 0.189803934182775 
2286	 0.187632842645601 
2287	 0.18536237528252 
2288	 0.183006490093269 
2289	 0.180788611439987 
2290	 0.178451160696223 
2291	 0.176157734234147 
2292	 0.173947854391098 
2293	 0.171596315251932 
2294	 0.169341568914296 
2295	 0.167173984683164 
2296	 0.165072995258307 
2297	 0.163286198123791 
2298	 0.161693311409476 
2299	 0.160386138578592 
2300	 0.159358805603842 
2301	 0.158562216224083 
2302	 0.15801244945091 
2303	 0.157762908520701 
2304	 0.157793933105825 
2305	 0.15807833017679 
2306	 0.158706789193879 
2307	 0.159517975335985 
2308	 0.160561114065311 
2309	 0.161864676870012 
2310	 0.163520919808114 
2311	 0.165198102338638 
2312	 0.167199616097319 
2313	 0.169097837162801 
2314	 0.171103104997553 
2315	 0.172993669324286 
2316	 0.174899021922105 
2317	 0.176647389495106 
2318	 0.178369025884871 
2319	 0.179825829146546 
2320	 0.181169127488918 
2321	 0.182255799331565 
2322	 0.1830362696431 
2323	 0.183696252593459 
2324	 0.184144981808506 
2325	 0.184430063581353 
2326	 0.184553901788234 
2327	 0.18449499288291 
2328	 0.184201300536125 
2329	 0.183797313450795 
2330	 0.183231912169584 
2331	 0.18248716346927 
2332	 0.181638898214181 
2333	 0.180653351758023 
2334	 0.179442395379648 
2335	 0.178150782082234 
2336	 0.176725790304132 
2337	 0.175215719217359 
2338	 0.173805944537713 
2339	 0.172358815093741 
2340	 0.170983265970627 
2341	 0.169717957534342 
2342	 0.16850490668593 
2343	 0.167494025136973 
2344	 0.166715969302471 
2345	 0.166234827781439 
2346	 0.166066590234108 
2347	 0.166218156785004 
2348	 0.166645406171501 
2349	 0.167414300114614 
2350	 0.168471067469361 
2351	 0.169718813694295 
2352	 0.171126235170766 
2353	 0.172650549992949 
2354	 0.174084430190543 
2355	 0.175447566363973 
2356	 0.176674585236217 
2357	 0.177630708393437 
2358	 0.178511283292407 
2359	 0.179187778557081 
2360	 0.179693931160278 
2361	 0.180032634727155 
2362	 0.180159805162846 
2363	 0.180203622004428 
2364	 0.180157570491442 
2365	 0.180050777330168 
2366	 0.179986510303684 
2367	 0.17984875724928 
2368	 0.179639276667931 
2369	 0.179587115465722 
2370	 0.179555382920075 
2371	 0.179486689880841 
2372	 0.179503981221508 
2373	 0.179513291361114 
2374	 0.179494866175744 
2375	 0.179494064698478 
2376	 0.179487816001773 
2377	 0.179444721389142 
2378	 0.179412640938618 
2379	 0.17945924548416 
2380	 0.179522071952284 
2381	 0.17955753041428 
2382	 0.179560817319251 
2383	 0.179471625919626 
2384	 0.179474249287197 
2385	 0.179520719560309 
2386	 0.179559024883829 
2387	 0.179645005631226 
2388	 0.179721940035145 
2389	 0.179767683684075 
2390	 0.179818959068413 
2391	 0.179888088893035 
2392	 0.179946312844363 
2393	 0.180008889768461 
2394	 0.180062360002069 
2395	 0.180133161271108 
2396	 0.180143100294457 
2397	 0.180068101812341 
2398	 0.180061832665796 
2399	 0.180075735440997 
2400	 0.180116630807202 
2401	 0.180203299892378 
2402	 0.180275927753498 
2403	 0.18029443913649 
2404	 0.180355161703488 
2405	 0.180521104570662 
2406	 0.180712416831936 
2407	 0.180827634679096 
2408	 0.180932418955604 
2409	 0.180974698260611 
2410	 0.180926429329511 
2411	 0.180895832712863 
2412	 0.180833107800334 
2413	 0.180735895155176 
2414	 0.180640477754846 
2415	 0.180635051207411 
2416	 0.180656927250004 
2417	 0.180703301208082 
2418	 0.18089766721756 
2419	 0.181002997992557 
2420	 0.181080943574608 
2421	 0.181263559727135 
2422	 0.18130183677561 
2423	 0.181236489514732 
2424	 0.181158972625069 
2425	 0.181028380174738 
2426	 0.180856342137514 
2427	 0.180779959856725 
2428	 0.1808297723081 
2429	 0.180798201568974 
2430	 0.180750942302017 
2431	 0.18075195247798 
2432	 0.180620079615352 
2433	 0.180458878665601 
2434	 0.180398657041779 
2435	 0.180246901181269 
2436	 0.180051326277072 
2437	 0.179891815219521 
2438	 0.179603590442585 
2439	 0.179359004125867 
2440	 0.17923505258633 
2441	 0.179124359063312 
2442	 0.179086614889412 
2443	 0.17893497963574 
2444	 0.178734215424382 
2445	 0.1785533374765 
2446	 0.17830641322039 
2447	 0.178142196311027 
2448	 0.178012197373807 
2449	 0.177881520652026 
2450	 0.177691083908934 
2451	 0.177503122782561 
2452	 0.177325335284303 
2453	 0.177047656167333 
2454	 0.176891183938979 
2455	 0.176806523642863 
2456	 0.176625138800472 
2457	 0.176493723636491 
2458	 0.176298341072494 
2459	 0.175980387501091 
2460	 0.175731211847917 
2461	 0.175327768916281 
2462	 0.174956424076406 
2463	 0.17484306027823 
2464	 0.174669332232673 
2465	 0.174630702050983 
2466	 0.174715430226617 
2467	 0.174581536431092 
2468	 0.174473006375766 
2469	 0.174482379445097 
2470	 0.174303320307287 
2471	 0.174145545841549 
2472	 0.17409488899978 
2473	 0.173943940347876 
2474	 0.17398407416531 
2475	 0.174124565472317 
2476	 0.174041650111539 
2477	 0.174041514182765 
2478	 0.17407585292437 
2479	 0.173969686388695 
2480	 0.174234787377327 
2481	 0.174327870590995 
2482	 0.174336107423635 
2483	 0.174425810601506 
2484	 0.174534435312171 
2485	 0.174720446009821 
2486	 0.174959805975244 
2487	 0.175084966328476 
2488	 0.175080621210712 
2489	 0.175214024785583 
2490	 0.17553501894924 
2491	 0.176165420799566 
2492	 0.176810645125101 
2493	 0.177211358945621 
2494	 0.177412128125843 
2495	 0.177730836636883 
2496	 0.178382837480463 
2497	 0.178834353798857 
2498	 0.179350384764138 
2499	 0.179869584059193 
2500	 0.180080489725289 
