Wavelength	spectrum00005.asd
350	 6.48970911478634E-02 
351	 6.22906977635392E-02 
352	 5.76661528480459E-02 
353	 5.38817929787136E-02 
354	 5.55729065543594E-02 
355	 5.58877849223776E-02 
356	 5.51813623373957E-02 
357	 5.46928442153237E-02 
358	 0.053012663891299 
359	 0.050687240943207 
360	 4.92702268979796E-02 
361	 5.01537470066417E-02 
362	 4.96214165637594E-02 
363	 4.87390568361187E-02 
364	 4.83037917010368E-02 
365	 4.81174383732077E-02 
366	 0.047369926584975 
367	 4.64960413286091E-02 
368	 4.61849704108811E-02 
369	 4.70751575986782E-02 
370	 4.68369041277446E-02 
371	 4.60457936474531E-02 
372	 4.66793346427396E-02 
373	 4.69526480178326E-02 
374	 4.70171854926257E-02 
375	 4.70218910098957E-02 
376	 4.68212036989328E-02 
377	 4.60231157480406E-02 
378	 4.53070383036994E-02 
379	 4.51498705951905E-02 
380	 4.42741370087758E-02 
381	 4.40154381358083E-02 
382	 4.40620113387911E-02 
383	 4.33291950528633E-02 
384	 4.36942280002649E-02 
385	 4.49104125462827E-02 
386	 4.57816002482492E-02 
387	 4.40537648289659E-02 
388	 4.30435774833228E-02 
389	 4.26670277591682E-02 
390	 4.22179526894547E-02 
391	 4.25262221408742E-02 
392	 4.27242280929649E-02 
393	 4.26502948025844E-02 
394	 4.26542231891501E-02 
395	 4.29874397811008E-02 
396	 4.28072177417968E-02 
397	 4.19942045903987E-02 
398	 4.18242001356359E-02 
399	 0.041480001719456 
400	 4.10453401242434E-02 
401	 4.07680370828946E-02 
402	 4.04290760733873E-02 
403	 4.05484938669859E-02 
404	 0.040789119629955 
405	 4.02936171661228E-02 
406	 0.040421633948784 
407	 4.02368580761824E-02 
408	 3.94370666942966E-02 
409	 3.96046722786793E-02 
410	 3.96084892662437E-02 
411	 3.93717257234093E-02 
412	 3.91824973704824E-02 
413	 3.94050783565092E-02 
414	 3.91773466111046E-02 
415	 3.86742532498012E-02 
416	 3.89654940784649E-02 
417	 3.87518446260842E-02 
418	 3.85837065820346E-02 
419	 3.88130191052613E-02 
420	 0.038557996185384 
421	 3.82685975463076E-02 
422	 3.81705735279639E-02 
423	 3.83251068748608E-02 
424	 3.83950733332793E-02 
425	 3.83395903350935E-02 
426	 3.82334090390478E-02 
427	 3.82448136037961E-02 
428	 0.038243068030975 
429	 0.038165401719732 
430	 3.80270166193137E-02 
431	 3.80042050878492E-02 
432	 3.81619879790485E-02 
433	 3.82721569526004E-02 
434	 3.80424654150403E-02 
435	 3.82100059080241E-02 
436	 0.038388329874466 
437	 3.83469829828814E-02 
438	 3.82880383979969E-02 
439	 0.038352795382109 
440	 3.84343672904759E-02 
441	 3.84145431145454E-02 
442	 3.84716236665622E-02 
443	 3.86572800875516E-02 
444	 3.88347042663374E-02 
445	 3.87543166310893E-02 
446	 3.87737509214874E-02 
447	 3.88292088706256E-02 
448	 3.88743680448678E-02 
449	 3.90658125596388E-02 
450	 0.03930603041143 
451	 3.94217756250467E-02 
452	 3.93195757792065E-02 
453	 3.95395432775355E-02 
454	 3.98899146340179E-02 
455	 4.01558055247177E-02 
456	 4.01729991099456E-02 
457	 4.03492224790303E-02 
458	 4.06303894415474E-02 
459	 4.09098305582058E-02 
460	 4.12788967381032E-02 
461	 4.15764656384103E-02 
462	 4.18201787759163E-02 
463	 4.21267995981452E-02 
464	 4.24942521425014E-02 
465	 4.29123250163433E-02 
466	 4.33604092004869E-02 
467	 4.38082548793084E-02 
468	 4.42661947901342E-02 
469	 4.47150800984281E-02 
470	 4.52020848028409E-02 
471	 4.61040347858422E-02 
472	 4.68084941699978E-02 
473	 4.72998376351774E-02 
474	 4.80430903480804E-02 
475	 4.88049657790872E-02 
476	 0.049651330202938 
477	 0.050606830811139 
478	 5.14955026531374E-02 
479	 5.25447427324476E-02 
480	 5.36696738181291E-02 
481	 5.47156111101346E-02 
482	 5.59225737882873E-02 
483	 5.71688459116591E-02 
484	 5.84284907322434E-02 
485	 5.98098725843817E-02 
486	 6.13965537136873E-02 
487	 6.29367318879037E-02 
488	 0.064289823073296 
489	 6.58831273466729E-02 
490	 6.76905900335672E-02 
491	 6.95336509832094E-02 
492	 7.11957337920312E-02 
493	 7.30314603752199E-02 
494	 7.49673448531651E-02 
495	 0.076928044577018 
496	 7.89207747185076E-02 
497	 8.09472984977342E-02 
498	 8.30707029604138E-02 
499	 8.53193796386761E-02 
500	 8.75049603147947E-02 
501	 8.96966739127925E-02 
502	 9.19151321838331E-02 
503	 9.41340271714655E-02 
504	 9.64904350648419E-02 
505	 9.88189519493865E-02 
506	 0.101038803452915 
507	 0.10339680956151 
508	 0.105828655401333 
509	 0.10826763938557 
510	 0.110658032986074 
511	 0.113096327952784 
512	 0.115545888317133 
513	 0.11798963367464 
514	 0.120462374904087 
515	 0.122853871292065 
516	 0.125222894778255 
517	 0.127633286858096 
518	 0.129999986218128 
519	 0.132384627735096 
520	 0.134786042146351 
521	 0.137158780179031 
522	 0.139540814108731 
523	 0.141886848037415 
524	 0.144181363234864 
525	 0.146500538203624 
526	 0.14877421325556 
527	 0.15104596436532 
528	 0.153361401310019 
529	 0.155537020978771 
530	 0.157699333824922 
531	 0.159890877267296 
532	 0.162040613025296 
533	 0.164191563461006 
534	 0.166312698707123 
535	 0.16837943091508 
536	 0.170436387865337 
537	 0.172522297098146 
538	 0.174597082193589 
539	 0.176593101582625 
540	 0.178612505464155 
541	 0.180554193244059 
542	 0.182410268010665 
543	 0.184359289299487 
544	 0.186222252936004 
545	 0.187993007589314 
546	 0.189728432919749 
547	 0.191509837078916 
548	 0.193279305759766 
549	 0.195012668391106 
550	 0.196719406833826 
551	 0.198365014880615 
552	 0.199989985386428 
553	 0.201609603132656 
554	 0.203130360226177 
555	 0.204630593684413 
556	 0.206125572000841 
557	 0.207596777826877 
558	 0.209024701215628 
559	 0.210448421470525 
560	 0.211855183640549 
561	 0.213154486652886 
562	 0.214449306553273 
563	 0.215734003435188 
564	 0.216991308068776 
565	 0.218281786171414 
566	 0.21957200960705 
567	 0.220883368054268 
568	 0.222267381207724 
569	 0.223610416100814 
570	 0.224891029741104 
571	 0.226108085903602 
572	 0.227265716220277 
573	 0.228359531641596 
574	 0.229408410123652 
575	 0.230445451383156 
576	 0.231518158144456 
577	 0.232594394000265 
578	 0.23363024992056 
579	 0.234576820558751 
580	 0.235584897030033 
581	 0.236570775615641 
582	 0.237451380233485 
583	 0.238315997013617 
584	 0.239181675758645 
585	 0.240079119354529 
586	 0.241032246855037 
587	 0.241940954515677 
588	 0.242827502066631 
589	 0.243719320815107 
590	 0.244629505473958 
591	 0.245452345599136 
592	 0.246240837130705 
593	 0.247075565937137 
594	 0.247922736929642 
595	 0.248710313534778 
596	 0.249474131221759 
597	 0.250330412098847 
598	 0.251102203461027 
599	 0.251841752104965 
600	 0.252602118582802 
601	 0.253329183504398 
602	 0.254041257265864 
603	 0.254720529121595 
604	 0.255351628291152 
605	 0.256045644449154 
606	 0.256717620865701 
607	 0.257341146012316 
608	 0.257981294796709 
609	 0.258601003528949 
610	 0.259196240040953 
611	 0.259783834082986 
612	 0.260418783344218 
613	 0.261043670815872 
614	 0.261634313456583 
615	 0.262193764946331 
616	 0.262730250530684 
617	 0.26327984246256 
618	 0.263858899649607 
619	 0.264449609059249 
620	 0.264986219055679 
621	 0.265502819178635 
622	 0.266048592467845 
623	 0.266558536742338 
624	 0.2670644346048 
625	 0.267569343418504 
626	 0.268048885880527 
627	 0.268531158535152 
628	 0.26902610945365 
629	 0.269532590624301 
630	 0.270036658190092 
631	 0.270492413773614 
632	 0.270932193219997 
633	 0.271405699733119 
634	 0.271806156601644 
635	 0.272221617593558 
636	 0.272697612247734 
637	 0.273203829264559 
638	 0.273620017438741 
639	 0.274001346458556 
640	 0.27441197058443 
641	 0.274777950275397 
642	 0.275189316419993 
643	 0.275617069372464 
644	 0.275970645871935 
645	 0.27632202828754 
646	 0.276727026252743 
647	 0.277166434223265 
648	 0.277501720672419 
649	 0.277877428259774 
650	 0.278234804156661 
651	 0.278502736160705 
652	 0.278825167973836 
653	 0.279184605325166 
654	 0.279545735179198 
655	 0.279868867643437 
656	 0.280218156896858 
657	 0.280556333943378 
658	 0.280859194673085 
659	 0.281163561901054 
660	 0.281465471196858 
661	 0.28177973054542 
662	 0.282115408586726 
663	 0.282426425867482 
664	 0.282700663930936 
665	 0.282960524908536 
666	 0.283257011097181 
667	 0.283535979858885 
668	 0.283803442171074 
669	 0.284074305274302 
670	 0.28435677462824 
671	 0.284631855983401 
672	 0.284900568666255 
673	 0.285170251057778 
674	 0.285420212544409 
675	 0.285648503299907 
676	 0.28586962246665 
677	 0.286114238394113 
678	 0.286375153256655 
679	 0.286618581334466 
680	 0.286820414125156 
681	 0.286994967578122 
682	 0.287236148587533 
683	 0.287491284899252 
684	 0.287645841694576 
685	 0.287799510701033 
686	 0.288038565271969 
687	 0.288338989406278 
688	 0.288530445352267 
689	 0.288678871423259 
690	 0.288818203598669 
691	 0.288980169479375 
692	 0.289211162635434 
693	 0.28942265815179 
694	 0.28962598264338 
695	 0.289877871653203 
696	 0.290012327972361 
697	 0.290142696758566 
698	 0.290327743842006 
699	 0.290485983199611 
700	 0.290686017959291 
701	 0.290854635532209 
702	 0.290942234784201 
703	 0.291137968258422 
704	 0.291351403928716 
705	 0.291526433170987 
706	 0.291648933995938 
707	 0.291834860460589 
708	 0.291998538476588 
709	 0.292103435799282 
710	 0.292236907324755 
711	 0.292421328986658 
712	 0.292605997972232 
713	 0.292745338700872 
714	 0.292921554068454 
715	 0.293075600550244 
716	 0.293198348277433 
717	 0.293322643899041 
718	 0.29349386067879 
719	 0.29368762489609 
720	 0.293868892431759 
721	 0.294000045027997 
722	 0.294174598967037 
723	 0.29438085706775 
724	 0.294568718401306 
725	 0.29467220719873 
726	 0.294843249058444 
727	 0.295068288407382 
728	 0.295222656446294 
729	 0.295378431402315 
730	 0.295539080077206 
731	 0.295717968880375 
732	 0.295960792944802 
733	 0.296164018738405 
734	 0.296342251359793 
735	 0.296536450345517 
736	 0.296739875823298 
737	 0.296943390904211 
738	 0.297124487679909 
739	 0.297267065978595 
740	 0.29749961638691 
741	 0.297700438997833 
742	 0.297825203512707 
743	 0.297989403782814 
744	 0.29818387600728 
745	 0.298418041517741 
746	 0.298683359588311 
747	 0.298912877359935 
748	 0.299118228766491 
749	 0.299325202869971 
750	 0.299561398880334 
751	 0.299798598144134 
752	 0.300042549708172 
753	 0.300292207982629 
754	 0.300533953532719 
755	 0.300791632492664 
756	 0.301075995908572 
757	 0.301367881848328 
758	 0.30156392200167 
759	 0.301830008663716 
760	 0.30215941910514 
761	 0.302464216172887 
762	 0.302732441224133 
763	 0.303000392913922 
764	 0.303277122921263 
765	 0.303541742722334 
766	 0.303875495846269 
767	 0.304193338239143 
768	 0.304450252400864 
769	 0.30477128778061 
770	 0.305061561611996 
771	 0.305359129370332 
772	 0.30571697027823 
773	 0.306023034493142 
774	 0.30628401565179 
775	 0.306549363182888 
776	 0.306887070107095 
777	 0.307212847516858 
778	 0.307523306748108 
779	 0.307825406051704 
780	 0.308119988263703 
781	 0.308455667637225 
782	 0.308785750619882 
783	 0.309069642791474 
784	 0.309388704447102 
785	 0.309720109991999 
786	 0.310053624289518 
787	 0.310383646231695 
788	 0.310685324311385 
789	 0.311006886722066 
790	 0.311337551225971 
791	 0.311596300849818 
792	 0.311919061255981 
793	 0.312251523295832 
794	 0.312549934723932 
795	 0.312900668218438 
796	 0.313210451138715 
797	 0.313494198337233 
798	 0.313798123523038 
799	 0.314098390667747 
800	 0.31446781832204 
801	 0.314835431171348 
802	 0.315049832431983 
803	 0.315353525658713 
804	 0.315686675711431 
805	 0.315984775927661 
806	 0.316240938083857 
807	 0.316541259318383 
808	 0.316850511874327 
809	 0.317133309849087 
810	 0.317456539042799 
811	 0.31775013443992 
812	 0.318021619592422 
813	 0.318307615272859 
814	 0.318591248414602 
815	 0.318837741657662 
816	 0.319078820372182 
817	 0.319391271095814 
818	 0.319658233094675 
819	 0.319879782913291 
820	 0.320083368404283 
821	 0.320308731289103 
822	 0.320488598360085 
823	 0.320695423887956 
824	 0.320976466283732 
825	 0.321184842699417 
826	 0.321413014890772 
827	 0.321632098645789 
828	 0.321780543938813 
829	 0.32194547147702 
830	 0.322118010736763 
831	 0.322312828696022 
832	 0.322557848795294 
833	 0.322754235693759 
834	 0.322886900591855 
835	 0.322977089175802 
836	 0.323076734826852 
837	 0.323278172450867 
838	 0.32348133516675 
839	 0.323607188374595 
840	 0.323792119892616 
841	 0.323889012456672 
842	 0.323940187931578 
843	 0.324050041160313 
844	 0.324203616943914 
845	 0.324403169613127 
846	 0.324586175315687 
847	 0.3246618240799 
848	 0.324702039126774 
849	 0.324790343758501 
850	 0.324948850445095 
851	 0.325120027790083 
852	 0.325259370660138 
853	 0.325381050007154 
854	 0.325497293938673 
855	 0.325584045891544 
856	 0.325653128009693 
857	 0.325742879378354 
858	 0.325872710139549 
859	 0.325968230363928 
860	 0.326058639152927 
861	 0.326161292546471 
862	 0.32627072456778 
863	 0.326292097764835 
864	 0.326326354027113 
865	 0.32638887107467 
866	 0.326417413234247 
867	 0.32647652167954 
868	 0.326556989707819 
869	 0.326619182027647 
870	 0.326602485803823 
871	 0.326593020486232 
872	 0.326642509055973 
873	 0.326750371511105 
874	 0.326830664445073 
875	 0.326845262534961 
876	 0.326795893701443 
877	 0.326732099585305 
878	 0.326799918202432 
879	 0.326847839931904 
880	 0.326865684229604 
881	 0.326907258941926 
882	 0.326954091630639 
883	 0.326960138423048 
884	 0.326952617031144 
885	 0.327003113209545 
886	 0.327049325335933 
887	 0.327087799067798 
888	 0.327108143204102 
889	 0.327089557402001 
890	 0.327083614060274 
891	 0.327076391185237 
892	 0.327062747169483 
893	 0.327072194986234 
894	 0.327127873910745 
895	 0.327164371845057 
896	 0.327151689429763 
897	 0.327211422270395 
898	 0.327255479399637 
899	 0.327269504278108 
900	 0.327273771565221 
901	 0.327316583303106 
902	 0.327341499233514 
903	 0.327367354967007 
904	 0.327437704061251 
905	 0.327510147309481 
906	 0.327558118490573 
907	 0.32761463174943 
908	 0.327729493950499 
909	 0.327744569479125 
910	 0.327765716415168 
911	 0.327826460167566 
912	 0.327867123959066 
913	 0.327962759350652 
914	 0.32804091898005 
915	 0.328059845080041 
916	 0.328054084729094 
917	 0.328122016415404 
918	 0.328217171420334 
919	 0.328303707372369 
920	 0.328428853987426 
921	 0.328432169376061 
922	 0.328414897762239 
923	 0.328489100958299 
924	 0.328614278775383 
925	 0.328677443683337 
926	 0.328735355578464 
927	 0.328856386485205 
928	 0.328940827763875 
929	 0.328999615047479 
930	 0.329043883212328 
931	 0.329105386938205 
932	 0.329298443385577 
933	 0.329413803021656 
934	 0.329476180827494 
935	 0.329610695117514 
936	 0.329691654182985 
937	 0.329790886709046 
938	 0.329876211087581 
939	 0.329882448534565 
940	 0.330072347360584 
941	 0.330246894914144 
942	 0.330329227328875 
943	 0.33039591090644 
944	 0.330554311712281 
945	 0.330612345271364 
946	 0.330587457234681 
947	 0.330723611809019 
948	 0.330844557906767 
949	 0.330969129010105 
950	 0.331091889289645 
951	 0.331151159615941 
952	 0.331184316166299 
953	 0.331279271831067 
954	 0.331436136564528 
955	 0.331522696293264 
956	 0.331610473505601 
957	 0.3316785660704 
958	 0.331712667125584 
959	 0.33173957566054 
960	 0.331880462665086 
961	 0.332029951686542 
962	 0.332097241240358 
963	 0.332135702645807 
964	 0.332202347212328 
965	 0.332282467191093 
966	 0.332386407472979 
967	 0.332631396498783 
968	 0.332772459791175 
969	 0.332821009009053 
970	 0.332865529758487 
971	 0.332971458729056 
972	 0.333118346358889 
973	 0.333274189626361 
974	 0.333416754713055 
975	 0.333569966382531 
976	 0.333656654447093 
977	 0.333729259078521 
978	 0.33384042829782 
979	 0.333905934471542 
980	 0.333975734498955 
981	 0.334062189760883 
982	 0.334165597547222 
983	 0.334289294402823 
984	 0.334444437445892 
985	 0.334549793073452 
986	 0.334571974770551 
987	 0.334745947970505 
988	 0.334767582766849 
989	 0.334793808503218 
990	 0.334986808965875 
991	 0.334925219886436 
992	 0.334997840705251 
993	 0.335199386111245 
994	 0.335388091104918 
995	 0.335507006019691 
996	 0.335680756532534 
997	 0.335748665776047 
998	 0.335626373906341 
999	 0.335795170650103 
1000	 0.336157370964502 
1001	 0.32980280070202 
1002	 0.329869565801782 
1003	 0.329904806306886 
1004	 0.329959147808025 
1005	 0.329994265786148 
1006	 0.330071952389989 
1007	 0.330181517256031 
1008	 0.330271779965266 
1009	 0.330361924421368 
1010	 0.330447511885706 
1011	 0.330549997696769 
1012	 0.330615473890522 
1013	 0.330665207382905 
1014	 0.330717583625228 
1015	 0.330729136597984 
1016	 0.330759194267232 
1017	 0.330850507786243 
1018	 0.330950929668468 
1019	 0.331057043687236 
1020	 0.331151875073227 
1021	 0.331245424334631 
1022	 0.331299256362282 
1023	 0.331407462150697 
1024	 0.331553930097677 
1025	 0.331679343738492 
1026	 0.331841880422936 
1027	 0.331952183153274 
1028	 0.33203308614896 
1029	 0.332109169432265 
1030	 0.332138856351603 
1031	 0.332201435516736 
1032	 0.332326798859378 
1033	 0.332460729438606 
1034	 0.332630529250778 
1035	 0.332782144035978 
1036	 0.332901930555426 
1037	 0.332987132085413 
1038	 0.333078083220181 
1039	 0.3331481991834 
1040	 0.333238461941576 
1041	 0.3333333634828 
1042	 0.333414360004813 
1043	 0.333504644423264 
1044	 0.333569978760303 
1045	 0.333619048960835 
1046	 0.333722889599388 
1047	 0.333816266005265 
1048	 0.333896770496313 
1049	 0.333994906974919 
1050	 0.334042884356271 
1051	 0.33409717077101 
1052	 0.334184481216024 
1053	 0.334243762867968 
1054	 0.334291015217732 
1055	 0.334334953888713 
1056	 0.334370859047019 
1057	 0.334404881890192 
1058	 0.334432144348506 
1059	 0.334459308967161 
1060	 0.334504494064482 
1061	 0.334491472065986 
1062	 0.334487426311596 
1063	 0.334534218058744 
1064	 0.334579956960222 
1065	 0.334634429818478 
1066	 0.334665002781096 
1067	 0.334678215199681 
1068	 0.334679462607151 
1069	 0.334660878075231 
1070	 0.334666589877005 
1071	 0.334698970232616 
1072	 0.334709083584058 
1073	 0.334696503196848 
1074	 0.334724231627029 
1075	 0.334742286032119 
1076	 0.334788037330677 
1077	 0.334864488206709 
1078	 0.334897939415386 
1079	 0.33493267082434 
1080	 0.334950720465879 
1081	 0.334939846917655 
1082	 0.334950234828471 
1083	 0.334946595333078 
1084	 0.33496973427198 
1085	 0.335024812984499 
1086	 0.335064593608607 
1087	 0.335106142454796 
1088	 0.335174375201512 
1089	 0.335221307918623 
1090	 0.335256661753657 
1091	 0.335322410495447 
1092	 0.335379712763209 
1093	 0.33543775784733 
1094	 0.335508506849927 
1095	 0.335600332278329 
1096	 0.33569783495883 
1097	 0.335787104678967 
1098	 0.335876889544367 
1099	 0.335959064771425 
1100	 0.33603529506361 
1101	 0.336087975083886 
1102	 0.336145444804367 
1103	 0.336232038695049 
1104	 0.33632492107731 
1105	 0.336428811685756 
1106	 0.336567386539238 
1107	 0.336689907337842 
1108	 0.33678415676942 
1109	 0.336888159307954 
1110	 0.336998560676133 
1111	 0.337133371616676 
1112	 0.337290166316878 
1113	 0.337427470363855 
1114	 0.337566916078141 
1115	 0.337721810982875 
1116	 0.337858146609454 
1117	 0.338006507826919 
1118	 0.33816415200206 
1119	 0.338334627094799 
1120	 0.338486113671065 
1121	 0.338639777056977 
1122	 0.338789977351231 
1123	 0.338926764163748 
1124	 0.339056271669239 
1125	 0.339198338495257 
1126	 0.339356307712954 
1127	 0.339517128320136 
1128	 0.339686387578277 
1129	 0.339829113869526 
1130	 0.339946475301878 
1131	 0.340068175931974 
1132	 0.340170537625065 
1133	 0.340281670457298 
1134	 0.340421641161628 
1135	 0.340544826532655 
1136	 0.340660792976875 
1137	 0.340771760811871 
1138	 0.340887600072207 
1139	 0.340984990702654 
1140	 0.341080171680754 
1141	 0.341140435225094 
1142	 0.341189983245191 
1143	 0.341235532588089 
1144	 0.341261742449388 
1145	 0.341295561576748 
1146	 0.34132048982328 
1147	 0.341340298972093 
1148	 0.341354439942913 
1149	 0.341366126984172 
1150	 0.341392113290869 
1151	 0.341409094901823 
1152	 0.341426447805533 
1153	 0.34146221674486 
1154	 0.34145430930787 
1155	 0.341416525504816 
1156	 0.341390982928258 
1157	 0.341332225908392 
1158	 0.341296783360277 
1159	 0.341284478868261 
1160	 0.341275672680098 
1161	 0.341220737916978 
1162	 0.3411656211664 
1163	 0.341114371453331 
1164	 0.341048440425817 
1165	 0.341014393332373 
1166	 0.340983421494665 
1167	 0.340941260218393 
1168	 0.340886506252424 
1169	 0.34082500977553 
1170	 0.340748574789217 
1171	 0.340686717388674 
1172	 0.34063180433607 
1173	 0.340559291287755 
1174	 0.340469833680984 
1175	 0.340404949380099 
1176	 0.340340734275301 
1177	 0.340275745455141 
1178	 0.340234790236418 
1179	 0.340182807658656 
1180	 0.340113800189079 
1181	 0.340041867620103 
1182	 0.339962484779251 
1183	 0.339902693543644 
1184	 0.339833010210205 
1185	 0.339774402420507 
1186	 0.339740655148168 
1187	 0.339735381531948 
1188	 0.339714616504479 
1189	 0.339699262833164 
1190	 0.339696907837599 
1191	 0.339692458629299 
1192	 0.339700578687656 
1193	 0.339723865183803 
1194	 0.339758065557281 
1195	 0.339795131682973 
1196	 0.339846464034715 
1197	 0.33991937583181 
1198	 0.339997790041821 
1199	 0.34006049093334 
1200	 0.340134629658566 
1201	 0.340230541937297 
1202	 0.340331760547523 
1203	 0.340467881219431 
1204	 0.340635997783831 
1205	 0.340820546409086 
1206	 0.341011801958577 
1207	 0.341262462498475 
1208	 0.341544513135772 
1209	 0.341869006478277 
1210	 0.342227433998965 
1211	 0.34264401561371 
1212	 0.343120670892888 
1213	 0.343613990357521 
1214	 0.344155953782223 
1215	 0.344732244572337 
1216	 0.345343842337281 
1217	 0.345958875159006 
1218	 0.346622713634912 
1219	 0.347283662161274 
1220	 0.347909789201443 
1221	 0.348583398578241 
1222	 0.349236841805695 
1223	 0.349886493273961 
1224	 0.350536503604525 
1225	 0.351195194772883 
1226	 0.351816201892371 
1227	 0.352425903715641 
1228	 0.353021937894168 
1229	 0.353600055330867 
1230	 0.354154043970525 
1231	 0.354697161637678 
1232	 0.355222266612256 
1233	 0.355717542818494 
1234	 0.356196636871382 
1235	 0.356647701775232 
1236	 0.357106942540112 
1237	 0.357566913359541 
1238	 0.357998271999782 
1239	 0.358406372690295 
1240	 0.358836232970649 
1241	 0.359239603387519 
1242	 0.359610367363535 
1243	 0.360005453251747 
1244	 0.360416202642671 
1245	 0.360812685951796 
1246	 0.361204777336572 
1247	 0.361592682690429 
1248	 0.361976798259938 
1249	 0.36236293597484 
1250	 0.362746829771441 
1251	 0.363123193292099 
1252	 0.363499887790375 
1253	 0.363873347573719 
1254	 0.364237457306107 
1255	 0.364605729529126 
1256	 0.364980721427173 
1257	 0.365347980444163 
1258	 0.365717584334577 
1259	 0.366071349564496 
1260	 0.366411246511257 
1261	 0.366752536958614 
1262	 0.367076401255922 
1263	 0.367418170157623 
1264	 0.367742565777857 
1265	 0.368069529440713 
1266	 0.368380453161043 
1267	 0.368672021073483 
1268	 0.368974068075866 
1269	 0.369272610124464 
1270	 0.369570916685274 
1271	 0.369872150294444 
1272	 0.370168682303877 
1273	 0.370469455932709 
1274	 0.370750324256331 
1275	 0.371022965507335 
1276	 0.37128555988529 
1277	 0.371520716719129 
1278	 0.371769745348936 
1279	 0.372025288550429 
1280	 0.372269461325575 
1281	 0.372518491291204 
1282	 0.372751136706643 
1283	 0.372966055399879 
1284	 0.373177320790902 
1285	 0.373380960693916 
1286	 0.373567103248591 
1287	 0.373777428903893 
1288	 0.373994354398935 
1289	 0.374202248942758 
1290	 0.374422726157837 
1291	 0.374623120445635 
1292	 0.374806571782726 
1293	 0.374992022011635 
1294	 0.375172132037487 
1295	 0.375352981577807 
1296	 0.375527381518142 
1297	 0.375705250949147 
1298	 0.375887933813172 
1299	 0.37606339506612 
1300	 0.376233014677185 
1301	 0.376405800336082 
1302	 0.376575975344513 
1303	 0.376747018800306 
1304	 0.376922618841393 
1305	 0.377093681251527 
1306	 0.37725440352207 
1307	 0.37742574153055 
1308	 0.377596593811153 
1309	 0.377779076314932 
1310	 0.377954807401785 
1311	 0.378139795350938 
1312	 0.3783096367976 
1313	 0.378466523172504 
1314	 0.378636106139028 
1315	 0.378803038387012 
1316	 0.378978048810225 
1317	 0.379163823875087 
1318	 0.379343670798881 
1319	 0.379523656200998 
1320	 0.379703365594795 
1321	 0.379891045733455 
1322	 0.380059877391993 
1323	 0.380210841902505 
1324	 0.38037862573966 
1325	 0.380554303746129 
1326	 0.380710053079239 
1327	 0.380861284349243 
1328	 0.381018244942433 
1329	 0.381162790840981 
1330	 0.381305426299533 
1331	 0.381465766577126 
1332	 0.381609497485382 
1333	 0.381738411488812 
1334	 0.381858435485571 
1335	 0.381971154441382 
1336	 0.382079052022167 
1337	 0.382178007381394 
1338	 0.382269576818751 
1339	 0.382344917547939 
1340	 0.382410028344719 
1341	 0.382469527515242 
1342	 0.382516821113799 
1343	 0.38255514314872 
1344	 0.382592608454412 
1345	 0.382611206878098 
1346	 0.38261103084335 
1347	 0.382606303999831 
1348	 0.38259525890073 
1349	 0.382571036923466 
1350	 0.382536389323035 
1351	 0.38249146368225 
1352	 0.382426867178046 
1353	 0.382367319309971 
1354	 0.382299423452852 
1355	 0.382234841243781 
1356	 0.382178550266217 
1357	 0.382110411973539 
1358	 0.382037722646765 
1359	 0.381959813824727 
1360	 0.38187864266464 
1361	 0.381785518839137 
1362	 0.381681612095414 
1363	 0.381582740274785 
1364	 0.381454233831428 
1365	 0.381310906475123 
1366	 0.381150259212556 
1367	 0.380980048446556 
1368	 0.380769136048074 
1369	 0.38054054085475 
1370	 0.380274681571406 
1371	 0.3799741809865 
1372	 0.37964714290986 
1373	 0.379301256228844 
1374	 0.37890744461419 
1375	 0.378469939483801 
1376	 0.378008790292252 
1377	 0.377506147984534 
1378	 0.376982115141027 
1379	 0.376425593125636 
1380	 0.375857812894702 
1381	 0.375259977650347 
1382	 0.374656488096597 
1383	 0.374040160084127 
1384	 0.373414119236851 
1385	 0.372787440786124 
1386	 0.37213488278426 
1387	 0.371451062026032 
1388	 0.370785267295111 
1389	 0.370100400277693 
1390	 0.369429836553496 
1391	 0.368795259195068 
1392	 0.368122458102742 
1393	 0.36747793392376 
1394	 0.366815817788332 
1395	 0.366123876257445 
1396	 0.365440319117448 
1397	 0.36467844956669 
1398	 0.36389111899271 
1399	 0.363006868101355 
1400	 0.362064058017422 
1401	 0.361040100285012 
1402	 0.359935365584858 
1403	 0.358764004423776 
1404	 0.357505621403596 
1405	 0.356234190996845 
1406	 0.354885512600125 
1407	 0.353544735942579 
1408	 0.352163711188713 
1409	 0.35080266460913 
1410	 0.349412942534806 
1411	 0.348062320393255 
1412	 0.346705901465151 
1413	 0.345425888590674 
1414	 0.344173878918305 
1415	 0.342978725115498 
1416	 0.341839461179908 
1417	 0.340746239472351 
1418	 0.339701273538565 
1419	 0.33869459079715 
1420	 0.337744180864036 
1421	 0.336831507037267 
1422	 0.335946670549125 
1423	 0.335110897466613 
1424	 0.334343861491026 
1425	 0.333569561736617 
1426	 0.332871707294391 
1427	 0.332203032697009 
1428	 0.331535933132716 
1429	 0.330923350363623 
1430	 0.330296428288775 
1431	 0.329689477706245 
1432	 0.329048930014906 
1433	 0.328411667962662 
1434	 0.327744961709542 
1435	 0.327038751008102 
1436	 0.326355660870658 
1437	 0.325659418271606 
1438	 0.324998170757558 
1439	 0.324316868097334 
1440	 0.323730071647427 
1441	 0.323143444804574 
1442	 0.322705791790498 
1443	 0.322332611835764 
1444	 0.322113694349063 
1445	 0.321990346850203 
1446	 0.322050162833452 
1447	 0.322249522241323 
1448	 0.32260999210466 
1449	 0.323183528008405 
1450	 0.323816270034571 
1451	 0.324622629379325 
1452	 0.325442133196816 
1453	 0.326379890604481 
1454	 0.327280271430597 
1455	 0.328225744500148 
1456	 0.329149662166502 
1457	 0.330086529094962 
1458	 0.330983038602369 
1459	 0.331867717821042 
1460	 0.332725306643341 
1461	 0.333545982965747 
1462	 0.334339751821085 
1463	 0.335114161065284 
1464	 0.335863327592452 
1465	 0.336553605853861 
1466	 0.337275505885279 
1467	 0.337952977017743 
1468	 0.338617531135873 
1469	 0.339307481479974 
1470	 0.339950673247267 
1471	 0.340596302597687 
1472	 0.341244741571902 
1473	 0.341867229685505 
1474	 0.342472201110764 
1475	 0.343050666516367 
1476	 0.343625673557668 
1477	 0.344144489577468 
1478	 0.344624085865504 
1479	 0.345065570652299 
1480	 0.345462993882312 
1481	 0.345839864292315 
1482	 0.346172929945551 
1483	 0.346506909334439 
1484	 0.346809390454089 
1485	 0.347126884651287 
1486	 0.347423535427833 
1487	 0.347754756677459 
1488	 0.348079093220073 
1489	 0.348464078548638 
1490	 0.348873339039204 
1491	 0.349339297532152 
1492	 0.349843725932829 
1493	 0.350415488665662 
1494	 0.351056413594924 
1495	 0.35171644893303 
1496	 0.352446924890247 
1497	 0.353173481342472 
1498	 0.353931822544426 
1499	 0.354681903293957 
1500	 0.355460638646638 
1501	 0.356210076602688 
1502	 0.35695485537316 
1503	 0.357671212029119 
1504	 0.358375112144982 
1505	 0.359046742755098 
1506	 0.359703494633325 
1507	 0.360314233190152 
1508	 0.360884777906923 
1509	 0.3614292896562 
1510	 0.361932128906417 
1511	 0.362409218526455 
1512	 0.362853739578963 
1513	 0.36328108252308 
1514	 0.363676848466042 
1515	 0.364059409979842 
1516	 0.364435039743293 
1517	 0.36477865381786 
1518	 0.365097150700427 
1519	 0.365388878339868 
1520	 0.365642795154404 
1521	 0.365884726177046 
1522	 0.366104944645601 
1523	 0.366323845355747 
1524	 0.366522884747938 
1525	 0.366706273456014 
1526	 0.366892009550882 
1527	 0.367065178114301 
1528	 0.367235609493575 
1529	 0.367405720590599 
1530	 0.367569185229004 
1531	 0.36772065537396 
1532	 0.367875970649241 
1533	 0.368023674685035 
1534	 0.368196749926051 
1535	 0.368367606703893 
1536	 0.368568525394692 
1537	 0.368787651139332 
1538	 0.369040167069897 
1539	 0.369312561380569 
1540	 0.369615731572582 
1541	 0.369958313652306 
1542	 0.370310169185693 
1543	 0.370680733627793 
1544	 0.371072186991388 
1545	 0.371487909879775 
1546	 0.371915429049588 
1547	 0.372363553399373 
1548	 0.372821600253989 
1549	 0.373294843931462 
1550	 0.373778283058431 
1551	 0.374281867512076 
1552	 0.374778754720303 
1553	 0.375286132457196 
1554	 0.375786532388606 
1555	 0.376293345328374 
1556	 0.376778581941214 
1557	 0.377254645303772 
1558	 0.377724720250155 
1559	 0.378176206486764 
1560	 0.378630868888695 
1561	 0.379084210324667 
1562	 0.379535486118265 
1563	 0.379988254955772 
1564	 0.38042484206015 
1565	 0.380850704872819 
1566	 0.381279954476231 
1567	 0.38169775406115 
1568	 0.382117808798019 
1569	 0.382553512455418 
1570	 0.382963805545412 
1571	 0.383352053550538 
1572	 0.383747884274314 
1573	 0.384127491137506 
1574	 0.384523168095819 
1575	 0.384942971893013 
1576	 0.385334579536388 
1577	 0.385714917704742 
1578	 0.386098025117404 
1579	 0.386466804381322 
1580	 0.386835623446562 
1581	 0.387216339439318 
1582	 0.38757901044995 
1583	 0.387927486450801 
1584	 0.388270557152025 
1585	 0.388584910965101 
1586	 0.388934151149754 
1587	 0.389298095957667 
1588	 0.389656233213123 
1589	 0.390053669167148 
1590	 0.390408922562874 
1591	 0.390724497083787 
1592	 0.391058026514445 
1593	 0.391375299913377 
1594	 0.391708800816317 
1595	 0.392057024099129 
1596	 0.392404809706154 
1597	 0.392763181148672 
1598	 0.393112399014916 
1599	 0.393467586376551 
1600	 0.39380978679447 
1601	 0.394142613834899 
1602	 0.394467631490447 
1603	 0.394785495972748 
1604	 0.395091467095639 
1605	 0.395380210661362 
1606	 0.395673279853516 
1607	 0.395963217537669 
1608	 0.396247869474758 
1609	 0.396540752585175 
1610	 0.39681220839782 
1611	 0.39707150039376 
1612	 0.397314001216055 
1613	 0.397528377393828 
1614	 0.3977523417677 
1615	 0.397975286946346 
1616	 0.398184000930659 
1617	 0.398391213103798 
1618	 0.398589098811395 
1619	 0.398771411515272 
1620	 0.39894659646183 
1621	 0.399125318465292 
1622	 0.399281406676161 
1623	 0.39941204513091 
1624	 0.399543069110491 
1625	 0.399652462101561 
1626	 0.399774970123994 
1627	 0.399911197433581 
1628	 0.400029818583404 
1629	 0.400143764282484 
1630	 0.400253489467059 
1631	 0.40034437905485 
1632	 0.400442960434251 
1633	 0.400542845610831 
1634	 0.400649167668826 
1635	 0.400761913438671 
1636	 0.400869761480724 
1637	 0.40099589229301 
1638	 0.401090272272131 
1639	 0.401160476657409 
1640	 0.401233031179827 
1641	 0.401302388672011 
1642	 0.401348529896818 
1643	 0.401389131874571 
1644	 0.401407194547626 
1645	 0.40139662059417 
1646	 0.401369025001064 
1647	 0.401328596458558 
1648	 0.401271073158382 
1649	 0.401185669045062 
1650	 0.401093776025706 
1651	 0.400987223319428 
1652	 0.400873553180643 
1653	 0.400770389459701 
1654	 0.400618749484123 
1655	 0.400444391545652 
1656	 0.400237485306761 
1657	 0.399985902792113 
1658	 0.39971165826138 
1659	 0.399419550540333 
1660	 0.399095129142909 
1661	 0.398757822547131 
1662	 0.398344593069063 
1663	 0.397884821683533 
1664	 0.397367939099549 
1665	 0.396794504234703 
1666	 0.396148499093994 
1667	 0.395447933027067 
1668	 0.394685968325096 
1669	 0.393844706266257 
1670	 0.392953484061229 
1671	 0.391996738648227 
1672	 0.390998370207966 
1673	 0.389959970534196 
1674	 0.388830976604276 
1675	 0.387644974644278 
1676	 0.386408807899488 
1677	 0.385085267838389 
1678	 0.383725393850846 
1679	 0.382313975550608 
1680	 0.380852026053772 
1681	 0.379338134476804 
1682	 0.377751121632718 
1683	 0.376130258139382 
1684	 0.374438338256117 
1685	 0.372650733468463 
1686	 0.370839658552085 
1687	 0.368949929214145 
1688	 0.367050879038291 
1689	 0.365131530039771 
1690	 0.363144812742823 
1691	 0.361137304527699 
1692	 0.359086615203315 
1693	 0.356985272432623 
1694	 0.354826642673336 
1695	 0.352596252125534 
1696	 0.350343570024035 
1697	 0.348022992529151 
1698	 0.345679116962606 
1699	 0.343313323323831 
1700	 0.340999581118553 
1701	 0.338631339157554 
1702	 0.336384830895094 
1703	 0.334163763968106 
1704	 0.332067853200386 
1705	 0.330040296503468 
1706	 0.328091724080541 
1707	 0.326380540047513 
1708	 0.324714471323807 
1709	 0.323141045072809 
1710	 0.321713423015185 
1711	 0.32028852768397 
1712	 0.318972715902607 
1713	 0.317711000382085 
1714	 0.316455125510626 
1715	 0.315330461401751 
1716	 0.314231208221089 
1717	 0.313175440604131 
1718	 0.31218602343118 
1719	 0.311191733230108 
1720	 0.310263313856798 
1721	 0.309418454132451 
1722	 0.308682503242757 
1723	 0.308115632342792 
1724	 0.30766605425028 
1725	 0.30737412223017 
1726	 0.307306156901771 
1727	 0.307404112226224 
1728	 0.307665752209007 
1729	 0.308143627246043 
1730	 0.308788881579365 
1731	 0.309523765478305 
1732	 0.310441597613439 
1733	 0.311390656867767 
1734	 0.312310486557206 
1735	 0.313252114991213 
1736	 0.314099507907099 
1737	 0.314836458884491 
1738	 0.315425540522734 
1739	 0.315860863499005 
1740	 0.316120057049592 
1741	 0.316294924336338 
1742	 0.316326036973794 
1743	 0.316302019732944 
1744	 0.316154674703291 
1745	 0.315978009724323 
1746	 0.315695986707575 
1747	 0.315464274198521 
1748	 0.315176207130025 
1749	 0.314988600555189 
1750	 0.314825216093439 
1751	 0.31475938455695 
1752	 0.314756238122685 
1753	 0.314847040466846 
1754	 0.315009301610739 
1755	 0.31531301989989 
1756	 0.315711426414113 
1757	 0.316249368559368 
1758	 0.316938365488097 
1759	 0.317703147327244 
1760	 0.318610861011034 
1761	 0.319641960131673 
1762	 0.320735415214687 
1763	 0.321966574049599 
1764	 0.323224783615008 
1765	 0.32456617776047 
1766	 0.326042019102158 
1767	 0.327484249413067 
1768	 0.329022450787875 
1769	 0.330553576243017 
1770	 0.33191240709489 
1771	 0.333277550141691 
1772	 0.334551103558968 
1773	 0.335722475399851 
1774	 0.336911005863623 
1775	 0.337975839902381 
1776	 0.338969765330011 
1777	 0.33989630258131 
1778	 0.34069272456899 
1779	 0.341472659314455 
1780	 0.342224111877665 
1781	 0.34293642997018 
1782	 0.343650145009413 
1783	 0.344311746452624 
1784	 0.34492890872571 
1785	 0.345512926968711 
1786	 0.346047461590153 
1787	 0.346521934329299 
1788	 0.347016778056402 
1789	 0.347493806761109 
1790	 0.347945118846407 
1791	 0.348385640123596 
1792	 0.348810434718271 
1793	 0.349190883442888 
1794	 0.349578615073306 
1795	 0.349986259125057 
1796	 0.350342822535766 
1797	 0.35070864920854 
1798	 0.351096988839783 
1799	 0.351479554354303 
1800	 0.351883830902885 
1801	 0.349797061850023 
1802	 0.350183793411635 
1803	 0.350562840363648 
1804	 0.350925769526625 
1805	 0.351309471150957 
1806	 0.351662831182524 
1807	 0.352012917850746 
1808	 0.352351802886687 
1809	 0.35266522631938 
1810	 0.352989390661419 
1811	 0.353310839295791 
1812	 0.353640570617862 
1813	 0.353973864015378 
1814	 0.354307382138283 
1815	 0.354635710966115 
1816	 0.354995980788953 
1817	 0.355355981655393 
1818	 0.355715981262722 
1819	 0.356090139069461 
1820	 0.356495690377274 
1821	 0.356870124163383 
1822	 0.357225053504286 
1823	 0.357619797720613 
1824	 0.357966941614372 
1825	 0.358312357928476 
1826	 0.358675053616115 
1827	 0.359052440601723 
1828	 0.359394773349385 
1829	 0.359739850482063 
1830	 0.360073578578466 
1831	 0.360389638457393 
1832	 0.360693449032994 
1833	 0.360977757092526 
1834	 0.36127542642764 
1835	 0.361570775879747 
1836	 0.361850078082704 
1837	 0.362139974183263 
1838	 0.362449855751099 
1839	 0.362738957094236 
1840	 0.363026563151134 
1841	 0.363294113382888 
1842	 0.363555470989847 
1843	 0.363809860886368 
1844	 0.364030410568408 
1845	 0.364216286287162 
1846	 0.364391943950301 
1847	 0.364524695640729 
1848	 0.364638618647267 
1849	 0.364743656150375 
1850	 0.364796478824467 
1851	 0.364824906934155 
1852	 0.364803306272567 
1853	 0.3647203035958 
1854	 0.364585827182976 
1855	 0.364386653672017 
1856	 0.364143444000337 
1857	 0.363862286799641 
1858	 0.36350799398931 
1859	 0.363109012098382 
1860	 0.362677800716206 
1861	 0.362163420868292 
1862	 0.361573779974483 
1863	 0.360956595388717 
1864	 0.360268666469363 
1865	 0.359521369446162 
1866	 0.358718093853309 
1867	 0.357802648554481 
1868	 0.356834036615929 
1869	 0.355754753169598 
1870	 0.354608427107212 
1871	 0.353403282583809 
1872	 0.352136007293359 
1873	 0.350786478949854 
1874	 0.349411103014651 
1875	 0.347984170340922 
1876	 0.346349708901375 
1877	 0.344702204890488 
1878	 0.342893956623458 
1879	 0.340879178741862 
1880	 0.338914570650449 
1881	 0.336789551065565 
1882	 0.334508094772937 
1883	 0.33215281031657 
1884	 0.329721555814609 
1885	 0.326984647743547 
1886	 0.324209733448326 
1887	 0.321242483305329 
1888	 0.318068955114089 
1889	 0.315035250110505 
1890	 0.311809336723101 
1891	 0.308550127447403 
1892	 0.30529752445841 
1893	 0.301912321440337 
1894	 0.298347032976767 
1895	 0.294898991132711 
1896	 0.291367222722813 
1897	 0.287813053836736 
1898	 0.284538532633122 
1899	 0.281170837041102 
1900	 0.277903244114067 
1901	 0.274790096292878 
1902	 0.271496606625796 
1903	 0.26837870151711 
1904	 0.265356754072779 
1905	 0.262380784798765 
1906	 0.25948487602234 
1907	 0.256908891981109 
1908	 0.254333946738616 
1909	 0.251883710734685 
1910	 0.24957278041096 
1911	 0.247195734700588 
1912	 0.245010403756054 
1913	 0.242885202173079 
1914	 0.240781320463234 
1915	 0.238853539062975 
1916	 0.237110104906417 
1917	 0.235363227686186 
1918	 0.233703478010942 
1919	 0.232161132362145 
1920	 0.230548669127418 
1921	 0.229032690742913 
1922	 0.227558640732954 
1923	 0.22607683574029 
1924	 0.224769772207604 
1925	 0.223477454005283 
1926	 0.222234898909851 
1927	 0.221072196934845 
1928	 0.219946575049741 
1929	 0.21883175412691 
1930	 0.217810954773689 
1931	 0.216872609685191 
1932	 0.215976701381843 
1933	 0.215241446777716 
1934	 0.214590436890957 
1935	 0.214007146106064 
1936	 0.213559326777544 
1937	 0.213197048936502 
1938	 0.212918716389058 
1939	 0.212746365986623 
1940	 0.212678170757261 
1941	 0.21270924277764 
1942	 0.212840439806562 
1943	 0.21304615300471 
1944	 0.213332599648235 
1945	 0.213706738147047 
1946	 0.214172078611383 
1947	 0.214695552859304 
1948	 0.215330915943974 
1949	 0.216085893827184 
1950	 0.216889124805269 
1951	 0.217777381250242 
1952	 0.218733987394084 
1953	 0.219756534695658 
1954	 0.220849256578851 
1955	 0.222045596350329 
1956	 0.223244864818713 
1957	 0.224497241046113 
1958	 0.225743659418366 
1959	 0.226879927714618 
1960	 0.228004027122595 
1961	 0.229043336520343 
1962	 0.229991006741534 
1963	 0.230901790371425 
1964	 0.231774038817186 
1965	 0.232554948227098 
1966	 0.233261915516058 
1967	 0.233930798120018 
1968	 0.234508021143894 
1969	 0.23507960281962 
1970	 0.235629132526535 
1971	 0.23616989164363 
1972	 0.236762477717184 
1973	 0.237367900532511 
1974	 0.238018403145164 
1975	 0.238742479398503 
1976	 0.239440941449137 
1977	 0.240142465187887 
1978	 0.240880450359697 
1979	 0.241620654882224 
1980	 0.242394118822996 
1981	 0.243255845413574 
1982	 0.244077303155031 
1983	 0.24494777629553 
1984	 0.245860860211763 
1985	 0.246723683078744 
1986	 0.247683396246466 
1987	 0.248699193875011 
1988	 0.249729590790467 
1989	 0.250874149382425 
1990	 0.252120378326717 
1991	 0.253405589272052 
1992	 0.254769946168232 
1993	 0.256221773222607 
1994	 0.257604690975152 
1995	 0.259096676472438 
1996	 0.26059004643474 
1997	 0.262048235638327 
1998	 0.263563618329198 
1999	 0.265159578458803 
2000	 0.266654793397996 
2001	 0.268204734001133 
2002	 0.269600044203511 
2003	 0.270900423321249 
2004	 0.272158682864961 
2005	 0.273288279800376 
2006	 0.274424123199638 
2007	 0.275558682217666 
2008	 0.276609727484069 
2009	 0.277619205126727 
2010	 0.278584806182768 
2011	 0.279403350231145 
2012	 0.280198360453091 
2013	 0.280925426640456 
2014	 0.281557326608211 
2015	 0.282176332023107 
2016	 0.28276569745508 
2017	 0.283283077004939 
2018	 0.283755970222565 
2019	 0.284174235194633 
2020	 0.284520165548821 
2021	 0.284830449259023 
2022	 0.285088745294091 
2023	 0.285308053540888 
2024	 0.285513227879158 
2025	 0.285654833324081 
2026	 0.285778682869719 
2027	 0.285878853260875 
2028	 0.285943618885629 
2029	 0.285961573955423 
2030	 0.285970497764571 
2031	 0.285947410824554 
2032	 0.285914918123756 
2033	 0.285837266872216 
2034	 0.285790471527607 
2035	 0.28575453669689 
2036	 0.285702053267773 
2037	 0.285653312612228 
2038	 0.285629937289231 
2039	 0.285604814359149 
2040	 0.285572083271821 
2041	 0.285560191938756 
2042	 0.285575306268804 
2043	 0.285569460447949 
2044	 0.285558275703495 
2045	 0.285556841310002 
2046	 0.285556137243666 
2047	 0.285554194101252 
2048	 0.28555053052051 
2049	 0.285557687503714 
2050	 0.285563288396628 
2051	 0.285585574567675 
2052	 0.285609241785291 
2053	 0.28562418235917 
2054	 0.285633790555046 
2055	 0.285626982542593 
2056	 0.285633155088802 
2057	 0.285644427586467 
2058	 0.285653933530095 
2059	 0.285663292006557 
2060	 0.285672206396938 
2061	 0.285682949451077 
2062	 0.285692601492384 
2063	 0.285704049223578 
2064	 0.285712811492166 
2065	 0.285727658476561 
2066	 0.285721982721286 
2067	 0.285717276871681 
2068	 0.285716418535299 
2069	 0.285719253248797 
2070	 0.285729724153602 
2071	 0.285725235290521 
2072	 0.285721433477296 
2073	 0.28570559726576 
2074	 0.2856848328598 
2075	 0.285642164971281 
2076	 0.285585997501189 
2077	 0.285524404782277 
2078	 0.285436296930166 
2079	 0.285353933536905 
2080	 0.285281326250777 
2081	 0.285190264806528 
2082	 0.285096125588591 
2083	 0.284984096856714 
2084	 0.284843561323199 
2085	 0.284685709922522 
2086	 0.284522944699938 
2087	 0.284325554669416 
2088	 0.28416089864489 
2089	 0.284013725469407 
2090	 0.283847301105758 
2091	 0.283699728248851 
2092	 0.283513137933503 
2093	 0.283302573785491 
2094	 0.283076399597488 
2095	 0.282810487069029 
2096	 0.28256248371585 
2097	 0.282320732326219 
2098	 0.282058718915579 
2099	 0.281803052931116 
2100	 0.281518057133033 
2101	 0.281177378666546 
2102	 0.280784964025216 
2103	 0.280393865482339 
2104	 0.279951753491775 
2105	 0.279534352357384 
2106	 0.279123459432246 
2107	 0.278683358392589 
2108	 0.278249844480222 
2109	 0.277771893867357 
2110	 0.277263194999242 
2111	 0.276738523292631 
2112	 0.276152893145377 
2113	 0.275597716347484 
2114	 0.275053567789217 
2115	 0.274486567157365 
2116	 0.27392518448258 
2117	 0.273363606568634 
2118	 0.272750378392163 
2119	 0.272088845678404 
2120	 0.271453850528425 
2121	 0.270772920306363 
2122	 0.270163618363743 
2123	 0.269593740156628 
2124	 0.269013987932348 
2125	 0.268472155479953 
2126	 0.267910836603779 
2127	 0.267334844576203 
2128	 0.266775445966889 
2129	 0.266194938150371 
2130	 0.265666983416525 
2131	 0.265182755094808 
2132	 0.264686622072861 
2133	 0.264207236194698 
2134	 0.263762943051901 
2135	 0.263283196508472 
2136	 0.262799816622762 
2137	 0.262342936844828 
2138	 0.261889768045786 
2139	 0.26147909195382 
2140	 0.261101442506852 
2141	 0.260719790732392 
2142	 0.260365885598155 
2143	 0.260009960267169 
2144	 0.259641178981313 
2145	 0.259311327437096 
2146	 0.258994960113025 
2147	 0.258716068940864 
2148	 0.2584718340512 
2149	 0.258242875117264 
2150	 0.258054152662029 
2151	 0.257867044429896 
2152	 0.257708396338891 
2153	 0.257526233282813 
2154	 0.257351827401645 
2155	 0.257219839621169 
2156	 0.257105745910794 
2157	 0.257022301516303 
2158	 0.256921951292676 
2159	 0.256849419236679 
2160	 0.256743827513788 
2161	 0.256612588143424 
2162	 0.256496476574409 
2163	 0.256368343625887 
2164	 0.256267479413729 
2165	 0.256186487911407 
2166	 0.256093791779134 
2167	 0.256023875186131 
2168	 0.255928080251655 
2169	 0.255798376395094 
2170	 0.255694068265621 
2171	 0.255573484747846 
2172	 0.255488960437687 
2173	 0.255436679462656 
2174	 0.255393497575792 
2175	 0.255346196492105 
2176	 0.255313437133544 
2177	 0.255277306550375 
2178	 0.2552319574691 
2179	 0.255203122974453 
2180	 0.255189644049971 
2181	 0.25517288608775 
2182	 0.255150414126175 
2183	 0.255151990242329 
2184	 0.255179990311408 
2185	 0.255184225120834 
2186	 0.255193327737984 
2187	 0.25519604069309 
2188	 0.25519829101762 
2189	 0.255168689163218 
2190	 0.255119405090545 
2191	 0.255080999166048 
2192	 0.255029372887947 
2193	 0.254961247641688 
2194	 0.2548915741415 
2195	 0.254820217398057 
2196	 0.254722809826959 
2197	 0.254627841109615 
2198	 0.254545577380779 
2199	 0.254477224670177 
2200	 0.254371344432957 
2201	 0.25424587346627 
2202	 0.254111008546558 
2203	 0.253954340451112 
2204	 0.25379644199658 
2205	 0.253629245039388 
2206	 0.25345812106303 
2207	 0.25327681198448 
2208	 0.253100333965318 
2209	 0.252905946358821 
2210	 0.252740363513313 
2211	 0.252586988165338 
2212	 0.252439203415128 
2213	 0.252311862518526 
2214	 0.252184330323859 
2215	 0.252051949647739 
2216	 0.251937647740633 
2217	 0.251823562894182 
2218	 0.251741274025954 
2219	 0.251692840349527 
2220	 0.251642210644064 
2221	 0.251614388507333 
2222	 0.251600616928344 
2223	 0.251549524833143 
2224	 0.251466535437774 
2225	 0.251367720061855 
2226	 0.251220203990559 
2227	 0.251026649200632 
2228	 0.25081579370687 
2229	 0.250511017174475 
2230	 0.250141396641167 
2231	 0.249697956585787 
2232	 0.249192186165525 
2233	 0.248583578049986 
2234	 0.247914524612739 
2235	 0.247113452414868 
2236	 0.246202724173059 
2237	 0.24519386766076 
2238	 0.244039063590731 
2239	 0.242839443072119 
2240	 0.241559653015216 
2241	 0.240182348851008 
2242	 0.238768944980492 
2243	 0.237191949166582 
2244	 0.235452421275276 
2245	 0.233666656277907 
2246	 0.23168208453875 
2247	 0.229748798228912 
2248	 0.227810561489691 
2249	 0.22580757811491 
2250	 0.22377877977798 
2251	 0.221751933179647 
2252	 0.219498943701227 
2253	 0.217337290598223 
2254	 0.21514251850306 
2255	 0.212871493769966 
2256	 0.210781545428848 
2257	 0.20866563344966 
2258	 0.206619863111686 
2259	 0.204659107177659 
2260	 0.202652429039506 
2261	 0.200642329905573 
2262	 0.198702317435323 
2263	 0.196724863240343 
2264	 0.194893401419486 
2265	 0.193188944663152 
2266	 0.191465793221713 
2267	 0.189839661041735 
2268	 0.188170672770432 
2269	 0.186490840840006 
2270	 0.184853255215908 
2271	 0.183176755188241 
2272	 0.181607827362098 
2273	 0.180131137412041 
2274	 0.178637368989754 
2275	 0.177278550840506 
2276	 0.175791487213989 
2277	 0.174248607630516 
2278	 0.172685026471958 
2279	 0.171002705819705 
2280	 0.169379711117653 
2281	 0.167805549019165 
2282	 0.166165049490594 
2283	 0.164527999981269 
2284	 0.162883045504602 
2285	 0.161039569526224 
2286	 0.159199204740503 
2287	 0.157254797597185 
2288	 0.155247128904504 
2289	 0.153383010272633 
2290	 0.151416752203804 
2291	 0.149514603094179 
2292	 0.147648531083183 
2293	 0.145644513282826 
2294	 0.143775575303671 
2295	 0.141957330078327 
2296	 0.140231086741086 
2297	 0.138768934443247 
2298	 0.137498214954394 
2299	 0.136415203694599 
2300	 0.135550005495052 
2301	 0.134874379131595 
2302	 0.134375997989427 
2303	 0.134147440327828 
2304	 0.134175273715905 
2305	 0.134390089180284 
2306	 0.134863918421132 
2307	 0.135505313459942 
2308	 0.136353410207795 
2309	 0.137395433742642 
2310	 0.138727454471147 
2311	 0.140080416768885 
2312	 0.141679178736124 
2313	 0.143193892204911 
2314	 0.144798726474878 
2315	 0.146328409496286 
2316	 0.147900668702034 
2317	 0.149289265620163 
2318	 0.150635640247228 
2319	 0.15177262985448 
2320	 0.152772488853053 
2321	 0.153573950719975 
2322	 0.154170666788326 
2323	 0.154625558119692 
2324	 0.154879443034434 
2325	 0.154985655520492 
2326	 0.154902814729062 
2327	 0.154713476101325 
2328	 0.154339067334037 
2329	 0.153881867253146 
2330	 0.153311124111824 
2331	 0.152634594103796 
2332	 0.151855698066519 
2333	 0.15088818973142 
2334	 0.149755759693945 
2335	 0.148558080364835 
2336	 0.147272184938248 
2337	 0.145930173280658 
2338	 0.144649804229671 
2339	 0.143348858867636 
2340	 0.142079171673476 
2341	 0.140943021685817 
2342	 0.139889018046814 
2343	 0.139022801032372 
2344	 0.138351748007365 
2345	 0.137822572919141 
2346	 0.137525491597849 
2347	 0.13751680297243 
2348	 0.137695170871835 
2349	 0.138169288352689 
2350	 0.138898197064775 
2351	 0.139736969234393 
2352	 0.140731706568568 
2353	 0.141832130009052 
2354	 0.142838007512896 
2355	 0.143812252000276 
2356	 0.144681616358028 
2357	 0.145345981017768 
2358	 0.145980017874473 
2359	 0.146465417170466 
2360	 0.146773364953422 
2361	 0.146956262884942 
2362	 0.147002826947991 
2363	 0.146916165128477 
2364	 0.146781161549905 
2365	 0.146658723328489 
2366	 0.146530702185458 
2367	 0.146415127597562 
2368	 0.14624654291663 
2369	 0.146033676508927 
2370	 0.145860889738608 
2371	 0.145676828551623 
2372	 0.14554960653011 
2373	 0.145477741765286 
2374	 0.145367610485333 
2375	 0.145252979363438 
2376	 0.145081445493437 
2377	 0.144947120023644 
2378	 0.144836685749035 
2379	 0.144702606779464 
2380	 0.144612238504705 
2381	 0.144477851509011 
2382	 0.144357911267082 
2383	 0.144213477152214 
2384	 0.144074458206287 
2385	 0.143966589020812 
2386	 0.143860500470848 
2387	 0.143720144145815 
2388	 0.143610549006609 
2389	 0.143522513540344 
2390	 0.143430447725133 
2391	 0.14335315392473 
2392	 0.143257811870027 
2393	 0.143176865061919 
2394	 0.14307586182884 
2395	 0.142950291747096 
2396	 0.142823625645474 
2397	 0.142704525890177 
2398	 0.142546452634979 
2399	 0.142352388816964 
2400	 0.142159208970127 
2401	 0.141922593378979 
2402	 0.141779347267788 
2403	 0.141637430547555 
2404	 0.14151350161105 
2405	 0.141364851182729 
2406	 0.141117204364333 
2407	 0.140884613633729 
2408	 0.14062476822429 
2409	 0.140357668304348 
2410	 0.140156417371497 
2411	 0.139954233956165 
2412	 0.139757268584332 
2413	 0.139492466490896 
2414	 0.139193736729518 
2415	 0.138944826070698 
2416	 0.138714716843556 
2417	 0.138545383117894 
2418	 0.138404216997826 
2419	 0.138238291613079 
2420	 0.138061467485825 
2421	 0.137853481281001 
2422	 0.137664251149431 
2423	 0.137458239106297 
2424	 0.137148106826879 
2425	 0.136963169912188 
2426	 0.136816378722712 
2427	 0.136560285757193 
2428	 0.136440163669288 
2429	 0.136299824430174 
2430	 0.136106860405281 
2431	 0.135995017058337 
2432	 0.135770033282186 
2433	 0.135475686361976 
2434	 0.135255428450934 
2435	 0.134983507517676 
2436	 0.134756835238778 
2437	 0.134586714602197 
2438	 0.134264167385589 
2439	 0.134002783257268 
2440	 0.133719264287065 
2441	 0.133335286718466 
2442	 0.133114722726988 
2443	 0.13284193072277 
2444	 0.132488327261663 
2445	 0.132293008716788 
2446	 0.131979915483475 
2447	 0.131561384386591 
2448	 0.131285670605234 
2449	 0.130945453405627 
2450	 0.130687973319918 
2451	 0.130389512130299 
2452	 0.130007144727802 
2453	 0.129743953684894 
2454	 0.129302793457075 
2455	 0.128901710502849 
2456	 0.128506818636374 
2457	 0.128018779033516 
2458	 0.127689475390561 
2459	 0.12735694735291 
2460	 0.126996620995706 
2461	 0.126517309086504 
2462	 0.125956858032373 
2463	 0.125645591533329 
2464	 0.125424917786602 
2465	 0.125235213607796 
2466	 0.125143104053735 
2467	 0.124972766920442 
2468	 0.124774610943622 
2469	 0.124619364911162 
2470	 0.124429378442663 
2471	 0.124022343957013 
2472	 0.123637059309084 
2473	 0.123617687414334 
2474	 0.123565684509418 
2475	 0.123358033915148 
2476	 0.123196230402149 
2477	 0.122817593280163 
2478	 0.1223937795895 
2479	 0.122202112266192 
2480	 0.122285106812361 
2481	 0.122275530027297 
2482	 0.122350365790209 
2483	 0.122388437587193 
2484	 0.122252063749167 
2485	 0.121985214405261 
2486	 0.121836756591482 
2487	 0.121936974857062 
2488	 0.12190157314316 
2489	 0.121732167625419 
2490	 0.121820058110148 
2491	 0.121954593770763 
2492	 0.122017284409143 
2493	 0.122333698355924 
2494	 0.122744335573835 
2495	 0.122747169516201 
2496	 0.122760927440769 
2497	 0.123135148210439 
2498	 0.123397708199475 
2499	 0.123654460427425 
2500	 0.123907024287193 
