Wavelength	spectrum00008.asd
350	 0.052134135402062 
351	 5.04825629848617E-02 
352	 0.049290257921516 
353	 4.88085468044302E-02 
354	 0.047345991431301 
355	 4.73367010504748E-02 
356	 4.75202042742194E-02 
357	 4.65446620965362E-02 
358	 4.51827344685792E-02 
359	 4.40045598799237E-02 
360	 0.043576354300139 
361	 4.41646628172549E-02 
362	 4.43227344395628E-02 
363	 4.32104389915793E-02 
364	 4.15533819809005E-02 
365	 4.19232974784922E-02 
366	 4.27523555030885E-02 
367	 4.27289856975123E-02 
368	 0.041551055673558 
369	 4.19161540539107E-02 
370	 4.15235182800179E-02 
371	 4.09958416767955E-02 
372	 0.04217090885485 
373	 4.16081469450183E-02 
374	 4.16429492589972E-02 
375	 4.27306979413297E-02 
376	 4.17672249904044E-02 
377	 4.28946218606933E-02 
378	 4.35119229626262E-02 
379	 4.12013084555994E-02 
380	 4.00737583931271E-02 
381	 0.040683282321235 
382	 4.19141102326161E-02 
383	 4.18884008039754E-02 
384	 0.041932011767541 
385	 4.18101060168195E-02 
386	 0.041422915093783 
387	 4.11113619830618E-02 
388	 4.09820662052493E-02 
389	 4.13706638722428E-02 
390	 4.21117322300105E-02 
391	 4.10421074180133E-02 
392	 4.05420899220453E-02 
393	 4.08577009824991E-02 
394	 4.07986703969169E-02 
395	 4.06996893171244E-02 
396	 4.11302155892134E-02 
397	 4.19263725104131E-02 
398	 0.041688376273076 
399	 4.12866047656664E-02 
400	 0.040820543869934 
401	 4.03523483191834E-02 
402	 4.07430863306798E-02 
403	 4.08612993747188E-02 
404	 4.05494822342688E-02 
405	 4.04260389745216E-02 
406	 4.05934149675981E-02 
407	 4.05771177499321E-02 
408	 4.02992188288109E-02 
409	 4.06984332646557E-02 
410	 4.03126714779811E-02 
411	 3.98033987200717E-02 
412	 4.01660083562666E-02 
413	 4.03640935440185E-02 
414	 4.03310578203883E-02 
415	 4.02215081672302E-02 
416	 0.040310510429435 
417	 4.00679216511333E-02 
418	 0.040057164979587 
419	 4.05052983730962E-02 
420	 4.04196647953053E-02 
421	 4.04002752972875E-02 
422	 0.040566398528617 
423	 4.07968490939368E-02 
424	 4.07793903336495E-02 
425	 4.07991863950716E-02 
426	 4.09533417363398E-02 
427	 4.10723461065549E-02 
428	 0.041019064771415 
429	 4.10668279511311E-02 
430	 4.13709485272193E-02 
431	 4.14385545491461E-02 
432	 4.16243094022221E-02 
433	 4.18307530100498E-02 
434	 4.17712021276173E-02 
435	 4.19419490831454E-02 
436	 4.20769413730238E-02 
437	 4.20902776815029E-02 
438	 0.042311699528068 
439	 4.25318761368059E-02 
440	 4.27072171563508E-02 
441	 4.28564175737592E-02 
442	 4.30728779189501E-02 
443	 4.31143158508496E-02 
444	 4.30822392000386E-02 
445	 4.33274566545167E-02 
446	 4.35298635551868E-02 
447	 4.35751953732596E-02 
448	 4.35083308827144E-02 
449	 4.36489095747595E-02 
450	 4.37406975890959E-02 
451	 4.37868926179144E-02 
452	 4.38622021036998E-02 
453	 4.38268844479221E-02 
454	 4.39271436192494E-02 
455	 4.41173500903515E-02 
456	 4.40138174006409E-02 
457	 4.39002095566107E-02 
458	 4.39087783262348E-02 
459	 4.40457777298831E-02 
460	 4.40524863507868E-02 
461	 4.41291092448379E-02 
462	 4.41982920804221E-02 
463	 4.40745148612951E-02 
464	 4.40710249895211E-02 
465	 4.40906639594111E-02 
466	 4.40526126121059E-02 
467	 4.39685637439983E-02 
468	 4.40087596447668E-02 
469	 4.40970261518936E-02 
470	 4.41262937136472E-02 
471	 4.42164104953515E-02 
472	 4.42106846254413E-02 
473	 4.41891031215002E-02 
474	 4.43904943586584E-02 
475	 0.044380219407787 
476	 4.43315229210907E-02 
477	 4.44156907088727E-02 
478	 0.044613054918976 
479	 4.45214773643065E-02 
480	 4.44234512896391E-02 
481	 4.47302812055907E-02 
482	 4.47631244658069E-02 
483	 4.48545971612315E-02 
484	 4.50780608826644E-02 
485	 4.51343765693865E-02 
486	 4.53708203136699E-02 
487	 4.55390798746408E-02 
488	 4.54599901514781E-02 
489	 0.045577765813708 
490	 4.58046964083854E-02 
491	 4.60215743488345E-02 
492	 4.61239251766116E-02 
493	 4.63697299276298E-02 
494	 4.66054967292959E-02 
495	 4.67722410715256E-02 
496	 4.70601884468557E-02 
497	 4.71906094604498E-02 
498	 4.72955434012916E-02 
499	 4.75655616170327E-02 
500	 4.78480116760676E-02 
501	 4.80231536819519E-02 
502	 4.81630096570683E-02 
503	 4.84878589237859E-02 
504	 4.87397127675491E-02 
505	 4.89796259015221E-02 
506	 4.92679752125419E-02 
507	 4.95164933741198E-02 
508	 4.97927861126185E-02 
509	 5.00768243288617E-02 
510	 5.03267835122079E-02 
511	 5.06307707635058E-02 
512	 5.10164609728052E-02 
513	 5.14269268042012E-02 
514	 5.17090150729562E-02 
515	 5.19784862635173E-02 
516	 5.22853043053799E-02 
517	 5.26389579347903E-02 
518	 5.29706589189206E-02 
519	 5.33096229103286E-02 
520	 5.37107140651661E-02 
521	 5.42235499066919E-02 
522	 5.46434822477845E-02 
523	 5.49963663977799E-02 
524	 5.53612813977916E-02 
525	 5.58627253245362E-02 
526	 5.63029532445239E-02 
527	 5.67467283110147E-02 
528	 0.057308465813872 
529	 5.78186365265723E-02 
530	 0.058290218932464 
531	 5.87790546358373E-02 
532	 5.93680986497413E-02 
533	 0.059980749795143 
534	 6.05879733975419E-02 
535	 6.11841454073489E-02 
536	 6.17905126697057E-02 
537	 6.24916859774103E-02 
538	 6.32371679927162E-02 
539	 6.39155756446344E-02 
540	 6.46076125526647E-02 
541	 6.53477158677137E-02 
542	 6.61351060914981E-02 
543	 6.69207903308202E-02 
544	 6.77337413969591E-02 
545	 6.85587977223783E-02 
546	 6.93894583867009E-02 
547	 7.03297934375911E-02 
548	 7.12151343565835E-02 
549	 7.20476865289356E-02 
550	 7.29810643428733E-02 
551	 7.39328090282306E-02 
552	 7.49210799739787E-02 
553	 7.59622288042514E-02 
554	 0.077023384372186 
555	 7.81024070790272E-02 
556	 7.92148048392284E-02 
557	 8.03777674930106E-02 
558	 8.15505403095589E-02 
559	 8.27917265440258E-02 
560	 8.40810145566238E-02 
561	 8.52791513340424E-02 
562	 8.64998159484849E-02 
563	 8.77630754670192E-02 
564	 8.90567274549575E-02 
565	 9.03544876913253E-02 
566	 0.091654860090182 
567	 9.29518664133915E-02 
568	 9.42420701969431E-02 
569	 9.56160613821576E-02 
570	 9.69892183858782E-02 
571	 9.82952559391117E-02 
572	 9.95564530064705E-02 
573	 0.100855980116081 
574	 0.102165812022852 
575	 0.103435076958978 
576	 0.104777507968807 
577	 0.106067928150194 
578	 0.107293431796464 
579	 0.108580104501184 
580	 0.109836089777581 
581	 0.111069920001199 
582	 0.112306858405787 
583	 0.113550919987975 
584	 0.114776286147051 
585	 0.115962861578396 
586	 0.117103778842266 
587	 0.118246149018882 
588	 0.119359277355946 
589	 0.120437582878002 
590	 0.121534992747483 
591	 0.122534700776955 
592	 0.123481611588906 
593	 0.124435728276629 
594	 0.125282506138436 
595	 0.126080400141783 
596	 0.126868735289754 
597	 0.127657935220493 
598	 0.128390934269444 
599	 0.12909984857738 
600	 0.129813201568367 
601	 0.130509570875821 
602	 0.131151576004918 
603	 0.131749037726628 
604	 0.132329963475745 
605	 0.132888143645386 
606	 0.133400170664103 
607	 0.133874816169277 
608	 0.13436068059256 
609	 0.134797134259781 
610	 0.135200341611411 
611	 0.135593382106907 
612	 0.135948631332745 
613	 0.136300929724604 
614	 0.136627222439174 
615	 0.13687670764082 
616	 0.137109486469284 
617	 0.137367361651045 
618	 0.137656686310142 
619	 0.137931489183675 
620	 0.138163143120797 
621	 0.138381366198612 
622	 0.138620566151122 
623	 0.138825082309931 
624	 0.139014192057987 
625	 0.139195327700444 
626	 0.139363854645005 
627	 0.13955170842626 
628	 0.139742859782398 
629	 0.139919521932548 
630	 0.140082897652382 
631	 0.140239761734837 
632	 0.140398567862314 
633	 0.140562914647534 
634	 0.140696352827065 
635	 0.14086365693201 
636	 0.1410765633141 
637	 0.141270660694342 
638	 0.141406841316685 
639	 0.141544117742777 
640	 0.141733555780696 
641	 0.14190983530771 
642	 0.142108977424717 
643	 0.142319600252918 
644	 0.142505935555597 
645	 0.142695495166271 
646	 0.142890255042796 
647	 0.143091366630126 
648	 0.143303253982003 
649	 0.143539549781434 
650	 0.143764999665297 
651	 0.143951808737783 
652	 0.144166325098467 
653	 0.144411900609466 
654	 0.144663255775707 
655	 0.144882076168054 
656	 0.145170800092099 
657	 0.145466979250729 
658	 0.145722334327903 
659	 0.145971745978829 
660	 0.146250731881451 
661	 0.146547317026544 
662	 0.146838777996768 
663	 0.147165437172686 
664	 0.147485508764463 
665	 0.147788769416583 
666	 0.148102580501538 
667	 0.148465174431252 
668	 0.148839258990684 
669	 0.149194339702799 
670	 0.149566728962456 
671	 0.149883368977006 
672	 0.150208589802263 
673	 0.150641758809684 
674	 0.151053319491956 
675	 0.151438668952815 
676	 0.151821972883056 
677	 0.152246856475607 
678	 0.152682002322484 
679	 0.153131976418606 
680	 0.153593952000849 
681	 0.154013167426807 
682	 0.154476988693372 
683	 0.154980875843189 
684	 0.155472678911458 
685	 0.155979927352863 
686	 0.15647199226052 
687	 0.156952593976896 
688	 0.157480764018523 
689	 0.158001918472819 
690	 0.158514048532286 
691	 0.159036599371611 
692	 0.159613403973393 
693	 0.160165087591178 
694	 0.160712448254816 
695	 0.161324607141479 
696	 0.161881884597407 
697	 0.162434616436539 
698	 0.163013552853265 
699	 0.163583537100922 
700	 0.164196531445298 
701	 0.164815897641374 
702	 0.165408134920044 
703	 0.166053926224747 
704	 0.166690535205485 
705	 0.167306410501413 
706	 0.167932034456823 
707	 0.1686147828257 
708	 0.169275270726574 
709	 0.169887850183478 
710	 0.170543382958528 
711	 0.171207823729409 
712	 0.171881517827878 
713	 0.172570172215314 
714	 0.17327685859823 
715	 0.173925179933344 
716	 0.174545902736003 
717	 0.17523591844291 
718	 0.175910837054041 
719	 0.176594510759692 
720	 0.177286950727211 
721	 0.177921371964483 
722	 0.178550831913495 
723	 0.179210318450775 
724	 0.179897363439089 
725	 0.180492678897848 
726	 0.181103451169626 
727	 0.181735413869062 
728	 0.182324114570679 
729	 0.182922210814376 
730	 0.183530994237285 
731	 0.184140357037261 
732	 0.184733856323247 
733	 0.185322646093235 
734	 0.18590153531699 
735	 0.186456998094036 
736	 0.186956293753502 
737	 0.187450179246522 
738	 0.187949484534805 
739	 0.188434413863528 
740	 0.188891234874341 
741	 0.189330500557527 
742	 0.189751696415699 
743	 0.19013323986946 
744	 0.19055960034685 
745	 0.190985353255012 
746	 0.191351374439106 
747	 0.191679606546209 
748	 0.191991485713612 
749	 0.192286750978694 
750	 0.192553681974524 
751	 0.192807889323463 
752	 0.193040279075975 
753	 0.193255412188767 
754	 0.193477517200676 
755	 0.193687099112379 
756	 0.193858694859713 
757	 0.19397808406388 
758	 0.19405592809778 
759	 0.194172060064535 
760	 0.194297454563491 
761	 0.194360937723716 
762	 0.194403850736182 
763	 0.194409733383181 
764	 0.19438741593157 
765	 0.194374936098229 
766	 0.1943814957921 
767	 0.194330046745909 
768	 0.194202975945623 
769	 0.194159946635253 
770	 0.194078626561271 
771	 0.193957227455653 
772	 0.193828966484787 
773	 0.193673381295157 
774	 0.193496696365511 
775	 0.193317185038484 
776	 0.193152976535058 
777	 0.192917646666342 
778	 0.19265562916433 
779	 0.192397135582981 
780	 0.192114170039416 
781	 0.191840971502987 
782	 0.191552130304066 
783	 0.1912297461045 
784	 0.190943503766066 
785	 0.190654339303352 
786	 0.190342665193989 
787	 0.19000252612856 
788	 0.189627477322228 
789	 0.189263132887433 
790	 0.188916022732141 
791	 0.188542031414539 
792	 0.188157122727036 
793	 0.187759321409791 
794	 0.187355097476062 
795	 0.186984349335691 
796	 0.186562748646736 
797	 0.18611357851611 
798	 0.185686560127317 
799	 0.18523714523039 
800	 0.184830519928374 
801	 0.184437327649626 
802	 0.183966582740048 
803	 0.183513302321364 
804	 0.18305367495508 
805	 0.18257965706668 
806	 0.18212864385487 
807	 0.181666289930505 
808	 0.181179823292362 
809	 0.180685807033709 
810	 0.180272545947608 
811	 0.179826368741441 
812	 0.179358511156834 
813	 0.178921882883437 
814	 0.178455259363446 
815	 0.17799207295568 
816	 0.177543288122015 
817	 0.177092358346415 
818	 0.176596520730048 
819	 0.176080786390357 
820	 0.175584474105658 
821	 0.175150277713273 
822	 0.174666805564972 
823	 0.174185488984743 
824	 0.173757833438855 
825	 0.173291337111263 
826	 0.172840214964489 
827	 0.172386111047131 
828	 0.171898639816138 
829	 0.171477070616399 
830	 0.171022767796717 
831	 0.170548858516608 
832	 0.170160924853542 
833	 0.169751260208505 
834	 0.169274851369459 
835	 0.168764682009602 
836	 0.168351009632039 
837	 0.167967388472186 
838	 0.167569588312556 
839	 0.167146540324318 
840	 0.166766773855152 
841	 0.166368951991044 
842	 0.165939744251688 
843	 0.165498742411684 
844	 0.165117402970936 
845	 0.164729800406966 
846	 0.164334930431492 
847	 0.163973843441415 
848	 0.163570127204563 
849	 0.163179942999065 
850	 0.162825010952699 
851	 0.162466813643885 
852	 0.162107712904086 
853	 0.161781724974031 
854	 0.161490975332132 
855	 0.161157569503843 
856	 0.160823160628482 
857	 0.160481809280974 
858	 0.160133572271517 
859	 0.159847659965306 
860	 0.159567599202051 
861	 0.159284263294159 
862	 0.159015875395183 
863	 0.158784582090882 
864	 0.158484600996567 
865	 0.158129638621546 
866	 0.157835616937536 
867	 0.157573539035975 
868	 0.157357478195711 
869	 0.157161356593018 
870	 0.156905057958311 
871	 0.1566361182226 
872	 0.156382650516495 
873	 0.156156493996167 
874	 0.155941927319933 
875	 0.1557647000961 
876	 0.155563858188512 
877	 0.155305784707669 
878	 0.155148061444107 
879	 0.154989500498654 
880	 0.154802267071838 
881	 0.154604829936758 
882	 0.154442753052331 
883	 0.154280144949331 
884	 0.154115724833442 
885	 0.153977332161983 
886	 0.153872771012826 
887	 0.153770456811252 
888	 0.153644728507851 
889	 0.153488261465773 
890	 0.153365446048794 
891	 0.153252986432573 
892	 0.153135898097362 
893	 0.153041693069142 
894	 0.152969906266449 
895	 0.152878608687364 
896	 0.152755789985837 
897	 0.152691415804186 
898	 0.152646338562806 
899	 0.152578954941272 
900	 0.152477871247947 
901	 0.152449629203135 
902	 0.152403219397473 
903	 0.152356049855484 
904	 0.1523587596193 
905	 0.152319247608301 
906	 0.152298562829198 
907	 0.152314788589031 
908	 0.152343077040518 
909	 0.152343831840726 
910	 0.152314887227036 
911	 0.152297242700953 
912	 0.152354170414535 
913	 0.152362625503837 
914	 0.152370385841155 
915	 0.152402814930841 
916	 0.152419413835884 
917	 0.152416685763597 
918	 0.152430871749194 
919	 0.152496952856262 
920	 0.152630823024413 
921	 0.152715488692518 
922	 0.152738892456327 
923	 0.152748307441392 
924	 0.152852819186743 
925	 0.152970728708748 
926	 0.153065018399744 
927	 0.153130536997787 
928	 0.153212283431485 
929	 0.153311364249295 
930	 0.153430270510951 
931	 0.15356218822433 
932	 0.153667180556286 
933	 0.15378227135515 
934	 0.153923689488837 
935	 0.154080277714335 
936	 0.154172228255817 
937	 0.154308027371734 
938	 0.154456166837618 
939	 0.15452395681197 
940	 0.154746367686207 
941	 0.154978894805396 
942	 0.155162454498372 
943	 0.155341964201568 
944	 0.155515803733882 
945	 0.155661516971851 
946	 0.155798354869608 
947	 0.155985230463965 
948	 0.156208519160145 
949	 0.156397825503377 
950	 0.156536902552863 
951	 0.156691242182403 
952	 0.156950656280228 
953	 0.15722837238323 
954	 0.157455337610477 
955	 0.157644189629025 
956	 0.157786012404192 
957	 0.157989795292413 
958	 0.158266488791309 
959	 0.15843065914795 
960	 0.158640370747804 
961	 0.158884748669889 
962	 0.159110963239606 
963	 0.159267712479654 
964	 0.159451040682622 
965	 0.159720380226852 
966	 0.160068049930657 
967	 0.160377496223257 
968	 0.160558847581536 
969	 0.160725175740128 
970	 0.160990950670294 
971	 0.161311149824714 
972	 0.161571293053657 
973	 0.161814406297235 
974	 0.162099425124208 
975	 0.162373064023181 
976	 0.162650629173457 
977	 0.162991389969618 
978	 0.163395655220294 
979	 0.163652108515432 
980	 0.163910913211772 
981	 0.164191552712529 
982	 0.164474086861393 
983	 0.164764199534458 
984	 0.165011016936725 
985	 0.165351364527137 
986	 0.165838821442107 
987	 0.166039808826097 
988	 0.16631882117489 
989	 0.166654963350692 
990	 0.166927758331855 
991	 0.167186535512387 
992	 0.167468608797752 
993	 0.167849781737201 
994	 0.168333996400175 
995	 0.168680276700901 
996	 0.16892639651593 
997	 0.169180785391395 
998	 0.169525073254768 
999	 0.169851222013836 
1000	 0.170241316082966 
1001	 0.171760539066764 
1002	 0.172086485628304 
1003	 0.172439245202811 
1004	 0.172767861851237 
1005	 0.173078254194012 
1006	 0.173412024833391 
1007	 0.173743649856516 
1008	 0.174094472605579 
1009	 0.174466219907171 
1010	 0.174833520021884 
1011	 0.175218882686051 
1012	 0.175577330369953 
1013	 0.175925256990206 
1014	 0.176273512565171 
1015	 0.176579536904087 
1016	 0.176934915371693 
1017	 0.17736907275238 
1018	 0.177755282337046 
1019	 0.178155892447085 
1020	 0.17860208879459 
1021	 0.178997582235763 
1022	 0.179338857764101 
1023	 0.179719635817114 
1024	 0.180116428324777 
1025	 0.180501235042265 
1026	 0.180863550745875 
1027	 0.181266904593731 
1028	 0.181706011017832 
1029	 0.182117905239403 
1030	 0.182497026778662 
1031	 0.182920255547503 
1032	 0.183309486005595 
1033	 0.183644117987522 
1034	 0.184028749480793 
1035	 0.184417046152213 
1036	 0.184825704302773 
1037	 0.185263957109843 
1038	 0.185677807529099 
1039	 0.186101277520632 
1040	 0.186529370246016 
1041	 0.186933975507265 
1042	 0.187347942401496 
1043	 0.187792404585612 
1044	 0.188196853693214 
1045	 0.188596723033849 
1046	 0.189031558920129 
1047	 0.189465656276168 
1048	 0.189912031801967 
1049	 0.190336135339489 
1050	 0.190793925134648 
1051	 0.191285773961384 
1052	 0.191749433418853 
1053	 0.192226398314732 
1054	 0.19273801284594 
1055	 0.193210988732273 
1056	 0.193657779863203 
1057	 0.194125032751439 
1058	 0.194585367661623 
1059	 0.195052937891958 
1060	 0.195552194829826 
1061	 0.196042578250393 
1062	 0.196559462065895 
1063	 0.197066500507908 
1064	 0.197522256813936 
1065	 0.19799140052187 
1066	 0.198508925564652 
1067	 0.19902427463654 
1068	 0.19958313638213 
1069	 0.20017077970111 
1070	 0.200718053777118 
1071	 0.201243202875982 
1072	 0.201760227585764 
1073	 0.202246781225946 
1074	 0.202753868753535 
1075	 0.203288661171927 
1076	 0.203829210624276 
1077	 0.204409531446567 
1078	 0.204969954788219 
1079	 0.205533972436046 
1080	 0.206101389037439 
1081	 0.206644129323072 
1082	 0.207202645221297 
1083	 0.207727124440647 
1084	 0.208259853594005 
1085	 0.208855850427079 
1086	 0.209425167975081 
1087	 0.209988448486813 
1088	 0.210559954088649 
1089	 0.211145512771825 
1090	 0.211683075303178 
1091	 0.212229357183335 
1092	 0.21280504339202 
1093	 0.213390917371448 
1094	 0.213988238853973 
1095	 0.214578602655854 
1096	 0.215196386188616 
1097	 0.215795376339119 
1098	 0.21636138934137 
1099	 0.216950844339913 
1100	 0.217503730135103 
1101	 0.218071997004341 
1102	 0.218702241834612 
1103	 0.219298387418247 
1104	 0.219889626589889 
1105	 0.2204982121111 
1106	 0.221121292733115 
1107	 0.221684375876222 
1108	 0.222272647011407 
1109	 0.222885909136363 
1110	 0.223461758982005 
1111	 0.224056218733489 
1112	 0.224667033538659 
1113	 0.2252966609048 
1114	 0.225927878002263 
1115	 0.226516511514205 
1116	 0.227106859351338 
1117	 0.227696585099573 
1118	 0.228292559223925 
1119	 0.22889839592099 
1120	 0.229503033616544 
1121	 0.230114874827345 
1122	 0.230712929157193 
1123	 0.231315807771799 
1124	 0.231900359016273 
1125	 0.23248867135565 
1126	 0.233069866116804 
1127	 0.233649900795969 
1128	 0.234261418935346 
1129	 0.234862995071072 
1130	 0.235468471867478 
1131	 0.236062706091804 
1132	 0.236608949420321 
1133	 0.237178237908678 
1134	 0.237748268539125 
1135	 0.238319642558273 
1136	 0.238904400887843 
1137	 0.239486447460484 
1138	 0.24007349390728 
1139	 0.240648440550734 
1140	 0.241235350891972 
1141	 0.241770238568911 
1142	 0.24229894671143 
1143	 0.242822662996461 
1144	 0.243347396533377 
1145	 0.243906352023577 
1146	 0.244458113567069 
1147	 0.245010056771422 
1148	 0.245564991011352 
1149	 0.246083914492036 
1150	 0.246608053424665 
1151	 0.247129107077348 
1152	 0.24763251671124 
1153	 0.248116851472107 
1154	 0.248608633137975 
1155	 0.249088403542154 
1156	 0.249575852278433 
1157	 0.250061334958168 
1158	 0.250541219408139 
1159	 0.251025105387534 
1160	 0.251507914320667 
1161	 0.251972896874641 
1162	 0.252472074619885 
1163	 0.252946633217176 
1164	 0.253413634355062 
1165	 0.253904588263089 
1166	 0.254364442362592 
1167	 0.254810377085503 
1168	 0.255256054339112 
1169	 0.255699140861072 
1170	 0.256124469388225 
1171	 0.256554283498332 
1172	 0.256995209943889 
1173	 0.257424328023625 
1174	 0.257841347249071 
1175	 0.258244695318007 
1176	 0.258646898528774 
1177	 0.259040492331265 
1178	 0.259409489057113 
1179	 0.259801050400084 
1180	 0.26016334737173 
1181	 0.260514565336801 
1182	 0.260885441220271 
1183	 0.261213136234036 
1184	 0.26155197561853 
1185	 0.261897136063974 
1186	 0.262250233932504 
1187	 0.262608187386723 
1188	 0.26295615066771 
1189	 0.263320902514345 
1190	 0.263661275450683 
1191	 0.263960711247654 
1192	 0.264287186641555 
1193	 0.264621678965074 
1194	 0.264957341625431 
1195	 0.265318449503106 
1196	 0.265653205756295 
1197	 0.265964267533671 
1198	 0.266296537209781 
1199	 0.266627163504773 
1200	 0.266930481994547 
1201	 0.267271620549492 
1202	 0.267597764770682 
1203	 0.267910791706185 
1204	 0.268263750984909 
1205	 0.268595405408841 
1206	 0.268919090327648 
1207	 0.269262214220086 
1208	 0.269592335564867 
1209	 0.269957184198093 
1210	 0.270347696120409 
1211	 0.27074820595313 
1212	 0.27119050272979 
1213	 0.271607015228618 
1214	 0.272020714279162 
1215	 0.272437234218647 
1216	 0.272839575778789 
1217	 0.273248133252635 
1218	 0.273669268396438 
1219	 0.274086344669155 
1220	 0.274483783031506 
1221	 0.27491395311925 
1222	 0.275337525846756 
1223	 0.27576673465613 
1224	 0.276191867359903 
1225	 0.276630384877417 
1226	 0.277036160810237 
1227	 0.27742139738605 
1228	 0.277815393771136 
1229	 0.278205895396668 
1230	 0.278579141758189 
1231	 0.278953196937134 
1232	 0.279313574943554 
1233	 0.279650393158381 
1234	 0.279982949651291 
1235	 0.280319187808256 
1236	 0.28063245098484 
1237	 0.280923029289704 
1238	 0.281210212289375 
1239	 0.281483997265813 
1240	 0.281746532500637 
1241	 0.282025507305624 
1242	 0.282291711627174 
1243	 0.282560419497795 
1244	 0.282840284626284 
1245	 0.283094557567492 
1246	 0.283339798998192 
1247	 0.283568710426972 
1248	 0.283769451502408 
1249	 0.283992359735191 
1250	 0.284209765884876 
1251	 0.284432835022726 
1252	 0.284676699904611 
1253	 0.284900297072522 
1254	 0.285111439380098 
1255	 0.285327119077071 
1256	 0.285548307555708 
1257	 0.285751998055456 
1258	 0.28594885673082 
1259	 0.286138679284462 
1260	 0.286302841421971 
1261	 0.286479280732352 
1262	 0.286661900167907 
1263	 0.286849201935036 
1264	 0.287011380612627 
1265	 0.287170798798026 
1266	 0.287313871722379 
1267	 0.287419670616204 
1268	 0.287565311908126 
1269	 0.287718207087917 
1270	 0.287878859233032 
1271	 0.288069229974816 
1272	 0.288229619428498 
1273	 0.288379989198915 
1274	 0.288530595492905 
1275	 0.288659424510101 
1276	 0.288809334300758 
1277	 0.28897417460354 
1278	 0.28912948804596 
1279	 0.289287416170905 
1280	 0.289445508959851 
1281	 0.289595907928351 
1282	 0.289751675152405 
1283	 0.289929485417017 
1284	 0.290080177642401 
1285	 0.29021863414175 
1286	 0.290344964750898 
1287	 0.29047635923427 
1288	 0.290594660515019 
1289	 0.290711358762353 
1290	 0.290820833489604 
1291	 0.290954967145246 
1292	 0.291088086888368 
1293	 0.291227714125162 
1294	 0.291401550654351 
1295	 0.291544946321537 
1296	 0.29166433121714 
1297	 0.291798380511895 
1298	 0.29193082955339 
1299	 0.292068573422638 
1300	 0.292220566752955 
1301	 0.292355699532021 
1302	 0.292480900012635 
1303	 0.292611650974084 
1304	 0.292739317468584 
1305	 0.292861889616324 
1306	 0.292987336108192 
1307	 0.293109483985599 
1308	 0.29321718893307 
1309	 0.293332625370225 
1310	 0.293451320970499 
1311	 0.293580342360808 
1312	 0.293689386540994 
1313	 0.293790536594584 
1314	 0.29389863062568 
1315	 0.293996601637122 
1316	 0.294103675367012 
1317	 0.294223277570088 
1318	 0.294333568458847 
1319	 0.294443404762038 
1320	 0.294544314312224 
1321	 0.294639608370426 
1322	 0.294734814954158 
1323	 0.294817214873503 
1324	 0.2949107737566 
1325	 0.295022984268333 
1326	 0.295111649335633 
1327	 0.295190828014886 
1328	 0.295269807384658 
1329	 0.29532624934498 
1330	 0.295397660726609 
1331	 0.295487271771615 
1332	 0.295562944002954 
1333	 0.295632973966212 
1334	 0.295706986862083 
1335	 0.295772004786384 
1336	 0.29582547802735 
1337	 0.295886915719889 
1338	 0.295951666733939 
1339	 0.296008579110136 
1340	 0.296068999172814 
1341	 0.296112037156767 
1342	 0.296148908694975 
1343	 0.296171572243981 
1344	 0.296176567328655 
1345	 0.296185056216191 
1346	 0.296186983604385 
1347	 0.296183829953279 
1348	 0.296179373580988 
1349	 0.29616763019768 
1350	 0.296147006332596 
1351	 0.296124654484987 
1352	 0.296092655469454 
1353	 0.296068495880991 
1354	 0.296037852638078 
1355	 0.296019212324562 
1356	 0.29602139023561 
1357	 0.29600731942967 
1358	 0.295990745752534 
1359	 0.295972584829833 
1360	 0.295946932835523 
1361	 0.295913038671003 
1362	 0.295891623128647 
1363	 0.295879442991259 
1364	 0.295867456108965 
1365	 0.295867258059394 
1366	 0.295845402174985 
1367	 0.29582613604318 
1368	 0.295779096419855 
1369	 0.295715566143203 
1370	 0.295635533436092 
1371	 0.295535971843726 
1372	 0.29543144605222 
1373	 0.29531312837843 
1374	 0.295185380028042 
1375	 0.295054436595973 
1376	 0.294900211876171 
1377	 0.294735269427333 
1378	 0.29454178621507 
1379	 0.294312024085844 
1380	 0.294092136348622 
1381	 0.293849354455031 
1382	 0.293617491246768 
1383	 0.293401392269224 
1384	 0.293167465990104 
1385	 0.292931781761804 
1386	 0.292682780515692 
1387	 0.292412706154236 
1388	 0.292152453125039 
1389	 0.291877408659224 
1390	 0.291618376783395 
1391	 0.29137366793779 
1392	 0.291122229173998 
1393	 0.29089168469516 
1394	 0.290684754846695 
1395	 0.290480104765082 
1396	 0.290294185707346 
1397	 0.29010090376524 
1398	 0.2899208080068 
1399	 0.28971233632028 
1400	 0.289503183403294 
1401	 0.289266615448811 
1402	 0.289010043683407 
1403	 0.288734552783185 
1404	 0.28844168886651 
1405	 0.288133093675346 
1406	 0.287809521532963 
1407	 0.287460063021392 
1408	 0.28708558790361 
1409	 0.286702954477018 
1410	 0.286272932642879 
1411	 0.285885239687932 
1412	 0.285463917552575 
1413	 0.285138663495391 
1414	 0.284825479674595 
1415	 0.284622259356835 
1416	 0.284525043190306 
1417	 0.284457293787065 
1418	 0.284492281382608 
1419	 0.284518894866651 
1420	 0.284602596808917 
1421	 0.284651907313775 
1422	 0.284710938516723 
1423	 0.284746774249825 
1424	 0.284755886524094 
1425	 0.284755430981277 
1426	 0.284752201452768 
1427	 0.284734744066482 
1428	 0.284708717031829 
1429	 0.284683361108206 
1430	 0.284673262708311 
1431	 0.284664463737642 
1432	 0.284667145954113 
1433	 0.284686153369675 
1434	 0.284702128851809 
1435	 0.284723378602781 
1436	 0.284739654744397 
1437	 0.284754110878437 
1438	 0.284779405337649 
1439	 0.28480236387213 
1440	 0.284837734870064 
1441	 0.284887673913725 
1442	 0.284935886377563 
1443	 0.284978119846658 
1444	 0.285046183451649 
1445	 0.285120041980248 
1446	 0.2852194811903 
1447	 0.285332154251747 
1448	 0.285478367412546 
1449	 0.285658265038391 
1450	 0.285844691469452 
1451	 0.286064613055776 
1452	 0.286282125380426 
1453	 0.286499553122796 
1454	 0.286732852965588 
1455	 0.286984101159885 
1456	 0.287236406764732 
1457	 0.287502050652882 
1458	 0.287766153189455 
1459	 0.28802773885019 
1460	 0.288299154351579 
1461	 0.288593733019844 
1462	 0.288863208136206 
1463	 0.28912763132691 
1464	 0.289385711474512 
1465	 0.289622017829908 
1466	 0.289856876682223 
1467	 0.290095964716734 
1468	 0.290340612139974 
1469	 0.290584114241911 
1470	 0.290832319071335 
1471	 0.291085062291275 
1472	 0.29134492145478 
1473	 0.291601539564341 
1474	 0.291867724594492 
1475	 0.292111328392928 
1476	 0.292347722163369 
1477	 0.29257733706426 
1478	 0.292790911066688 
1479	 0.293005725491589 
1480	 0.293222769046144 
1481	 0.293425093215546 
1482	 0.293616682009478 
1483	 0.293804253972338 
1484	 0.293972876435147 
1485	 0.294162381268814 
1486	 0.294364179615042 
1487	 0.294548061278553 
1488	 0.294738245376702 
1489	 0.294913799507414 
1490	 0.295070099877719 
1491	 0.295227682023281 
1492	 0.295369405014622 
1493	 0.295537585592078 
1494	 0.295711989043548 
1495	 0.295887389169482 
1496	 0.296085824640639 
1497	 0.296272951583123 
1498	 0.296451640532449 
1499	 0.296631855510316 
1500	 0.296821451867837 
1501	 0.296997102622974 
1502	 0.297157936751084 
1503	 0.297324810219647 
1504	 0.297490004834168 
1505	 0.297651513734329 
1506	 0.297814903256395 
1507	 0.297974697029325 
1508	 0.298133007939144 
1509	 0.298282059149307 
1510	 0.298432742751281 
1511	 0.298567489313727 
1512	 0.298684958822373 
1513	 0.298800292961714 
1514	 0.298901423977836 
1515	 0.299005839162939 
1516	 0.299109405325193 
1517	 0.299210308410515 
1518	 0.299321408405418 
1519	 0.299412330948318 
1520	 0.299490082050253 
1521	 0.29955877848625 
1522	 0.299618835003972 
1523	 0.29968926373441 
1524	 0.299762817919397 
1525	 0.299852225120648 
1526	 0.299914517089247 
1527	 0.299968389237588 
1528	 0.300019178195407 
1529	 0.300050806829399 
1530	 0.300104222808398 
1531	 0.30016863984085 
1532	 0.300220646999897 
1533	 0.300277502390055 
1534	 0.300322402647892 
1535	 0.300348901651207 
1536	 0.300397614261979 
1537	 0.300447143526488 
1538	 0.300512553359619 
1539	 0.300597277784622 
1540	 0.300671338316602 
1541	 0.300750644884354 
1542	 0.300826289894844 
1543	 0.300896658192001 
1544	 0.300972747536396 
1545	 0.301055767059573 
1546	 0.301129011301795 
1547	 0.301199117737389 
1548	 0.301269454615914 
1549	 0.301327735009595 
1550	 0.301404644939303 
1551	 0.301491932326263 
1552	 0.301577059239153 
1553	 0.301672899120579 
1554	 0.301761191155501 
1555	 0.301845844527097 
1556	 0.30193059038808 
1557	 0.302013704072523 
1558	 0.302098668184112 
1559	 0.302191652726434 
1560	 0.302265283947066 
1561	 0.302322216600699 
1562	 0.302396706308654 
1563	 0.302464613507468 
1564	 0.302540405686529 
1565	 0.30262928267271 
1566	 0.302722911226528 
1567	 0.302814384439504 
1568	 0.302914909882021 
1569	 0.303042459278821 
1570	 0.303144599821262 
1571	 0.303236378582393 
1572	 0.303326318325533 
1573	 0.303397474562483 
1574	 0.303484915775202 
1575	 0.303587130361777 
1576	 0.303672479843433 
1577	 0.303753971529074 
1578	 0.303836662377947 
1579	 0.303904544884635 
1580	 0.303983522473906 
1581	 0.304087838200936 
1582	 0.304159574974405 
1583	 0.304198605603159 
1584	 0.304269426444653 
1585	 0.304332289343693 
1586	 0.30441289751626 
1587	 0.304542455480357 
1588	 0.304634911695403 
1589	 0.304713977008463 
1590	 0.304785824391817 
1591	 0.3048312652471 
1592	 0.304893846890627 
1593	 0.304951892538802 
1594	 0.305024582867362 
1595	 0.305118509191338 
1596	 0.305200718276712 
1597	 0.305287799382647 
1598	 0.305369342665891 
1599	 0.305448412055664 
1600	 0.305516399540136 
1601	 0.305582717031587 
1602	 0.305637622580979 
1603	 0.305675243884061 
1604	 0.305713158629941 
1605	 0.305739063063571 
1606	 0.30577266788324 
1607	 0.305802067177567 
1608	 0.305842021175636 
1609	 0.305905075177286 
1610	 0.305943601558371 
1611	 0.30596980740273 
1612	 0.306002180546369 
1613	 0.306026097762265 
1614	 0.306046612905709 
1615	 0.306072690501208 
1616	 0.306092925695842 
1617	 0.306103544274711 
1618	 0.306111277802979 
1619	 0.306123889587053 
1620	 0.306124399856977 
1621	 0.306105103898702 
1622	 0.306095190545031 
1623	 0.306081502245962 
1624	 0.306073448958078 
1625	 0.30607194921732 
1626	 0.306072747266076 
1627	 0.306080535116417 
1628	 0.306081182980023 
1629	 0.306082837366006 
1630	 0.306080738457128 
1631	 0.306063851540687 
1632	 0.306061616910064 
1633	 0.306072665214867 
1634	 0.306074386504954 
1635	 0.306076554960737 
1636	 0.306080241536068 
1637	 0.306081292731049 
1638	 0.306077307639678 
1639	 0.306079018033572 
1640	 0.306071172302313 
1641	 0.306056767611023 
1642	 0.306033976500983 
1643	 0.306005383804636 
1644	 0.305968462388804 
1645	 0.305912454296841 
1646	 0.305864850975085 
1647	 0.305810073589138 
1648	 0.305769325226689 
1649	 0.305756179393956 
1650	 0.30570946049828 
1651	 0.305663283511369 
1652	 0.305590888784678 
1653	 0.305485179558035 
1654	 0.305375588747391 
1655	 0.305250510816786 
1656	 0.305119628383154 
1657	 0.304982738312203 
1658	 0.304827383127871 
1659	 0.304669760719934 
1660	 0.304481219431118 
1661	 0.30427648439994 
1662	 0.304034385722705 
1663	 0.30375090465673 
1664	 0.303461746825133 
1665	 0.303148497174804 
1666	 0.302813295959323 
1667	 0.302474350269163 
1668	 0.302095394666217 
1669	 0.30168715125988 
1670	 0.301243602154024 
1671	 0.300759221868451 
1672	 0.300260299633618 
1673	 0.299734946255828 
1674	 0.299174958089043 
1675	 0.298594022078653 
1676	 0.297986570948156 
1677	 0.2973493145929 
1678	 0.296678938507263 
1679	 0.295977830536195 
1680	 0.2952408860931 
1681	 0.294453977761619 
1682	 0.293655852686825 
1683	 0.292857604515738 
1684	 0.292004870147008 
1685	 0.291116617620602 
1686	 0.290188621668992 
1687	 0.289191385930949 
1688	 0.288190239123167 
1689	 0.287175435868735 
1690	 0.286116584219846 
1691	 0.28502834256331 
1692	 0.283931126410183 
1693	 0.282802989746646 
1694	 0.281651550314979 
1695	 0.280468764934807 
1696	 0.279280730430126 
1697	 0.278061605970445 
1698	 0.276840135293981 
1699	 0.275618290104623 
1700	 0.274414222646914 
1701	 0.273182993422192 
1702	 0.272021694032876 
1703	 0.270870040508588 
1704	 0.269800983999753 
1705	 0.268787138268501 
1706	 0.267781471648332 
1707	 0.266909966997424 
1708	 0.266085821512469 
1709	 0.265297256894532 
1710	 0.264603867286433 
1711	 0.26394642074788 
1712	 0.263353610770513 
1713	 0.262794649931888 
1714	 0.262227434434667 
1715	 0.261714474539362 
1716	 0.261196772583973 
1717	 0.26070721431131 
1718	 0.260284107220481 
1719	 0.259877310825377 
1720	 0.259514317363894 
1721	 0.259205106333989 
1722	 0.258971061326795 
1723	 0.258827349251159 
1724	 0.258741715032672 
1725	 0.258737769276689 
1726	 0.25886443989096 
1727	 0.259080101506923 
1728	 0.259383582808281 
1729	 0.259810682942755 
1730	 0.260301101840419 
1731	 0.260830129592067 
1732	 0.261457699412877 
1733	 0.262089203604946 
1734	 0.262686594492976 
1735	 0.263296452374293 
1736	 0.263845880512287 
1737	 0.264312040073896 
1738	 0.264719075549364 
1739	 0.265023576396273 
1740	 0.265226988054953 
1741	 0.265378418743634 
1742	 0.265434481185262 
1743	 0.265455937048348 
1744	 0.265410958565863 
1745	 0.265334867202108 
1746	 0.26518861577056 
1747	 0.265062951147191 
1748	 0.264888827029292 
1749	 0.264773324686883 
1750	 0.26466618809563 
1751	 0.264617692709726 
1752	 0.264602573104896 
1753	 0.264644109751565 
1754	 0.26472482106643 
1755	 0.264880732842475 
1756	 0.265104730610042 
1757	 0.265395363519562 
1758	 0.265749711067959 
1759	 0.266163035380453 
1760	 0.266615586719366 
1761	 0.267143536419016 
1762	 0.267728314178171 
1763	 0.268380145856237 
1764	 0.269069034874502 
1765	 0.269764966695208 
1766	 0.27054270370983 
1767	 0.271335690975632 
1768	 0.272147710645026 
1769	 0.272998494919407 
1770	 0.27376492634331 
1771	 0.274481849738114 
1772	 0.275161624956499 
1773	 0.275788973331454 
1774	 0.276412325628742 
1775	 0.276983512190759 
1776	 0.277515689548773 
1777	 0.27799902491138 
1778	 0.278413194423074 
1779	 0.278810171106352 
1780	 0.279171375398663 
1781	 0.279516521238511 
1782	 0.279856822774349 
1783	 0.280152402061316 
1784	 0.280434041230456 
1785	 0.280674672575437 
1786	 0.280888682054469 
1787	 0.281078111954838 
1788	 0.281262039780642 
1789	 0.2814210650182 
1790	 0.281581074509703 
1791	 0.281739550781981 
1792	 0.281871047744483 
1793	 0.281961837910125 
1794	 0.282107518003524 
1795	 0.282249756929418 
1796	 0.282392475254787 
1797	 0.282534366757366 
1798	 0.282639600375216 
1799	 0.282746312727088 
1800	 0.282894705107108 
1801	 0.279285059564301 
1802	 0.27944414014561 
1803	 0.279603367760934 
1804	 0.279768527818621 
1805	 0.279968921781442 
1806	 0.280126375488211 
1807	 0.2802474462077 
1808	 0.280413925546645 
1809	 0.280595665625706 
1810	 0.280760096603041 
1811	 0.280941440654607 
1812	 0.281117147992625 
1813	 0.281274126573715 
1814	 0.281434537256588 
1815	 0.281612334495821 
1816	 0.281798905834037 
1817	 0.281968502762246 
1818	 0.282109870866904 
1819	 0.282290027128032 
1820	 0.282488081607509 
1821	 0.282673792999492 
1822	 0.282866131066461 
1823	 0.283080700476219 
1824	 0.283268549225864 
1825	 0.283452015563088 
1826	 0.283642349583718 
1827	 0.283847624627582 
1828	 0.284032062788868 
1829	 0.284196449173998 
1830	 0.284379303994574 
1831	 0.284558238700639 
1832	 0.284754853035996 
1833	 0.284954713006143 
1834	 0.285161776505134 
1835	 0.285357908281333 
1836	 0.285521061849299 
1837	 0.285706827570146 
1838	 0.285886040151555 
1839	 0.286079949402873 
1840	 0.286303804585508 
1841	 0.286505684621487 
1842	 0.286701287853336 
1843	 0.286887112293478 
1844	 0.287091621628169 
1845	 0.287268851283512 
1846	 0.28746005686175 
1847	 0.287664911197493 
1848	 0.287843158188299 
1849	 0.288011806697644 
1850	 0.288162682940995 
1851	 0.288298475801058 
1852	 0.288425575489095 
1853	 0.288530693471539 
1854	 0.28862435218334 
1855	 0.288708258222388 
1856	 0.28876118116737 
1857	 0.288802922974975 
1858	 0.288832433563498 
1859	 0.288843537572409 
1860	 0.28883761734418 
1861	 0.288817534732439 
1862	 0.288779429606917 
1863	 0.288735085891795 
1864	 0.288670848980755 
1865	 0.288588479824297 
1866	 0.288484663926608 
1867	 0.28834266514976 
1868	 0.288190088975945 
1869	 0.288013983644479 
1870	 0.287815602955381 
1871	 0.287605050111421 
1872	 0.287367576800876 
1873	 0.287099867883808 
1874	 0.286824457619939 
1875	 0.286540682052116 
1876	 0.28620144370534 
1877	 0.285843405793431 
1878	 0.285423107309407 
1879	 0.284927898681434 
1880	 0.284403800247081 
1881	 0.283817976156477 
1882	 0.283171003754625 
1883	 0.282480424945517 
1884	 0.281732315520901 
1885	 0.280886684802511 
1886	 0.280001032878892 
1887	 0.27900186705355 
1888	 0.277869216600717 
1889	 0.27675708095325 
1890	 0.275553947762413 
1891	 0.274311511686356 
1892	 0.273074250025876 
1893	 0.271765577814602 
1894	 0.270368403562912 
1895	 0.268979680643116 
1896	 0.26757001796378 
1897	 0.266157914231101 
1898	 0.264867717261328 
1899	 0.263555740741678 
1900	 0.262285549445796 
1901	 0.261081015190618 
1902	 0.259821663966786 
1903	 0.258666712287169 
1904	 0.257580123255711 
1905	 0.256546360203679 
1906	 0.255573750095351 
1907	 0.254736882715905 
1908	 0.253920602928184 
1909	 0.253169224449924 
1910	 0.252507127409569 
1911	 0.251871869038308 
1912	 0.251317749993022 
1913	 0.250818029411914 
1914	 0.250360471993203 
1915	 0.249957911766337 
1916	 0.24961889236546 
1917	 0.249314193090148 
1918	 0.249056424272677 
1919	 0.248848941333237 
1920	 0.248679893866278 
1921	 0.248551241337636 
1922	 0.248451671793957 
1923	 0.24838106011815 
1924	 0.248339366442381 
1925	 0.248307981803813 
1926	 0.248294731518773 
1927	 0.248300202660577 
1928	 0.248321801620305 
1929	 0.24835636290306 
1930	 0.248418728927369 
1931	 0.248507904592844 
1932	 0.248577889544585 
1933	 0.248661490611537 
1934	 0.248774376946661 
1935	 0.248885300669511 
1936	 0.249034935679452 
1937	 0.249198107237448 
1938	 0.249376710177744 
1939	 0.249578063320927 
1940	 0.249805114506255 
1941	 0.250042334307183 
1942	 0.250276866716309 
1943	 0.250542539355713 
1944	 0.2508124750252 
1945	 0.251094628505609 
1946	 0.251409351847391 
1947	 0.251722394352587 
1948	 0.252055583393298 
1949	 0.252395781738577 
1950	 0.252739950911935 
1951	 0.253109817627164 
1952	 0.253470865994857 
1953	 0.253821273295924 
1954	 0.254181505086849 
1955	 0.254576585221191 
1956	 0.254953437725667 
1957	 0.255363958408231 
1958	 0.255784972546572 
1959	 0.256171760950081 
1960	 0.256576295167601 
1961	 0.256953972589743 
1962	 0.257300857438623 
1963	 0.257661255101091 
1964	 0.258025951085048 
1965	 0.258366840058376 
1966	 0.258699992195881 
1967	 0.259035576957024 
1968	 0.259344454128299 
1969	 0.259635767961957 
1970	 0.259914545460666 
1971	 0.2602079853541 
1972	 0.260515430513323 
1973	 0.260822874898064 
1974	 0.261140350512463 
1975	 0.261490239397562 
1976	 0.261811567204393 
1977	 0.262128886301555 
1978	 0.262435435793724 
1979	 0.262722539354163 
1980	 0.263018146398482 
1981	 0.263337626769062 
1982	 0.263629427501225 
1983	 0.263943327449499 
1984	 0.264264603448254 
1985	 0.264536460809398 
1986	 0.26481214303649 
1987	 0.265090265276052 
1988	 0.265348125230597 
1989	 0.26563095056528 
1990	 0.26593817742143 
1991	 0.266230821957088 
1992	 0.266529246230959 
1993	 0.266825771595785 
1994	 0.26710047938405 
1995	 0.26738525386787 
1996	 0.267671206030407 
1997	 0.267939499097065 
1998	 0.268202291769672 
1999	 0.268462483411519 
2000	 0.268702254764449 
2001	 0.268928136442202 
2002	 0.269146115214061 
2003	 0.269360440519756 
2004	 0.26954874377367 
2005	 0.269711747985871 
2006	 0.269875861565039 
2007	 0.270032331927562 
2008	 0.270160651073794 
2009	 0.270294593359068 
2010	 0.270414198832766 
2011	 0.27050095189614 
2012	 0.270585004419209 
2013	 0.270649248020251 
2014	 0.270695487568652 
2015	 0.270735149698712 
2016	 0.270758447212034 
2017	 0.270769508334265 
2018	 0.27077883085283 
2019	 0.270758224695758 
2020	 0.270714412592989 
2021	 0.27066220521703 
2022	 0.270575112537632 
2023	 0.270493887331806 
2024	 0.270403561264605 
2025	 0.270303298279413 
2026	 0.270190200215124 
2027	 0.270065256482363 
2028	 0.269932718815871 
2029	 0.269777923772781 
2030	 0.269636319430134 
2031	 0.269501760924177 
2032	 0.269355144741206 
2033	 0.269200185319834 
2034	 0.269050673816461 
2035	 0.268894284053523 
2036	 0.268737777142732 
2037	 0.268597665147451 
2038	 0.268462147996457 
2039	 0.268328222000015 
2040	 0.268199019499744 
2041	 0.268070341081257 
2042	 0.267950315854191 
2043	 0.267821359810141 
2044	 0.267690075037332 
2045	 0.26756025017728 
2046	 0.267413194554096 
2047	 0.267285683569017 
2048	 0.267176951013401 
2049	 0.267058509761174 
2050	 0.266934371285828 
2051	 0.266834085302872 
2052	 0.266730140467079 
2053	 0.266620229163286 
2054	 0.266522216647494 
2055	 0.266440646631846 
2056	 0.266349581151977 
2057	 0.266255583983617 
2058	 0.266168761550893 
2059	 0.266087174453386 
2060	 0.266000714571957 
2061	 0.265918743997937 
2062	 0.265829014110276 
2063	 0.265729465993967 
2064	 0.26563758912892 
2065	 0.26555193750002 
2066	 0.265458700602711 
2067	 0.265356840522175 
2068	 0.265253735747274 
2069	 0.265154129102038 
2070	 0.265041199964199 
2071	 0.264950072116031 
2072	 0.264878163196543 
2073	 0.264793521678026 
2074	 0.26471901058435 
2075	 0.264627663402114 
2076	 0.264523984967999 
2077	 0.26442103805947 
2078	 0.26431205877894 
2079	 0.264199443000855 
2080	 0.264080426454892 
2081	 0.263964764807597 
2082	 0.263858783891089 
2083	 0.26372690179618 
2084	 0.263593953202272 
2085	 0.26347435942947 
2086	 0.263352068768531 
2087	 0.263219728781208 
2088	 0.263107632329927 
2089	 0.263011954731617 
2090	 0.262908169288248 
2091	 0.262815003736263 
2092	 0.262709280090364 
2093	 0.262607705620121 
2094	 0.262484775225926 
2095	 0.262338008451155 
2096	 0.262201514873299 
2097	 0.262055943067764 
2098	 0.26190492940075 
2099	 0.261785434411698 
2100	 0.261667875520978 
2101	 0.261519815653101 
2102	 0.261367411426427 
2103	 0.261197865401048 
2104	 0.260999824230063 
2105	 0.260802364820208 
2106	 0.26061150513578 
2107	 0.260384214347103 
2108	 0.260122335720873 
2109	 0.259870410117828 
2110	 0.259594166718547 
2111	 0.25933361181158 
2112	 0.259089193225518 
2113	 0.25883056900764 
2114	 0.258563791508481 
2115	 0.258295941021632 
2116	 0.258018339118204 
2117	 0.257747616898062 
2118	 0.257472804754535 
2119	 0.257195828974763 
2120	 0.256930917301784 
2121	 0.25665764976862 
2122	 0.256413036936063 
2123	 0.25618847851854 
2124	 0.255966117121903 
2125	 0.255750484208651 
2126	 0.255558076630347 
2127	 0.255378968883694 
2128	 0.255212525823601 
2129	 0.255063681733843 
2130	 0.254930707158445 
2131	 0.254810229508695 
2132	 0.254705235852414 
2133	 0.254619901170432 
2134	 0.254557990247476 
2135	 0.254492714496483 
2136	 0.254414268097795 
2137	 0.254343108778749 
2138	 0.254263936416187 
2139	 0.254209521718744 
2140	 0.254163516882085 
2141	 0.254129635395365 
2142	 0.254119556801721 
2143	 0.254097073615286 
2144	 0.254075769114761 
2145	 0.254060935516552 
2146	 0.254038475060081 
2147	 0.25403730381156 
2148	 0.254049421569044 
2149	 0.254069254957281 
2150	 0.254109733027636 
2151	 0.254142509989677 
2152	 0.254183569733243 
2153	 0.254221742401469 
2154	 0.254226099176351 
2155	 0.254258224140823 
2156	 0.254290941021756 
2157	 0.254324376123167 
2158	 0.254353717599367 
2159	 0.254405829330363 
2160	 0.254417433841236 
2161	 0.254409453419313 
2162	 0.254388782623546 
2163	 0.254328914516135 
2164	 0.254304639711787 
2165	 0.254291178940727 
2166	 0.254262480001375 
2167	 0.254249657159146 
2168	 0.254220708946156 
2169	 0.254170478167615 
2170	 0.254117903545922 
2171	 0.254051895451279 
2172	 0.25400023699828 
2173	 0.253941808013785 
2174	 0.253896399239305 
2175	 0.253861285322039 
2176	 0.253823299961182 
2177	 0.253768668986325 
2178	 0.253710219257941 
2179	 0.253621063777565 
2180	 0.25350437413065 
2181	 0.253402192719765 
2182	 0.253277705293845 
2183	 0.253170738035425 
2184	 0.253098741603178 
2185	 0.25297778764298 
2186	 0.252843095141872 
2187	 0.25268493718192 
2188	 0.252498137454623 
2189	 0.252293515478655 
2190	 0.252059716701716 
2191	 0.251826706619791 
2192	 0.251563817664405 
2193	 0.251317494924005 
2194	 0.251081029502583 
2195	 0.25083787277601 
2196	 0.250590670787621 
2197	 0.250354207273411 
2198	 0.250105142051595 
2199	 0.249824111939706 
2200	 0.249517806652753 
2201	 0.249201180478939 
2202	 0.248814653765722 
2203	 0.248357808577407 
2204	 0.247942970892442 
2205	 0.247455626778505 
2206	 0.247079842635698 
2207	 0.246740174176489 
2208	 0.246476911638832 
2209	 0.246259634787293 
2210	 0.246134552720623 
2211	 0.246128101590215 
2212	 0.246109599680197 
2213	 0.246190109501871 
2214	 0.246215674632633 
2215	 0.246255318776618 
2216	 0.24624228266002 
2217	 0.246219843633116 
2218	 0.24613961804035 
2219	 0.246026136622187 
2220	 0.245848187300027 
2221	 0.245614002030835 
2222	 0.245326761586497 
2223	 0.244986656539356 
2224	 0.244595172367793 
2225	 0.24419963655577 
2226	 0.243778238470937 
2227	 0.243302071226778 
2228	 0.242810407659947 
2229	 0.242231160543175 
2230	 0.241572436108435 
2231	 0.240889122512824 
2232	 0.240149507550443 
2233	 0.239363196109717 
2234	 0.238569618001921 
2235	 0.237646936498625 
2236	 0.236637714765802 
2237	 0.235572705786878 
2238	 0.234370715937711 
2239	 0.233190631694536 
2240	 0.232001876789409 
2241	 0.230723002766001 
2242	 0.22944674580365 
2243	 0.228031966446165 
2244	 0.226476321551167 
2245	 0.22490381493061 
2246	 0.223179069809147 
2247	 0.221509196460042 
2248	 0.219847672394189 
2249	 0.218158469284098 
2250	 0.216470567218107 
2251	 0.214791085696307 
2252	 0.21297068364857 
2253	 0.211186367979118 
2254	 0.209398717037032 
2255	 0.207614670725216 
2256	 0.205988124944546 
2257	 0.204360129265938 
2258	 0.202751915317849 
2259	 0.201194576555415 
2260	 0.199626843455151 
2261	 0.19804555598914 
2262	 0.196535466904924 
2263	 0.195034714304345 
2264	 0.193611239676066 
2265	 0.192268862590873 
2266	 0.190912561266174 
2267	 0.189624358174396 
2268	 0.188300026666365 
2269	 0.186957189996491 
2270	 0.185654823411222 
2271	 0.184333621646753 
2272	 0.183078458960765 
2273	 0.181898597739303 
2274	 0.180679218002456 
2275	 0.179516675511703 
2276	 0.178290896707329 
2277	 0.177023893108872 
2278	 0.175751951090863 
2279	 0.174437463882952 
2280	 0.173127287244651 
2281	 0.171820741146676 
2282	 0.17047631387814 
2283	 0.169123939886244 
2284	 0.167754026290012 
2285	 0.166267320374311 
2286	 0.164830585430382 
2287	 0.163302514737076 
2288	 0.161703598896398 
2289	 0.16021534858507 
2290	 0.158641090275141 
2291	 0.157104796610993 
2292	 0.155639772318316 
2293	 0.154085201776865 
2294	 0.15262012075113 
2295	 0.151245823368623 
2296	 0.149962728707211 
2297	 0.148875326561908 
2298	 0.147942625604207 
2299	 0.147178860177742 
2300	 0.146585544087128 
2301	 0.146167881058967 
2302	 0.145936398523234 
2303	 0.145862581831605 
2304	 0.145965955644697 
2305	 0.146244433708966 
2306	 0.146727689197609 
2307	 0.147329564788306 
2308	 0.14811275597858 
2309	 0.149027304981187 
2310	 0.150140125982649 
2311	 0.151269028350551 
2312	 0.152627167252111 
2313	 0.153841677922684 
2314	 0.155062650669053 
2315	 0.15622667879542 
2316	 0.157341833353826 
2317	 0.158399420965772 
2318	 0.159498366837835 
2319	 0.160371946171924 
2320	 0.161135490239697 
2321	 0.161746414408953 
2322	 0.162138059665214 
2323	 0.162458192217979 
2324	 0.162658407236293 
2325	 0.162764211868307 
2326	 0.162746284466472 
2327	 0.162637604760844 
2328	 0.162419612956204 
2329	 0.162102940574557 
2330	 0.161680132533737 
2331	 0.161149511993106 
2332	 0.160522180524869 
2333	 0.159803615619872 
2334	 0.158969371493697 
2335	 0.158077114328304 
2336	 0.157128023306821 
2337	 0.15612216901041 
2338	 0.155157353315608 
2339	 0.154167828324096 
2340	 0.153151649810699 
2341	 0.152208490199504 
2342	 0.151323831577762 
2343	 0.150553995001263 
2344	 0.15001701728039 
2345	 0.149690775605372 
2346	 0.149536782846505 
2347	 0.149617373166626 
2348	 0.149828167979202 
2349	 0.150247050676055 
2350	 0.150884400446034 
2351	 0.151643910419087 
2352	 0.152543515966361 
2353	 0.153501076242894 
2354	 0.15435417837391 
2355	 0.15512953468527 
2356	 0.155815899728283 
2357	 0.156373055700431 
2358	 0.156908923998938 
2359	 0.157337648761087 
2360	 0.157650144768184 
2361	 0.157840210136067 
2362	 0.157911485221729 
2363	 0.157900906453818 
2364	 0.157825396938752 
2365	 0.157729454317033 
2366	 0.157609636145845 
2367	 0.157536858523854 
2368	 0.157499015714893 
2369	 0.157451329691305 
2370	 0.157400840145799 
2371	 0.15729872149027 
2372	 0.157215384282764 
2373	 0.157168531023069 
2374	 0.157116783354728 
2375	 0.157111170157796 
2376	 0.157108787163448 
2377	 0.157069084276558 
2378	 0.157070074939904 
2379	 0.157098297659518 
2380	 0.157088752053692 
2381	 0.157116265384925 
2382	 0.157149749640994 
2383	 0.157170798597163 
2384	 0.157227461682793 
2385	 0.157329194949567 
2386	 0.157405590846261 
2387	 0.157494977085344 
2388	 0.157573023516791 
2389	 0.157630652108234 
2390	 0.157705114151685 
2391	 0.157827454785659 
2392	 0.157861831582247 
2393	 0.157824310809552 
2394	 0.157844743749215 
2395	 0.1578358822743 
2396	 0.157832422504164 
2397	 0.157888453784364 
2398	 0.157948915541858 
2399	 0.157983701563927 
2400	 0.157985588311448 
2401	 0.157991038710108 
2402	 0.15792053939115 
2403	 0.157928221148788 
2404	 0.157990095969195 
2405	 0.158094922710705 
2406	 0.158211205156121 
2407	 0.158313372563825 
2408	 0.158332758081708 
2409	 0.158313989648181 
2410	 0.158302604202992 
2411	 0.158166936517943 
2412	 0.15805475066772 
2413	 0.158015115068897 
2414	 0.157872889002013 
2415	 0.157826724568262 
2416	 0.157847714372448 
2417	 0.157745167798486 
2418	 0.157675952681755 
2419	 0.157612917348224 
2420	 0.157597022938282 
2421	 0.157691297198342 
2422	 0.157748935040299 
2423	 0.157695758175282 
2424	 0.15754429667979 
2425	 0.157382082717786 
2426	 0.157244233173996 
2427	 0.157219128644614 
2428	 0.157259956970244 
2429	 0.157177670428731 
2430	 0.15710807628501 
2431	 0.157076559676916 
2432	 0.156889243507766 
2433	 0.156757449339107 
2434	 0.15668334782647 
2435	 0.156459552482533 
2436	 0.15633937772903 
2437	 0.156265180712715 
2438	 0.156115213980183 
2439	 0.156071855853943 
2440	 0.155955767623239 
2441	 0.155753605173398 
2442	 0.155651648556152 
2443	 0.155493642180944 
2444	 0.155331958798392 
2445	 0.155264151810152 
2446	 0.155030393682215 
2447	 0.154853566982089 
2448	 0.154722865348568 
2449	 0.154384678639956 
2450	 0.154245889858266 
2451	 0.153992233603032 
2452	 0.153595197303795 
2453	 0.153455533767684 
2454	 0.153207492853922 
2455	 0.152946437260324 
2456	 0.152843951039958 
2457	 0.152651831997694 
2458	 0.152372865325596 
2459	 0.152068147477702 
2460	 0.151759805341331 
2461	 0.151497358746287 
2462	 0.151385154246958 
2463	 0.151421111326926 
2464	 0.151263549712185 
2465	 0.151216519835478 
2466	 0.15126640696281 
2467	 0.151023559934103 
2468	 0.15096368670595 
2469	 0.150892728859526 
2470	 0.150612514103993 
2471	 0.150543473267469 
2472	 0.150522533440992 
2473	 0.150466633581838 
2474	 0.150483720743004 
2475	 0.150442444122431 
2476	 0.150413256890343 
2477	 0.150437195236777 
2478	 0.150413105424838 
2479	 0.150365424756169 
2480	 0.150436435323102 
2481	 0.150475851680032 
2482	 0.150356508389044 
2483	 0.150865051643423 
2484	 0.151141012152999 
2485	 0.151210486707429 
2486	 0.151550127320017 
2487	 0.151533703409109 
2488	 0.151494776264024 
2489	 0.151762023478131 
2490	 0.151868899475814 
2491	 0.151939274887642 
2492	 0.1522500670562 
2493	 0.152700265724744 
2494	 0.153068469206531 
2495	 0.153338305156505 
2496	 0.153490465878775 
2497	 0.153480815079538 
2498	 0.153647143963817 
2499	 0.154321527178185 
2500	 0.155005726053279 
