Wavelength	spectrum00014.asd
350	 5.94137496006136E-02 
351	 5.70433830798593E-02 
352	 5.40418168365486E-02 
353	 5.25248032022609E-02 
354	 5.29501156605279E-02 
355	 5.19524226800343E-02 
356	 5.08065262054283E-02 
357	 5.06652262911124E-02 
358	 4.88906472259092E-02 
359	 4.81323995579206E-02 
360	 0.047766839983628 
361	 4.60089185755611E-02 
362	 4.65984431523998E-02 
363	 0.046323558139291 
364	 4.42727063253113E-02 
365	 4.33089812846358E-02 
366	 4.41307588267354E-02 
367	 4.48567962811022E-02 
368	 4.40123403156739E-02 
369	 4.35740958859387E-02 
370	 4.35070787080012E-02 
371	 4.33796961955967E-02 
372	 4.26337238884877E-02 
373	 4.14912811589954E-02 
374	 4.25463428399016E-02 
375	 4.51190149547819E-02 
376	 4.36740479242877E-02 
377	 4.25804798600495E-02 
378	 0.042506989426588 
379	 4.27958055527605E-02 
380	 4.15934633246774E-02 
381	 0.041896824521651 
382	 4.28193580579046E-02 
383	 4.15431536191737E-02 
384	 4.12375796148067E-02 
385	 4.16307782906969E-02 
386	 4.16919221653345E-02 
387	 3.98362944271776E-02 
388	 3.91714397426685E-02 
389	 4.00026573702142E-02 
390	 0.04123435900017 
391	 3.99364104156125E-02 
392	 3.91391831561395E-02 
393	 3.94339233150514E-02 
394	 0.039674156108541 
395	 0.039821116135223 
396	 3.97771327827149E-02 
397	 3.94825240064262E-02 
398	 3.88660594803662E-02 
399	 3.86305766869137E-02 
400	 3.85286481810468E-02 
401	 3.81525726241956E-02 
402	 3.76980202907646E-02 
403	 3.74405126739841E-02 
404	 3.73589008550659E-02 
405	 3.72268665792745E-02 
406	 3.73175498318908E-02 
407	 3.70457613018795E-02 
408	 3.64695370677976E-02 
409	 3.72467950574082E-02 
410	 3.69445954119137E-02 
411	 0.036403011069508 
412	 3.69529886980755E-02 
413	 3.66566105521908E-02 
414	 3.59822084619374E-02 
415	 3.55451808812476E-02 
416	 3.58949171649151E-02 
417	 3.59158982890599E-02 
418	 3.57846096210065E-02 
419	 3.57556766784817E-02 
420	 3.56949778115841E-02 
421	 3.55088326132829E-02 
422	 3.53604291646906E-02 
423	 3.54266340966486E-02 
424	 0.03521811162396 
425	 3.50896468101761E-02 
426	 3.51391796418096E-02 
427	 3.51025301460933E-02 
428	 3.49792051499771E-02 
429	 3.48729726144749E-02 
430	 3.48391571815176E-02 
431	 3.46792123825658E-02 
432	 3.46984007128734E-02 
433	 3.47967824117755E-02 
434	 3.46907158195253E-02 
435	 3.47009985480762E-02 
436	 3.47213623698935E-02 
437	 3.46571123214059E-02 
438	 3.44904021812549E-02 
439	 3.45950734361781E-02 
440	 3.46753934023229E-02 
441	 3.44261271350687E-02 
442	 3.43664251496524E-02 
443	 3.44353029576923E-02 
444	 3.45128720163657E-02 
445	 3.44644286482232E-02 
446	 0.034484274707278 
447	 3.44413755289992E-02 
448	 3.42903837268922E-02 
449	 3.42703874822917E-02 
450	 3.44725628078565E-02 
451	 3.45633159581608E-02 
452	 0.03421364137036 
453	 3.42222019112492E-02 
454	 3.43440883796629E-02 
455	 3.43395335947954E-02 
456	 3.40753458556019E-02 
457	 3.41749539372892E-02 
458	 3.43133083479928E-02 
459	 3.41792456531807E-02 
460	 3.41801828422328E-02 
461	 3.41350975556178E-02 
462	 3.40860259906821E-02 
463	 3.41619437173282E-02 
464	 3.41157821500113E-02 
465	 3.40531939539866E-02 
466	 3.40401028798365E-02 
467	 3.40178934882276E-02 
468	 3.40263315856695E-02 
469	 0.033974394372302 
470	 3.38293718804609E-02 
471	 3.39540258565777E-02 
472	 3.40755082612094E-02 
473	 3.40460563803954E-02 
474	 3.38567663105493E-02 
475	 3.37149871675496E-02 
476	 3.37024602447697E-02 
477	 3.37850172634907E-02 
478	 0.033731865323941 
479	 3.37099940889051E-02 
480	 3.37501979739808E-02 
481	 3.38152916839836E-02 
482	 3.38019950779685E-02 
483	 3.37394230992357E-02 
484	 3.36702019592583E-02 
485	 3.36381891033669E-02 
486	 0.033695182320397 
487	 3.37329836723458E-02 
488	 3.36736497423199E-02 
489	 3.36460415686385E-02 
490	 3.36369655665355E-02 
491	 3.36592187279131E-02 
492	 3.37235507573913E-02 
493	 3.36899450711582E-02 
494	 3.36431673858426E-02 
495	 3.36400156883621E-02 
496	 3.36446380806839E-02 
497	 3.36633911283174E-02 
498	 3.36515710292331E-02 
499	 3.35833886838904E-02 
500	 3.35780887432674E-02 
501	 3.36159278824615E-02 
502	 3.36178522228799E-02 
503	 3.34779716837966E-02 
504	 3.35140974045958E-02 
505	 3.35528464403335E-02 
506	 3.34668409886575E-02 
507	 3.34654474151857E-02 
508	 3.34320622764091E-02 
509	 3.33969044942516E-02 
510	 3.34315965804242E-02 
511	 3.34208947724959E-02 
512	 3.34363618126937E-02 
513	 3.34784429167421E-02 
514	 3.34371610303156E-02 
515	 3.33377441756954E-02 
516	 3.32693161817795E-02 
517	 0.033284388721423 
518	 3.32407601293538E-02 
519	 3.32536020447817E-02 
520	 3.33036967728506E-02 
521	 3.32878520249936E-02 
522	 3.33262813933255E-02 
523	 3.33323387487546E-02 
524	 3.32686911317551E-02 
525	 3.32509913151289E-02 
526	 3.32263056356959E-02 
527	 3.31976697386589E-02 
528	 3.31883842984531E-02 
529	 3.32348567686658E-02 
530	 3.32435188198036E-02 
531	 3.32262728873012E-02 
532	 3.33094098999354E-02 
533	 3.33296399297434E-02 
534	 3.33162463442539E-02 
535	 3.33149462825998E-02 
536	 3.32842348183034E-02 
537	 3.32840869952276E-02 
538	 3.33089974110547E-02 
539	 3.33172902734586E-02 
540	 3.33080180690559E-02 
541	 3.33014693808151E-02 
542	 0.033302530279602 
543	 3.32866628780894E-02 
544	 3.32710710740916E-02 
545	 3.32523557183161E-02 
546	 3.32284777593984E-02 
547	 3.32336917887624E-02 
548	 3.32229682671318E-02 
549	 3.32060753930688E-02 
550	 3.32377246809379E-02 
551	 3.31940686101433E-02 
552	 3.31530931025332E-02 
553	 3.31752812496231E-02 
554	 3.31816104251766E-02 
555	 3.31794505077357E-02 
556	 3.31871542819611E-02 
557	 3.32217839205947E-02 
558	 3.32278485837198E-02 
559	 3.32678155978898E-02 
560	 3.33528411949763E-02 
561	 3.34105639155513E-02 
562	 0.033402591050979 
563	 3.33897362056366E-02 
564	 3.34349498786863E-02 
565	 3.34954250264983E-02 
566	 3.35185378910357E-02 
567	 3.35104209085741E-02 
568	 3.35199531225419E-02 
569	 3.35196457858706E-02 
570	 3.35242297236408E-02 
571	 3.35363989020912E-02 
572	 3.35139846522605E-02 
573	 0.03354715840382 
574	 3.36004242702047E-02 
575	 3.36187452243482E-02 
576	 3.37582117784367E-02 
577	 3.38435967568865E-02 
578	 3.38438148541953E-02 
579	 3.39136702194965E-02 
580	 3.39868517761909E-02 
581	 3.40614122723169E-02 
582	 3.41518324730885E-02 
583	 3.42864596417091E-02 
584	 3.44124199379568E-02 
585	 3.45332693932157E-02 
586	 3.46833458322435E-02 
587	 3.48354793068369E-02 
588	 3.49964484032725E-02 
589	 3.51697692481536E-02 
590	 3.53464137989068E-02 
591	 0.035543896491259 
592	 0.035762374089998 
593	 3.59968864827542E-02 
594	 3.62460040321009E-02 
595	 3.65099094900591E-02 
596	 3.68060424396493E-02 
597	 3.71611943864046E-02 
598	 3.75046148979187E-02 
599	 0.037894681785159 
600	 3.83691809441897E-02 
601	 3.88543900860604E-02 
602	 3.94024278718821E-02 
603	 3.99990731049261E-02 
604	 4.06132511163854E-02 
605	 4.13077582767681E-02 
606	 4.20615798985905E-02 
607	 4.28825572380034E-02 
608	 4.38216519246077E-02 
609	 4.47440112938736E-02 
610	 0.045705569704389 
611	 4.67854230867839E-02 
612	 4.79589810056961E-02 
613	 4.92091328361279E-02 
614	 0.050509512105312 
615	 5.18403476408834E-02 
616	 5.32567231501332E-02 
617	 5.47795474356692E-02 
618	 5.63943862456209E-02 
619	 0.058035373513998 
620	 5.97739092103342E-02 
621	 6.15838239976461E-02 
622	 6.34191568658884E-02 
623	 6.52999201150117E-02 
624	 6.72726676551905E-02 
625	 6.93190165507415E-02 
626	 7.13673642167923E-02 
627	 7.34788555339586E-02 
628	 7.56524761135763E-02 
629	 7.78748369554007E-02 
630	 8.01288647965702E-02 
631	 8.24069699107734E-02 
632	 8.47084018839588E-02 
633	 8.70292677116671E-02 
634	 8.93335387274438E-02 
635	 9.16600770537556E-02 
636	 9.40318303375167E-02 
637	 9.64318605293764E-02 
638	 9.88036399754217E-02 
639	 0.101140906637609 
640	 0.103463160521129 
641	 0.10582561927782 
642	 0.108177140316966 
643	 0.11049265634659 
644	 0.112773391845925 
645	 0.115067133216666 
646	 0.117334892441149 
647	 0.119568870675922 
648	 0.121834867814428 
649	 0.124035941377393 
650	 0.126178201044388 
651	 0.128298321250497 
652	 0.130415474098119 
653	 0.132535001573274 
654	 0.134624302024215 
655	 0.136630979730786 
656	 0.138665053996353 
657	 0.140685968816824 
658	 0.142644474177558 
659	 0.144524724418872 
660	 0.14639224569972 
661	 0.148270096623008 
662	 0.150154568283478 
663	 0.152015695090586 
664	 0.153801692055324 
665	 0.155520630395422 
666	 0.157240223230079 
667	 0.158960358017304 
668	 0.160664023417755 
669	 0.162330451050258 
670	 0.163947887159049 
671	 0.165528535801866 
672	 0.16710660606775 
673	 0.168711470722821 
674	 0.170247833011962 
675	 0.171753696698589 
676	 0.173253531472935 
677	 0.174739396895431 
678	 0.176173204390088 
679	 0.177607203153086 
680	 0.179064122729955 
681	 0.180406505273328 
682	 0.181777136651684 
683	 0.183160721954767 
684	 0.184468411969395 
685	 0.185801707795757 
686	 0.187101417302389 
687	 0.188356583626532 
688	 0.189647821006389 
689	 0.190889155388431 
690	 0.192098170145217 
691	 0.193317764154768 
692	 0.194577893459394 
693	 0.195782532768428 
694	 0.196945389861539 
695	 0.198137957082458 
696	 0.199269697666045 
697	 0.200380047708643 
698	 0.201480358517869 
699	 0.202508927796707 
700	 0.203583588115842 
701	 0.204663597028828 
702	 0.205694976856888 
703	 0.206761178348633 
704	 0.207811063469312 
705	 0.208809762454759 
706	 0.209749394431529 
707	 0.210734784073586 
708	 0.211708943144896 
709	 0.21262751439571 
710	 0.213501224875687 
711	 0.214425291140723 
712	 0.215362360766552 
713	 0.216258711224157 
714	 0.217186532765367 
715	 0.218057353360961 
716	 0.218875847622756 
717	 0.219710925165451 
718	 0.220522111918821 
719	 0.221391554013952 
720	 0.222293484483162 
721	 0.222987605773561 
722	 0.223764934951287 
723	 0.224622911589404 
724	 0.225462685205399 
725	 0.226201033597015 
726	 0.226917610560123 
727	 0.227657129581802 
728	 0.228423506020096 
729	 0.229124587503192 
730	 0.229835135218745 
731	 0.230599275123953 
732	 0.23137728278058 
733	 0.232111803143472 
734	 0.232821250140249 
735	 0.233538111449195 
736	 0.234242066494279 
737	 0.234937417097709 
738	 0.235618472432965 
739	 0.236278217559268 
740	 0.236977466936887 
741	 0.237648028925758 
742	 0.238265889529942 
743	 0.238896202221939 
744	 0.239595757255537 
745	 0.240325307276548 
746	 0.241017277545307 
747	 0.241604359651573 
748	 0.242247756572452 
749	 0.242941128087007 
750	 0.243579806207168 
751	 0.244141526524237 
752	 0.244767027771741 
753	 0.2454680407695 
754	 0.246072559994338 
755	 0.246670667087231 
756	 0.247304318639564 
757	 0.247969130533258 
758	 0.248558214540495 
759	 0.249138737690649 
760	 0.249742965628523 
761	 0.250375458344661 
762	 0.250987343278531 
763	 0.251574371045517 
764	 0.252157283769084 
765	 0.252778207138095 
766	 0.253432578942619 
767	 0.254038269287538 
768	 0.254574614512315 
769	 0.255198864048199 
770	 0.255786896039604 
771	 0.256354847415439 
772	 0.256947817918817 
773	 0.257489267127414 
774	 0.258038825617874 
775	 0.258611418673993 
776	 0.259180651289528 
777	 0.259742217286951 
778	 0.260322496584391 
779	 0.260908920631992 
780	 0.261413607786602 
781	 0.26195578639967 
782	 0.26252257090651 
783	 0.263072840467946 
784	 0.263606776501351 
785	 0.264178970900751 
786	 0.264758318443333 
787	 0.265274609094567 
788	 0.26577072233766 
789	 0.266295271956629 
790	 0.266834588581667 
791	 0.267308362233718 
792	 0.267853855640792 
793	 0.268386723174025 
794	 0.268856152653367 
795	 0.269411095944567 
796	 0.269922472512152 
797	 0.27039412182283 
798	 0.270874157794411 
799	 0.271355691367359 
800	 0.271928624049995 
801	 0.272508998428803 
802	 0.272909050689191 
803	 0.273353064371289 
804	 0.273802213695509 
805	 0.274243197629906 
806	 0.274752368056353 
807	 0.275236739714498 
808	 0.27568293193519 
809	 0.276112067172934 
810	 0.276574220464409 
811	 0.277089357877974 
812	 0.277578528422769 
813	 0.277956498496425 
814	 0.27836659893717 
815	 0.278808212830335 
816	 0.279268459808503 
817	 0.279725437598921 
818	 0.280110454489066 
819	 0.280475243850775 
820	 0.280851214404867 
821	 0.281203820311426 
822	 0.281540344556847 
823	 0.281937026590869 
824	 0.282412441950232 
825	 0.282754248578282 
826	 0.283119331469634 
827	 0.283498043897114 
828	 0.283817509871062 
829	 0.284119784610914 
830	 0.284430438163419 
831	 0.284770483866802 
832	 0.285149074530101 
833	 0.28550390043796 
834	 0.285818675629076 
835	 0.286108245440772 
836	 0.28642087150786 
837	 0.286742506454619 
838	 0.287043663958121 
839	 0.28730860623627 
840	 0.287569144543191 
841	 0.287851830960111 
842	 0.288132782921952 
843	 0.288381796133342 
844	 0.288650228105475 
845	 0.28893799162247 
846	 0.289212981973018 
847	 0.289430724859221 
848	 0.289633591736433 
849	 0.289840978089746 
850	 0.290072916834641 
851	 0.290347881282237 
852	 0.290578932612572 
853	 0.290831712181845 
854	 0.291126521182494 
855	 0.291321139225491 
856	 0.291477962362148 
857	 0.291663447047531 
858	 0.29190935822015 
859	 0.292119446164456 
860	 0.292316101690031 
861	 0.292517402733092 
862	 0.292727479975881 
863	 0.292884933953583 
864	 0.293042397417916 
865	 0.293196392796432 
866	 0.293302231161271 
867	 0.293472710450201 
868	 0.29369594093116 
869	 0.293928269308789 
870	 0.294111591912436 
871	 0.29418965126347 
872	 0.294293371652691 
873	 0.294495382465466 
874	 0.294647420871447 
875	 0.294823387096079 
876	 0.294953169473263 
877	 0.294991359513454 
878	 0.29512381592552 
879	 0.295267023274023 
880	 0.295398097485706 
881	 0.295524815890333 
882	 0.295652742400108 
883	 0.295723428938116 
884	 0.295782955844781 
885	 0.295942522310694 
886	 0.296136053287188 
887	 0.296342684878519 
888	 0.296491305247278 
889	 0.296471918803215 
890	 0.296518798946457 
891	 0.296614450717108 
892	 0.296732226877243 
893	 0.296913820575507 
894	 0.297001301364905 
895	 0.297043880442041 
896	 0.297123046531793 
897	 0.297251821519673 
898	 0.29740145383594 
899	 0.297505636985195 
900	 0.297534787799271 
901	 0.297630575189289 
902	 0.29775441238264 
903	 0.297875740755578 
904	 0.2979795252379 
905	 0.298113448842378 
906	 0.298199667970292 
907	 0.298268796913307 
908	 0.298412204978552 
909	 0.298522289580761 
910	 0.298599110700505 
911	 0.298674436840308 
912	 0.298795602934499 
913	 0.298950945537235 
914	 0.299082106729743 
915	 0.299170760758212 
916	 0.299263632441598 
917	 0.299397610100568 
918	 0.29952057395702 
919	 0.299620982961484 
920	 0.299797244976195 
921	 0.299865722334873 
922	 0.299904683289737 
923	 0.300011149959754 
924	 0.300141408091006 
925	 0.300324436746616 
926	 0.300508073011627 
927	 0.300638072938418 
928	 0.300740738541921 
929	 0.300857953865775 
930	 0.300978802866757 
931	 0.301081174132358 
932	 0.301208587281045 
933	 0.301310282047361 
934	 0.301411935025271 
935	 0.301573737344108 
936	 0.301799646175637 
937	 0.301971503193034 
938	 0.30207177608347 
939	 0.302173346321392 
940	 0.302389601574876 
941	 0.30260248165497 
942	 0.302774645311987 
943	 0.302947632239961 
944	 0.303022687223345 
945	 0.303120801917275 
946	 0.303290613075565 
947	 0.303469556151222 
948	 0.303569563831886 
949	 0.303633913906601 
950	 0.303704850278201 
951	 0.303796877537189 
952	 0.304006896782124 
953	 0.304182414353405 
954	 0.304241313002632 
955	 0.304275643779951 
956	 0.304339632760176 
957	 0.304446663311687 
958	 0.304597412177407 
959	 0.304791602745061 
960	 0.304895185068633 
961	 0.304983557400934 
962	 0.305113650222842 
963	 0.305201558839174 
964	 0.305252304490749 
965	 0.305347534121636 
966	 0.30552182483362 
967	 0.305664852672883 
968	 0.305716515457012 
969	 0.305748242213652 
970	 0.305857008178307 
971	 0.30609747126796 
972	 0.306220582770202 
973	 0.306242220519491 
974	 0.306277781336003 
975	 0.306457050637317 
976	 0.306539294294445 
977	 0.306601460215795 
978	 0.306746382306146 
979	 0.306821250204762 
980	 0.306896308138833 
981	 0.306934912665406 
982	 0.306932077147613 
983	 0.307083087697066 
984	 0.307284016491578 
985	 0.307441572772741 
986	 0.307511732733193 
987	 0.307583140733928 
988	 0.307756227190369 
989	 0.307905098233305 
990	 0.307896571839257 
991	 0.307863322552541 
992	 0.307900021856589 
993	 0.308046249949593 
994	 0.308262914823616 
995	 0.308367917512725 
996	 0.308497189027426 
997	 0.308610444040496 
998	 0.308653438875699 
999	 0.308725038734676 
1000	 0.308969249411668 
1001	 0.307701902884185 
1002	 0.307789405279127 
1003	 0.307843977682171 
1004	 0.307902351745854 
1005	 0.307961868472068 
1006	 0.308011445754333 
1007	 0.308036679626886 
1008	 0.308096506918054 
1009	 0.308165985309155 
1010	 0.308236217462094 
1011	 0.308341919964352 
1012	 0.308405049232219 
1013	 0.308445947877691 
1014	 0.308495840808194 
1015	 0.308532268379094 
1016	 0.308542914498987 
1017	 0.308632341517723 
1018	 0.308731349395003 
1019	 0.308806094835357 
1020	 0.308910904649015 
1021	 0.30900429649999 
1022	 0.309083478538836 
1023	 0.30915615906559 
1024	 0.309234593967467 
1025	 0.309316587340585 
1026	 0.30937203454831 
1027	 0.309451086268834 
1028	 0.309562635841775 
1029	 0.30965259126367 
1030	 0.309728451658289 
1031	 0.309808936814974 
1032	 0.309896168765801 
1033	 0.30998991096281 
1034	 0.310048290342103 
1035	 0.310081695191544 
1036	 0.310146623555995 
1037	 0.310199725720467 
1038	 0.310271485309305 
1039	 0.310400085793977 
1040	 0.310468801361989 
1041	 0.310503999985353 
1042	 0.310523948084891 
1043	 0.310492484139624 
1044	 0.310524138131169 
1045	 0.310552797897302 
1046	 0.310615606611502 
1047	 0.310725992878095 
1048	 0.310787037228481 
1049	 0.310819007085869 
1050	 0.310831654560981 
1051	 0.310857778281852 
1052	 0.310859753029827 
1053	 0.310880228258883 
1054	 0.310945408038869 
1055	 0.310986478318289 
1056	 0.311010142904793 
1057	 0.311030211329677 
1058	 0.31106076509696 
1059	 0.311023569291454 
1060	 0.311019257649782 
1061	 0.311068994488093 
1062	 0.311116218544392 
1063	 0.311177744651149 
1064	 0.311204905585319 
1065	 0.311212698413906 
1066	 0.311224844965142 
1067	 0.311218636792292 
1068	 0.311226685510192 
1069	 0.311225717925187 
1070	 0.311246556605729 
1071	 0.311275971297817 
1072	 0.311336369384464 
1073	 0.311379973515828 
1074	 0.311412445990112 
1075	 0.31140901502257 
1076	 0.311404434791701 
1077	 0.311443026400947 
1078	 0.311472756625868 
1079	 0.311531946232191 
1080	 0.311627681947701 
1081	 0.311682072966101 
1082	 0.311723075721243 
1083	 0.311786408963908 
1084	 0.31182283879909 
1085	 0.311829346339274 
1086	 0.311859200924487 
1087	 0.311905635447371 
1088	 0.311962058986179 
1089	 0.312013573385403 
1090	 0.312078070179525 
1091	 0.312161558576672 
1092	 0.312223715751449 
1093	 0.312262150910373 
1094	 0.312340508859722 
1095	 0.312422755054951 
1096	 0.312495978535249 
1097	 0.312555199585005 
1098	 0.312588558798141 
1099	 0.312634632799081 
1100	 0.312689867156761 
1101	 0.312785972133622 
1102	 0.31289327675231 
1103	 0.312978691125773 
1104	 0.313047129143537 
1105	 0.313125304268395 
1106	 0.313196362118388 
1107	 0.313276664856971 
1108	 0.313382369543457 
1109	 0.313469897913323 
1110	 0.313556814359383 
1111	 0.313650193138009 
1112	 0.313726881777936 
1113	 0.313806629052866 
1114	 0.313902456875611 
1115	 0.313982483692065 
1116	 0.314057569093812 
1117	 0.314157743855266 
1118	 0.314252370646703 
1119	 0.314352107116179 
1120	 0.314442243125231 
1121	 0.314538284174728 
1122	 0.314605873891285 
1123	 0.314683615827831 
1124	 0.314759994867554 
1125	 0.314841561592074 
1126	 0.314946292489641 
1127	 0.315057949795598 
1128	 0.315163108467858 
1129	 0.315253135004979 
1130	 0.315339519296453 
1131	 0.315414275061289 
1132	 0.315458699678062 
1133	 0.315522240093081 
1134	 0.315612943967307 
1135	 0.315686005727079 
1136	 0.315757644674064 
1137	 0.315829227575276 
1138	 0.31589980400771 
1139	 0.315950841412624 
1140	 0.315993397371114 
1141	 0.316035973004298 
1142	 0.316059504679845 
1143	 0.316083531108485 
1144	 0.316099942488809 
1145	 0.316093879205892 
1146	 0.316084773578418 
1147	 0.316078887340645 
1148	 0.316088085722809 
1149	 0.316104975965404 
1150	 0.316107304618991 
1151	 0.316106647138099 
1152	 0.316109962065102 
1153	 0.3161093689362 
1154	 0.316100831950438 
1155	 0.316102046769599 
1156	 0.316089234601566 
1157	 0.316046624767094 
1158	 0.316025248036797 
1159	 0.316014673267997 
1160	 0.316000517177011 
1161	 0.315975607938148 
1162	 0.315955622066675 
1163	 0.315947915315943 
1164	 0.315911227638156 
1165	 0.315878701586903 
1166	 0.315860853801428 
1167	 0.315813765424936 
1168	 0.315787927887455 
1169	 0.3157617605518 
1170	 0.315747304529571 
1171	 0.315716816523499 
1172	 0.31568983731657 
1173	 0.315640791635473 
1174	 0.315576820192652 
1175	 0.315509701184531 
1176	 0.315421537901245 
1177	 0.315349598159569 
1178	 0.315286817686216 
1179	 0.315207296822202 
1180	 0.315141027145174 
1181	 0.315073659719274 
1182	 0.314981661873534 
1183	 0.314905246331535 
1184	 0.314836129804934 
1185	 0.314773544656749 
1186	 0.31471675647303 
1187	 0.314669761049306 
1188	 0.314627771032633 
1189	 0.314588532903252 
1190	 0.31455652069868 
1191	 0.314532390404359 
1192	 0.314522318006972 
1193	 0.314518068865051 
1194	 0.314520408850584 
1195	 0.314531227320393 
1196	 0.314557382386347 
1197	 0.314586772350224 
1198	 0.31463987678606 
1199	 0.314707844475646 
1200	 0.314772444879164 
1201	 0.314853327122817 
1202	 0.314937536559683 
1203	 0.315033788618833 
1204	 0.315176159353695 
1205	 0.315322311103876 
1206	 0.315472750930881 
1207	 0.315668029687321 
1208	 0.31587745510569 
1209	 0.316138801982721 
1210	 0.316438743573441 
1211	 0.316782366153721 
1212	 0.31718270590167 
1213	 0.317594510197967 
1214	 0.318046462380216 
1215	 0.318516924633441 
1216	 0.319009169133223 
1217	 0.319513676466237 
1218	 0.320051978745552 
1219	 0.320588219435217 
1220	 0.321119926458286 
1221	 0.321709570041583 
1222	 0.322272185125426 
1223	 0.322837431147732 
1224	 0.323400722789307 
1225	 0.323964146870445 
1226	 0.324505820559626 
1227	 0.325052923489749 
1228	 0.325568396251209 
1229	 0.326069709468692 
1230	 0.326540550044699 
1231	 0.326976292645443 
1232	 0.327415756716567 
1233	 0.327825384786046 
1234	 0.328236366637597 
1235	 0.328668656011119 
1236	 0.329058382028024 
1237	 0.329409507108172 
1238	 0.329769552934056 
1239	 0.330108592464567 
1240	 0.330443862383237 
1241	 0.330801139732544 
1242	 0.331145624979657 
1243	 0.331475448535474 
1244	 0.331796917946011 
1245	 0.332109695156819 
1246	 0.33239760811757 
1247	 0.332709194598209 
1248	 0.3330281930454 
1249	 0.333339574870283 
1250	 0.333656947310564 
1251	 0.333970811958762 
1252	 0.334278573677559 
1253	 0.33458616424199 
1254	 0.334906053757919 
1255	 0.335207806383191 
1256	 0.335494485494545 
1257	 0.335782470907349 
1258	 0.336064991334212 
1259	 0.336341496937484 
1260	 0.33660845455774 
1261	 0.336883872886245 
1262	 0.337161333889311 
1263	 0.337436609848214 
1264	 0.337701165521898 
1265	 0.337971778758953 
1266	 0.338223665975439 
1267	 0.338454008718664 
1268	 0.338691644040343 
1269	 0.338925263615917 
1270	 0.339158687416482 
1271	 0.339396479596274 
1272	 0.339615668578147 
1273	 0.339814655233178 
1274	 0.340035157859194 
1275	 0.340256437940228 
1276	 0.340471981609094 
1277	 0.340703726225606 
1278	 0.340920937280181 
1279	 0.341114701715289 
1280	 0.341318894363387 
1281	 0.341520561943185 
1282	 0.341732565925217 
1283	 0.341957821513286 
1284	 0.342171573259717 
1285	 0.342383430164532 
1286	 0.342598939573654 
1287	 0.342811248232702 
1288	 0.343014333110493 
1289	 0.343220697743592 
1290	 0.343436497522615 
1291	 0.343635485686341 
1292	 0.343818930767361 
1293	 0.344012574442445 
1294	 0.344194761951167 
1295	 0.344399211675894 
1296	 0.344622957445439 
1297	 0.344833231330896 
1298	 0.345049367001812 
1299	 0.345261972546929 
1300	 0.345462935756554 
1301	 0.345670986743694 
1302	 0.345883777566813 
1303	 0.346098057355989 
1304	 0.346326283312057 
1305	 0.3465326190516 
1306	 0.346717030974206 
1307	 0.346919899175998 
1308	 0.347112683217229 
1309	 0.347317264921693 
1310	 0.347524454663591 
1311	 0.347752340197952 
1312	 0.347965773463531 
1313	 0.348171189725653 
1314	 0.348380221047042 
1315	 0.348586212187877 
1316	 0.348807019962005 
1317	 0.349040322364184 
1318	 0.349254417680758 
1319	 0.349473928387557 
1320	 0.349684120583365 
1321	 0.349862919445966 
1322	 0.350071733157638 
1323	 0.350312383279173 
1324	 0.350519541221138 
1325	 0.350725998496148 
1326	 0.350918386045927 
1327	 0.351085451045347 
1328	 0.351252652229365 
1329	 0.351414558050872 
1330	 0.351574906194344 
1331	 0.351718795328448 
1332	 0.351874822175363 
1333	 0.3520425528493 
1334	 0.352205843204346 
1335	 0.352356797035555 
1336	 0.352512374332853 
1337	 0.352645391740609 
1338	 0.352760584894034 
1339	 0.352871142385959 
1340	 0.352964993641415 
1341	 0.353073686881132 
1342	 0.353189328907074 
1343	 0.353280985369664 
1344	 0.353381369034579 
1345	 0.353448064298647 
1346	 0.353483777051424 
1347	 0.353514696200682 
1348	 0.353528920943804 
1349	 0.353540853595653 
1350	 0.353545084163264 
1351	 0.353535880874067 
1352	 0.353510006421831 
1353	 0.353491994850106 
1354	 0.353465490696487 
1355	 0.353439456690421 
1356	 0.353421504536883 
1357	 0.353397207920931 
1358	 0.353364116443026 
1359	 0.353331023273248 
1360	 0.353297679927624 
1361	 0.353265887228401 
1362	 0.353216076492145 
1363	 0.353176561940819 
1364	 0.353132784574512 
1365	 0.353092621793376 
1366	 0.353029456255489 
1367	 0.352965306615638 
1368	 0.352878130042305 
1369	 0.35277062072717 
1370	 0.352651915058545 
1371	 0.352528734691917 
1372	 0.352375482060931 
1373	 0.352201898832753 
1374	 0.352009456392289 
1375	 0.351788003670152 
1376	 0.351561697609503 
1377	 0.351327262082328 
1378	 0.35106416463027 
1379	 0.350777257439119 
1380	 0.35048635199731 
1381	 0.350157255826196 
1382	 0.349852015243871 
1383	 0.349556416379929 
1384	 0.349256869341943 
1385	 0.348962790305246 
1386	 0.348668801063268 
1387	 0.348360544918866 
1388	 0.348077343635107 
1389	 0.347791057711836 
1390	 0.347538861715567 
1391	 0.347319481403339 
1392	 0.347103542246073 
1393	 0.346940071467708 
1394	 0.346777068881892 
1395	 0.346570703569187 
1396	 0.346378802559975 
1397	 0.346107261006942 
1398	 0.345790992695406 
1399	 0.345426714653682 
1400	 0.345031249162994 
1401	 0.344551352904613 
1402	 0.344017343228386 
1403	 0.343408316089097 
1404	 0.342718978270412 
1405	 0.341991867494883 
1406	 0.341184793828839 
1407	 0.340378122187115 
1408	 0.339513540028435 
1409	 0.338665452803643 
1410	 0.337806854141609 
1411	 0.336943850176436 
1412	 0.336044572240386 
1413	 0.335208710543206 
1414	 0.334373868336343 
1415	 0.33358887160057 
1416	 0.332852464003108 
1417	 0.332144132796317 
1418	 0.331475519911401 
1419	 0.330821332447925 
1420	 0.330196553123835 
1421	 0.329599311946822 
1422	 0.329019725643584 
1423	 0.328465738821605 
1424	 0.327953199434283 
1425	 0.327441330966763 
1426	 0.326969062645506 
1427	 0.326493641562973 
1428	 0.32605274216682 
1429	 0.325669261073608 
1430	 0.325289499395273 
1431	 0.324940500952052 
1432	 0.324595691476456 
1433	 0.324265837021897 
1434	 0.32394829755379 
1435	 0.323645983128614 
1436	 0.323351926405554 
1437	 0.323055175493989 
1438	 0.322809256258378 
1439	 0.32257984434492 
1440	 0.322391225881682 
1441	 0.322235498068756 
1442	 0.322130803366298 
1443	 0.322037441601993 
1444	 0.32203962106118 
1445	 0.322093409849569 
1446	 0.322243570107676 
1447	 0.322472560899729 
1448	 0.322782132735932 
1449	 0.323193515430949 
1450	 0.323652818542071 
1451	 0.324203319182473 
1452	 0.324777145013239 
1453	 0.325424868377866 
1454	 0.326068326556187 
1455	 0.326751569241823 
1456	 0.327427536160255 
1457	 0.328121167117785 
1458	 0.328807156340722 
1459	 0.329495482563638 
1460	 0.3301809044465 
1461	 0.330883235574056 
1462	 0.331543353196203 
1463	 0.332178698490265 
1464	 0.332810176371656 
1465	 0.333401606249607 
1466	 0.334008084850343 
1467	 0.334607047262388 
1468	 0.33520813180706 
1469	 0.335807038579631 
1470	 0.336370668283707 
1471	 0.336946234312977 
1472	 0.337513662876356 
1473	 0.338094334842521 
1474	 0.338690496010622 
1475	 0.339248081061122 
1476	 0.339813607584738 
1477	 0.340329702477819 
1478	 0.340802309484626 
1479	 0.341259455115886 
1480	 0.341688218337852 
1481	 0.342110786863605 
1482	 0.342508387613963 
1483	 0.342904740609423 
1484	 0.34328911756677 
1485	 0.343674794312128 
1486	 0.344045587309746 
1487	 0.344425360952956 
1488	 0.344796618653091 
1489	 0.345198526055118 
1490	 0.345607782965742 
1491	 0.346038869086125 
1492	 0.346491164357332 
1493	 0.346965428085024 
1494	 0.347463163842406 
1495	 0.347964073357831 
1496	 0.348480553129056 
1497	 0.349016504762232 
1498	 0.349578634897361 
1499	 0.350123340773628 
1500	 0.350689348902979 
1501	 0.351237140391461 
1502	 0.351765104657671 
1503	 0.352285134800267 
1504	 0.352804597283644 
1505	 0.353311208508785 
1506	 0.353810380979573 
1507	 0.354286853061725 
1508	 0.354755733269209 
1509	 0.355199656091383 
1510	 0.355614349561316 
1511	 0.356013091633194 
1512	 0.356390041620306 
1513	 0.356756041406137 
1514	 0.357102761964029 
1515	 0.357440074798862 
1516	 0.357775328513074 
1517	 0.358083624918234 
1518	 0.358370800837644 
1519	 0.358640988257001 
1520	 0.358878279919984 
1521	 0.359112888539702 
1522	 0.35934437883291 
1523	 0.359581065308779 
1524	 0.359795342416931 
1525	 0.360005503590005 
1526	 0.360202862402057 
1527	 0.360377354736941 
1528	 0.360561674180293 
1529	 0.36074831803086 
1530	 0.360922933926942 
1531	 0.361091997455002 
1532	 0.361252895810258 
1533	 0.361393187311613 
1534	 0.361568754541705 
1535	 0.361746747660113 
1536	 0.361943899368308 
1537	 0.362169123229132 
1538	 0.362389306159674 
1539	 0.362604897985296 
1540	 0.362852358796093 
1541	 0.363120480361669 
1542	 0.363392573244632 
1543	 0.363686348154706 
1544	 0.363977426116237 
1545	 0.364265166970815 
1546	 0.364575133354139 
1547	 0.364907638692772 
1548	 0.365226820069186 
1549	 0.36554907839713 
1550	 0.365880350194846 
1551	 0.366205049022538 
1552	 0.366546635731253 
1553	 0.366906153974928 
1554	 0.367267483315893 
1555	 0.367657460839676 
1556	 0.367996870370249 
1557	 0.368314333182488 
1558	 0.368641161541538 
1559	 0.368928570869428 
1560	 0.369249222320878 
1561	 0.369599153175403 
1562	 0.369940546268629 
1563	 0.370279601870654 
1564	 0.370625939273988 
1565	 0.370985833181812 
1566	 0.371335153854489 
1567	 0.371688853499596 
1568	 0.372027860059436 
1569	 0.372353894423209 
1570	 0.372682917198976 
1571	 0.373006841463697 
1572	 0.373325713002196 
1573	 0.373639697571592 
1574	 0.37395776058109 
1575	 0.374269744887092 
1576	 0.374586265750031 
1577	 0.374917476704954 
1578	 0.375231074547637 
1579	 0.375533132919883 
1580	 0.375837558599655 
1581	 0.376130248528785 
1582	 0.376432070101953 
1583	 0.376737409800429 
1584	 0.377047051956372 
1585	 0.377357087262638 
1586	 0.377676965065587 
1587	 0.378013424601804 
1588	 0.378336000351412 
1589	 0.378662463091242 
1590	 0.378979780150969 
1591	 0.379285204736654 
1592	 0.379589195631404 
1593	 0.379883418068951 
1594	 0.380186999412242 
1595	 0.380494863048751 
1596	 0.380795145561314 
1597	 0.381088877478536 
1598	 0.381397813381249 
1599	 0.38171592964005 
1600	 0.382022420128686 
1601	 0.382349220020405 
1602	 0.382648829367399 
1603	 0.382920119749859 
1604	 0.383191535722429 
1605	 0.383439439937328 
1606	 0.38370778610762 
1607	 0.383998839065735 
1608	 0.384260107583517 
1609	 0.384520986448496 
1610	 0.384769852993966 
1611	 0.384993514115268 
1612	 0.385208955198457 
1613	 0.38541980109967 
1614	 0.385622225140277 
1615	 0.385802262310472 
1616	 0.385986029800002 
1617	 0.386174632544627 
1618	 0.386352890224321 
1619	 0.386536251160802 
1620	 0.386688790366097 
1621	 0.386815184507041 
1622	 0.386941915530518 
1623	 0.38704296056613 
1624	 0.387151688734804 
1625	 0.387267564581114 
1626	 0.387375782779604 
1627	 0.387468546600132 
1628	 0.387575494648519 
1629	 0.387693903058992 
1630	 0.387801489991989 
1631	 0.387904826793709 
1632	 0.388018272177526 
1633	 0.388123125840384 
1634	 0.388242676608373 
1635	 0.388388037254291 
1636	 0.388517930536134 
1637	 0.388654073191502 
1638	 0.388771208551178 
1639	 0.38886975563546 
1640	 0.38897508011275 
1641	 0.389088731356842 
1642	 0.389171438138736 
1643	 0.389256371984515 
1644	 0.389300759634027 
1645	 0.389306341631705 
1646	 0.389292518454395 
1647	 0.389236290433437 
1648	 0.38918954775097 
1649	 0.389134813813482 
1650	 0.389060879131143 
1651	 0.38898914905307 
1652	 0.388893113789361 
1653	 0.38877462602537 
1654	 0.388632213562577 
1655	 0.388480534336073 
1656	 0.388286820884141 
1657	 0.388052971479857 
1658	 0.3877996604239 
1659	 0.38752460059641 
1660	 0.387214624305588 
1661	 0.386898377881813 
1662	 0.38650513274842 
1663	 0.386048475269664 
1664	 0.385556930737383 
1665	 0.385027042332494 
1666	 0.384418879527099 
1667	 0.383774976991954 
1668	 0.38304221133984 
1669	 0.38221676507489 
1670	 0.381334687038192 
1671	 0.380384326806631 
1672	 0.379364275527684 
1673	 0.378271348469301 
1674	 0.37710783446106 
1675	 0.375874626360897 
1676	 0.374596008853886 
1677	 0.373263516065066 
1678	 0.371850090344925 
1679	 0.370350312226634 
1680	 0.368805043790032 
1681	 0.367190939396373 
1682	 0.365510251073954 
1683	 0.363797470913397 
1684	 0.362012968480595 
1685	 0.360132927791564 
1686	 0.358214914386701 
1687	 0.356216633865451 
1688	 0.35419162200462 
1689	 0.352118833994824 
1690	 0.350002783689962 
1691	 0.3478469336237 
1692	 0.345711248765755 
1693	 0.343565618708754 
1694	 0.341352494024072 
1695	 0.339113821268632 
1696	 0.336815034693112 
1697	 0.33442452736377 
1698	 0.332033727296719 
1699	 0.329615251567837 
1700	 0.327272255165392 
1701	 0.32489657030898 
1702	 0.322620154279865 
1703	 0.320376560562191 
1704	 0.318248377162166 
1705	 0.316160836133196 
1706	 0.314194758835723 
1707	 0.3124822619616 
1708	 0.310850383715122 
1709	 0.309332992634702 
1710	 0.3079710612479 
1711	 0.306605931293652 
1712	 0.305346007223732 
1713	 0.304145606114879 
1714	 0.302955588098374 
1715	 0.301917679133588 
1716	 0.300903235698107 
1717	 0.299944999108919 
1718	 0.299091249981349 
1719	 0.298252242668416 
1720	 0.297503306405908 
1721	 0.296861914550069 
1722	 0.296337698285198 
1723	 0.295962834499851 
1724	 0.295728546027212 
1725	 0.29567876971843 
1726	 0.295829156737943 
1727	 0.296177682079777 
1728	 0.296730174164472 
1729	 0.297488914877426 
1730	 0.298426757021658 
1731	 0.299476045915464 
1732	 0.300697964932537 
1733	 0.301931665368903 
1734	 0.303160365762803 
1735	 0.30441859206243 
1736	 0.305530791661799 
1737	 0.306536137334386 
1738	 0.307377714472648 
1739	 0.308020974717153 
1740	 0.308482091873712 
1741	 0.308798604207397 
1742	 0.308902195071017 
1743	 0.308957080015792 
1744	 0.308847356606305 
1745	 0.308721161814988 
1746	 0.308496890446526 
1747	 0.308293547431772 
1748	 0.308025057754056 
1749	 0.307831898673595 
1750	 0.307613964752638 
1751	 0.307530847978078 
1752	 0.307520194311252 
1753	 0.307597571154833 
1754	 0.307757811629736 
1755	 0.308052264988461 
1756	 0.308431599604906 
1757	 0.30894068667912 
1758	 0.30961131014284 
1759	 0.3103553387762 
1760	 0.311247501306546 
1761	 0.312326616485153 
1762	 0.313468790024404 
1763	 0.314747254383937 
1764	 0.316121147924431 
1765	 0.317577671642992 
1766	 0.319181528400036 
1767	 0.320794286696326 
1768	 0.32245496825304 
1769	 0.324115978052688 
1770	 0.325645619335415 
1771	 0.327170425503326 
1772	 0.328599799477503 
1773	 0.329896978922803 
1774	 0.331199756483054 
1775	 0.332374701200987 
1776	 0.333483046684257 
1777	 0.334555468276337 
1778	 0.335482019047889 
1779	 0.336376160120175 
1780	 0.337219596690934 
1781	 0.337982798672098 
1782	 0.338724734278397 
1783	 0.339375122281229 
1784	 0.339976115574019 
1785	 0.340524886448951 
1786	 0.34102683641526 
1787	 0.341503869126838 
1788	 0.341935111244141 
1789	 0.342273313902496 
1790	 0.342668848585842 
1791	 0.343061054160509 
1792	 0.343450908863931 
1793	 0.343856788981664 
1794	 0.344251405408986 
1795	 0.344615366558196 
1796	 0.344955569393812 
1797	 0.345357979339097 
1798	 0.345716371194278 
1799	 0.346042443911746 
1800	 0.346416135438023 
1801	 0.341475115045977 
1802	 0.341849766882765 
1803	 0.342228724588574 
1804	 0.342615902376698 
1805	 0.343015076635679 
1806	 0.343399640630464 
1807	 0.34379608436148 
1808	 0.344172064627658 
1809	 0.344547442288107 
1810	 0.344895538103947 
1811	 0.345208034543179 
1812	 0.345545392523842 
1813	 0.345867193962276 
1814	 0.346208401759768 
1815	 0.346560116431091 
1816	 0.346934470086973 
1817	 0.347321057333128 
1818	 0.347720376612043 
1819	 0.348119558211739 
1820	 0.348550210654567 
1821	 0.348955845425056 
1822	 0.349343578326874 
1823	 0.34974651272571 
1824	 0.350139247794714 
1825	 0.350554135577744 
1826	 0.350962809587235 
1827	 0.351387942711343 
1828	 0.351776990351958 
1829	 0.352157189350491 
1830	 0.352524855269637 
1831	 0.352856869660286 
1832	 0.353221640018521 
1833	 0.353590345870366 
1834	 0.353937624620553 
1835	 0.354286697058703 
1836	 0.354630554488477 
1837	 0.354995068983736 
1838	 0.355362257255804 
1839	 0.355736614303792 
1840	 0.356147993028276 
1841	 0.356525309075719 
1842	 0.356878190653395 
1843	 0.357247149166189 
1844	 0.357635806040981 
1845	 0.357975301725818 
1846	 0.358307643423861 
1847	 0.358615501552925 
1848	 0.358904045861308 
1849	 0.359172092761119 
1850	 0.359408275020996 
1851	 0.359635441992496 
1852	 0.359820571025729 
1853	 0.359954314483815 
1854	 0.360023675947143 
1855	 0.360060657676446 
1856	 0.36008762747654 
1857	 0.360065541670552 
1858	 0.360004537166652 
1859	 0.359908111185792 
1860	 0.359789664295827 
1861	 0.359592253314679 
1862	 0.359334686446199 
1863	 0.359062061621176 
1864	 0.358716027729287 
1865	 0.358330149354585 
1866	 0.357905912713262 
1867	 0.357385417318021 
1868	 0.356820298910707 
1869	 0.356184602375055 
1870	 0.3554968362841 
1871	 0.354761995509117 
1872	 0.35398497877654 
1873	 0.353153470426144 
1874	 0.352289396158394 
1875	 0.351394842283273 
1876	 0.350350695792037 
1877	 0.349272955516518 
1878	 0.348065085118543 
1879	 0.346677652668618 
1880	 0.345283072100508 
1881	 0.343746460156406 
1882	 0.342070473906483 
1883	 0.340311997081661 
1884	 0.338444148706786 
1885	 0.336316532038129 
1886	 0.334126523353448 
1887	 0.331750660096924 
1888	 0.32917928036977 
1889	 0.326699236161919 
1890	 0.324056336057526 
1891	 0.321369206641667 
1892	 0.318686711336877 
1893	 0.315906270633753 
1894	 0.312988642347571 
1895	 0.310156789379872 
1896	 0.307266159461283 
1897	 0.304376710889444 
1898	 0.301728444156039 
1899	 0.299047623740133 
1900	 0.296472801079505 
1901	 0.294047025223668 
1902	 0.291520547722711 
1903	 0.289174139869302 
1904	 0.286928220814888 
1905	 0.284750164506073 
1906	 0.282674284084474 
1907	 0.28087820388993 
1908	 0.279088877321651 
1909	 0.27740416031901 
1910	 0.275844139834605 
1911	 0.274254463401395 
1912	 0.272827279185651 
1913	 0.27147885460868 
1914	 0.270171132308689 
1915	 0.268983659539691 
1916	 0.267934785002095 
1917	 0.266888440971393 
1918	 0.26592109077479 
1919	 0.265055607598905 
1920	 0.264180288651709 
1921	 0.263374714188848 
1922	 0.262602711515847 
1923	 0.261860493286773 
1924	 0.2612243176235 
1925	 0.2606252393034 
1926	 0.260080141685356 
1927	 0.25960453495258 
1928	 0.259159490634284 
1929	 0.258748591239437 
1930	 0.258404269720918 
1931	 0.258098686255829 
1932	 0.257838718275483 
1933	 0.257660863203651 
1934	 0.257535702958513 
1935	 0.257464156255219 
1936	 0.257471210744653 
1937	 0.257548191142185 
1938	 0.257690627648573 
1939	 0.25790148005964 
1940	 0.258186747399084 
1941	 0.258546023454197 
1942	 0.258937840169615 
1943	 0.259366772646111 
1944	 0.259842164595279 
1945	 0.260370429208279 
1946	 0.26097540751067 
1947	 0.261594020309038 
1948	 0.262273441734733 
1949	 0.263012388564567 
1950	 0.263766436641148 
1951	 0.264562824646301 
1952	 0.265391246612769 
1953	 0.266247807559218 
1954	 0.267119676497084 
1955	 0.268083492409157 
1956	 0.269027739551448 
1957	 0.27001102345465 
1958	 0.271029754930414 
1959	 0.271950139387315 
1960	 0.272869885774808 
1961	 0.273750315595624 
1962	 0.274581301910061 
1963	 0.275391369164017 
1964	 0.276191436038398 
1965	 0.276932436685849 
1966	 0.277630166131225 
1967	 0.278312416932001 
1968	 0.278922959112857 
1969	 0.279529104127455 
1970	 0.280125168103754 
1971	 0.280701270520596 
1972	 0.281315203545722 
1973	 0.281933145197156 
1974	 0.28256307108444 
1975	 0.283224784404291 
1976	 0.283866788078743 
1977	 0.284505230730343 
1978	 0.285152286479212 
1979	 0.285789537163517 
1980	 0.286433810196904 
1981	 0.28714648233369 
1982	 0.287819556164082 
1983	 0.288502088545507 
1984	 0.289214286872562 
1985	 0.289894140479482 
1986	 0.290613780898091 
1987	 0.291352956835732 
1988	 0.292103829199145 
1989	 0.292906524819109 
1990	 0.293744465215373 
1991	 0.294595316841906 
1992	 0.295485905906132 
1993	 0.296427674139061 
1994	 0.297297333696062 
1995	 0.298201944155753 
1996	 0.299119782567906 
1997	 0.300002950610175 
1998	 0.300909971045744 
1999	 0.301863452027108 
2000	 0.302737235605834 
2001	 0.303629168107091 
2002	 0.304412385974499 
2003	 0.305115862330222 
2004	 0.305787308182378 
2005	 0.306374266601641 
2006	 0.306948561841726 
2007	 0.307504068564361 
2008	 0.308010075563776 
2009	 0.308467486113182 
2010	 0.308880628017494 
2011	 0.309214832030989 
2012	 0.309524884723108 
2013	 0.309777701818169 
2014	 0.309974731273213 
2015	 0.310132835015561 
2016	 0.310246175101978 
2017	 0.310306883757765 
2018	 0.31031588162608 
2019	 0.310291464442206 
2020	 0.310221108367572 
2021	 0.310105870665083 
2022	 0.309947642813881 
2023	 0.309752365851006 
2024	 0.309505183082031 
2025	 0.30922141765409 
2026	 0.308918677856692 
2027	 0.308571062687546 
2028	 0.308234900561654 
2029	 0.307890265330468 
2030	 0.307516920744158 
2031	 0.307131806819402 
2032	 0.306728470705816 
2033	 0.306277191285989 
2034	 0.305848297211276 
2035	 0.305408552259044 
2036	 0.304987542847571 
2037	 0.304591196916976 
2038	 0.304175735713839 
2039	 0.303780292366069 
2040	 0.303407945590907 
2041	 0.303014500480909 
2042	 0.302615163430512 
2043	 0.302233821431806 
2044	 0.301839388616796 
2045	 0.301473054550831 
2046	 0.301129795693451 
2047	 0.300786353391812 
2048	 0.300464265749204 
2049	 0.300136793785678 
2050	 0.299806983229429 
2051	 0.299488318038734 
2052	 0.299168016228946 
2053	 0.298866250733699 
2054	 0.298587161514184 
2055	 0.298337138108743 
2056	 0.29808033379562 
2057	 0.297842904955027 
2058	 0.297592883616153 
2059	 0.297346748456442 
2060	 0.297090569248784 
2061	 0.296811001681373 
2062	 0.296565039661194 
2063	 0.296331504436468 
2064	 0.29609463167227 
2065	 0.295874992068787 
2066	 0.295668374849737 
2067	 0.295424253658396 
2068	 0.295182389327931 
2069	 0.294947656258672 
2070	 0.29471540906055 
2071	 0.294474813667705 
2072	 0.294227015239747 
2073	 0.293996027695722 
2074	 0.293770561685115 
2075	 0.293540045572452 
2076	 0.293324315822547 
2077	 0.293101054320904 
2078	 0.292853819969281 
2079	 0.292627245439565 
2080	 0.292420306202827 
2081	 0.292205195605355 
2082	 0.291997666813981 
2083	 0.291787823363473 
2084	 0.291559449742739 
2085	 0.291326386124335 
2086	 0.291098061582431 
2087	 0.290854229224059 
2088	 0.290640312748743 
2089	 0.290447094104696 
2090	 0.290243677632115 
2091	 0.290064346034427 
2092	 0.289854736084092 
2093	 0.289631383408404 
2094	 0.289399836596648 
2095	 0.289144356209623 
2096	 0.288896007321247 
2097	 0.288657241811454 
2098	 0.288391366201755 
2099	 0.288114595464973 
2100	 0.28785362845311 
2101	 0.287577280977679 
2102	 0.287289331374361 
2103	 0.286995396444592 
2104	 0.286704856512281 
2105	 0.286389755689749 
2106	 0.286061214847113 
2107	 0.285712411200293 
2108	 0.285350404470082 
2109	 0.284963874278015 
2110	 0.28454126399763 
2111	 0.284127635122247 
2112	 0.283692284206944 
2113	 0.28326780230332 
2114	 0.282853376283099 
2115	 0.282425263176995 
2116	 0.281987412673443 
2117	 0.281558804964926 
2118	 0.281118450516448 
2119	 0.280664488203144 
2120	 0.280229893017769 
2121	 0.279774629955154 
2122	 0.279380094839807 
2123	 0.27900815932606 
2124	 0.278670422899892 
2125	 0.278398072095208 
2126	 0.278102059847548 
2127	 0.27780671348059 
2128	 0.277537034664887 
2129	 0.277261871982029 
2130	 0.277025749346075 
2131	 0.276829639558887 
2132	 0.276647322185803 
2133	 0.276491648486608 
2134	 0.276348266233645 
2135	 0.27622188990449 
2136	 0.276112443257854 
2137	 0.276018092325426 
2138	 0.275941240018048 
2139	 0.275874300388339 
2140	 0.275819641779233 
2141	 0.275784353964605 
2142	 0.275752967920919 
2143	 0.275759464317259 
2144	 0.275788624986548 
2145	 0.275850423627249 
2146	 0.275950748009361 
2147	 0.276064956969381 
2148	 0.276215937563812 
2149	 0.276367142752684 
2150	 0.276524161875294 
2151	 0.276704222095164 
2152	 0.276907901052315 
2153	 0.277115098571574 
2154	 0.277332665020594 
2155	 0.277566815527812 
2156	 0.277777943680634 
2157	 0.277990043458659 
2158	 0.278172342567847 
2159	 0.278339579342906 
2160	 0.278488139910483 
2161	 0.278610257005057 
2162	 0.278722876945395 
2163	 0.278831045093826 
2164	 0.278911756533162 
2165	 0.278956976132493 
2166	 0.279013108489355 
2167	 0.279034154796479 
2168	 0.279093039363379 
2169	 0.279193349661946 
2170	 0.279255039412529 
2171	 0.279305692592247 
2172	 0.279368102859789 
2173	 0.279407637076555 
2174	 0.279459396295436 
2175	 0.27953317859103 
2176	 0.279608018447824 
2177	 0.27968365202931 
2178	 0.279749678125713 
2179	 0.279832965345889 
2180	 0.279940982162381 
2181	 0.280020310238349 
2182	 0.280092379822448 
2183	 0.28016546779593 
2184	 0.280232190253357 
2185	 0.280286335569156 
2186	 0.280329070929092 
2187	 0.280385000704488 
2188	 0.280447108868721 
2189	 0.280484102089577 
2190	 0.280543233074331 
2191	 0.280553961541319 
2192	 0.280502993386511 
2193	 0.280468258058164 
2194	 0.280417282541642 
2195	 0.280366676402028 
2196	 0.280326495382559 
2197	 0.280273857661182 
2198	 0.280183562619227 
2199	 0.280075146842057 
2200	 0.279946807272214 
2201	 0.279785510415602 
2202	 0.279615577341006 
2203	 0.279432609069515 
2204	 0.279235864336616 
2205	 0.279012559927726 
2206	 0.278789902423589 
2207	 0.278557377239999 
2208	 0.278321268159271 
2209	 0.278081477467356 
2210	 0.277827820920634 
2211	 0.277582868405191 
2212	 0.277296117300742 
2213	 0.276949580762407 
2214	 0.276647552235749 
2215	 0.276351364325798 
2216	 0.276042029916706 
2217	 0.275776200590963 
2218	 0.275460290652918 
2219	 0.275095664634795 
2220	 0.274731274745112 
2221	 0.274357130349876 
2222	 0.273959216260898 
2223	 0.273568357638633 
2224	 0.273134142887967 
2225	 0.272651499407326 
2226	 0.272121418199355 
2227	 0.271519415441426 
2228	 0.270868330577894 
2229	 0.270117296969959 
2230	 0.269286398288585 
2231	 0.268381564667497 
2232	 0.267403824648072 
2233	 0.266300789989826 
2234	 0.265139252648421 
2235	 0.263817486382757 
2236	 0.262342574624617 
2237	 0.260782473439695 
2238	 0.259065314491046 
2239	 0.257304766181039 
2240	 0.255455046111082 
2241	 0.253520508809489 
2242	 0.251584263144147 
2243	 0.249427358111522 
2244	 0.247085045249499 
2245	 0.244692351137736 
2246	 0.242028958299621 
2247	 0.239467267673545 
2248	 0.236945003050899 
2249	 0.234336838019444 
2250	 0.231698826499503 
2251	 0.229085482904728 
2252	 0.226238304690054 
2253	 0.223460220069585 
2254	 0.22064360404902 
2255	 0.217807408906236 
2256	 0.21521200246074 
2257	 0.21261230891239 
2258	 0.210111168609171 
2259	 0.207767831171624 
2260	 0.205344483126158 
2261	 0.202897901375223 
2262	 0.200588879287236 
2263	 0.198268087753251 
2264	 0.196122911502894 
2265	 0.194164433298275 
2266	 0.192163132811485 
2267	 0.19027883311358 
2268	 0.188337512296926 
2269	 0.186347697419391 
2270	 0.184474970985859 
2271	 0.182607186212991 
2272	 0.180830457301846 
2273	 0.17920083405181 
2274	 0.177525794178955 
2275	 0.17593227895892 
2276	 0.17425577788366 
2277	 0.172562250783158 
2278	 0.17083118407856 
2279	 0.168997162956965 
2280	 0.167209050543922 
2281	 0.165444974325557 
2282	 0.163633787411628 
2283	 0.16182661824252 
2284	 0.160020552456315 
2285	 0.158041146792621 
2286	 0.156075466909588 
2287	 0.154005144804132 
2288	 0.151873606070754 
2289	 0.149870064058956 
2290	 0.147760160365683 
2291	 0.145690459684514 
2292	 0.143632741331001 
2293	 0.141465747732479 
2294	 0.139464687978536 
2295	 0.137557483488089 
2296	 0.13578212905586 
2297	 0.134259962643301 
2298	 0.132944788572345 
2299	 0.131821181944037 
2300	 0.130900280662082 
2301	 0.130243245266867 
2302	 0.129800550086026 
2303	 0.129639834909793 
2304	 0.129790057978813 
2305	 0.130108925286089 
2306	 0.130698938269891 
2307	 0.131461569202469 
2308	 0.132416361084929 
2309	 0.133613839152604 
2310	 0.135110688641901 
2311	 0.136680227082371 
2312	 0.138620520050389 
2313	 0.140352102265358 
2314	 0.142125779757789 
2315	 0.143830733464849 
2316	 0.145509117782434 
2317	 0.147034803457354 
2318	 0.148573547503854 
2319	 0.14984170376703 
2320	 0.150919263257528 
2321	 0.151817156988219 
2322	 0.152487511407997 
2323	 0.153045500719263 
2324	 0.153423796689219 
2325	 0.153631924510679 
2326	 0.153668183515881 
2327	 0.153567125498175 
2328	 0.153254990866351 
2329	 0.152863887042299 
2330	 0.152353549200958 
2331	 0.151705923385203 
2332	 0.150968469310991 
2333	 0.150014453370506 
2334	 0.148809367835518 
2335	 0.147569386886897 
2336	 0.146225830539443 
2337	 0.144825008615974 
2338	 0.143580772183752 
2339	 0.14225604784336 
2340	 0.140926844162179 
2341	 0.139742981167546 
2342	 0.138617168482849 
2343	 0.137700987262009 
2344	 0.137048789268654 
2345	 0.136619942403471 
2346	 0.136425669089094 
2347	 0.136576997042791 
2348	 0.136957857766022 
2349	 0.137645413519525 
2350	 0.138644776740873 
2351	 0.139798055766085 
2352	 0.141058668267646 
2353	 0.142345387183218 
2354	 0.143606408752525 
2355	 0.144773785518132 
2356	 0.145837010056823 
2357	 0.146792698576248 
2358	 0.147556821317336 
2359	 0.148130926363433 
2360	 0.148582532587306 
2361	 0.148861550239317 
2362	 0.149072956549633 
2363	 0.149208760897 
2364	 0.149248333255207 
2365	 0.149259014318181 
2366	 0.149180944242495 
2367	 0.149109298361203 
2368	 0.149076357856471 
2369	 0.149000178582112 
2370	 0.148977700908243 
2371	 0.148967061534408 
2372	 0.148944907756131 
2373	 0.149005566175105 
2374	 0.149065176416185 
2375	 0.149138016295222 
2376	 0.149246796985595 
2377	 0.14933056738193 
2378	 0.149402441882672 
2379	 0.149467602864192 
2380	 0.149543273955476 
2381	 0.149638313727834 
2382	 0.149723420294238 
2383	 0.149826012724481 
2384	 0.149928326736789 
2385	 0.150004550929945 
2386	 0.150120128841092 
2387	 0.150284354115417 
2388	 0.150394315493586 
2389	 0.150487862760603 
2390	 0.150606976049997 
2391	 0.15074402413299 
2392	 0.150783192794756 
2393	 0.15077157928909 
2394	 0.150833776589706 
2395	 0.15086520218256 
2396	 0.150868426454672 
2397	 0.150923368430304 
2398	 0.150942506296435 
2399	 0.150859389044966 
2400	 0.150894574747251 
2401	 0.151047282860283 
2402	 0.151112909430524 
2403	 0.151081441655759 
2404	 0.151069375919664 
2405	 0.151136225558042 
2406	 0.151155732226602 
2407	 0.151175195971994 
2408	 0.151153670439151 
2409	 0.151028851019057 
2410	 0.150943366683179 
2411	 0.150886531625093 
2412	 0.150813429915227 
2413	 0.150750661854912 
2414	 0.150773261956321 
2415	 0.150807207471948 
2416	 0.150795738519509 
2417	 0.150818334490747 
2418	 0.150735187429674 
2419	 0.150576826362523 
2420	 0.150456825906207 
2421	 0.150328512634939 
2422	 0.150230090859505 
2423	 0.150199557051154 
2424	 0.150129208363453 
2425	 0.150003016153788 
2426	 0.149963843753226 
2427	 0.149895314704467 
2428	 0.149763923686742 
2429	 0.149740591633393 
2430	 0.149675068863109 
2431	 0.149516820438601 
2432	 0.149360308106876 
2433	 0.149207321799371 
2434	 0.149093431384137 
2435	 0.14895317934052 
2436	 0.148785739814229 
2437	 0.148621271310919 
2438	 0.148291100172517 
2439	 0.147876708636853 
2440	 0.147604335605951 
2441	 0.147454406347575 
2442	 0.147361826462819 
2443	 0.147165925390988 
2444	 0.1469295080525 
2445	 0.146607884521019 
2446	 0.146124412453658 
2447	 0.145757322226266 
2448	 0.14550869208393 
2449	 0.145191544171965 
2450	 0.144838031522521 
2451	 0.144580051353632 
2452	 0.144235181877636 
2453	 0.143967166217911 
2454	 0.143893459423194 
2455	 0.143613055880592 
2456	 0.143211372010762 
2457	 0.142717435865631 
2458	 0.142130246224245 
2459	 0.141748310867371 
2460	 0.141649913526025 
2461	 0.1416280889381 
2462	 0.141508956820708 
2463	 0.141222374969543 
2464	 0.14072398469596 
2465	 0.140204238872662 
2466	 0.139775271670181 
2467	 0.139493696739673 
2468	 0.139336438239171 
2469	 0.139227203122133 
2470	 0.139053155119367 
2471	 0.138803005728924 
2472	 0.138718522573926 
2473	 0.138591736465689 
2474	 0.138384741623631 
2475	 0.138416406143393 
2476	 0.138506659829104 
2477	 0.138532515116783 
2478	 0.138653782082142 
2479	 0.138681639083503 
2480	 0.13847696806856 
2481	 0.138442778702853 
2482	 0.138509485622997 
2483	 0.1385402283833 
2484	 0.1384041735227 
2485	 0.138474097529746 
2486	 0.138638549655584 
2487	 0.138908609331734 
2488	 0.139439630003276 
2489	 0.139753237579079 
2490	 0.139824931035663 
2491	 0.139887992034439 
2492	 0.139828751465161 
2493	 0.139969085707961 
2494	 0.14029157169038 
2495	 0.140613108362782 
2496	 0.141176597184558 
2497	 0.141637916271757 
2498	 0.141996455217889 
2499	 0.142372536208194 
2500	 0.142525535389681 
