Wavelength	spectrum00004.asd
350	 6.48550871499924E-02 
351	 0.063487609342886 
352	 6.08423966603047E-02 
353	 5.82210773494909E-02 
354	 5.86301831780092E-02 
355	 5.80248294075856E-02 
356	 5.69015350098968E-02 
357	 5.58949122844645E-02 
358	 5.24488432614249E-02 
359	 5.12839651133149E-02 
360	 5.15877470925351E-02 
361	 0.050223209626416 
362	 5.09264722000461E-02 
363	 5.04061207164744E-02 
364	 4.79369675359794E-02 
365	 4.68807102736822E-02 
366	 0.047771709864168 
367	 4.83326588744264E-02 
368	 4.71732977671663E-02 
369	 4.82441897598598E-02 
370	 4.85776484803786E-02 
371	 4.80538570075703E-02 
372	 4.80456381443464E-02 
373	 4.71701207284788E-02 
374	 4.70214036348666E-02 
375	 4.77736564445362E-02 
376	 4.72016061751111E-02 
377	 4.63990950627648E-02 
378	 0.045896060152571 
379	 4.58892991067138E-02 
380	 4.58872556139452E-02 
381	 4.65863737673148E-02 
382	 4.65109270588083E-02 
383	 0.043718509380897 
384	 4.47820436632018E-02 
385	 4.59520086163309E-02 
386	 4.47987197421578E-02 
387	 0.042581608439007 
388	 4.29318569576049E-02 
389	 4.39841770952728E-02 
390	 4.33601297601845E-02 
391	 4.30229401799059E-02 
392	 4.26843194556199E-02 
393	 0.042460719761254 
394	 4.26660492803691E-02 
395	 4.26608990782629E-02 
396	 4.25620695049524E-02 
397	 4.24265777542154E-02 
398	 4.20174590862851E-02 
399	 0.041786829919694 
400	 4.14828278260257E-02 
401	 4.08343663201119E-02 
402	 0.040245840552593 
403	 4.06919634643958E-02 
404	 4.13381607526439E-02 
405	 4.02863337756825E-02 
406	 4.02752420322117E-02 
407	 4.04593937979773E-02 
408	 4.01046293116897E-02 
409	 3.96963378150346E-02 
410	 3.94083065725012E-02 
411	 3.92292684387308E-02 
412	 3.91168865102006E-02 
413	 0.039393221604416 
414	 3.90748260734646E-02 
415	 3.85024628175113E-02 
416	 3.91244242890846E-02 
417	 3.89992153281698E-02 
418	 3.86877221462654E-02 
419	 3.87176550984932E-02 
420	 3.84504105620777E-02 
421	 3.82622170118193E-02 
422	 3.82934669455469E-02 
423	 3.84938986326542E-02 
424	 3.83019476927232E-02 
425	 0.038051829295807 
426	 3.79280958640883E-02 
427	 3.78587639932951E-02 
428	 3.76700387751767E-02 
429	 3.76517027157738E-02 
430	 3.78977775467388E-02 
431	 3.75569131197149E-02 
432	 3.75113096689658E-02 
433	 3.76990935571501E-02 
434	 3.75843708572321E-02 
435	 3.76386618806861E-02 
436	 3.77423668067916E-02 
437	 3.77562190253636E-02 
438	 3.76022355256382E-02 
439	 3.75487887392224E-02 
440	 3.76425699325196E-02 
441	 3.77927324179197E-02 
442	 3.76472122683656E-02 
443	 3.76560381261141E-02 
444	 3.78646521458711E-02 
445	 0.037972239592349 
446	 3.78914955192991E-02 
447	 3.77626366449177E-02 
448	 3.77032093517498E-02 
449	 3.76711236478294E-02 
450	 3.78518095345183E-02 
451	 3.80089810900943E-02 
452	 3.78545495916861E-02 
453	 3.78537243480508E-02 
454	 0.037998918644691 
455	 3.81280552250212E-02 
456	 3.79629794908687E-02 
457	 3.80082806980402E-02 
458	 3.81242483015274E-02 
459	 3.81448926921905E-02 
460	 3.82934462697794E-02 
461	 3.83973898232091E-02 
462	 3.84558763306685E-02 
463	 0.038550161866886 
464	 3.85616381729762E-02 
465	 3.86021679918071E-02 
466	 0.038694861823542 
467	 3.86853934912809E-02 
468	 3.87251413616508E-02 
469	 3.88115569896331E-02 
470	 3.89214271534363E-02 
471	 3.91702219049143E-02 
472	 3.92670332536277E-02 
473	 3.92766757865725E-02 
474	 3.95256657334095E-02 
475	 3.96431764900163E-02 
476	 3.97427447308858E-02 
477	 3.99354611255102E-02 
478	 4.01567968238757E-02 
479	 4.03624438066687E-02 
480	 4.06180938094653E-02 
481	 4.09856828553687E-02 
482	 4.12033878598372E-02 
483	 4.14441170590488E-02 
484	 4.17884407670828E-02 
485	 0.042173410043775 
486	 4.26390491434827E-02 
487	 4.31436561917591E-02 
488	 4.36351083490877E-02 
489	 4.40718689781654E-02 
490	 0.044620878487017 
491	 4.53180476955569E-02 
492	 4.60946394213368E-02 
493	 4.67222681206058E-02 
494	 4.74336289355849E-02 
495	 4.83400275136172E-02 
496	 4.92602366662133E-02 
497	 0.050203675828651 
498	 5.12245627094752E-02 
499	 5.23638028899788E-02 
500	 5.35224573963929E-02 
501	 5.47298558330163E-02 
502	 5.59902426866565E-02 
503	 5.72839024755687E-02 
504	 5.86559453591293E-02 
505	 6.01180005923719E-02 
506	 6.16605526277789E-02 
507	 6.32450169179975E-02 
508	 6.48505872349022E-02 
509	 6.65181897969591E-02 
510	 6.82986858193372E-02 
511	 7.01184484732919E-02 
512	 7.19443094006679E-02 
513	 7.38223949457224E-02 
514	 7.59050466699854E-02 
515	 7.78209973946812E-02 
516	 7.97137779628103E-02 
517	 8.17682791978053E-02 
518	 8.38070881988058E-02 
519	 8.59024470772348E-02 
520	 8.80804761116976E-02 
521	 9.03212723737836E-02 
522	 9.25309455759004E-02 
523	 9.46951568790393E-02 
524	 9.68446462971434E-02 
525	 9.90747506120634E-02 
526	 0.101378484639845 
527	 0.103654815813713 
528	 0.105818323479208 
529	 0.10807479267982 
530	 0.11034130299646 
531	 0.112595482856453 
532	 0.114891923113554 
533	 0.117179310563257 
534	 0.119478147605094 
535	 0.121792668055004 
536	 0.124047632148871 
537	 0.126298421227345 
538	 0.12855188681035 
539	 0.130793905081017 
540	 0.133053533830099 
541	 0.135282561149008 
542	 0.13747773877575 
543	 0.139724303172609 
544	 0.141850400206986 
545	 0.143887282061946 
546	 0.145924177431197 
547	 0.148003624300186 
548	 0.150020415814359 
549	 0.151959928124138 
550	 0.153892414614497 
551	 0.155819748259363 
552	 0.157735469326432 
553	 0.159623269906605 
554	 0.161435762812513 
555	 0.163264671754773 
556	 0.165146201177895 
557	 0.167062740423508 
558	 0.168854670274379 
559	 0.170617349480443 
560	 0.172397159641565 
561	 0.174138689921652 
562	 0.175879772901942 
563	 0.177641229831224 
564	 0.179410527719604 
565	 0.181081896965448 
566	 0.182697521902807 
567	 0.184270742491832 
568	 0.185786989193295 
569	 0.187204297141585 
570	 0.188544547408967 
571	 0.189850623115267 
572	 0.191176386617794 
573	 0.192585134773866 
574	 0.194024290261187 
575	 0.195419412903163 
576	 0.196888998454738 
577	 0.198335363195906 
578	 0.199722447056127 
579	 0.201096187745131 
580	 0.202422124198612 
581	 0.203684742950508 
582	 0.204897971761513 
583	 0.206148315046123 
584	 0.207358995661525 
585	 0.208546879117594 
586	 0.209775583263104 
587	 0.210959937617964 
588	 0.212146127531435 
589	 0.213365315602369 
590	 0.214605677419605 
591	 0.215706675747979 
592	 0.216763230367112 
593	 0.217898225336095 
594	 0.218967395931922 
595	 0.220005758295615 
596	 0.221045628142028 
597	 0.222104495540397 
598	 0.223120408166825 
599	 0.224154701142883 
600	 0.225247085856934 
601	 0.226330762251362 
602	 0.2273686183292 
603	 0.228372690066966 
604	 0.229370582184803 
605	 0.230321741092777 
606	 0.231254531256834 
607	 0.232211347173026 
608	 0.233242491867902 
609	 0.234141293279516 
610	 0.235003663229339 
611	 0.23594096588701 
612	 0.236833888629827 
613	 0.237713807394987 
614	 0.238602589104331 
615	 0.239508513904322 
616	 0.240335364092715 
617	 0.241175635300064 
618	 0.242068490792637 
619	 0.242915405926989 
620	 0.243762618098888 
621	 0.244596995991828 
622	 0.245397179238244 
623	 0.246190971424763 
624	 0.246971496086678 
625	 0.247734278469411 
626	 0.248482122260733 
627	 0.249264971086774 
628	 0.250037600621446 
629	 0.250765278983677 
630	 0.251484359472689 
631	 0.252179297007061 
632	 0.252871896363466 
633	 0.253583212130108 
634	 0.254219272416976 
635	 0.254849470267851 
636	 0.255511307924001 
637	 0.256181434065707 
638	 0.256792629074539 
639	 0.25737682219284 
640	 0.257965290516122 
641	 0.258488110948557 
642	 0.259062683872849 
643	 0.259645017693855 
644	 0.260113814219669 
645	 0.260629808390368 
646	 0.261187930940166 
647	 0.26174070054944 
648	 0.262205038099713 
649	 0.262700725464609 
650	 0.263172889329976 
651	 0.263564126312419 
652	 0.264041893685948 
653	 0.264536570799922 
654	 0.265011457489066 
655	 0.265468428136597 
656	 0.265983789264139 
657	 0.266476765318091 
658	 0.266906796991616 
659	 0.267372854034059 
660	 0.267823240656099 
661	 0.268293350022207 
662	 0.268827485449218 
663	 0.269356832001591 
664	 0.269822627202921 
665	 0.270250633447239 
666	 0.270745684252381 
667	 0.271251419319433 
668	 0.271755098059894 
669	 0.272255909390034 
670	 0.272769527410803 
671	 0.273238871230091 
672	 0.273725209875688 
673	 0.274311096482959 
674	 0.274825070616793 
675	 0.275287714954637 
676	 0.27575000566933 
677	 0.276275154694271 
678	 0.276780851684446 
679	 0.277260756324952 
680	 0.27773302764343 
681	 0.278229900253764 
682	 0.278743179155686 
683	 0.27923529939092 
684	 0.279669323537567 
685	 0.28015052724245 
686	 0.280664982612751 
687	 0.281166905802163 
688	 0.281586907200391 
689	 0.282012560879671 
690	 0.282454540398285 
691	 0.282905349013027 
692	 0.283372422864774 
693	 0.28382275660846 
694	 0.284277376144223 
695	 0.284775891550944 
696	 0.285196847595367 
697	 0.285579973050791 
698	 0.285965847281274 
699	 0.286359930589865 
700	 0.286825138490494 
701	 0.287277160770674 
702	 0.28763749469967 
703	 0.288011519838296 
704	 0.288438753544227 
705	 0.288874882804835 
706	 0.289229814133294 
707	 0.289564468372636 
708	 0.289964283103326 
709	 0.290413800020598 
710	 0.290726107551133 
711	 0.291064053031235 
712	 0.291436114854689 
713	 0.291815520143379 
714	 0.292240227390157 
715	 0.292599246780856 
716	 0.292894250199753 
717	 0.293214244664683 
718	 0.293626897903241 
719	 0.294033277436944 
720	 0.294370162076612 
721	 0.294672486455896 
722	 0.294978326939498 
723	 0.295344078742003 
724	 0.295773565164155 
725	 0.296058666169634 
726	 0.296393580020946 
727	 0.296775122133296 
728	 0.297069176490178 
729	 0.297406940203952 
730	 0.297744129803806 
731	 0.298064287538191 
732	 0.298435225800283 
733	 0.298785185269817 
734	 0.299130226268904 
735	 0.299490513500833 
736	 0.299795886904958 
737	 0.300118219649066 
738	 0.30043872072801 
739	 0.300699736476251 
740	 0.30110069869869 
741	 0.301475845147452 
742	 0.301752873347954 
743	 0.302065282729197 
744	 0.302392876108264 
745	 0.302778193743766 
746	 0.303218015898233 
747	 0.303517199461538 
748	 0.303802701440579 
749	 0.304133456006473 
750	 0.304509295706157 
751	 0.304822186829548 
752	 0.30514851200164 
753	 0.305515973222947 
754	 0.305864992627733 
755	 0.306228872695462 
756	 0.306585538939187 
757	 0.30692473304611 
758	 0.307301711283699 
759	 0.307707814788998 
760	 0.308098339099278 
761	 0.308430397211896 
762	 0.308794858550427 
763	 0.309148851515386 
764	 0.309498865034609 
765	 0.309910756934267 
766	 0.310342360675944 
767	 0.310719870293296 
768	 0.311039398805911 
769	 0.311469209307252 
770	 0.311913011591836 
771	 0.312328885422148 
772	 0.312708154933867 
773	 0.313112828051892 
774	 0.313490838378985 
775	 0.313858460870674 
776	 0.314281703034245 
777	 0.314689515169374 
778	 0.315032913095809 
779	 0.31535099609903 
780	 0.315822422634581 
781	 0.316206104031968 
782	 0.316563091868712 
783	 0.31699337166667 
784	 0.317409671957747 
785	 0.317837524802414 
786	 0.318243994334667 
787	 0.31858342833391 
788	 0.318963398325994 
789	 0.319412462358327 
790	 0.319877417170895 
791	 0.320228924564461 
792	 0.320572648431702 
793	 0.320925478027255 
794	 0.321298940924602 
795	 0.321745441016266 
796	 0.322143674808492 
797	 0.322507820042784 
798	 0.322890094742542 
799	 0.323237870137799 
800	 0.323680287090848 
801	 0.324138015580926 
802	 0.32440688298117 
803	 0.324799568550571 
804	 0.325199930554109 
805	 0.325528494965983 
806	 0.325848387768315 
807	 0.326197745849251 
808	 0.326548899797368 
809	 0.326882445558592 
810	 0.327265834755217 
811	 0.327615322438846 
812	 0.327937276058869 
813	 0.32827364707398 
814	 0.328606636503477 
815	 0.32893531527715 
816	 0.329276012768189 
817	 0.329650459514858 
818	 0.329986473240125 
819	 0.33022406975734 
820	 0.330403809930651 
821	 0.330718151650055 
822	 0.33095300544117 
823	 0.331231731355383 
824	 0.331638656041758 
825	 0.331853743121757 
826	 0.332103515912078 
827	 0.332385664547781 
828	 0.332608564190419 
829	 0.332823341539078 
830	 0.333067590466355 
831	 0.333344114532168 
832	 0.333621691693955 
833	 0.333858404478578 
834	 0.334030929590967 
835	 0.334165432415308 
836	 0.33435225107211 
837	 0.334593046045807 
838	 0.334808617994327 
839	 0.334961805140652 
840	 0.335201747936443 
841	 0.33537906762767 
842	 0.335489181314909 
843	 0.335600529272205 
844	 0.335803124596565 
845	 0.336063491150579 
846	 0.336282807372209 
847	 0.336349525586319 
848	 0.336406617848529 
849	 0.336506690023677 
850	 0.336662414789411 
851	 0.336848802649578 
852	 0.337049599882489 
853	 0.337233200379114 
854	 0.337374677635129 
855	 0.33746461312609 
856	 0.337549078976274 
857	 0.337647095737506 
858	 0.337767360485367 
859	 0.337925398244399 
860	 0.338065390120912 
861	 0.338157240785429 
862	 0.338210678037491 
863	 0.338365955654618 
864	 0.338454957315005 
865	 0.338457582645332 
866	 0.338497652098921 
867	 0.338586715024981 
868	 0.338723573698717 
869	 0.338861062818123 
870	 0.338902530932861 
871	 0.338846700855128 
872	 0.338870203288296 
873	 0.339048399276984 
874	 0.339161533847702 
875	 0.339153161544876 
876	 0.339125473018262 
877	 0.339191163475437 
878	 0.339288178253726 
879	 0.339342135251861 
880	 0.339399609742354 
881	 0.339523585844712 
882	 0.339515843850739 
883	 0.339490194420083 
884	 0.339519690114885 
885	 0.339614922833669 
886	 0.339683348128461 
887	 0.33975161662383 
888	 0.339812806514823 
889	 0.33981142278961 
890	 0.339792848195776 
891	 0.339819343893228 
892	 0.339890752164852 
893	 0.339901758588947 
894	 0.339907125191486 
895	 0.339918379734153 
896	 0.339936763547863 
897	 0.339962073166374 
898	 0.340007269652242 
899	 0.340052113778219 
900	 0.340071910985282 
901	 0.340062866332149 
902	 0.340132192365437 
903	 0.340226203962551 
904	 0.340237238047614 
905	 0.340249225694087 
906	 0.340267809669388 
907	 0.340298676022646 
908	 0.340345648845469 
909	 0.340389729851392 
910	 0.340437114336779 
911	 0.340497834096517 
912	 0.340578243554261 
913	 0.340636293473828 
914	 0.340658674708257 
915	 0.340653663143224 
916	 0.34065237020432 
917	 0.340732159824813 
918	 0.340827792305412 
919	 0.340906707589841 
920	 0.341056242410445 
921	 0.34105332295993 
922	 0.341064806987442 
923	 0.341220264281822 
924	 0.341287175502835 
925	 0.341384487327027 
926	 0.341481685826835 
927	 0.34152607656016 
928	 0.341540524023079 
929	 0.341629487698418 
930	 0.341759933327795 
931	 0.34187407364193 
932	 0.342104521071972 
933	 0.342252478980382 
934	 0.342336366976157 
935	 0.342471721525445 
936	 0.342549758598839 
937	 0.34270872556518 
938	 0.342889162287938 
939	 0.342940158145247 
940	 0.343131607757896 
941	 0.343299818852022 
942	 0.343383376269819 
943	 0.34345526492321 
944	 0.343637142137917 
945	 0.343804843366435 
946	 0.343893459391367 
947	 0.343943263264828 
948	 0.344043361480516 
949	 0.34415918540979 
950	 0.344250005735452 
951	 0.344303617613311 
952	 0.344443212911137 
953	 0.344616132394644 
954	 0.344735083964552 
955	 0.344727697425788 
956	 0.344775780198444 
957	 0.344862280078465 
958	 0.344933392506893 
959	 0.344954882801119 
960	 0.345034532656313 
961	 0.345105151225183 
962	 0.345151582298728 
963	 0.345341366405596 
964	 0.345377434347519 
965	 0.345385614548094 
966	 0.345513439714791 
967	 0.345695469242024 
968	 0.345781992483731 
969	 0.345786170534814 
970	 0.345807539393622 
971	 0.346013378840335 
972	 0.34619479587419 
973	 0.346280809936615 
974	 0.346297810194158 
975	 0.3463973464525 
976	 0.346506332323739 
977	 0.346557467100336 
978	 0.346554837376625 
979	 0.34670846120694 
980	 0.346837877084581 
981	 0.346910324249902 
982	 0.346945201465201 
983	 0.346943965239446 
984	 0.34699688370664 
985	 0.347191309686882 
986	 0.347473847448033 
987	 0.347365779032678 
988	 0.347414769822325 
989	 0.347580361960076 
990	 0.347642835745847 
991	 0.347563232018676 
992	 0.34763859510706 
993	 0.347836360494617 
994	 0.348017201737833 
995	 0.348174334975694 
996	 0.348226521754309 
997	 0.348252515278122 
998	 0.348365208295113 
999	 0.348577448086572 
1000	 0.348784688627806 
1001	 0.350677967056037 
1002	 0.35077553397236 
1003	 0.350887137568311 
1004	 0.350986323909375 
1005	 0.351106125221363 
1006	 0.351192527474575 
1007	 0.3512517618951 
1008	 0.351331024526296 
1009	 0.351407862462152 
1010	 0.351484040167461 
1011	 0.351564747187649 
1012	 0.351645704115374 
1013	 0.351728811565516 
1014	 0.351800999952807 
1015	 0.351843188294249 
1016	 0.351946561952333 
1017	 0.352049531051403 
1018	 0.352116650693959 
1019	 0.352244073112178 
1020	 0.352365845798963 
1021	 0.35248626096223 
1022	 0.352615079866815 
1023	 0.352746373167656 
1024	 0.352875962112681 
1025	 0.352999692429756 
1026	 0.353150128368287 
1027	 0.353245726600556 
1028	 0.353304384123335 
1029	 0.353379842237245 
1030	 0.353414387094078 
1031	 0.353451718637359 
1032	 0.353545507338827 
1033	 0.353645672498102 
1034	 0.353745135794864 
1035	 0.353862669799901 
1036	 0.353956048187881 
1037	 0.354032288301891 
1038	 0.354087082031099 
1039	 0.354124597250485 
1040	 0.354171275421671 
1041	 0.354202007117818 
1042	 0.35425751608728 
1043	 0.354348322444516 
1044	 0.354381950452438 
1045	 0.354421178087251 
1046	 0.354455686864853 
1047	 0.354496134087268 
1048	 0.354566476265843 
1049	 0.354611628228782 
1050	 0.354630501897427 
1051	 0.354653569845598 
1052	 0.354655503911615 
1053	 0.354694215470472 
1054	 0.354786858654807 
1055	 0.354841588466815 
1056	 0.354896405368427 
1057	 0.354955234863316 
1058	 0.355016749474034 
1059	 0.355015166746078 
1060	 0.355071424050911 
1061	 0.355121175529389 
1062	 0.355127166913103 
1063	 0.355193323625126 
1064	 0.355252616353486 
1065	 0.35527597154092 
1066	 0.35530726450934 
1067	 0.3553574051646 
1068	 0.355430958461551 
1069	 0.355505387068544 
1070	 0.35557734512816 
1071	 0.355670959071667 
1072	 0.355742593467619 
1073	 0.355786964032178 
1074	 0.355852422192751 
1075	 0.355904979054183 
1076	 0.355956093201087 
1077	 0.356051493995242 
1078	 0.35614934014679 
1079	 0.356260207963681 
1080	 0.356394393875375 
1081	 0.356487802379713 
1082	 0.356563856388887 
1083	 0.356656377385094 
1084	 0.356732549907608 
1085	 0.356823050877416 
1086	 0.356915999537767 
1087	 0.357008731737106 
1088	 0.357098905691655 
1089	 0.357222254223227 
1090	 0.357334007883553 
1091	 0.357452152062482 
1092	 0.357566534423084 
1093	 0.357658743242259 
1094	 0.357771651300191 
1095	 0.357885836170642 
1096	 0.357994854481654 
1097	 0.358110585013954 
1098	 0.358216526712769 
1099	 0.358296009521174 
1100	 0.358369701548871 
1101	 0.358462616974147 
1102	 0.358562559624596 
1103	 0.358662646879994 
1104	 0.358775805097411 
1105	 0.358894482999965 
1106	 0.358997352478583 
1107	 0.35908929236414 
1108	 0.359191795834716 
1109	 0.359302757811424 
1110	 0.359401592960457 
1111	 0.359503837081786 
1112	 0.359597977500598 
1113	 0.35968543197015 
1114	 0.359794712326494 
1115	 0.359894123886283 
1116	 0.360011384436937 
1117	 0.360137642419804 
1118	 0.360241465425721 
1119	 0.360333293841273 
1120	 0.360431137652151 
1121	 0.360519689033653 
1122	 0.360604181133793 
1123	 0.360693952743725 
1124	 0.360791708625779 
1125	 0.360892740934495 
1126	 0.360964365922376 
1127	 0.361046288369096 
1128	 0.361138597332374 
1129	 0.361190625038934 
1130	 0.361253544059778 
1131	 0.361305054328069 
1132	 0.361323969225159 
1133	 0.36137045549178 
1134	 0.361418526449904 
1135	 0.361457612014462 
1136	 0.361498370852185 
1137	 0.36154124641257 
1138	 0.361593348351517 
1139	 0.361608760672017 
1140	 0.361609756628924 
1141	 0.361616612588172 
1142	 0.36158634229383 
1143	 0.361545021002564 
1144	 0.361518307757491 
1145	 0.361474888368051 
1146	 0.361413593237287 
1147	 0.361341696399146 
1148	 0.361285015814402 
1149	 0.361230340039628 
1150	 0.361160156070177 
1151	 0.361101459209903 
1152	 0.361021349063837 
1153	 0.360919118761011 
1154	 0.36081290809565 
1155	 0.360695890998158 
1156	 0.360576166247888 
1157	 0.360458214928972 
1158	 0.360324719247726 
1159	 0.360174594971789 
1160	 0.360035247372603 
1161	 0.359884417871196 
1162	 0.359713051120397 
1163	 0.359582369750863 
1164	 0.3594494461031 
1165	 0.359299517946575 
1166	 0.359179286577741 
1167	 0.359039997163979 
1168	 0.358886949544238 
1169	 0.358747029586509 
1170	 0.358618672846159 
1171	 0.358470795569191 
1172	 0.358320554076036 
1173	 0.358168380845651 
1174	 0.35800448452915 
1175	 0.357844050659913 
1176	 0.357687260694735 
1177	 0.3575236838104 
1178	 0.357354057381753 
1179	 0.357179048307663 
1180	 0.357025067073081 
1181	 0.356865757674183 
1182	 0.356681108971909 
1183	 0.356517132832191 
1184	 0.356345413987946 
1185	 0.356186951949846 
1186	 0.356062547835718 
1187	 0.355978975066544 
1188	 0.355882815947683 
1189	 0.355800706559625 
1190	 0.355718827557039 
1191	 0.355632846580841 
1192	 0.355568744567429 
1193	 0.355515617670872 
1194	 0.355478693707593 
1195	 0.355450732849411 
1196	 0.3554414422601 
1197	 0.355449031374031 
1198	 0.355471996928366 
1199	 0.355502237142665 
1200	 0.355562841505808 
1201	 0.355628760411484 
1202	 0.355701591728287 
1203	 0.355814306765975 
1204	 0.355970069801677 
1205	 0.356156334004351 
1206	 0.356372092618081 
1207	 0.35664226211517 
1208	 0.356929175715768 
1209	 0.357306597972086 
1210	 0.357750940006364 
1211	 0.358250513031823 
1212	 0.35883281788137 
1213	 0.359443937269986 
1214	 0.36010002956843 
1215	 0.360810282332161 
1216	 0.361590573474577 
1217	 0.362369427074381 
1218	 0.363188044457865 
1219	 0.364030015462683 
1220	 0.364872295623501 
1221	 0.365773722731949 
1222	 0.366645234533031 
1223	 0.367522961450752 
1224	 0.368378373724221 
1225	 0.369213103485932 
1226	 0.370019323612492 
1227	 0.370814977655428 
1228	 0.371591488692205 
1229	 0.372352948224619 
1230	 0.373071287632475 
1231	 0.373770634647445 
1232	 0.374442809919278 
1233	 0.37505291822448 
1234	 0.375666043467409 
1235	 0.376281512381928 
1236	 0.37686455778528 
1237	 0.377412525272646 
1238	 0.377960895452123 
1239	 0.378487434964912 
1240	 0.379009365787311 
1241	 0.379556134980795 
1242	 0.380053096086744 
1243	 0.380549881686072 
1244	 0.381038738558294 
1245	 0.381512631224457 
1246	 0.381964645216257 
1247	 0.382421220568864 
1248	 0.382868354919411 
1249	 0.383319131769001 
1250	 0.383765761899536 
1251	 0.384211957190964 
1252	 0.384669939103484 
1253	 0.385105324196488 
1254	 0.38553425422279 
1255	 0.38595239870003 
1256	 0.386353138961876 
1257	 0.386750406765544 
1258	 0.387136782275797 
1259	 0.387522715542578 
1260	 0.387905662093366 
1261	 0.388281956395599 
1262	 0.38865149938326 
1263	 0.389031081615307 
1264	 0.389379857185005 
1265	 0.389710710252884 
1266	 0.390042161383631 
1267	 0.390362940163664 
1268	 0.390668048007748 
1269	 0.390959017655669 
1270	 0.391258483492606 
1271	 0.391548002042487 
1272	 0.391831899311971 
1273	 0.39211600264226 
1274	 0.392403284656799 
1275	 0.392682034051723 
1276	 0.392956053921252 
1277	 0.393243331080692 
1278	 0.393513531926052 
1279	 0.393741279225395 
1280	 0.39400723309181 
1281	 0.39430776715547 
1282	 0.394577643497529 
1283	 0.394849069640549 
1284	 0.395116037436276 
1285	 0.395371822707924 
1286	 0.395588764479252 
1287	 0.395856532763614 
1288	 0.396149985502753 
1289	 0.396426203261258 
1290	 0.396717710118338 
1291	 0.396985979398221 
1292	 0.397240791293248 
1293	 0.39749036370437 
1294	 0.397716048753187 
1295	 0.397972928822734 
1296	 0.398237023809683 
1297	 0.398500851405903 
1298	 0.398788449753413 
1299	 0.39905918610826 
1300	 0.399320636530656 
1301	 0.399577254501485 
1302	 0.399835689768622 
1303	 0.400081406198814 
1304	 0.400309461591021 
1305	 0.400541925767872 
1306	 0.400764447269477 
1307	 0.400994437406008 
1308	 0.401220125770165 
1309	 0.401466317167024 
1310	 0.401695808693499 
1311	 0.401931365450616 
1312	 0.402144081641436 
1313	 0.402338900539834 
1314	 0.402545178940355 
1315	 0.402749395971789 
1316	 0.40294218693059 
1317	 0.403143555264555 
1318	 0.403319376340629 
1319	 0.403473128075392 
1320	 0.40362466331884 
1321	 0.403762185423333 
1322	 0.40390253282786 
1323	 0.404042201152762 
1324	 0.404169183721314 
1325	 0.404298180805522 
1326	 0.404407640249712 
1327	 0.404505439020907 
1328	 0.404586110760984 
1329	 0.404649513513133 
1330	 0.404704348250401 
1331	 0.40473658088627 
1332	 0.404771484662603 
1333	 0.404804771282809 
1334	 0.4048345405769 
1335	 0.404839467815273 
1336	 0.404840998079851 
1337	 0.404809107373058 
1338	 0.404750843491466 
1339	 0.404681193685565 
1340	 0.404594301969909 
1341	 0.404491496437248 
1342	 0.404373926423146 
1343	 0.40423574974042 
1344	 0.404077989854255 
1345	 0.403907240965369 
1346	 0.40372190091749 
1347	 0.403516436654218 
1348	 0.403300477638618 
1349	 0.40305830043486 
1350	 0.402773629964948 
1351	 0.402507929183628 
1352	 0.402232305950383 
1353	 0.401955828269042 
1354	 0.401693710203612 
1355	 0.401412525762651 
1356	 0.401110578479861 
1357	 0.400813476373399 
1358	 0.40050503395953 
1359	 0.400204987566746 
1360	 0.399927973640873 
1361	 0.399625358072885 
1362	 0.399292270424125 
1363	 0.398967109594777 
1364	 0.398609099638708 
1365	 0.398224660651374 
1366	 0.397816861002499 
1367	 0.397408196156748 
1368	 0.396935820846506 
1369	 0.396425709908834 
1370	 0.395873509528373 
1371	 0.395269996988391 
1372	 0.394658521297067 
1373	 0.394026414816954 
1374	 0.39334509524085 
1375	 0.392628893866302 
1376	 0.391884434018478 
1377	 0.391086681703951 
1378	 0.390272530859378 
1379	 0.389431211141317 
1380	 0.388579859509495 
1381	 0.387704167154642 
1382	 0.386808257381743 
1383	 0.385889983483087 
1384	 0.384971304789908 
1385	 0.384024070827195 
1386	 0.383092735330295 
1387	 0.382145825228527 
1388	 0.381250946690603 
1389	 0.380358885459141 
1390	 0.379518316292551 
1391	 0.378757660364469 
1392	 0.377969846856512 
1393	 0.377250634687587 
1394	 0.376519637529051 
1395	 0.375749489977831 
1396	 0.374995476431796 
1397	 0.374153560402895 
1398	 0.373290693895547 
1399	 0.372298288666927 
1400	 0.371228952411175 
1401	 0.370083540636084 
1402	 0.368831061117397 
1403	 0.367531733371578 
1404	 0.366165869734326 
1405	 0.364765729687342 
1406	 0.363275173601701 
1407	 0.361801336010847 
1408	 0.36027594165936 
1409	 0.358788287506539 
1410	 0.357289310023984 
1411	 0.355819751323421 
1412	 0.354343038540422 
1413	 0.352952200217488 
1414	 0.35158010038403 
1415	 0.350286345394176 
1416	 0.349071988085261 
1417	 0.347898410596541 
1418	 0.346788247644631 
1419	 0.345704639253712 
1420	 0.344659214969961 
1421	 0.343670313128485 
1422	 0.342722716659333 
1423	 0.341815359095446 
1424	 0.340979636328014 
1425	 0.340143228873573 
1426	 0.339380402262204 
1427	 0.338626353361985 
1428	 0.337897114534223 
1429	 0.33724351420983 
1430	 0.336550256184385 
1431	 0.335873170003273 
1432	 0.335161750982351 
1433	 0.334435642416694 
1434	 0.333700700044193 
1435	 0.332946685809711 
1436	 0.332186913167478 
1437	 0.331399374432261 
1438	 0.330669234601668 
1439	 0.329913423024318 
1440	 0.329257969403564 
1441	 0.328615423906628 
1442	 0.328130270333486 
1443	 0.327685142122414 
1444	 0.327454158104197 
1445	 0.327370583612822 
1446	 0.327455565367979 
1447	 0.327701465526581 
1448	 0.328111570083644 
1449	 0.328733903372869 
1450	 0.329424201174857 
1451	 0.330301345002694 
1452	 0.33119983479486 
1453	 0.332222613469006 
1454	 0.333211158110476 
1455	 0.334270759714873 
1456	 0.335284329334857 
1457	 0.336297304409532 
1458	 0.337270526128562 
1459	 0.338217389270697 
1460	 0.339143583392619 
1461	 0.340040047358459 
1462	 0.34090271990143 
1463	 0.341738230257399 
1464	 0.342556030217899 
1465	 0.343321225067727 
1466	 0.344107114737055 
1467	 0.344848564437183 
1468	 0.345593175334887 
1469	 0.346350353376853 
1470	 0.347039894521269 
1471	 0.34774872965697 
1472	 0.348460242477738 
1473	 0.349149253829394 
1474	 0.349834229103926 
1475	 0.350470771896042 
1476	 0.351096607907181 
1477	 0.351660699024908 
1478	 0.352172438714881 
1479	 0.352648187195121 
1480	 0.353083074644869 
1481	 0.353480684153266 
1482	 0.353828225966395 
1483	 0.354162333853866 
1484	 0.354436217735113 
1485	 0.354755524995868 
1486	 0.355052636848512 
1487	 0.35539994187799 
1488	 0.355765635310813 
1489	 0.356180907338957 
1490	 0.35661292753278 
1491	 0.35712115456101 
1492	 0.357666195196678 
1493	 0.358306431829827 
1494	 0.359043870165648 
1495	 0.359797738861236 
1496	 0.360629862029794 
1497	 0.361477172801448 
1498	 0.362376500562544 
1499	 0.36325723098582 
1500	 0.364183895438572 
1501	 0.36507206217456 
1502	 0.36594248946902 
1503	 0.366785487840031 
1504	 0.36762721250892 
1505	 0.368419078876119 
1506	 0.369182159088635 
1507	 0.369898266184894 
1508	 0.370569786895165 
1509	 0.371204672358601 
1510	 0.37179295553977 
1511	 0.372345779617954 
1512	 0.372863385683395 
1513	 0.373340944994792 
1514	 0.373770685647203 
1515	 0.374176924007761 
1516	 0.374543457657264 
1517	 0.374887482464423 
1518	 0.375197819688085 
1519	 0.37549306059026 
1520	 0.375766261320273 
1521	 0.37601964421912 
1522	 0.376245851530186 
1523	 0.376461498957442 
1524	 0.376641325741245 
1525	 0.376787263522018 
1526	 0.376927154408852 
1527	 0.377040159014747 
1528	 0.377158104916428 
1529	 0.37726376900343 
1530	 0.377372666285975 
1531	 0.377478156667343 
1532	 0.377581908028213 
1533	 0.377669606343204 
1534	 0.377799692189117 
1535	 0.377931798524966 
1536	 0.378106493404228 
1537	 0.378313706440977 
1538	 0.378551498987764 
1539	 0.378807193124588 
1540	 0.379120394800434 
1541	 0.379474185155139 
1542	 0.379874579105849 
1543	 0.380336682088116 
1544	 0.380799256530604 
1545	 0.381291254322644 
1546	 0.381813843030421 
1547	 0.382362244821977 
1548	 0.382925405559377 
1549	 0.383527534191697 
1550	 0.384131352132897 
1551	 0.384744293271498 
1552	 0.385365753951438 
1553	 0.386013256736923 
1554	 0.386647626318786 
1555	 0.387295216827369 
1556	 0.387908857142423 
1557	 0.388511232237001 
1558	 0.38909998071673 
1559	 0.389665620984412 
1560	 0.390219509325395 
1561	 0.390753884640893 
1562	 0.391299317687227 
1563	 0.391835935497168 
1564	 0.392366784805805 
1565	 0.392903250577798 
1566	 0.393434439302831 
1567	 0.393951512229717 
1568	 0.394469489430876 
1569	 0.394997292882435 
1570	 0.395510265710592 
1571	 0.396015402637736 
1572	 0.396505422214385 
1573	 0.396980843950484 
1574	 0.39745721652686 
1575	 0.397923240766025 
1576	 0.398383540789872 
1577	 0.398839626533829 
1578	 0.39929679087533 
1579	 0.399742366815024 
1580	 0.400192719245924 
1581	 0.400658618064323 
1582	 0.401103429934604 
1583	 0.401544831549707 
1584	 0.401967008453312 
1585	 0.40235169049721 
1586	 0.402766616770135 
1587	 0.403187765547631 
1588	 0.403602564952932 
1589	 0.404028380808703 
1590	 0.404455364973669 
1591	 0.404876475881977 
1592	 0.405295051427387 
1593	 0.405724816055263 
1594	 0.406146799547785 
1595	 0.406542609823698 
1596	 0.406963860224029 
1597	 0.407413021867132 
1598	 0.407838507546433 
1599	 0.408263769278693 
1600	 0.408686461850941 
1601	 0.409100800173169 
1602	 0.409502213181184 
1603	 0.409906809742817 
1604	 0.410291992596384 
1605	 0.410639651616325 
1606	 0.41100651211957 
1607	 0.411392694163852 
1608	 0.411747985260785 
1609	 0.412095564050073 
1610	 0.412432702258363 
1611	 0.412742244758463 
1612	 0.413048568952091 
1613	 0.41336446185896 
1614	 0.413650442938395 
1615	 0.413907107292857 
1616	 0.414161105521858 
1617	 0.41440346724058 
1618	 0.414630543043615 
1619	 0.414855139212357 
1620	 0.415053950727157 
1621	 0.41522153625325 
1622	 0.415386561609738 
1623	 0.415538561994413 
1624	 0.415677004740755 
1625	 0.415802087237451 
1626	 0.415922908435304 
1627	 0.416026068472624 
1628	 0.416131855283555 
1629	 0.416229062116064 
1630	 0.41633669546273 
1631	 0.416455223775064 
1632	 0.416558582189831 
1633	 0.416663456782069 
1634	 0.416763293342768 
1635	 0.416839893591102 
1636	 0.416930676477225 
1637	 0.417047040693081 
1638	 0.417131679042701 
1639	 0.417216792751389 
1640	 0.417271815438718 
1641	 0.41730623113428 
1642	 0.417307557526943 
1643	 0.417272230109042 
1644	 0.417231031069778 
1645	 0.417171768542784 
1646	 0.417081599770672 
1647	 0.41697470988677 
1648	 0.416844721997629 
1649	 0.416677122688413 
1650	 0.416496532038885 
1651	 0.416301755360885 
1652	 0.416087976358583 
1653	 0.415861347693622 
1654	 0.415598243198663 
1655	 0.415333450843414 
1656	 0.414998400593996 
1657	 0.414610151924694 
1658	 0.414177990702293 
1659	 0.413699156962868 
1660	 0.413164215987761 
1661	 0.41259233783687 
1662	 0.411944664119041 
1663	 0.411218724397228 
1664	 0.410442763464267 
1665	 0.40962649287454 
1666	 0.408704910109945 
1667	 0.407713034345997 
1668	 0.406647214935834 
1669	 0.405493429279746 
1670	 0.404255249500424 
1671	 0.402932620920851 
1672	 0.401537628116407 
1673	 0.400057937776389 
1674	 0.398485837665891 
1675	 0.396834714831782 
1676	 0.395136888316735 
1677	 0.393356509612661 
1678	 0.391507383692782 
1679	 0.389588592773517 
1680	 0.387603481824464 
1681	 0.38553254401674 
1682	 0.383393172812824 
1683	 0.381213167147413 
1684	 0.378967816342308 
1685	 0.376643654272928 
1686	 0.374239427545187 
1687	 0.371732164522867 
1688	 0.369197863884282 
1689	 0.366571411439659 
1690	 0.363938874777493 
1691	 0.36131489582626 
1692	 0.358653939812624 
1693	 0.355957604201141 
1694	 0.353212901572196 
1695	 0.35039697520517 
1696	 0.347571872197023 
1697	 0.34470455799762 
1698	 0.34180734350228 
1699	 0.33888312396282 
1700	 0.336050444779039 
1701	 0.333170034588617 
1702	 0.330441191554715 
1703	 0.327766915381998 
1704	 0.325241252293828 
1705	 0.32280026057321 
1706	 0.320459358960977 
1707	 0.318425097018158 
1708	 0.316487671939884 
1709	 0.314672976994558 
1710	 0.313035925847205 
1711	 0.311391005384895 
1712	 0.309846876988145 
1713	 0.308375706854592 
1714	 0.306936858342255 
1715	 0.305667335297616 
1716	 0.304419838871287 
1717	 0.303206816816384 
1718	 0.30207487000883 
1719	 0.300964638414696 
1720	 0.299966689697059 
1721	 0.299085413645769 
1722	 0.298337450077651 
1723	 0.297769136367148 
1724	 0.29735468721243 
1725	 0.297125571253467 
1726	 0.297114509921519 
1727	 0.297290800821782 
1728	 0.297650424149477 
1729	 0.298238744885458 
1730	 0.299043960680617 
1731	 0.299977671420625 
1732	 0.301074628248125 
1733	 0.302199719037447 
1734	 0.303315008132972 
1735	 0.304449719761237 
1736	 0.305479757032673 
1737	 0.306379822630712 
1738	 0.307099646411869 
1739	 0.307635918245187 
1740	 0.307985508966797 
1741	 0.308193312324269 
1742	 0.308175147828577 
1743	 0.308132808768019 
1744	 0.307943807899494 
1745	 0.307733005114141 
1746	 0.307457644287788 
1747	 0.307184965252092 
1748	 0.30680213494782 
1749	 0.306549043031798 
1750	 0.30631232726126 
1751	 0.306186456884308 
1752	 0.30614105462576 
1753	 0.306206054699168 
1754	 0.306334427136769 
1755	 0.3066237105421 
1756	 0.307029437040298 
1757	 0.307596646601378 
1758	 0.308344492970951 
1759	 0.309161742580582 
1760	 0.310145972826238 
1761	 0.311297176315418 
1762	 0.312484773789073 
1763	 0.313879969150743 
1764	 0.31536605507051 
1765	 0.316873459054573 
1766	 0.318576790186242 
1767	 0.320251483090218 
1768	 0.321947964407221 
1769	 0.323692429856073 
1770	 0.325273173609454 
1771	 0.326845445044368 
1772	 0.328338519036164 
1773	 0.329692573801766 
1774	 0.331045514855049 
1775	 0.332266150403588 
1776	 0.333421394520495 
1777	 0.334535376246133 
1778	 0.335495231025229 
1779	 0.336450495486366 
1780	 0.337361992203337 
1781	 0.338184286249367 
1782	 0.339056490897784 
1783	 0.339865148498462 
1784	 0.340598507552676 
1785	 0.341255869634097 
1786	 0.34187734973111 
1787	 0.342437797955807 
1788	 0.342998644766416 
1789	 0.343533420280898 
1790	 0.344079179886451 
1791	 0.344624966569004 
1792	 0.345119130188842 
1793	 0.345583215843665 
1794	 0.346019869763753 
1795	 0.346451829279506 
1796	 0.346897393158216 
1797	 0.347361924379565 
1798	 0.347805683121545 
1799	 0.348240478270276 
1800	 0.348687036975099 
1801	 0.342152203452208 
1802	 0.342603886611694 
1803	 0.343040768590006 
1804	 0.343463555123445 
1805	 0.343893308883007 
1806	 0.344287624013876 
1807	 0.344664713866143 
1808	 0.345042610272813 
1809	 0.34539774619297 
1810	 0.345754884713669 
1811	 0.346096947010532 
1812	 0.346465792074232 
1813	 0.346832735407118 
1814	 0.347223193997947 
1815	 0.347615982319834 
1816	 0.348024070114862 
1817	 0.34843577393653 
1818	 0.348846185177177 
1819	 0.349255719150097 
1820	 0.349679348179609 
1821	 0.350096816286208 
1822	 0.350494973885149 
1823	 0.350923796358838 
1824	 0.35134240916022 
1825	 0.351789456055205 
1826	 0.352215274862708 
1827	 0.352644220887109 
1828	 0.35304325691454 
1829	 0.353424761399865 
1830	 0.353803257879257 
1831	 0.3541615666749 
1832	 0.354532657630663 
1833	 0.354881559487007 
1834	 0.355238597135477 
1835	 0.355596511373173 
1836	 0.355913739629345 
1837	 0.356240729322548 
1838	 0.356570414854782 
1839	 0.356890696391851 
1840	 0.357208802658144 
1841	 0.357515790095623 
1842	 0.357819888696271 
1843	 0.35810322285089 
1844	 0.358396796743168 
1845	 0.358651377121506 
1846	 0.358896207869577 
1847	 0.359112319228108 
1848	 0.359287738235617 
1849	 0.359436499304336 
1850	 0.359533049188794 
1851	 0.359595820990926 
1852	 0.359621134576161 
1853	 0.359562298354259 
1854	 0.359429682337833 
1855	 0.35922393280876 
1856	 0.358971990208387 
1857	 0.358677816532839 
1858	 0.358296242329639 
1859	 0.35787550623018 
1860	 0.357413831837953 
1861	 0.356871501057365 
1862	 0.356247896560959 
1863	 0.355627233233003 
1864	 0.354910645220775 
1865	 0.354126963792048 
1866	 0.353286868255128 
1867	 0.352318582589462 
1868	 0.351307624154534 
1869	 0.350188311760311 
1870	 0.34899325516066 
1871	 0.347725389883752 
1872	 0.346415150874296 
1873	 0.345026263267206 
1874	 0.343614432993329 
1875	 0.342157870269146 
1876	 0.340486087347993 
1877	 0.338807070439463 
1878	 0.33697706261492 
1879	 0.334975043055084 
1880	 0.333041026399516 
1881	 0.330938727475611 
1882	 0.328686298219401 
1883	 0.326365067642289 
1884	 0.323965403213663 
1885	 0.3212763784473 
1886	 0.318590416736848 
1887	 0.315744287257471 
1888	 0.312706611878432 
1889	 0.309825510234285 
1890	 0.306757731598397 
1891	 0.303670227019772 
1892	 0.300651234602696 
1893	 0.297507361885387 
1894	 0.294212626969017 
1895	 0.291029714881316 
1896	 0.287806687834416 
1897	 0.28456910022578 
1898	 0.281604204937643 
1899	 0.278613982398275 
1900	 0.275726034016473 
1901	 0.272976069847435 
1902	 0.270114043985185 
1903	 0.267441719698468 
1904	 0.264839580266122 
1905	 0.262287462804494 
1906	 0.259809216167725 
1907	 0.257626151532623 
1908	 0.255442017331815 
1909	 0.253392667710976 
1910	 0.25150530726163 
1911	 0.249544359772559 
1912	 0.247741181592453 
1913	 0.2460104665955 
1914	 0.244310861656074 
1915	 0.242764106306776 
1916	 0.241389631506125 
1917	 0.240004848241396 
1918	 0.23868290344468 
1919	 0.237471942625297 
1920	 0.23621904747705 
1921	 0.23505001114304 
1922	 0.233949265468314 
1923	 0.232858363680924 
1924	 0.231867469127159 
1925	 0.230902577252379 
1926	 0.22999198036306 
1927	 0.229129484972936 
1928	 0.22832354449429 
1929	 0.227556115918706 
1930	 0.226874101938007 
1931	 0.226238691044239 
1932	 0.225664550956045 
1933	 0.22519304062603 
1934	 0.224799922725187 
1935	 0.224481682630286 
1936	 0.224246838533781 
1937	 0.224086964325117 
1938	 0.224004200379635 
1939	 0.223988529598462 
1940	 0.224044221879652 
1941	 0.224189531241652 
1942	 0.224392978964745 
1943	 0.224644235722975 
1944	 0.224962090356063 
1945	 0.225328281586399 
1946	 0.225758718691345 
1947	 0.226230036169767 
1948	 0.226776370269454 
1949	 0.227396989150483 
1950	 0.228054344587534 
1951	 0.228778976508883 
1952	 0.229543361658525 
1953	 0.230341008940234 
1954	 0.231197239246576 
1955	 0.232148588722484 
1956	 0.233089683610067 
1957	 0.234075551157198 
1958	 0.235087303066725 
1959	 0.23602050244797 
1960	 0.236934036319316 
1961	 0.237790522395997 
1962	 0.238590096892056 
1963	 0.239357809954201 
1964	 0.240091258209794 
1965	 0.240765285989555 
1966	 0.241396606371171 
1967	 0.241990400175858 
1968	 0.242509795272484 
1969	 0.243024384719675 
1970	 0.243522945316807 
1971	 0.244016838526485 
1972	 0.244545516590753 
1973	 0.245083310304263 
1974	 0.245650949999484 
1975	 0.246259531330916 
1976	 0.246867972524048 
1977	 0.247499458059875 
1978	 0.248135423652819 
1979	 0.24877731213206 
1980	 0.24942211959629 
1981	 0.250127430964334 
1982	 0.250787526423822 
1983	 0.251487021569438 
1984	 0.252249749672785 
1985	 0.252983679450268 
1986	 0.253773551977729 
1987	 0.254608699524431 
1988	 0.255450594768879 
1989	 0.25639660611997 
1990	 0.257415879167326 
1991	 0.258482326133526 
1992	 0.259620688768891 
1993	 0.260851562847372 
1994	 0.262036634458241 
1995	 0.263306578919212 
1996	 0.264602064630018 
1997	 0.26588236185974 
1998	 0.267210254529967 
1999	 0.268606854110609 
2000	 0.269929980726904 
2001	 0.271316454960851 
2002	 0.272559089917894 
2003	 0.273722577582838 
2004	 0.274849420869057 
2005	 0.275871794874735 
2006	 0.276887655090626 
2007	 0.277903658478519 
2008	 0.278833991567458 
2009	 0.279707929898749 
2010	 0.280526549708779 
2011	 0.281230172504446 
2012	 0.281904178752701 
2013	 0.282513585048318 
2014	 0.283052667737894 
2015	 0.283553861398583 
2016	 0.284010626683467 
2017	 0.284394246068379 
2018	 0.284717749930295 
2019	 0.284996963504897 
2020	 0.28520007298255 
2021	 0.285374475364808 
2022	 0.285517348246414 
2023	 0.285618274154219 
2024	 0.285674099085336 
2025	 0.285682205925581 
2026	 0.285648027201444 
2027	 0.285550316072937 
2028	 0.285447117047354 
2029	 0.28530405510385 
2030	 0.285150070997569 
2031	 0.28498146932072 
2032	 0.284786646314044 
2033	 0.284529433019525 
2034	 0.284313919756657 
2035	 0.284093901297329 
2036	 0.283884869982412 
2037	 0.283704592393466 
2038	 0.283528755243487 
2039	 0.283340243764643 
2040	 0.283139253126196 
2041	 0.282957553299496 
2042	 0.282782806553388 
2043	 0.282603871071525 
2044	 0.282433478535127 
2045	 0.282258288746043 
2046	 0.282079381607355 
2047	 0.281899850561477 
2048	 0.281712525595529 
2049	 0.281539050447726 
2050	 0.281362062079181 
2051	 0.281205682852735 
2052	 0.281053458233969 
2053	 0.280895782140803 
2054	 0.280738976912292 
2055	 0.28057897537543 
2056	 0.280416720066383 
2057	 0.280259488389548 
2058	 0.280091371669474 
2059	 0.279909504659217 
2060	 0.279736877277202 
2061	 0.279567062984914 
2062	 0.279393573770765 
2063	 0.279211870231353 
2064	 0.279047583272584 
2065	 0.278892602256107 
2066	 0.278731152624594 
2067	 0.27858267923514 
2068	 0.278433648600406 
2069	 0.278270997784494 
2070	 0.278086681592747 
2071	 0.277926173940543 
2072	 0.277775194864049 
2073	 0.277610743259817 
2074	 0.27745385265522 
2075	 0.277287562081811 
2076	 0.277107334734506 
2077	 0.2769297649001 
2078	 0.276756716226827 
2079	 0.276572768800683 
2080	 0.276380056138308 
2081	 0.27618422091047 
2082	 0.275995009300268 
2083	 0.275784944696364 
2084	 0.275549005247143 
2085	 0.275311899967599 
2086	 0.275055423602266 
2087	 0.274757628529585 
2088	 0.274497242583607 
2089	 0.274238931323229 
2090	 0.273990424550649 
2091	 0.273784674932408 
2092	 0.27352448772293 
2093	 0.27324720884453 
2094	 0.272960943990747 
2095	 0.272640469741879 
2096	 0.272318975619124 
2097	 0.27200559231079 
2098	 0.271660840323088 
2099	 0.271310882483477 
2100	 0.270948718870671 
2101	 0.270561406599448 
2102	 0.270163610390544 
2103	 0.269740255896611 
2104	 0.269275525427601 
2105	 0.268828561024655 
2106	 0.268386290333551 
2107	 0.267905181755426 
2108	 0.267422463452224 
2109	 0.266901818461366 
2110	 0.266325847831651 
2111	 0.265766674200886 
2112	 0.265186349703015 
2113	 0.264611579428225 
2114	 0.264054269517768 
2115	 0.26346500890398 
2116	 0.262857875423481 
2117	 0.262252882750641 
2118	 0.261618104140184 
2119	 0.260945588493506 
2120	 0.260301538695295 
2121	 0.259625102540978 
2122	 0.259022993644554 
2123	 0.258455975221393 
2124	 0.257899971387039 
2125	 0.257405404099124 
2126	 0.256879861561472 
2127	 0.256336007556655 
2128	 0.255825723012203 
2129	 0.255307802837097 
2130	 0.254831993100299 
2131	 0.254403392708818 
2132	 0.253974444952198 
2133	 0.253568095099294 
2134	 0.253179325867458 
2135	 0.252770853710409 
2136	 0.252378466951018 
2137	 0.251997973690566 
2138	 0.251621139287565 
2139	 0.25126170412725 
2140	 0.250915888513217 
2141	 0.250588317615537 
2142	 0.250282172167445 
2143	 0.249971811311094 
2144	 0.249662629803909 
2145	 0.249388891420569 
2146	 0.24911402442344 
2147	 0.248882850116128 
2148	 0.248709752691697 
2149	 0.248525851736523 
2150	 0.248347924078675 
2151	 0.248196281913813 
2152	 0.248053906080093 
2153	 0.247944464788878 
2154	 0.247848101607422 
2155	 0.247757027646039 
2156	 0.247662714344596 
2157	 0.247567660104362 
2158	 0.247477542314246 
2159	 0.247399254930376 
2160	 0.247300772857392 
2161	 0.247192915395663 
2162	 0.247090045588055 
2163	 0.246990818036766 
2164	 0.246869761048263 
2165	 0.246752876125205 
2166	 0.246607952731036 
2167	 0.246407026164854 
2168	 0.246248502813248 
2169	 0.246099163956739 
2170	 0.245951039720743 
2171	 0.245810154172109 
2172	 0.245687538286419 
2173	 0.245572596634472 
2174	 0.24545445937774 
2175	 0.245381082542984 
2176	 0.245331539083831 
2177	 0.245253121246315 
2178	 0.245171589921889 
2179	 0.245102121416071 
2180	 0.245024890113153 
2181	 0.244954524607084 
2182	 0.24490173672392 
2183	 0.244836841272985 
2184	 0.244776797454955 
2185	 0.244688035876143 
2186	 0.244600214144563 
2187	 0.244480805268059 
2188	 0.244305568986764 
2189	 0.244161681580261 
2190	 0.244022019066532 
2191	 0.24387188182505 
2192	 0.243734314669602 
2193	 0.243580968628365 
2194	 0.243413196789744 
2195	 0.243235178556424 
2196	 0.243058547628654 
2197	 0.242847153366029 
2198	 0.242646046485245 
2199	 0.242442594951614 
2200	 0.242222811139871 
2201	 0.242009423140867 
2202	 0.241759449153133 
2203	 0.241485834727483 
2204	 0.241192039073232 
2205	 0.240847924254999 
2206	 0.240555394750414 
2207	 0.24027486243141 
2208	 0.239976874673958 
2209	 0.239708674719738 
2210	 0.239409279694526 
2211	 0.239052872252808 
2212	 0.238745637117038 
2213	 0.238451207374021 
2214	 0.238168909702897 
2215	 0.237913235832158 
2216	 0.237655301957712 
2217	 0.237406259529923 
2218	 0.237162085075274 
2219	 0.236916401639293 
2220	 0.236689123108141 
2221	 0.236479871337692 
2222	 0.236272455809415 
2223	 0.236066120682916 
2224	 0.235836286387925 
2225	 0.235585012393671 
2226	 0.23529035852836 
2227	 0.234923903462199 
2228	 0.234522159253232 
2229	 0.234040060082028 
2230	 0.233471556887562 
2231	 0.232865108049217 
2232	 0.23222024635788 
2233	 0.231478800337407 
2234	 0.230715408109684 
2235	 0.229759609493676 
2236	 0.228678310549539 
2237	 0.227494934697587 
2238	 0.22608619356477 
2239	 0.224727605291326 
2240	 0.223363817097205 
2241	 0.221855105854909 
2242	 0.2203512737458 
2243	 0.218636753480005 
2244	 0.216684831181401 
2245	 0.214733411884119 
2246	 0.212594486218456 
2247	 0.210504042389447 
2248	 0.2084417396342 
2249	 0.206291810901178 
2250	 0.204083422593271 
2251	 0.201895996259655 
2252	 0.19953306810768 
2253	 0.197205428446878 
2254	 0.194887865943481 
2255	 0.192533818177437 
2256	 0.190341274664575 
2257	 0.18817214349043 
2258	 0.186051090657676 
2259	 0.184016888963406 
2260	 0.181963349404416 
2261	 0.179904298792814 
2262	 0.177942523661487 
2263	 0.175992881203936 
2264	 0.174162217830084 
2265	 0.17245041866432 
2266	 0.170735022440823 
2267	 0.169119177139469 
2268	 0.167463041913802 
2269	 0.16579050626186 
2270	 0.164198096278289 
2271	 0.162613683014016 
2272	 0.16108756576267 
2273	 0.159665233440529 
2274	 0.158209218501445 
2275	 0.156814628360611 
2276	 0.155347660496311 
2277	 0.153869253334794 
2278	 0.152345997384041 
2279	 0.15071923643524 
2280	 0.149143016906841 
2281	 0.147599675238513 
2282	 0.145990692673498 
2283	 0.144387961571376 
2284	 0.142755073321223 
2285	 0.140931177883243 
2286	 0.139153129242363 
2287	 0.137313387584193 
2288	 0.135385293149223 
2289	 0.133590989962606 
2290	 0.131738084299478 
2291	 0.129899212565507 
2292	 0.128097590930192 
2293	 0.126191749723304 
2294	 0.124383831397137 
2295	 0.122615546200876 
2296	 0.120933059424012 
2297	 0.119512335165788 
2298	 0.118269597580943 
2299	 0.117195752322805 
2300	 0.116329623106347 
2301	 0.115676215424538 
2302	 0.115188858795403 
2303	 0.114970587581982 
2304	 0.115042434052149 
2305	 0.115254680518979 
2306	 0.115682813506057 
2307	 0.116302038326345 
2308	 0.117124081436664 
2309	 0.118140581870095 
2310	 0.119449362576149 
2311	 0.120774173227101 
2312	 0.122348614704564 
2313	 0.123828132531392 
2314	 0.125399457019435 
2315	 0.126864113839445 
2316	 0.128331383266792 
2317	 0.129654030036976 
2318	 0.130927834990504 
2319	 0.132012052450987 
2320	 0.132978022587263 
2321	 0.133764093362821 
2322	 0.134339762062488 
2323	 0.134816128037692 
2324	 0.135146923568785 
2325	 0.135329038146436 
2326	 0.135376802855785 
2327	 0.135271251336125 
2328	 0.134948324283898 
2329	 0.134560342799658 
2330	 0.134055099870233 
2331	 0.133403548584618 
2332	 0.132676926952011 
2333	 0.131880392460443 
2334	 0.13095591759809 
2335	 0.129956185174608 
2336	 0.128840972963766 
2337	 0.127639001327595 
2338	 0.126461349578916 
2339	 0.12520754818655 
2340	 0.124012922299736 
2341	 0.122936993495719 
2342	 0.121874119377907 
2343	 0.121020420381207 
2344	 0.120373726952988 
2345	 0.119880791981125 
2346	 0.119666120675808 
2347	 0.119735577487832 
2348	 0.119956953190748 
2349	 0.12047730533161 
2350	 0.121255213209794 
2351	 0.122140649574422 
2352	 0.123177636979169 
2353	 0.124290702454608 
2354	 0.125318247109449 
2355	 0.12631732979592 
2356	 0.127235725220907 
2357	 0.127996326012613 
2358	 0.128701920748136 
2359	 0.129184006129502 
2360	 0.129502826676033 
2361	 0.129729279413084 
2362	 0.129750525026713 
2363	 0.129718069413263 
2364	 0.129756722388178 
2365	 0.129748962709936 
2366	 0.129712234698029 
2367	 0.129675749322524 
2368	 0.129547355190275 
2369	 0.129367476201592 
2370	 0.129225366613591 
2371	 0.129142315563149 
2372	 0.129036742393763 
2373	 0.128942208483883 
2374	 0.128850447639131 
2375	 0.128724813546867 
2376	 0.128732194499328 
2377	 0.128790594122756 
2378	 0.12882158498028 
2379	 0.128880003388011 
2380	 0.12880640810631 
2381	 0.128659785223612 
2382	 0.128614513886 
2383	 0.128607543487779 
2384	 0.128598841293232 
2385	 0.128674683409726 
2386	 0.128686817791971 
2387	 0.128620733376855 
2388	 0.128649329405654 
2389	 0.128746990378419 
2390	 0.128763653453855 
2391	 0.128817715397969 
2392	 0.128774868586042 
2393	 0.128580104135264 
2394	 0.128510900182397 
2395	 0.128471399745178 
2396	 0.128446919805074 
2397	 0.128499288212122 
2398	 0.128490523361653 
2399	 0.128438083527852 
2400	 0.128392617331011 
2401	 0.128380578122601 
2402	 0.128234623800384 
2403	 0.128093104313671 
2404	 0.128017369331123 
2405	 0.127878567641855 
2406	 0.127852919828532 
2407	 0.127926970386725 
2408	 0.127852800160752 
2409	 0.127674517160137 
2410	 0.127552890588373 
2411	 0.127457646245234 
2412	 0.127286806218417 
2413	 0.127211849784484 
2414	 0.127159493132238 
2415	 0.126984912640564 
2416	 0.126868432022176 
2417	 0.126805411332099 
2418	 0.126748295623642 
2419	 0.126613443508187 
2420	 0.126449940139376 
2421	 0.126349882462935 
2422	 0.126235637441082 
2423	 0.126200456181308 
2424	 0.126216978924743 
2425	 0.126095249707808 
2426	 0.125864984469082 
2427	 0.125702126982109 
2428	 0.125572099965381 
2429	 0.125510750546861 
2430	 0.125420355104751 
2431	 0.125204078822984 
2432	 0.125036320394409 
2433	 0.124833192119387 
2434	 0.124703543803479 
2435	 0.124559805818682 
2436	 0.124247194673214 
2437	 0.124004611904538 
2438	 0.123738849190983 
2439	 0.123475008583124 
2440	 0.123294267247625 
2441	 0.123112230741881 
2442	 0.122980599107488 
2443	 0.122797678275016 
2444	 0.122528378016078 
2445	 0.122237778309244 
2446	 0.121907836993562 
2447	 0.121596640512124 
2448	 0.121381685366556 
2449	 0.121121576478322 
2450	 0.120693427814962 
2451	 0.120257909336024 
2452	 0.119912066767911 
2453	 0.11953746031815 
2454	 0.119233027065443 
2455	 0.119100098729398 
2456	 0.118860431316115 
2457	 0.118527785093428 
2458	 0.118259789731967 
2459	 0.117840083992693 
2460	 0.117502111474196 
2461	 0.117434935152393 
2462	 0.117332570381713 
2463	 0.117309811837918 
2464	 0.117208071475607 
2465	 0.116833170367862 
2466	 0.116481809204438 
2467	 0.116269274299724 
2468	 0.116185344136603 
2469	 0.116071249972249 
2470	 0.115904924814006 
2471	 0.115716025061622 
2472	 0.115273399801335 
2473	 0.114986567862337 
2474	 0.11506571047023 
2475	 0.115006100055627 
2476	 0.114949232375861 
2477	 0.11485872625684 
2478	 0.114552041230011 
2479	 0.114297531808792 
2480	 0.114303222062929 
2481	 0.114338720481468 
2482	 0.114427477204546 
2483	 0.114442407472508 
2484	 0.114449075037389 
2485	 0.114556839452916 
2486	 0.114821473113079 
2487	 0.114968173934294 
2488	 0.114915148907176 
2489	 0.114886887370746 
2490	 0.114855583230586 
2491	 0.114886303385041 
2492	 0.115198384385199 
2493	 0.115392371349396 
2494	 0.115461981924744 
2495	 0.115689367610298 
2496	 0.115862645404371 
2497	 0.115816872193337 
2498	 0.115653964663017 
2499	 0.115766659445557 
2500	 0.116209441916472 
