Wavelength	spectrum00011.asd
350	 7.72758516899991E-02 
351	 7.56747979908567E-02 
352	 7.43968248938585E-02 
353	 7.34737052737125E-02 
354	 7.24910077334218E-02 
355	 7.13885944011728E-02 
356	 7.00172143228266E-02 
357	 6.82298362689786E-02 
358	 6.57559988809937E-02 
359	 6.37986180812507E-02 
360	 0.06357948013277 
361	 6.54862440076772E-02 
362	 6.42787266336174E-02 
363	 6.14999597291617E-02 
364	 5.94002562940901E-02 
365	 6.01384489069124E-02 
366	 6.12191870936417E-02 
367	 6.11962587331837E-02 
368	 5.99643473898567E-02 
369	 6.07807041810509E-02 
370	 0.060174212037982 
371	 5.85883826779965E-02 
372	 5.84474056166655E-02 
373	 5.76765070625483E-02 
374	 5.83817020773738E-02 
375	 6.01533597701972E-02 
376	 5.84656132024215E-02 
377	 5.79887957348228E-02 
378	 5.84052445848974E-02 
379	 5.83758439043149E-02 
380	 5.78508665153032E-02 
381	 0.057289711515588 
382	 0.056618557458751 
383	 5.55773182035922E-02 
384	 5.55090551622811E-02 
385	 5.58233462808652E-02 
386	 5.58795631348954E-02 
387	 5.53260270272866E-02 
388	 5.47743903099199E-02 
389	 0.054537520484937 
390	 5.46026008152242E-02 
391	 5.42043513262179E-02 
392	 5.35789043925788E-02 
393	 5.32383575608258E-02 
394	 5.36630028005052E-02 
395	 5.32318010418781E-02 
396	 5.31444208387789E-02 
397	 5.37123578368532E-02 
398	 5.31830892833334E-02 
399	 5.27353762390002E-02 
400	 5.24609659213353E-02 
401	 5.21756796137259E-02 
402	 5.19106475391902E-02 
403	 5.16177903842365E-02 
404	 5.13226916258963E-02 
405	 5.11089880299314E-02 
406	 5.11210893684808E-02 
407	 5.09806636381312E-02 
408	 5.06603724595116E-02 
409	 5.10546784343398E-02 
410	 5.05463089959485E-02 
411	 4.98435158566645E-02 
412	 5.00380977474737E-02 
413	 0.050064298003317 
414	 4.96598357831586E-02 
415	 4.91761903121998E-02 
416	 4.93987005262002E-02 
417	 4.93409416662697E-02 
418	 4.90987885587253E-02 
419	 4.89181640678887E-02 
420	 4.89300229451002E-02 
421	 4.88484994754511E-02 
422	 4.88079479123468E-02 
423	 4.89935063430831E-02 
424	 4.87267473632248E-02 
425	 4.83749210187999E-02 
426	 4.82156357847289E-02 
427	 4.83213709007414E-02 
428	 4.83410627382023E-02 
429	 4.82183983926604E-02 
430	 4.80151300554032E-02 
431	 4.78806211674581E-02 
432	 4.79107277477277E-02 
433	 4.79154433372419E-02 
434	 4.76236242377605E-02 
435	 4.75832999308502E-02 
436	 4.77341720194795E-02 
437	 4.78643561676238E-02 
438	 0.047628222486731 
439	 4.76070161524179E-02 
440	 4.76922611622677E-02 
441	 4.76425606925805E-02 
442	 4.75577433986128E-02 
443	 4.76680220185437E-02 
444	 4.78592345103819E-02 
445	 4.77663486837576E-02 
446	 4.76251380565716E-02 
447	 4.75366556757061E-02 
448	 4.75434489980493E-02 
449	 4.76225476202794E-02 
450	 4.76925478050341E-02 
451	 4.77133862211347E-02 
452	 4.76829543503586E-02 
453	 4.76859785792137E-02 
454	 4.77139060100069E-02 
455	 4.77199042926981E-02 
456	 0.047629157819341 
457	 4.77111088690815E-02 
458	 4.77259454468552E-02 
459	 0.04753168568077 
460	 4.76219945843593E-02 
461	 4.77806698142872E-02 
462	 4.78170464568099E-02 
463	 4.76154464626098E-02 
464	 4.75600565251381E-02 
465	 4.76655979318243E-02 
466	 4.78194074027436E-02 
467	 4.77879163354726E-02 
468	 4.77493579012969E-02 
469	 4.77139746503801E-02 
470	 0.04766922468807 
471	 4.77150494491669E-02 
472	 4.77513281008375E-02 
473	 4.77509495546965E-02 
474	 4.77507947564804E-02 
475	 4.77486595395438E-02 
476	 4.77356438483913E-02 
477	 4.77137195655982E-02 
478	 4.77057030133015E-02 
479	 4.77679342697155E-02 
480	 4.78325588988319E-02 
481	 4.78045397235772E-02 
482	 4.77557707494002E-02 
483	 4.77721844293965E-02 
484	 4.78698152710099E-02 
485	 4.79844088074177E-02 
486	 4.80750699919993E-02 
487	 0.048051460365743 
488	 4.79258518778555E-02 
489	 0.048048140914328 
490	 4.81080947092689E-02 
491	 4.81364837574182E-02 
492	 4.83196606458938E-02 
493	 4.82439184899141E-02 
494	 4.81444271887373E-02 
495	 4.81890182100034E-02 
496	 4.83091218992786E-02 
497	 4.84177965045976E-02 
498	 4.84648997453222E-02 
499	 4.84460969335685E-02 
500	 4.84690013462295E-02 
501	 4.85134032591874E-02 
502	 0.048574320954048 
503	 4.86618021765908E-02 
504	 4.87141554516559E-02 
505	 4.87699388485356E-02 
506	 4.88536093391044E-02 
507	 4.89066391699984E-02 
508	 4.89849093439078E-02 
509	 0.04905780328165 
510	 4.90794491948962E-02 
511	 4.91777419568672E-02 
512	 4.93283634432965E-02 
513	 4.94792727094971E-02 
514	 0.049565275385654 
515	 4.95522929664952E-02 
516	 4.95478740751668E-02 
517	 4.96409901316378E-02 
518	 4.97160293976845E-02 
519	 4.98298486526762E-02 
520	 4.99514167301202E-02 
521	 5.00046895380531E-02 
522	 5.01828894200943E-02 
523	 5.02898244771522E-02 
524	 5.02651694069518E-02 
525	 5.04328448298812E-02 
526	 5.05459295781355E-02 
527	 5.06430689472127E-02 
528	 5.08215260966565E-02 
529	 5.09212857124751E-02 
530	 5.10027688105002E-02 
531	 5.11439474316524E-02 
532	 5.14181370274696E-02 
533	 5.15229782305287E-02 
534	 5.15999676513254E-02 
535	 5.17904376079465E-02 
536	 5.19332821059288E-02 
537	 5.21055360281657E-02 
538	 5.22904086201543E-02 
539	 5.24309097776083E-02 
540	 5.26021491693796E-02 
541	 5.28076189324861E-02 
542	 5.30294631114157E-02 
543	 5.32298054842946E-02 
544	 5.34344749459801E-02 
545	 0.053644701232578 
546	 0.05386296238296 
547	 5.41358578355119E-02 
548	 5.43776121501325E-02 
549	 5.46088695791777E-02 
550	 5.49410625124654E-02 
551	 5.52381822291619E-02 
552	 5.55716721483413E-02 
553	 5.59899775411501E-02 
554	 5.63840326583703E-02 
555	 5.68018351484288E-02 
556	 5.72741705312365E-02 
557	 5.78178647498641E-02 
558	 5.84043713044555E-02 
559	 0.059015811588332 
560	 5.96492153343297E-02 
561	 6.03204715046227E-02 
562	 6.10296735356616E-02 
563	 6.17777669048742E-02 
564	 6.25687155440665E-02 
565	 6.34193276398046E-02 
566	 6.43255613562538E-02 
567	 6.52896990537536E-02 
568	 6.63200466020372E-02 
569	 6.74412798100596E-02 
570	 6.86361703457647E-02 
571	 6.98979530460009E-02 
572	 7.12539145150414E-02 
573	 7.27157801394352E-02 
574	 7.42723250667395E-02 
575	 7.59131928159413E-02 
576	 7.76978906134193E-02 
577	 7.95409224332875E-02 
578	 8.14536626335345E-02 
579	 8.35607409007758E-02 
580	 8.58470130901692E-02 
581	 0.088292147067479 
582	 9.09105001078835E-02 
583	 9.38304860389255E-02 
584	 9.69470392655289E-02 
585	 0.100242156609634 
586	 0.103765630556971 
587	 0.107597081279379 
588	 0.11172148713317 
589	 0.116114376350273 
590	 0.120759551924122 
591	 0.125593786930089 
592	 0.130637599117893 
593	 0.13590580870743 
594	 0.141235615758825 
595	 0.146803663930074 
596	 0.152662371066391 
597	 0.158729106026852 
598	 0.16504146312205 
599	 0.171595197837171 
600	 0.178379163852319 
601	 0.185341756518435 
602	 0.192400989972991 
603	 0.199491994223281 
604	 0.206551032767966 
605	 0.213546878174016 
606	 0.220461558466011 
607	 0.227255581030823 
608	 0.233852928456063 
609	 0.240133194794113 
610	 0.24615530429762 
611	 0.251995272212155 
612	 0.257558148541038 
613	 0.262805258267211 
614	 0.267749987593944 
615	 0.272444881994959 
616	 0.27678497685744 
617	 0.280865184423422 
618	 0.284727198182964 
619	 0.28827243613434 
620	 0.291609914163451 
621	 0.294733276525101 
622	 0.297615458764533 
623	 0.300321527485333 
624	 0.302801313385095 
625	 0.305083001347019 
626	 0.307271158282769 
627	 0.309311327475118 
628	 0.311215629548976 
629	 0.312998741202198 
630	 0.314644594528683 
631	 0.316214787103463 
632	 0.31768444167323 
633	 0.319002582538344 
634	 0.32023529534259 
635	 0.321467425710252 
636	 0.322698556144733 
637	 0.32381739065129 
638	 0.324916604184055 
639	 0.325934880370676 
640	 0.326822424770163 
641	 0.327676869005555 
642	 0.328552461760515 
643	 0.329427546139238 
644	 0.330238998534183 
645	 0.331022940648494 
646	 0.331815570438434 
647	 0.332608336698447 
648	 0.333319848809012 
649	 0.334029115261263 
650	 0.334695336400613 
651	 0.335289522549763 
652	 0.335992739871243 
653	 0.336671043919112 
654	 0.337286975773122 
655	 0.337890171409448 
656	 0.338483090529349 
657	 0.339082087174208 
658	 0.339676098292661 
659	 0.340191445826507 
660	 0.340705722992825 
661	 0.341250871804034 
662	 0.341827678247703 
663	 0.342381228850287 
664	 0.342878712411536 
665	 0.343324445006642 
666	 0.343760337638035 
667	 0.344260002400612 
668	 0.344799070260233 
669	 0.345331822525353 
670	 0.345829677158751 
671	 0.346219890919632 
672	 0.346603692899693 
673	 0.347122096281566 
674	 0.347582434588126 
675	 0.347985962708812 
676	 0.348369434411915 
677	 0.348789715512206 
678	 0.349299042401741 
679	 0.349762516568539 
680	 0.350086861933174 
681	 0.35042648076962 
682	 0.350864668965677 
683	 0.351325292931919 
684	 0.351667533683515 
685	 0.352037912955187 
686	 0.352423451144065 
687	 0.352804605277941 
688	 0.353176955646788 
689	 0.353549448858333 
690	 0.353913090419755 
691	 0.354263697449836 
692	 0.354625917462254 
693	 0.354996698160922 
694	 0.355387151916781 
695	 0.355802930194929 
696	 0.356123448700427 
697	 0.356423773878733 
698	 0.356740976468158 
699	 0.35701076512204 
700	 0.357329632996493 
701	 0.357673990418376 
702	 0.35799918986981 
703	 0.358320901504455 
704	 0.358675235189385 
705	 0.359013312336665 
706	 0.359250817384069 
707	 0.35957491871413 
708	 0.359911210804205 
709	 0.360203039780266 
710	 0.360481461895001 
711	 0.360778785266938 
712	 0.361116363177074 
713	 0.361485716559622 
714	 0.361799688505576 
715	 0.362040587156192 
716	 0.362247583932638 
717	 0.362499136169282 
718	 0.362836131126243 
719	 0.363211935804744 
720	 0.363543481739874 
721	 0.363702700463794 
722	 0.363932077675925 
723	 0.364272856759854 
724	 0.364654405615321 
725	 0.364844654192847 
726	 0.365094280183242 
727	 0.365418542025698 
728	 0.365670822529272 
729	 0.365976007730032 
730	 0.366265145636236 
731	 0.366507662153057 
732	 0.366775707159348 
733	 0.367041109139893 
734	 0.367269360804512 
735	 0.367467867430113 
736	 0.36780716921808 
737	 0.368144841933627 
738	 0.368423723522532 
739	 0.368666577941172 
740	 0.369042637651791 
741	 0.369338412220902 
742	 0.369484616560054 
743	 0.369692868370512 
744	 0.369985405343525 
745	 0.370324082330752 
746	 0.37063867529708 
747	 0.370828598554983 
748	 0.37105467517014 
749	 0.371371792984397 
750	 0.371744403152452 
751	 0.372002485660549 
752	 0.372237523969052 
753	 0.372484142653702 
754	 0.372668113304744 
755	 0.372976917926486 
756	 0.373334089043319 
757	 0.373622507513691 
758	 0.373792468062125 
759	 0.373988612862096 
760	 0.374250425731802 
761	 0.37454805767109 
762	 0.374790473493283 
763	 0.375043560996762 
764	 0.375317573936562 
765	 0.375557413288965 
766	 0.375907064561559 
767	 0.376186262317506 
768	 0.376322166986802 
769	 0.376633125366194 
770	 0.376944650257273 
771	 0.377222290066718 
772	 0.377471798170139 
773	 0.377643111990287 
774	 0.377890291998048 
775	 0.378214038763209 
776	 0.378488245342469 
777	 0.378742898669449 
778	 0.37899666985527 
779	 0.379243754254 
780	 0.379434884011845 
781	 0.379669991533744 
782	 0.379930329098504 
783	 0.380176830284465 
784	 0.380432145315343 
785	 0.380686869873755 
786	 0.38094849618475 
787	 0.381219596732022 
788	 0.381387119391557 
789	 0.38161982803285 
790	 0.381943089718676 
791	 0.382187379537044 
792	 0.382382682247464 
793	 0.38259904234986 
794	 0.382873395111586 
795	 0.383144718577161 
796	 0.383361725509502 
797	 0.383563434092563 
798	 0.383811778829632 
799	 0.384083034575428 
800	 0.384354460126143 
801	 0.384582152169118 
802	 0.384726815287299 
803	 0.384943918298017 
804	 0.385185324857139 
805	 0.385413262223267 
806	 0.385649696545052 
807	 0.385905381634604 
808	 0.386096382822082 
809	 0.386205668178229 
810	 0.386479553986034 
811	 0.386742586672555 
812	 0.386990992920998 
813	 0.387273635315362 
814	 0.38747087721778 
815	 0.387683869822954 
816	 0.387935486400573 
817	 0.388164713374142 
818	 0.388334046779827 
819	 0.388469742645468 
820	 0.38862581074423 
821	 0.38888043973518 
822	 0.389065836113801 
823	 0.389232834137203 
824	 0.389455992182887 
825	 0.389683453066043 
826	 0.389965866769443 
827	 0.390207326046427 
828	 0.390297795517965 
829	 0.390440363038322 
830	 0.390628512008014 
831	 0.390847823448841 
832	 0.391080041400844 
833	 0.391238786222304 
834	 0.391328095192482 
835	 0.39142030470525 
836	 0.391660177481503 
837	 0.391927164683257 
838	 0.392138858154673 
839	 0.392277925865792 
840	 0.392482831869896 
841	 0.392601683022135 
842	 0.392707447762584 
843	 0.392918099941838 
844	 0.393094593046031 
845	 0.393246855652526 
846	 0.393378579259007 
847	 0.393490727368791 
848	 0.39362591649174 
849	 0.393754888949585 
850	 0.393872382153717 
851	 0.394012455934582 
852	 0.394167635197787 
853	 0.394373437928793 
854	 0.394617197311061 
855	 0.394772254346962 
856	 0.394896901825589 
857	 0.395044771738031 
858	 0.395241373610827 
859	 0.395422863457297 
860	 0.395542674565652 
861	 0.395613653675194 
862	 0.395689664629335 
863	 0.395840942079517 
864	 0.396015247316901 
865	 0.39615862353245 
866	 0.396232114518925 
867	 0.396241063720888 
868	 0.396335165888542 
869	 0.396566709367632 
870	 0.39682528234877 
871	 0.396874011051815 
872	 0.396908794406253 
873	 0.397086987220332 
874	 0.397255111584253 
875	 0.397431682743664 
876	 0.39754204615575 
877	 0.397564045146781 
878	 0.397740198584714 
879	 0.397874206854229 
880	 0.397973849530164 
881	 0.398132508330451 
882	 0.398317483531723 
883	 0.398426223781447 
884	 0.398474887105599 
885	 0.398570602489185 
886	 0.398725673523771 
887	 0.398926258376816 
888	 0.399129385724574 
889	 0.39926927273297 
890	 0.399325031995607 
891	 0.399369784728879 
892	 0.399472682524313 
893	 0.399661090942669 
894	 0.39980989716421 
895	 0.399890699718254 
896	 0.399934425183063 
897	 0.400042311436007 
898	 0.400176337588455 
899	 0.400279506064869 
900	 0.400324175637048 
901	 0.400411278496655 
902	 0.400565991307047 
903	 0.400727334424267 
904	 0.400814500137834 
905	 0.400888839630285 
906	 0.400998260967703 
907	 0.401157007621239 
908	 0.401336411369104 
909	 0.401406208660051 
910	 0.401449533251941 
911	 0.401530625863631 
912	 0.401663299063464 
913	 0.401821093589379 
914	 0.401934618135579 
915	 0.402003111661993 
916	 0.40212117005789 
917	 0.402228326168218 
918	 0.402363978241257 
919	 0.402554563516293 
920	 0.402770718596021 
921	 0.402849087505917 
922	 0.402889267150194 
923	 0.402992824133132 
924	 0.403067223738923 
925	 0.403218401506607 
926	 0.403424801724455 
927	 0.403621189158023 
928	 0.403756996630308 
929	 0.403855492120219 
930	 0.403973571994518 
931	 0.404150434028996 
932	 0.40429379978733 
933	 0.404436613540979 
934	 0.404593427492939 
935	 0.404758591016284 
936	 0.404884006431284 
937	 0.405038832873484 
938	 0.405211484717391 
939	 0.405343647063016 
940	 0.405501179234802 
941	 0.405631939431467 
942	 0.405747501148328 
943	 0.405913134419508 
944	 0.406093323364885 
945	 0.406254757294487 
946	 0.406416972938343 
947	 0.406639021212271 
948	 0.406795524524846 
949	 0.406903701608364 
950	 0.407005355485794 
951	 0.407140127807396 
952	 0.407305062074326 
953	 0.407475458383478 
954	 0.407613136186848 
955	 0.407676111540543 
956	 0.407762640729237 
957	 0.407940456731164 
958	 0.408146328225644 
959	 0.408130310278935 
960	 0.408286656279244 
961	 0.408476464731262 
962	 0.408558713608844 
963	 0.408648910840503 
964	 0.408728922812836 
965	 0.408845395416234 
966	 0.409014601636733 
967	 0.409161493591344 
968	 0.40919540995766 
969	 0.409203439877538 
970	 0.409293806689441 
971	 0.409485291136548 
972	 0.409590997815698 
973	 0.409684961024255 
974	 0.409845728227783 
975	 0.409912256165894 
976	 0.410085286227696 
977	 0.410281278331681 
978	 0.410375543198434 
979	 0.41040320471794 
980	 0.410555546633545 
981	 0.410789315826289 
982	 0.410982339809521 
983	 0.411068439278596 
984	 0.411117161905753 
985	 0.411230034861801 
986	 0.411440505674772 
987	 0.411538391680462 
988	 0.41164696314761 
989	 0.411812848458881 
990	 0.412007432401846 
991	 0.412053483055653 
992	 0.412168346302737 
993	 0.41232876082123 
994	 0.412460153646912 
995	 0.412646951312637 
996	 0.412815249851595 
997	 0.412880382455957 
998	 0.412853684146792 
999	 0.41304240958255 
1000	 0.413263638691788 
1001	 0.415288408458734 
1002	 0.415379011506195 
1003	 0.415459034269106 
1004	 0.415554807423855 
1005	 0.415670748266678 
1006	 0.415785411219123 
1007	 0.415887766096149 
1008	 0.41601323567797 
1009	 0.416178798459321 
1010	 0.416301629183701 
1011	 0.41640274410156 
1012	 0.416515000128375 
1013	 0.416611982398953 
1014	 0.41671894619702 
1015	 0.416829949102314 
1016	 0.416950362894967 
1017	 0.417096214246472 
1018	 0.417236885956988 
1019	 0.417375283202461 
1020	 0.417511427100752 
1021	 0.417636158517407 
1022	 0.417743846422483 
1023	 0.417848283405379 
1024	 0.417959622844032 
1025	 0.418051520238423 
1026	 0.41809064593149 
1027	 0.418173224189897 
1028	 0.418253212069817 
1029	 0.418389416817712 
1030	 0.418523920368509 
1031	 0.418645561614433 
1032	 0.418761410619471 
1033	 0.418842846848845 
1034	 0.418925327123697 
1035	 0.419046481025467 
1036	 0.419129657141853 
1037	 0.41919233072624 
1038	 0.419266588114037 
1039	 0.419321263995287 
1040	 0.419398328562087 
1041	 0.419497351725111 
1042	 0.41959464355354 
1043	 0.41971027146732 
1044	 0.419785785527695 
1045	 0.41984509556623 
1046	 0.419954762701857 
1047	 0.42002368172226 
1048	 0.420072353415751 
1049	 0.420202273527463 
1050	 0.420329312860937 
1051	 0.420405488927935 
1052	 0.420506302441934 
1053	 0.42060465994408 
1054	 0.420662069543104 
1055	 0.420736402279093 
1056	 0.420852673648539 
1057	 0.420956276359642 
1058	 0.421047447643246 
1059	 0.421124156317872 
1060	 0.421243634423145 
1061	 0.421338901353796 
1062	 0.421424323420696 
1063	 0.421555838678463 
1064	 0.421668446673885 
1065	 0.42174260713225 
1066	 0.421823793104475 
1067	 0.421907792789112 
1068	 0.42204176736002 
1069	 0.422212136988226 
1070	 0.422351352177084 
1071	 0.422502024329823 
1072	 0.422637548257651 
1073	 0.422747052933134 
1074	 0.42282539934498 
1075	 0.422897279421799 
1076	 0.423021427002403 
1077	 0.423155252564275 
1078	 0.423304273301731 
1079	 0.423482736834694 
1080	 0.423614410251893 
1081	 0.423735064572535 
1082	 0.423847462480725 
1083	 0.42394797433725 
1084	 0.424085014067762 
1085	 0.424218134461619 
1086	 0.424340171790753 
1087	 0.424451445928756 
1088	 0.424583512071603 
1089	 0.424715770519828 
1090	 0.424854538122308 
1091	 0.425002050172366 
1092	 0.42510761681551 
1093	 0.425213630806102 
1094	 0.425325694040632 
1095	 0.425407279486509 
1096	 0.42553641832928 
1097	 0.425674230978471 
1098	 0.42576285874212 
1099	 0.425868984779957 
1100	 0.425983589668844 
1101	 0.426079878132447 
1102	 0.426180672952617 
1103	 0.426287099492456 
1104	 0.426396110406516 
1105	 0.426509736719902 
1106	 0.426635555147937 
1107	 0.426762323571877 
1108	 0.426898857602441 
1109	 0.42702993699565 
1110	 0.427131007042312 
1111	 0.427232094784127 
1112	 0.42734831211789 
1113	 0.427455956743434 
1114	 0.427567066299681 
1115	 0.427689405191004 
1116	 0.427793936409863 
1117	 0.427873800445257 
1118	 0.427974181082085 
1119	 0.428096254071261 
1120	 0.428194854564803 
1121	 0.428284708488462 
1122	 0.428383996004457 
1123	 0.428469988975866 
1124	 0.428546471649449 
1125	 0.428664927487719 
1126	 0.428769287585384 
1127	 0.428879940470083 
1128	 0.42898801821127 
1129	 0.429031858540306 
1130	 0.429113094221711 
1131	 0.429196999148994 
1132	 0.429233179752569 
1133	 0.429319818346394 
1134	 0.429401713104734 
1135	 0.429468922338016 
1136	 0.429526793523883 
1137	 0.42960206000417 
1138	 0.42968035321568 
1139	 0.42974097924899 
1140	 0.42980278548582 
1141	 0.429856877009245 
1142	 0.429905183566644 
1143	 0.429946282974511 
1144	 0.429988340506663 
1145	 0.430016484892268 
1146	 0.430019721305991 
1147	 0.430033993979674 
1148	 0.430068973951752 
1149	 0.430113424389981 
1150	 0.430162365005612 
1151	 0.430210745813815 
1152	 0.430245220074386 
1153	 0.430275828185044 
1154	 0.430286408045571 
1155	 0.430262114227781 
1156	 0.430269387197834 
1157	 0.430275287375694 
1158	 0.43028972551562 
1159	 0.430322700028199 
1160	 0.43037289590266 
1161	 0.430383712418966 
1162	 0.430373599925262 
1163	 0.430370189323673 
1164	 0.430357437866574 
1165	 0.430367291865299 
1166	 0.430385403549808 
1167	 0.430404885372052 
1168	 0.430432812631752 
1169	 0.430440275188171 
1170	 0.430423386879315 
1171	 0.430434823759742 
1172	 0.430459587516374 
1173	 0.430460019832162 
1174	 0.430459336782366 
1175	 0.430468086799757 
1176	 0.430468817909661 
1177	 0.430459198110034 
1178	 0.430453497406634 
1179	 0.430453679806508 
1180	 0.430431154122057 
1181	 0.430408449958973 
1182	 0.430407930113963 
1183	 0.430406522491192 
1184	 0.430399482391416 
1185	 0.430395339558113 
1186	 0.430392098126642 
1187	 0.43038993377841 
1188	 0.430386609921144 
1189	 0.430384085722604 
1190	 0.430383505631527 
1191	 0.430374072869594 
1192	 0.43038669114572 
1193	 0.430408386590317 
1194	 0.430435958522127 
1195	 0.430477833209997 
1196	 0.430525442635371 
1197	 0.4305782599706 
1198	 0.430634754674286 
1199	 0.430716613088797 
1200	 0.430789509860784 
1201	 0.430853367059604 
1202	 0.430931356568174 
1203	 0.431006759435332 
1204	 0.431102638449607 
1205	 0.431224102120579 
1206	 0.431369097228751 
1207	 0.431533552991269 
1208	 0.431716575877554 
1209	 0.431923956644901 
1210	 0.432151231618193 
1211	 0.432408353964436 
1212	 0.432702735399779 
1213	 0.432999283557677 
1214	 0.433317206424512 
1215	 0.433648019230307 
1216	 0.433985559919765 
1217	 0.434338525596621 
1218	 0.434718361307453 
1219	 0.43510420285967 
1220	 0.435469732411335 
1221	 0.435863587156663 
1222	 0.436248850171134 
1223	 0.436628592440293 
1224	 0.437014920910373 
1225	 0.437418851345667 
1226	 0.437789623993257 
1227	 0.438148512908703 
1228	 0.438503208166839 
1229	 0.438857258184806 
1230	 0.439178221503545 
1231	 0.439478969496503 
1232	 0.439775176168237 
1233	 0.440033663585828 
1234	 0.440303713470512 
1235	 0.440594011467984 
1236	 0.440853808277436 
1237	 0.441090615744316 
1238	 0.44133117537101 
1239	 0.441551135080101 
1240	 0.441770598303667 
1241	 0.442035598403175 
1242	 0.442286681065226 
1243	 0.442533924172744 
1244	 0.442800428667811 
1245	 0.443032669857916 
1246	 0.443237363449511 
1247	 0.443451097723868 
1248	 0.443655581428705 
1249	 0.443864443163539 
1250	 0.444066592528452 
1251	 0.444280184388916 
1252	 0.444508647125224 
1253	 0.444719649230771 
1254	 0.444933611510556 
1255	 0.445137110034642 
1256	 0.445326171953993 
1257	 0.445512472106124 
1258	 0.445699251778929 
1259	 0.445874827349708 
1260	 0.446042561023024 
1261	 0.446199712771285 
1262	 0.446339299281761 
1263	 0.446485520992169 
1264	 0.446622011340227 
1265	 0.446742610084033 
1266	 0.446882216004429 
1267	 0.447027074229066 
1268	 0.447168882765394 
1269	 0.447309421849402 
1270	 0.447467282106203 
1271	 0.447644588152991 
1272	 0.44779181215935 
1273	 0.447940297050862 
1274	 0.448082665948285 
1275	 0.448189730476865 
1276	 0.448320825268904 
1277	 0.448465143048991 
1278	 0.448613379885273 
1279	 0.44876797522278 
1280	 0.448920378957666 
1281	 0.44906937621 
1282	 0.449235202905388 
1283	 0.449413594891477 
1284	 0.4495847422282 
1285	 0.449758878127423 
1286	 0.449948859888503 
1287	 0.450122924938109 
1288	 0.450283451803702 
1289	 0.450452165794731 
1290	 0.45062369630772 
1291	 0.45079310633703 
1292	 0.450957860913067 
1293	 0.451128004279921 
1294	 0.451305112302568 
1295	 0.451473024439586 
1296	 0.451634443225614 
1297	 0.451803330551233 
1298	 0.451964028819751 
1299	 0.452139268260452 
1300	 0.452341756342745 
1301	 0.452515931539787 
1302	 0.452678670680827 
1303	 0.452845232280443 
1304	 0.452990060480649 
1305	 0.453150200413386 
1306	 0.453319306063683 
1307	 0.453495357398756 
1308	 0.45366585094835 
1309	 0.453868558301768 
1310	 0.454046226663683 
1311	 0.454235464530611 
1312	 0.454391630369718 
1313	 0.454518737682735 
1314	 0.454670543116163 
1315	 0.454816121562775 
1316	 0.454967614396227 
1317	 0.455140137710372 
1318	 0.455288016708394 
1319	 0.455421829909996 
1320	 0.455556837924018 
1321	 0.455682418757096 
1322	 0.455812179668492 
1323	 0.455942741843234 
1324	 0.456069783855612 
1325	 0.456199098777015 
1326	 0.456320974566739 
1327	 0.456443264335691 
1328	 0.456552210584337 
1329	 0.456656256040122 
1330	 0.456747390743412 
1331	 0.456815258296197 
1332	 0.456892372132316 
1333	 0.456968764086624 
1334	 0.457040568947092 
1335	 0.457107739197745 
1336	 0.457176061981903 
1337	 0.45724192350923 
1338	 0.457305415304325 
1339	 0.457351969989621 
1340	 0.457394839060005 
1341	 0.457433644840985 
1342	 0.457454437525718 
1343	 0.457481088327487 
1344	 0.457520545491874 
1345	 0.457535861035203 
1346	 0.457534074471574 
1347	 0.457534168781541 
1348	 0.457523218921423 
1349	 0.457514370348518 
1350	 0.457509857094541 
1351	 0.457494214248579 
1352	 0.457475194803112 
1353	 0.457446327794893 
1354	 0.457404641300478 
1355	 0.457362305106504 
1356	 0.45730915460045 
1357	 0.457263252742123 
1358	 0.457216408512481 
1359	 0.457173291891373 
1360	 0.457138719205926 
1361	 0.457091746785627 
1362	 0.457066510239595 
1363	 0.457050511892155 
1364	 0.457036482620066 
1365	 0.457048242026749 
1366	 0.457013153966263 
1367	 0.456970120427132 
1368	 0.45689856155787 
1369	 0.456795848173069 
1370	 0.45668918424876 
1371	 0.456570298684154 
1372	 0.456435018026631 
1373	 0.456285770336378 
1374	 0.456121029372323 
1375	 0.455944148271266 
1376	 0.455743882572711 
1377	 0.455509313949916 
1378	 0.455290202445235 
1379	 0.455047687282082 
1380	 0.454828389909495 
1381	 0.454620771335585 
1382	 0.454423596782603 
1383	 0.454243088721522 
1384	 0.454057030737551 
1385	 0.45388129535721 
1386	 0.453702432562138 
1387	 0.453496825129624 
1388	 0.453333034379489 
1389	 0.453199163662445 
1390	 0.453062585810239 
1391	 0.452947018641573 
1392	 0.452835355079018 
1393	 0.452731282135374 
1394	 0.452627676704377 
1395	 0.452521265515332 
1396	 0.452444806611826 
1397	 0.452303623790707 
1398	 0.452142853917635 
1399	 0.451941033844546 
1400	 0.451698230153608 
1401	 0.451439215380896 
1402	 0.451154314011956 
1403	 0.450840344324457 
1404	 0.450504134613091 
1405	 0.450137151244067 
1406	 0.449715835403444 
1407	 0.449322509992343 
1408	 0.448911651453012 
1409	 0.448511229587388 
1410	 0.448114281452532 
1411	 0.447731492042963 
1412	 0.447336026100639 
1413	 0.446981717710108 
1414	 0.446650065781774 
1415	 0.446346060296344 
1416	 0.446082615046601 
1417	 0.445813346204211 
1418	 0.445570919400404 
1419	 0.445319940835686 
1420	 0.445051771862712 
1421	 0.444811551939515 
1422	 0.444582390741344 
1423	 0.444364968852935 
1424	 0.444162825150098 
1425	 0.443973311880038 
1426	 0.443817413903037 
1427	 0.443671494923271 
1428	 0.44354303666139 
1429	 0.443436254885804 
1430	 0.443309307689365 
1431	 0.443182364802163 
1432	 0.443034638734701 
1433	 0.442877195724742 
1434	 0.442713895677434 
1435	 0.442531063628945 
1436	 0.442357126748998 
1437	 0.442172929861996 
1438	 0.442016573314403 
1439	 0.441862823042026 
1440	 0.441729687994292 
1441	 0.44160673331627 
1442	 0.441522304450595 
1443	 0.441432883926365 
1444	 0.441425203042975 
1445	 0.441461143869454 
1446	 0.441564539276104 
1447	 0.441724111489976 
1448	 0.441949215235843 
1449	 0.442266850261165 
1450	 0.44258726746474 
1451	 0.442976909194786 
1452	 0.443354873538981 
1453	 0.443747492433989 
1454	 0.444139111067524 
1455	 0.444541309376402 
1456	 0.444945126369929 
1457	 0.445361888249634 
1458	 0.445763528586154 
1459	 0.446174923497882 
1460	 0.446562506517257 
1461	 0.446930165503121 
1462	 0.447284316879652 
1463	 0.447612634312368 
1464	 0.447945368906944 
1465	 0.448265963904745 
1466	 0.448594296101549 
1467	 0.448895083813634 
1468	 0.449210409292807 
1469	 0.44953667763853 
1470	 0.449837390983839 
1471	 0.450156276729823 
1472	 0.450491988797597 
1473	 0.450816820182385 
1474	 0.451143959760728 
1475	 0.451450250196623 
1476	 0.451759969874278 
1477	 0.452037679239969 
1478	 0.452287345287294 
1479	 0.45252779442484 
1480	 0.452751669177017 
1481	 0.452966747107998 
1482	 0.453166078392479 
1483	 0.453357201630954 
1484	 0.453532203703347 
1485	 0.453712731986189 
1486	 0.453885504786777 
1487	 0.454057989790868 
1488	 0.454221732519652 
1489	 0.454406110783381 
1490	 0.454587220968488 
1491	 0.454789812244805 
1492	 0.454994646889381 
1493	 0.455250120306975 
1494	 0.45554283490737 
1495	 0.455836986735584 
1496	 0.456167470027753 
1497	 0.456504988211018 
1498	 0.456854883596536 
1499	 0.457198214608609 
1500	 0.457573863018222 
1501	 0.457920490769093 
1502	 0.458239405789021 
1503	 0.458562368237427 
1504	 0.458875736562885 
1505	 0.459193494561704 
1506	 0.459518542867303 
1507	 0.459829332113674 
1508	 0.46014955232324 
1509	 0.460440485104784 
1510	 0.460708885140065 
1511	 0.460962446028795 
1512	 0.461190552342384 
1513	 0.461413705588713 
1514	 0.4616232416744 
1515	 0.461827014240488 
1516	 0.462020672797655 
1517	 0.462209393075322 
1518	 0.462396858724218 
1519	 0.462567588956714 
1520	 0.462729583624073 
1521	 0.462879936496821 
1522	 0.463006428945909 
1523	 0.463121966454349 
1524	 0.463229121711242 
1525	 0.463313604992375 
1526	 0.463426847840588 
1527	 0.463548637174213 
1528	 0.46365245355899 
1529	 0.463765326433842 
1530	 0.463860232569719 
1531	 0.463929130436543 
1532	 0.464015855325513 
1533	 0.464108333286771 
1534	 0.464199009419992 
1535	 0.46428525647779 
1536	 0.464383023050159 
1537	 0.464475920730766 
1538	 0.464602924682733 
1539	 0.464740484921742 
1540	 0.46490937601084 
1541	 0.465116502430059 
1542	 0.465314806589614 
1543	 0.465529262896285 
1544	 0.46574507677394 
1545	 0.465966111023011 
1546	 0.466188612028362 
1547	 0.46641830202463 
1548	 0.466651085004326 
1549	 0.46688049252172 
1550	 0.467124140833826 
1551	 0.467381414435835 
1552	 0.467636048548727 
1553	 0.467900956192225 
1554	 0.468155855067578 
1555	 0.468414853846347 
1556	 0.468657037988453 
1557	 0.468885798589538 
1558	 0.469117285674471 
1559	 0.46934362620187 
1560	 0.46956136489084 
1561	 0.469771671274065 
1562	 0.469987754076423 
1563	 0.47019368843591 
1564	 0.470408460080439 
1565	 0.470635537588293 
1566	 0.470856211652212 
1567	 0.471069084353814 
1568	 0.47129350012656 
1569	 0.471530659421064 
1570	 0.471754111542255 
1571	 0.47197888806572 
1572	 0.472197511424303 
1573	 0.47240328911924 
1574	 0.472612444760636 
1575	 0.472823502206967 
1576	 0.473031153544524 
1577	 0.473228483839219 
1578	 0.473438079787015 
1579	 0.473661747568221 
1580	 0.47386840296952 
1581	 0.474075252882516 
1582	 0.474275519865867 
1583	 0.474455316115062 
1584	 0.47464667416524 
1585	 0.47483914627115 
1586	 0.475039515480794 
1587	 0.475263921335147 
1588	 0.475454135583915 
1589	 0.475629066315032 
1590	 0.475805928069426 
1591	 0.475947349433997 
1592	 0.476118200314418 
1593	 0.47630748570678 
1594	 0.476501270821473 
1595	 0.476713524313236 
1596	 0.47691465742889 
1597	 0.477116973084781 
1598	 0.477319073414594 
1599	 0.477517351125902 
1600	 0.477712950291238 
1601	 0.477911659233482 
1602	 0.478105589556079 
1603	 0.478299567438153 
1604	 0.478479285022585 
1605	 0.478646128139912 
1606	 0.478817161197239 
1607	 0.478980753339309 
1608	 0.479140930632549 
1609	 0.479313100219242 
1610	 0.479466404727342 
1611	 0.47959896636789 
1612	 0.479734188686414 
1613	 0.47986083588094 
1614	 0.479985314879764 
1615	 0.480111678015979 
1616	 0.480230874790826 
1617	 0.480341820386867 
1618	 0.480452819733267 
1619	 0.480568563451369 
1620	 0.48066559804177 
1621	 0.480741180120269 
1622	 0.480832093233513 
1623	 0.480934863419572 
1624	 0.481006419735107 
1625	 0.481057269166846 
1626	 0.481130163777366 
1627	 0.481182785400713 
1628	 0.481250784218463 
1629	 0.481367118030026 
1630	 0.481447438145185 
1631	 0.481500625056994 
1632	 0.481560192496736 
1633	 0.481599492763054 
1634	 0.481662049091112 
1635	 0.481735548583315 
1636	 0.481814535532842 
1637	 0.481924231473903 
1638	 0.482005735740842 
1639	 0.48207295952864 
1640	 0.482142420893825 
1641	 0.482204072258076 
1642	 0.482257131495566 
1643	 0.482313302447467 
1644	 0.482356731315762 
1645	 0.482386261060242 
1646	 0.482403249053046 
1647	 0.482419339124237 
1648	 0.482412494436855 
1649	 0.482380155181415 
1650	 0.482342237810234 
1651	 0.482282858597621 
1652	 0.482227382577186 
1653	 0.482169527807583 
1654	 0.482107813161556 
1655	 0.482057259877644 
1656	 0.481969969416102 
1657	 0.481868981683912 
1658	 0.481740280663443 
1659	 0.481589282997778 
1660	 0.481408776922923 
1661	 0.481209992815554 
1662	 0.480970940557527 
1663	 0.480678212770421 
1664	 0.480380743721943 
1665	 0.480072538511997 
1666	 0.479714713994792 
1667	 0.479349273334945 
1668	 0.478919467450714 
1669	 0.47842279979342 
1670	 0.477900597185948 
1671	 0.477336287638367 
1672	 0.476729159088582 
1673	 0.476082692813223 
1674	 0.475396529940114 
1675	 0.474666815885944 
1676	 0.473910401220512 
1677	 0.473123420439255 
1678	 0.472296850287459 
1679	 0.471418674243735 
1680	 0.470520585723786 
1681	 0.469593779441187 
1682	 0.468622097709297 
1683	 0.467630786212164 
1684	 0.46659999180852 
1685	 0.46552228859097 
1686	 0.464401098912658 
1687	 0.463229451043279 
1688	 0.46203665666354 
1689	 0.460793404376142 
1690	 0.459535659377927 
1691	 0.458269841520689 
1692	 0.456975130637514 
1693	 0.455653762493059 
1694	 0.454302622135705 
1695	 0.452908265167822 
1696	 0.451506293504163 
1697	 0.450073532396208 
1698	 0.448626276948436 
1699	 0.44716042890677 
1700	 0.445748151200753 
1701	 0.444307596830013 
1702	 0.442949728081664 
1703	 0.441633220256584 
1704	 0.44037541434109 
1705	 0.439148045677796 
1706	 0.437998126933354 
1707	 0.436996242691401 
1708	 0.436041019498751 
1709	 0.435164731022105 
1710	 0.434402655257839 
1711	 0.433650936263539 
1712	 0.432950780936528 
1713	 0.432290777887207 
1714	 0.43161995106759 
1715	 0.431012065626129 
1716	 0.430437312780205 
1717	 0.429870560453844 
1718	 0.429367023854494 
1719	 0.4288933267686 
1720	 0.428452048498143 
1721	 0.428094556858629 
1722	 0.427778538987433 
1723	 0.42751472519506 
1724	 0.427354665904149 
1725	 0.427303029031258 
1726	 0.42738214095943 
1727	 0.427576927528321 
1728	 0.427858530088782 
1729	 0.428254636321553 
1730	 0.428770044203766 
1731	 0.429351862055225 
1732	 0.430032868602103 
1733	 0.430752234212685 
1734	 0.431451962526871 
1735	 0.432146095923863 
1736	 0.432806173413965 
1737	 0.433388844643836 
1738	 0.433882981658801 
1739	 0.434269544633546 
1740	 0.43455020535784 
1741	 0.434742612937837 
1742	 0.434813412423666 
1743	 0.43484524223046 
1744	 0.434770027791807 
1745	 0.434681963426258 
1746	 0.434523332571715 
1747	 0.434412051322514 
1748	 0.43425867820125 
1749	 0.43418316486924 
1750	 0.434146144430977 
1751	 0.434162019199902 
1752	 0.434220482585442 
1753	 0.434344502995633 
1754	 0.434516016585509 
1755	 0.434767581083387 
1756	 0.435075304317488 
1757	 0.435481531436207 
1758	 0.435988058491631 
1759	 0.43652398978825 
1760	 0.437155087809538 
1761	 0.437854010084792 
1762	 0.43855982864631 
1763	 0.43939733236246 
1764	 0.440273281933101 
1765	 0.441160150465986 
1766	 0.442148484430111 
1767	 0.443117536361088 
1768	 0.444101348447356 
1769	 0.445089848444602 
1770	 0.446005696481297 
1771	 0.446895998158707 
1772	 0.44772789943327 
1773	 0.448529875268117 
1774	 0.449310892332772 
1775	 0.449997987316166 
1776	 0.45068032412613 
1777	 0.451332515017513 
1778	 0.45188515009639 
1779	 0.4524385380701 
1780	 0.452947151327612 
1781	 0.453397139555071 
1782	 0.453847164550843 
1783	 0.454254152052117 
1784	 0.454629711125243 
1785	 0.454931900652671 
1786	 0.455227858636398 
1787	 0.45549727449709 
1788	 0.455758048773585 
1789	 0.455997559853232 
1790	 0.456257222717355 
1791	 0.456505246544783 
1792	 0.456764543804199 
1793	 0.457038203868888 
1794	 0.457285586681628 
1795	 0.45754636504374 
1796	 0.457750369006744 
1797	 0.457969862402125 
1798	 0.45821282325703 
1799	 0.4584462100949 
1800	 0.458702915190434 
1801	 0.452887471353397 
1802	 0.45315905035254 
1803	 0.453441617034611 
1804	 0.453725404508324 
1805	 0.454043247930409 
1806	 0.454325925996494 
1807	 0.45461009237868 
1808	 0.454886075574297 
1809	 0.455147938689574 
1810	 0.455403166526739 
1811	 0.45565884314087 
1812	 0.455906381029611 
1813	 0.456126221366076 
1814	 0.456369226219249 
1815	 0.45663000324903 
1816	 0.456891650960975 
1817	 0.457144618377 
1818	 0.457398555038061 
1819	 0.457653563352634 
1820	 0.457891224869639 
1821	 0.458149972214726 
1822	 0.458416054204087 
1823	 0.458713252659547 
1824	 0.458985088429409 
1825	 0.459267165910177 
1826	 0.459550328866074 
1827	 0.459839785564836 
1828	 0.460108009050629 
1829	 0.460382157418307 
1830	 0.460633405086968 
1831	 0.460855380744036 
1832	 0.461093823685042 
1833	 0.461319080141648 
1834	 0.461550697952602 
1835	 0.461791941161544 
1836	 0.462009531394686 
1837	 0.462239881854684 
1838	 0.46246820382905 
1839	 0.462704564035989 
1840	 0.462960632209714 
1841	 0.46319790666552 
1842	 0.463427222111387 
1843	 0.463661270792748 
1844	 0.463894730963788 
1845	 0.46409967797675 
1846	 0.464327605046311 
1847	 0.464541972049392 
1848	 0.46473120716621 
1849	 0.464901081231411 
1850	 0.465066304767139 
1851	 0.465216474261898 
1852	 0.465356888066379 
1853	 0.465493531155086 
1854	 0.465587551001138 
1855	 0.46562414343852 
1856	 0.465646158639645 
1857	 0.465647454278459 
1858	 0.465621733727723 
1859	 0.465586178055043 
1860	 0.465575555719284 
1861	 0.465475421573489 
1862	 0.465321224136922 
1863	 0.465152514549863 
1864	 0.46494544723968 
1865	 0.464693736192894 
1866	 0.464411807848109 
1867	 0.464106371316564 
1868	 0.463737878300205 
1869	 0.463291472226138 
1870	 0.462842991219692 
1871	 0.462377180496562 
1872	 0.461873973815481 
1873	 0.461334032464446 
1874	 0.460806336113069 
1875	 0.460233612102083 
1876	 0.459548100720768 
1877	 0.458881279017313 
1878	 0.458152408421044 
1879	 0.457316606759738 
1880	 0.456507112465202 
1881	 0.455621613444266 
1882	 0.454662764283837 
1883	 0.453651061740844 
1884	 0.45259902389175 
1885	 0.451389080736347 
1886	 0.450140462671068 
1887	 0.448807420938208 
1888	 0.447379539618873 
1889	 0.446023404162612 
1890	 0.444560116369745 
1891	 0.44305385342939 
1892	 0.441557284406498 
1893	 0.44001088002515 
1894	 0.438379430371236 
1895	 0.436807375653537 
1896	 0.435246951065183 
1897	 0.433702299352733 
1898	 0.432306082822454 
1899	 0.430938997252009 
1900	 0.429636565251732 
1901	 0.428442049884631 
1902	 0.427226140617111 
1903	 0.426116000536642 
1904	 0.425084575053569 
1905	 0.424121018610542 
1906	 0.42321680720778 
1907	 0.422446966091805 
1908	 0.421705422289461 
1909	 0.421010613638572 
1910	 0.420379455650481 
1911	 0.41975905889942 
1912	 0.419193193567411 
1913	 0.418652698662374 
1914	 0.418132865927853 
1915	 0.417663531337139 
1916	 0.417248351597056 
1917	 0.416840275419361 
1918	 0.41646754322067 
1919	 0.416119437467874 
1920	 0.415757331103109 
1921	 0.415435279345223 
1922	 0.415119698507623 
1923	 0.414817708435995 
1924	 0.414566047169523 
1925	 0.414323045001002 
1926	 0.414098774425016 
1927	 0.41390439348113 
1928	 0.413710596810291 
1929	 0.413522762329146 
1930	 0.41335643721252 
1931	 0.413200309778674 
1932	 0.413092623964627 
1933	 0.413023153229615 
1934	 0.412960767839248 
1935	 0.412919362683012 
1936	 0.41290000650575 
1937	 0.412931908946452 
1938	 0.41299614510021 
1939	 0.413101961361546 
1940	 0.413256075254546 
1941	 0.413448764871348 
1942	 0.413647189725382 
1943	 0.413883446442574 
1944	 0.414141749420658 
1945	 0.414418685246371 
1946	 0.41475163303539 
1947	 0.415085694092187 
1948	 0.415461019880664 
1949	 0.415888961663761 
1950	 0.416335803579858 
1951	 0.416825790019861 
1952	 0.417324997818271 
1953	 0.417840669749861 
1954	 0.418381246857208 
1955	 0.418975369301637 
1956	 0.41954977244321 
1957	 0.42017569911833 
1958	 0.420826229242309 
1959	 0.421400266650024 
1960	 0.421986363848098 
1961	 0.422544999132805 
1962	 0.423069377064123 
1963	 0.423582347840788 
1964	 0.424091114340578 
1965	 0.424562734248501 
1966	 0.425014125532411 
1967	 0.425433261504324 
1968	 0.425824901579338 
1969	 0.426206191990383 
1970	 0.426517732940609 
1971	 0.426827626114676 
1972	 0.427182603112457 
1973	 0.4275321766457 
1974	 0.427900954623575 
1975	 0.42832601196108 
1976	 0.428724461020033 
1977	 0.429097100640318 
1978	 0.429494783067532 
1979	 0.429898392154984 
1980	 0.430328767747271 
1981	 0.43078321837357 
1982	 0.431216993638019 
1983	 0.431666629855321 
1984	 0.432129962364991 
1985	 0.43255451822259 
1986	 0.433012309882133 
1987	 0.433493248733416 
1988	 0.433971780438155 
1989	 0.434504961986997 
1990	 0.435083938110538 
1991	 0.435673133274323 
1992	 0.436305577427864 
1993	 0.436954161437825 
1994	 0.437567890844297 
1995	 0.438227775098025 
1996	 0.438861318125597 
1997	 0.439493156013878 
1998	 0.440145744967965 
1999	 0.440817287644133 
2000	 0.441462567479393 
2001	 0.442149526769252 
2002	 0.442752121523887 
2003	 0.443309819527157 
2004	 0.443845820768599 
2005	 0.444318214163754 
2006	 0.44479460632798 
2007	 0.445271162234967 
2008	 0.445710285806308 
2009	 0.446113870343986 
2010	 0.446502145482818 
2011	 0.446847296578295 
2012	 0.447189200979243 
2013	 0.447499237285194 
2014	 0.44779227919783 
2015	 0.448056280788549 
2016	 0.448306551770277 
2017	 0.448496586689736 
2018	 0.448651122615274 
2019	 0.448769834172425 
2020	 0.448835449383402 
2021	 0.44886532750442 
2022	 0.448873253061661 
2023	 0.448871538376945 
2024	 0.448850995479086 
2025	 0.448814050375162 
2026	 0.448759126061435 
2027	 0.448688066051306 
2028	 0.448604313266154 
2029	 0.448501033728557 
2030	 0.448385886982913 
2031	 0.448257907232196 
2032	 0.448121749421047 
2033	 0.447947945271275 
2034	 0.44779859850198 
2035	 0.447648005147706 
2036	 0.447514335878725 
2037	 0.447386899034845 
2038	 0.44726610136303 
2039	 0.447155521321656 
2040	 0.447052960100011 
2041	 0.446947878991427 
2042	 0.446854774512696 
2043	 0.446762631564367 
2044	 0.44667716177318 
2045	 0.446577958886957 
2046	 0.446469379022817 
2047	 0.446371218615474 
2048	 0.446257404616774 
2049	 0.446163668760269 
2050	 0.446085872948413 
2051	 0.446025502338815 
2052	 0.445963508809518 
2053	 0.44588997224061 
2054	 0.445828645248047 
2055	 0.445773167715803 
2056	 0.445720202720926 
2057	 0.445674076380917 
2058	 0.445627178306309 
2059	 0.445584940773287 
2060	 0.445534697492341 
2061	 0.445477985368274 
2062	 0.445431120048188 
2063	 0.445376160129898 
2064	 0.445337038460977 
2065	 0.445320931127446 
2066	 0.445295848385127 
2067	 0.445248689409215 
2068	 0.445223409089882 
2069	 0.445186105822447 
2070	 0.445128094017515 
2071	 0.445090244604101 
2072	 0.445070590643187 
2073	 0.44503463354453 
2074	 0.444995664175268 
2075	 0.444960611715891 
2076	 0.444916428603782 
2077	 0.444879898152275 
2078	 0.44485356126274 
2079	 0.444821672387585 
2080	 0.44478783937817 
2081	 0.444757879181196 
2082	 0.444735820278634 
2083	 0.44470847139163 
2084	 0.444654102830841 
2085	 0.444580407982427 
2086	 0.444523797944254 
2087	 0.44444662908252 
2088	 0.444386560500407 
2089	 0.444365719869379 
2090	 0.4443022722131 
2091	 0.444214058585272 
2092	 0.444131682698119 
2093	 0.444036226046983 
2094	 0.443940667090566 
2095	 0.443853201169498 
2096	 0.443746683406549 
2097	 0.443624207957838 
2098	 0.4434976054493 
2099	 0.443389588217663 
2100	 0.44325113739189 
2101	 0.443087760199717 
2102	 0.442913029175623 
2103	 0.442726594160329 
2104	 0.442485412142157 
2105	 0.442297809432437 
2106	 0.442134421705532 
2107	 0.441958665553002 
2108	 0.441805048033498 
2109	 0.441625224677264 
2110	 0.441431072041151 
2111	 0.441233817882462 
2112	 0.441013194050245 
2113	 0.440808562499338 
2114	 0.440620551924284 
2115	 0.44041276717282 
2116	 0.440214625776075 
2117	 0.439992818738318 
2118	 0.439748842260892 
2119	 0.439463290012485 
2120	 0.43922371364863 
2121	 0.438972782599787 
2122	 0.438756113294211 
2123	 0.438584401741509 
2124	 0.438383287030615 
2125	 0.438183772752239 
2126	 0.437984398390965 
2127	 0.437772072224375 
2128	 0.437576762438902 
2129	 0.437383139323033 
2130	 0.437205066298464 
2131	 0.43704010966006 
2132	 0.436882216812145 
2133	 0.436739375238377 
2134	 0.436604898484261 
2135	 0.436464588408563 
2136	 0.436322957922727 
2137	 0.43618287530395 
2138	 0.4360347580905 
2139	 0.435905155745094 
2140	 0.435785627473351 
2141	 0.435668920027444 
2142	 0.435566376941162 
2143	 0.435452254590897 
2144	 0.435329696462794 
2145	 0.435221239723108 
2146	 0.435103327608343 
2147	 0.435016068985494 
2148	 0.434958060817414 
2149	 0.434892831992678 
2150	 0.434837871971562 
2151	 0.434788351253941 
2152	 0.434746891537556 
2153	 0.43470148763206 
2154	 0.43464785230025 
2155	 0.434611923385751 
2156	 0.43455404662651 
2157	 0.434479215705588 
2158	 0.43441153803776 
2159	 0.434354006522066 
2160	 0.434256018202147 
2161	 0.434140855084175 
2162	 0.43401738194264 
2163	 0.433860794438483 
2164	 0.433718492487002 
2165	 0.433584015719577 
2166	 0.433432000287018 
2167	 0.433257198377725 
2168	 0.433098625027734 
2169	 0.432946958928124 
2170	 0.432782737224282 
2171	 0.432598116330034 
2172	 0.432453680823882 
2173	 0.432338496917715 
2174	 0.432187836300897 
2175	 0.432075006284166 
2176	 0.431980390481091 
2177	 0.43186112117382 
2178	 0.431720325760293 
2179	 0.431591025704981 
2180	 0.431461589264544 
2181	 0.431339267675117 
2182	 0.431215678299559 
2183	 0.43109782510765 
2184	 0.430999534468987 
2185	 0.43087721378716 
2186	 0.430762322061258 
2187	 0.430606532140796 
2188	 0.430405684371565 
2189	 0.430233660951027 
2190	 0.430043172041128 
2191	 0.429863683391171 
2192	 0.429718399863261 
2193	 0.42954337179484 
2194	 0.429329969987217 
2195	 0.429150247132351 
2196	 0.428961393167276 
2197	 0.428813574676794 
2198	 0.4286926471519 
2199	 0.428546655292393 
2200	 0.428378742293035 
2201	 0.42820808396277 
2202	 0.427989532307414 
2203	 0.42771297859028 
2204	 0.427488795379536 
2205	 0.427258675766347 
2206	 0.427029833416769 
2207	 0.426826843326961 
2208	 0.426612207730458 
2209	 0.426361263136285 
2210	 0.426158803944626 
2211	 0.425988261725011 
2212	 0.425819808874604 
2213	 0.42568382746487 
2214	 0.425521436881094 
2215	 0.42534976349838 
2216	 0.425188409611602 
2217	 0.425030068901466 
2218	 0.424858813231997 
2219	 0.424691608908931 
2220	 0.42451768911266 
2221	 0.424329027549512 
2222	 0.424149072909478 
2223	 0.423922035290646 
2224	 0.423658373524435 
2225	 0.423384748253116 
2226	 0.423060815684271 
2227	 0.42271649470709 
2228	 0.422379159422484 
2229	 0.421962430659637 
2230	 0.421486308790873 
2231	 0.420968331123248 
2232	 0.420414192362476 
2233	 0.419792062158945 
2234	 0.419143058128392 
2235	 0.418357488380486 
2236	 0.417477902769483 
2237	 0.416533365205802 
2238	 0.415432360509664 
2239	 0.414365816151577 
2240	 0.413300143333789 
2241	 0.412125740079007 
2242	 0.410944830484491 
2243	 0.40961918983043 
2244	 0.408140875755555 
2245	 0.40664919767178 
2246	 0.405007348967839 
2247	 0.403411258414986 
2248	 0.401840406143603 
2249	 0.400186405878167 
2250	 0.398481768121792 
2251	 0.396814223354869 
2252	 0.394956603420858 
2253	 0.393142946245729 
2254	 0.391346250456408 
2255	 0.38951486087433 
2256	 0.387820048448716 
2257	 0.386112111838751 
2258	 0.38444865180693 
2259	 0.382840849626767 
2260	 0.381215074126653 
2261	 0.379587394476654 
2262	 0.378024577299742 
2263	 0.376460750025558 
2264	 0.374981627229432 
2265	 0.373600141188769 
2266	 0.372182745377972 
2267	 0.370822379080901 
2268	 0.369413949087271 
2269	 0.367958134804283 
2270	 0.366575129763101 
2271	 0.365172355997603 
2272	 0.363847434695723 
2273	 0.362629920192867 
2274	 0.361361378676367 
2275	 0.360163840728019 
2276	 0.358872218086498 
2277	 0.35751511594154 
2278	 0.356164540826694 
2279	 0.354741389212476 
2280	 0.353343816192495 
2281	 0.351997818225895 
2282	 0.350574731987484 
2283	 0.349107805440462 
2284	 0.347669654413906 
2285	 0.346075108804401 
2286	 0.344462730172564 
2287	 0.342814331616715 
2288	 0.341102389714822 
2289	 0.339498579326709 
2290	 0.337856116732299 
2291	 0.336243975416031 
2292	 0.334652316038405 
2293	 0.3329568823662 
2294	 0.331370721889202 
2295	 0.329909124544201 
2296	 0.328528184835964 
2297	 0.327354912238825 
2298	 0.326357182723132 
2299	 0.325562068603588 
2300	 0.324914894416806 
2301	 0.324536152909114 
2302	 0.324409961630343 
2303	 0.324497686428812 
2304	 0.324836560466667 
2305	 0.325344827921618 
2306	 0.326117407765102 
2307	 0.327012119936286 
2308	 0.328079449672322 
2309	 0.329329724178713 
2310	 0.330832964202981 
2311	 0.33233689124583 
2312	 0.334088432525618 
2313	 0.335715341389637 
2314	 0.337369451441843 
2315	 0.33898186781385 
2316	 0.340604551660125 
2317	 0.342081538725289 
2318	 0.34357045183595 
2319	 0.344798282627225 
2320	 0.345857261698068 
2321	 0.346765763393142 
2322	 0.347462838581139 
2323	 0.348032239603749 
2324	 0.348429357847614 
2325	 0.348697669563811 
2326	 0.348814120698855 
2327	 0.348786740848766 
2328	 0.348595429247719 
2329	 0.348293570765117 
2330	 0.347824464149543 
2331	 0.347232515300696 
2332	 0.346612688350013 
2333	 0.345886241671557 
2334	 0.345008186016731 
2335	 0.344050425191152 
2336	 0.342978119008664 
2337	 0.341817977513412 
2338	 0.340674746141556 
2339	 0.33956223967438 
2340	 0.338508805668285 
2341	 0.337476502259711 
2342	 0.336501655062386 
2343	 0.335739254245382 
2344	 0.335142958966322 
2345	 0.334819116812012 
2346	 0.334859591582837 
2347	 0.33507504643915 
2348	 0.3354657905527 
2349	 0.336193568490772 
2350	 0.337104701669479 
2351	 0.338147992065059 
2352	 0.339344768399733 
2353	 0.340568605517654 
2354	 0.341672066409525 
2355	 0.342752210943581 
2356	 0.34375534552345 
2357	 0.344569515571499 
2358	 0.345330439739501 
2359	 0.345883606967419 
2360	 0.34629933606818 
2361	 0.346652106289952 
2362	 0.346870391437464 
2363	 0.347059414272825 
2364	 0.347190117104253 
2365	 0.347216478937145 
2366	 0.347193703366118 
2367	 0.347143568445246 
2368	 0.347110593987116 
2369	 0.347120049871739 
2370	 0.347115263160473 
2371	 0.347119804584366 
2372	 0.347101400204696 
2373	 0.347043900043185 
2374	 0.347069766877467 
2375	 0.347119854594053 
2376	 0.347196481589317 
2377	 0.3473360137213 
2378	 0.347455770498971 
2379	 0.347590069022596 
2380	 0.347753181218895 
2381	 0.347872303522294 
2382	 0.347987981167255 
2383	 0.348069789312102 
2384	 0.348220649755024 
2385	 0.348392066632 
2386	 0.348558078480326 
2387	 0.3487996158618 
2388	 0.348917958936361 
2389	 0.348955448999983 
2390	 0.349029790379639 
2391	 0.349050516725549 
2392	 0.349126019431354 
2393	 0.349220851616662 
2394	 0.349349206115828 
2395	 0.349517968367314 
2396	 0.349652228163451 
2397	 0.349818884295839 
2398	 0.349959248167388 
2399	 0.350076246116829 
2400	 0.350178508928039 
2401	 0.350266084593018 
2402	 0.350319163954874 
2403	 0.350360044877944 
2404	 0.35045782696086 
2405	 0.350621477237761 
2406	 0.350826079616861 
2407	 0.350967634711385 
2408	 0.351029062987202 
2409	 0.351041524480347 
2410	 0.351014863963237 
2411	 0.350991766588542 
2412	 0.350997278316674 
2413	 0.351022354293041 
2414	 0.351068457809806 
2415	 0.351186070915228 
2416	 0.351193283559494 
2417	 0.351156526403676 
2418	 0.351247531415141 
2419	 0.351301223038509 
2420	 0.351433419270589 
2421	 0.351644640132804 
2422	 0.351740989880483 
2423	 0.35171359958769 
2424	 0.351651706439155 
2425	 0.351615734083155 
2426	 0.351503178990693 
2427	 0.351465844323196 
2428	 0.351527803069633 
2429	 0.351584432107543 
2430	 0.351724098359794 
2431	 0.351856187543073 
2432	 0.351896821581093 
2433	 0.35187859437869 
2434	 0.351921946428753 
2435	 0.351989891483822 
2436	 0.351978804456898 
2437	 0.351972582691368 
2438	 0.351916999602048 
2439	 0.351756370834005 
2440	 0.35163068808005 
2441	 0.35156399698677 
2442	 0.351472444356548 
2443	 0.351255089602679 
2444	 0.350966954372683 
2445	 0.350715256768577 
2446	 0.350452453251789 
2447	 0.350233044030433 
2448	 0.350121855314593 
2449	 0.349963609740107 
2450	 0.349693695206428 
2451	 0.349444840999389 
2452	 0.349130620233588 
2453	 0.348880431409697 
2454	 0.348809569419233 
2455	 0.348634326805031 
2456	 0.348285997956633 
2457	 0.347899603039176 
2458	 0.347530250970066 
2459	 0.347269431738178 
2460	 0.34720820043936 
2461	 0.346969521216916 
2462	 0.346521416295987 
2463	 0.346145650477377 
2464	 0.345763460358422 
2465	 0.345629222815969 
2466	 0.345746464473942 
2467	 0.345627823172075 
2468	 0.345325142504618 
2469	 0.345130161582839 
2470	 0.344907969035972 
2471	 0.344704662173192 
2472	 0.344759612454365 
2473	 0.344984053182009 
2474	 0.344985054393274 
2475	 0.344813499049411 
2476	 0.344786490136419 
2477	 0.344596192661535 
2478	 0.344373904779179 
2479	 0.344434071045661 
2480	 0.344580504434707 
2481	 0.344608808382862 
2482	 0.344656669213067 
2483	 0.34461658826132 
2484	 0.344533586645818 
2485	 0.344576130650011 
2486	 0.344839066517833 
2487	 0.345080913368684 
2488	 0.345328275990133 
2489	 0.345697386887615 
2490	 0.346083696638571 
2491	 0.346382040088894 
2492	 0.346640933647827 
2493	 0.346823386324219 
2494	 0.347003656820282 
2495	 0.347276347761 
2496	 0.347737691092324 
2497	 0.348422589090397 
2498	 0.348933404594708 
2499	 0.349326848269058 
2500	 0.349643868527429 
