Wavelength	spectrum00017.asd
350	 2.94107372804101E-02 
351	 2.99288628517855E-02 
352	 2.76695019173631E-02 
353	 2.54008353596744E-02 
354	 2.96247893419407E-02 
355	 2.98615386817074E-02 
356	 0.0280930834037 
357	 2.76212249042655E-02 
358	 2.67048647498952E-02 
359	 2.59389802266035E-02 
360	 0.02613076667429 
361	 2.77693751429131E-02 
362	 2.84911451914335E-02 
363	 2.77963367863035E-02 
364	 2.62630087234673E-02 
365	 2.54960337507961E-02 
366	 2.60148243720132E-02 
367	 2.61527248030354E-02 
368	 2.49163192455652E-02 
369	 2.52484047404718E-02 
370	 2.59092844469004E-02 
371	 2.65086191726702E-02 
372	 2.71155658492247E-02 
373	 2.72471762899234E-02 
374	 2.73692113328322E-02 
375	 2.76524150017443E-02 
376	 2.76954929353514E-02 
377	 2.80385577280609E-02 
378	 0.028356428818149 
379	 2.81396096595148E-02 
380	 0.026810485326737 
381	 2.72167049547397E-02 
382	 2.83772348722636E-02 
383	 2.74136934453227E-02 
384	 2.76250623988587E-02 
385	 2.79735266625121E-02 
386	 2.77654689430165E-02 
387	 2.75821886879986E-02 
388	 2.73602291159926E-02 
389	 2.74169977109207E-02 
390	 2.78078961654697E-02 
391	 2.73293427013017E-02 
392	 2.69863799126138E-02 
393	 2.71586822696794E-02 
394	 2.76974406333996E-02 
395	 2.81076729024882E-02 
396	 2.80670780809917E-02 
397	 2.77243198514482E-02 
398	 2.79193664695131E-02 
399	 2.81335183974265E-02 
400	 2.80762643813103E-02 
401	 2.77003970666108E-02 
402	 2.75838812581454E-02 
403	 2.79140187846977E-02 
404	 2.82394558677823E-02 
405	 2.77859430547637E-02 
406	 2.78337812613698E-02 
407	 2.81406003120154E-02 
408	 2.83549505143609E-02 
409	 2.84044536647523E-02 
410	 2.80173737544819E-02 
411	 2.77578091814801E-02 
412	 2.81592048188188E-02 
413	 2.82109053120583E-02 
414	 0.027931900785831 
415	 2.76766120644698E-02 
416	 2.79806647365463E-02 
417	 0.027824373984407 
418	 2.77445831596768E-02 
419	 2.80761208300231E-02 
420	 2.80563525794839E-02 
421	 2.78317300698463E-02 
422	 2.77111382669861E-02 
423	 0.027957584662805 
424	 2.80484681773389E-02 
425	 2.80143476034751E-02 
426	 2.79452119175751E-02 
427	 2.79400905196469E-02 
428	 2.78076389073742E-02 
429	 2.77384095406661E-02 
430	 2.78367190655296E-02 
431	 2.76600584358557E-02 
432	 2.77223924343846E-02 
433	 2.79070869280069E-02 
434	 2.77987731884387E-02 
435	 2.77814680327418E-02 
436	 2.79082315783644E-02 
437	 2.80662098573635E-02 
438	 2.79386530604123E-02 
439	 2.79574217811664E-02 
440	 0.027966180732629 
441	 2.77820592566321E-02 
442	 2.78679258062726E-02 
443	 2.79510494696001E-02 
444	 2.79430345517288E-02 
445	 0.027926414964751 
446	 2.79584882960663E-02 
447	 2.79285881841024E-02 
448	 2.78167689441592E-02 
449	 2.78644162088479E-02 
450	 2.79580210069787E-02 
451	 2.79853428237031E-02 
452	 0.027882205875485 
453	 2.78845143099014E-02 
454	 0.027938619499398 
455	 2.79711080358211E-02 
456	 2.79155684187319E-02 
457	 2.79095564135191E-02 
458	 2.79207548682146E-02 
459	 2.79131512499174E-02 
460	 2.79648479275001E-02 
461	 2.80221804698233E-02 
462	 2.79989222405884E-02 
463	 0.027842419790067 
464	 2.79378117383761E-02 
465	 2.80514643312351E-02 
466	 2.80187140819702E-02 
467	 0.027885190991583 
468	 2.78566759653154E-02 
469	 2.78763949358947E-02 
470	 2.78448878146065E-02 
471	 0.027866112734395 
472	 2.78544036794793E-02 
473	 0.027810616292953 
474	 2.78039354457158E-02 
475	 2.77666782499666E-02 
476	 2.77800407061644E-02 
477	 2.78631916409578E-02 
478	 2.78524090775303E-02 
479	 2.77849009452814E-02 
480	 2.77458421585785E-02 
481	 2.78088960924228E-02 
482	 2.78281724227349E-02 
483	 2.78152084925951E-02 
484	 2.77983934744603E-02 
485	 2.78104068132244E-02 
486	 2.78778724350311E-02 
487	 2.78760321321774E-02 
488	 2.77467330624464E-02 
489	 2.77282860458642E-02 
490	 2.78041085491241E-02 
491	 2.79013284045382E-02 
492	 2.79234445121061E-02 
493	 0.027914383320732 
494	 2.79312015190187E-02 
495	 2.79728629807759E-02 
496	 2.79395368482161E-02 
497	 2.78950302987622E-02 
498	 2.78680490138696E-02 
499	 2.78675034596293E-02 
500	 2.78678940733305E-02 
501	 2.78351047469639E-02 
502	 0.02778252141077 
503	 2.77663381574708E-02 
504	 2.78552743831618E-02 
505	 2.79267280164478E-02 
506	 2.78998357099194E-02 
507	 2.78746441393427E-02 
508	 2.78460638899626E-02 
509	 2.78155646406811E-02 
510	 2.77940096747737E-02 
511	 2.78657525614344E-02 
512	 2.78642815203501E-02 
513	 2.77922227382463E-02 
514	 2.78969745261789E-02 
515	 2.78746226700767E-02 
516	 2.77719896470807E-02 
517	 2.77118595178931E-02 
518	 2.77429864815104E-02 
519	 2.77775523643419E-02 
520	 2.77926558085384E-02 
521	 2.78107666648079E-02 
522	 2.77893925652729E-02 
523	 2.77713211302942E-02 
524	 0.027777260509176 
525	 2.77598430928516E-02 
526	 2.77450498529309E-02 
527	 2.77685746901968E-02 
528	 2.78422749164955E-02 
529	 2.78334932245327E-02 
530	 2.77917450585918E-02 
531	 2.77740062574815E-02 
532	 2.78275767486347E-02 
533	 2.78064841838239E-02 
534	 2.77791977113704E-02 
535	 2.78104027487197E-02 
536	 2.78130574766094E-02 
537	 2.78001875479187E-02 
538	 2.77735744645046E-02 
539	 2.77353495652944E-02 
540	 2.77370180215176E-02 
541	 2.77500467897121E-02 
542	 2.77540824412846E-02 
543	 2.77580380865019E-02 
544	 2.77585528918013E-02 
545	 2.77449090530626E-02 
546	 2.77181387251924E-02 
547	 2.77423120164613E-02 
548	 2.77543114386718E-02 
549	 2.77406638356636E-02 
550	 2.77365851868835E-02 
551	 2.77415614671341E-02 
552	 2.77549089677052E-02 
553	 2.77680477990268E-02 
554	 2.77509092123961E-02 
555	 2.77567717077096E-02 
556	 2.77677641659102E-02 
557	 2.77441932143924E-02 
558	 2.77608222017519E-02 
559	 2.77820667546818E-02 
560	 2.77768360264507E-02 
561	 2.77341437393785E-02 
562	 2.77207037675866E-02 
563	 2.77248577504599E-02 
564	 2.77203938819094E-02 
565	 2.77200806411417E-02 
566	 2.77183714079831E-02 
567	 0.027713699860432 
568	 2.77081861082574E-02 
569	 2.77071278571706E-02 
570	 2.77091673318121E-02 
571	 2.77167315685096E-02 
572	 2.77456891633163E-02 
573	 2.77631918155303E-02 
574	 2.77640672077634E-02 
575	 2.77540364845109E-02 
576	 2.77319929420399E-02 
577	 2.76839611992157E-02 
578	 2.76438427983374E-02 
579	 0.027696431875456 
580	 0.02771118510357 
581	 2.77092106844729E-02 
582	 2.77241048787329E-02 
583	 2.77103437306494E-02 
584	 2.76878148549541E-02 
585	 2.76970224891793E-02 
586	 2.77696216515458E-02 
587	 2.77419097198453E-02 
588	 2.77177934368552E-02 
589	 2.77459011200928E-02 
590	 2.77318309465796E-02 
591	 2.77012484892156E-02 
592	 2.76981090673718E-02 
593	 2.77409221421295E-02 
594	 2.77034312935383E-02 
595	 2.76898833177345E-02 
596	 2.77050101839251E-02 
597	 2.76651890125102E-02 
598	 0.027641049848336 
599	 2.76540210563273E-02 
600	 2.76908318678277E-02 
601	 0.027675762934281 
602	 2.76728900223972E-02 
603	 2.76759524899824E-02 
604	 2.76557248811598E-02 
605	 2.76441611865529E-02 
606	 2.76442121373055E-02 
607	 2.76549928855451E-02 
608	 0.027674253327574 
609	 2.76410121502328E-02 
610	 2.76083801244435E-02 
611	 2.76290596345874E-02 
612	 2.76585398140278E-02 
613	 2.76520311265695E-02 
614	 2.76304938043239E-02 
615	 2.76493820168654E-02 
616	 2.76330613056272E-02 
617	 0.027615513266545 
618	 2.76244538499518E-02 
619	 2.76552294236444E-02 
620	 2.76355089730908E-02 
621	 2.76070765652403E-02 
622	 2.76249011967743E-02 
623	 2.75969450648111E-02 
624	 0.027598600270103 
625	 2.76222288870272E-02 
626	 2.75838610320684E-02 
627	 2.75944224839311E-02 
628	 2.76072964424293E-02 
629	 0.02758304305697 
630	 2.75739645584488E-02 
631	 2.75694771042008E-02 
632	 2.75721466334286E-02 
633	 2.75867931259599E-02 
634	 2.76065016912383E-02 
635	 2.75975835128137E-02 
636	 2.75661619270758E-02 
637	 2.75689128963864E-02 
638	 2.75498185677089E-02 
639	 2.75262346795378E-02 
640	 2.75239906215077E-02 
641	 2.75400758201335E-02 
642	 2.75295484528177E-02 
643	 2.75154538265282E-02 
644	 2.75504394307063E-02 
645	 0.027532175469181 
646	 2.75142369826755E-02 
647	 2.75251539983068E-02 
648	 0.027520382221236 
649	 2.75292352088545E-02 
650	 2.75363825622384E-02 
651	 2.75218458777787E-02 
652	 2.75029155349243E-02 
653	 2.74890222083629E-02 
654	 2.74838555025505E-02 
655	 2.74862334631125E-02 
656	 0.027501208284313 
657	 2.74994058326004E-02 
658	 2.74715598839791E-02 
659	 0.027459719755569 
660	 2.74575509209999E-02 
661	 2.74619110326279E-02 
662	 2.74686356823724E-02 
663	 2.74752576157568E-02 
664	 2.74522473336416E-02 
665	 2.74186063794413E-02 
666	 0.027438797689223 
667	 2.74410922566978E-02 
668	 2.74345057870818E-02 
669	 0.027437278355405 
670	 2.74521273336347E-02 
671	 2.74379640092743E-02 
672	 2.74124978090916E-02 
673	 2.74142896665624E-02 
674	 2.74151219907074E-02 
675	 2.74232505600912E-02 
676	 2.74285111310282E-02 
677	 0.027396738011794 
678	 2.73895425513052E-02 
679	 2.73937725131762E-02 
680	 2.73893667383088E-02 
681	 2.73941957377475E-02 
682	 2.73906060738427E-02 
683	 2.73881538903025E-02 
684	 2.74038121754218E-02 
685	 2.73846975952571E-02 
686	 0.027360689093518 
687	 0.027355854863004 
688	 2.73739309429214E-02 
689	 2.73610926023646E-02 
690	 2.73370507029671E-02 
691	 2.73322384600363E-02 
692	 0.027339497859071 
693	 2.73424381934288E-02 
694	 2.73463819933017E-02 
695	 2.73643518696844E-02 
696	 2.73399770366494E-02 
697	 0.027315273685189 
698	 2.73156567918462E-02 
699	 2.73220353354298E-02 
700	 2.73227814208866E-02 
701	 2.73209679030214E-02 
702	 2.73217212932793E-02 
703	 2.73173440662007E-02 
704	 2.73126635350963E-02 
705	 2.73055169706161E-02 
706	 0.027292028741574 
707	 2.73071991490958E-02 
708	 2.73082742921678E-02 
709	 2.72806932919885E-02 
710	 2.72720941255054E-02 
711	 2.72894168311678E-02 
712	 2.73030498121246E-02 
713	 2.72885047160021E-02 
714	 2.72918646173998E-02 
715	 0.027303170150108 
716	 2.73055793402401E-02 
717	 2.72839265377378E-02 
718	 2.72874189739891E-02 
719	 2.72873374592361E-02 
720	 0.027272570009792 
721	 2.72804839363604E-02 
722	 2.72855434654871E-02 
723	 2.72779864659043E-02 
724	 2.72615469437726E-02 
725	 2.72744322948707E-02 
726	 2.72715630506288E-02 
727	 2.72642599155518E-02 
728	 2.72951621280386E-02 
729	 2.72769862899555E-02 
730	 2.72571987270576E-02 
731	 2.72672055655804E-02 
732	 2.72833542669673E-02 
733	 2.72810465338373E-02 
734	 2.72723940150314E-02 
735	 2.72742742107359E-02 
736	 2.72734898603582E-02 
737	 0.027270464469617 
738	 2.72672071963436E-02 
739	 2.72670322018415E-02 
740	 2.72763714132962E-02 
741	 2.72780160799634E-02 
742	 2.72677996453019E-02 
743	 2.72649064147517E-02 
744	 0.027258964371936 
745	 2.72529075757002E-02 
746	 2.72541128958771E-02 
747	 2.72769341986442E-02 
748	 0.027276084871012 
749	 2.72595861989909E-02 
750	 2.72623614217701E-02 
751	 2.72593700335714E-02 
752	 2.72591792189674E-02 
753	 2.72636583862269E-02 
754	 2.72622869617994E-02 
755	 2.72713114311137E-02 
756	 2.72763512635698E-02 
757	 2.72662085673005E-02 
758	 2.72576754601701E-02 
759	 2.72621013856053E-02 
760	 0.027264438677486 
761	 2.72447264698561E-02 
762	 2.72404479338981E-02 
763	 2.72379281391849E-02 
764	 2.72385822721067E-02 
765	 2.72612041156444E-02 
766	 2.72567907161753E-02 
767	 2.72454306199054E-02 
768	 2.72455047982918E-02 
769	 0.027238478422608 
770	 2.72334074948326E-02 
771	 2.72358872696778E-02 
772	 2.72461843380499E-02 
773	 2.72468459842349E-02 
774	 2.72369005149173E-02 
775	 2.72277018478513E-02 
776	 0.027236227249439 
777	 2.72300215278919E-02 
778	 2.72326418627688E-02 
779	 2.72466275521078E-02 
780	 2.72250118541901E-02 
781	 2.72308792347999E-02 
782	 2.72381412300035E-02 
783	 0.027217910101303 
784	 2.72258294100486E-02 
785	 2.72297592625415E-02 
786	 2.72296811394228E-02 
787	 2.72398163165045E-02 
788	 2.72322660145253E-02 
789	 0.027216341056903 
790	 0.02720583236171 
791	 2.72138968905315E-02 
792	 2.72241267415877E-02 
793	 2.72209537509978E-02 
794	 2.72046251830254E-02 
795	 0.02721134598538 
796	 2.72248417217474E-02 
797	 2.72361310206933E-02 
798	 2.72365176665132E-02 
799	 2.72059748148858E-02 
800	 2.72030208697281E-02 
801	 0.027219994450107 
802	 2.72020930662167E-02 
803	 2.71975570604134E-02 
804	 2.71937551372436E-02 
805	 2.71864977097289E-02 
806	 2.71954275790381E-02 
807	 2.72161933973464E-02 
808	 2.72142462141394E-02 
809	 2.71765129695229E-02 
810	 2.71705116866292E-02 
811	 2.71930228993238E-02 
812	 0.027203731950618 
813	 0.02716739100853 
814	 2.71827405207948E-02 
815	 2.72017413449156E-02 
816	 2.72019148510473E-02 
817	 2.71937026126648E-02 
818	 2.71988604478982E-02 
819	 2.71875659391813E-02 
820	 2.71634345841093E-02 
821	 2.71965020643266E-02 
822	 2.72058994994336E-02 
823	 2.71975182897949E-02 
824	 2.71928287984782E-02 
825	 2.71826603058161E-02 
826	 2.71821844952326E-02 
827	 2.71859699273615E-02 
828	 2.71822601649891E-02 
829	 0.0271821690708 
830	 2.72000020477635E-02 
831	 2.72191970790814E-02 
832	 2.72030364873874E-02 
833	 2.72029916258025E-02 
834	 0.0272041340658 
835	 0.027199500697415 
836	 0.02720907300588 
837	 2.72163568404427E-02 
838	 0.027210909509672 
839	 2.71942592465423E-02 
840	 2.71960502057416E-02 
841	 2.71947800068698E-02 
842	 2.71800526159119E-02 
843	 2.71557384861384E-02 
844	 0.027168000206398 
845	 2.71845741507953E-02 
846	 2.71880660203315E-02 
847	 2.71780700775972E-02 
848	 2.71697318911723E-02 
849	 2.71766180567423E-02 
850	 2.71887306258797E-02 
851	 2.71709768951058E-02 
852	 2.71813271455764E-02 
853	 2.71917303165309E-02 
854	 2.71813200777832E-02 
855	 0.027182716470191 
856	 2.71872748984795E-02 
857	 2.71796416248515E-02 
858	 2.71592213152272E-02 
859	 2.71902824896301E-02 
860	 2.71812112936782E-02 
861	 0.027160774176281 
862	 2.72009863850692E-02 
863	 2.72273626356815E-02 
864	 2.72149470441431E-02 
865	 2.71909850375014E-02 
866	 2.72125588480506E-02 
867	 2.71841431099523E-02 
868	 2.71779303683163E-02 
869	 2.72054919519604E-02 
870	 2.71695256752909E-02 
871	 2.71493852416585E-02 
872	 0.027155189193878 
873	 2.71765520354381E-02 
874	 2.71944495248102E-02 
875	 2.71990739770063E-02 
876	 2.71945631201781E-02 
877	 2.71885293308423E-02 
878	 2.71788059413388E-02 
879	 2.71714068944236E-02 
880	 2.71773604431853E-02 
881	 0.027197882071922 
882	 2.71735410962638E-02 
883	 2.71530208778782E-02 
884	 2.71568022352756E-02 
885	 2.71747604553122E-02 
886	 2.71840113819655E-02 
887	 2.71878151750537E-02 
888	 0.02718289387882 
889	 2.71579890127692E-02 
890	 2.71589017294507E-02 
891	 2.71699874977442E-02 
892	 2.71763387925549E-02 
893	 2.71848778442092E-02 
894	 2.72038061339771E-02 
895	 2.72161475979925E-02 
896	 0.02720597787906 
897	 2.71710420805566E-02 
898	 2.71995539560638E-02 
899	 2.72086855474625E-02 
900	 2.71243489222215E-02 
901	 2.71413559069835E-02 
902	 2.71556527733871E-02 
903	 2.71533310794661E-02 
904	 2.71649539769629E-02 
905	 2.71899071346246E-02 
906	 2.71940270796131E-02 
907	 2.71863346960418E-02 
908	 2.71980829093263E-02 
909	 2.71622669400796E-02 
910	 2.71477030838533E-02 
911	 0.027166573690477 
912	 2.71631654670418E-02 
913	 2.71425530115658E-02 
914	 2.71433492863945E-02 
915	 2.71671296654856E-02 
916	 2.71612043611836E-02 
917	 2.71729282909802E-02 
918	 2.71875816842335E-02 
919	 2.71882776713026E-02 
920	 2.71774490905136E-02 
921	 2.71995328920407E-02 
922	 2.71963404539832E-02 
923	 2.71430558128654E-02 
924	 2.71681004705122E-02 
925	 2.71705545194432E-02 
926	 0.027170661406852 
927	 2.72011467105165E-02 
928	 2.72044923409116E-02 
929	 2.71744076373434E-02 
930	 2.71423920992234E-02 
931	 0.02714395898568 
932	 2.71537965422314E-02 
933	 2.71716224935079E-02 
934	 2.71878086016315E-02 
935	 2.71892718780965E-02 
936	 2.71683247507031E-02 
937	 2.71741201029543E-02 
938	 2.71782980602468E-02 
939	 2.71262206311236E-02 
940	 2.71837640103047E-02 
941	 2.72142959898602E-02 
942	 2.71773825324622E-02 
943	 0.02714366972572 
944	 2.71644425232481E-02 
945	 2.72144167792224E-02 
946	 2.72382674829641E-02 
947	 2.71805609862349E-02 
948	 2.71839368596707E-02 
949	 2.71989864623555E-02 
950	 0.027194793460751 
951	 2.71969746693791E-02 
952	 2.71231630402946E-02 
953	 2.71342173706408E-02 
954	 0.02724695774 
955	 2.72201262551785E-02 
956	 2.72106822469341E-02 
957	 2.71879039259712E-02 
958	 2.71519237280451E-02 
959	 0.027211044754984 
960	 2.72171763437285E-02 
961	 2.72023602884797E-02 
962	 2.72122929960568E-02 
963	 2.72307970186134E-02 
964	 2.72156468912401E-02 
965	 2.71759353271501E-02 
966	 0.027143254571689 
967	 2.71608814646293E-02 
968	 2.71842688554059E-02 
969	 2.71905158369451E-02 
970	 2.71837809421526E-02 
971	 2.72165644360184E-02 
972	 2.72461226175229E-02 
973	 2.72464702763347E-02 
974	 2.72141436391262E-02 
975	 2.71856032275967E-02 
976	 2.71940231922828E-02 
977	 0.027227501393967 
978	 2.72583060100112E-02 
979	 2.72756355570079E-02 
980	 2.72007609885399E-02 
981	 2.71303669725902E-02 
982	 2.71536002058236E-02 
983	 2.71311646758442E-02 
984	 2.71230336445765E-02 
985	 0.027192871461871 
986	 2.73330585691146E-02 
987	 2.73096415815017E-02 
988	 2.73014087133733E-02 
989	 2.73158507510587E-02 
990	 0.027300681203053 
991	 2.72238615251045E-02 
992	 2.71936369754481E-02 
993	 2.71949306312875E-02 
994	 2.71867835946021E-02 
995	 2.72141466776477E-02 
996	 2.72601112612963E-02 
997	 2.72938487214223E-02 
998	 0.027283293816924 
999	 2.71929087999271E-02 
1000	 2.72747203212277E-02 
1001	 2.77113917333874E-02 
1002	 2.77189984441582E-02 
1003	 2.77124797052367E-02 
1004	 2.77033129227712E-02 
1005	 2.77012292760229E-02 
1006	 2.76953447464363E-02 
1007	 2.76721582526255E-02 
1008	 2.76707385598641E-02 
1009	 2.76943973479241E-02 
1010	 2.76955434760424E-02 
1011	 2.76786394966251E-02 
1012	 2.76803676793419E-02 
1013	 2.76918296714163E-02 
1014	 2.76977096062585E-02 
1015	 2.77118157564944E-02 
1016	 2.77244106814474E-02 
1017	 2.77402118855445E-02 
1018	 2.77047305346016E-02 
1019	 2.76843232508352E-02 
1020	 2.76851679224765E-02 
1021	 2.76885055461685E-02 
1022	 0.027703325369792 
1023	 2.77194756994571E-02 
1024	 2.77488841066986E-02 
1025	 2.77566495436522E-02 
1026	 2.77520736114103E-02 
1027	 0.027746950212474 
1028	 2.77335732004762E-02 
1029	 2.77216125002741E-02 
1030	 2.77215384164292E-02 
1031	 2.77196080374778E-02 
1032	 2.77099519825341E-02 
1033	 2.77181355702607E-02 
1034	 2.77210405904071E-02 
1035	 0.02771656004147 
1036	 2.77064819766013E-02 
1037	 2.76853053992518E-02 
1038	 2.76817241465817E-02 
1039	 2.76854079248262E-02 
1040	 2.76831231795595E-02 
1041	 0.027688479026774 
1042	 2.76822322117551E-02 
1043	 2.76652219921742E-02 
1044	 2.76388696664918E-02 
1045	 2.76401425206514E-02 
1046	 2.76823237753781E-02 
1047	 0.027696382511424 
1048	 2.77066189712314E-02 
1049	 2.77121578280916E-02 
1050	 2.76905108756354E-02 
1051	 2.76838382189149E-02 
1052	 2.76730856621449E-02 
1053	 2.76626704789826E-02 
1054	 2.76396386073988E-02 
1055	 2.76393500085111E-02 
1056	 2.76490463716907E-02 
1057	 2.76571484425261E-02 
1058	 2.76723687925886E-02 
1059	 2.76934651138491E-02 
1060	 2.77102894657801E-02 
1061	 2.77241528597231E-02 
1062	 2.77405146130944E-02 
1063	 2.77376294983314E-02 
1064	 2.77127445813862E-02 
1065	 2.77309788330143E-02 
1066	 0.027743826693784 
1067	 2.77277431965632E-02 
1068	 2.77493399375834E-02 
1069	 2.77529402236464E-02 
1070	 2.77483574528749E-02 
1071	 2.77319244435591E-02 
1072	 2.77514859736541E-02 
1073	 2.77670165005151E-02 
1074	 2.77595212338174E-02 
1075	 2.77626033925092E-02 
1076	 2.77612977686412E-02 
1077	 0.027717719506207 
1078	 2.77085178174749E-02 
1079	 0.027727070256196 
1080	 2.77266278960889E-02 
1081	 2.77475428133838E-02 
1082	 2.77642951743357E-02 
1083	 2.77698963047476E-02 
1084	 2.77799297793288E-02 
1085	 2.77671118547231E-02 
1086	 2.77689496914495E-02 
1087	 0.02776744092066 
1088	 2.77855219353471E-02 
1089	 2.77948437770382E-02 
1090	 2.78121507337939E-02 
1091	 2.78193047910592E-02 
1092	 2.78013612217411E-02 
1093	 2.78037443538674E-02 
1094	 2.78168990453172E-02 
1095	 2.78118647286149E-02 
1096	 2.78067124276559E-02 
1097	 2.78141698286914E-02 
1098	 2.78088490367937E-02 
1099	 2.78017005432286E-02 
1100	 2.78075313957256E-02 
1101	 2.78081613949637E-02 
1102	 0.027797954835808 
1103	 2.77982957148474E-02 
1104	 0.027807583503329 
1105	 2.78359183025844E-02 
1106	 2.78552061982283E-02 
1107	 2.78629902365418E-02 
1108	 0.027868105722687 
1109	 2.78645679102816E-02 
1110	 2.78576918662761E-02 
1111	 2.78476060746869E-02 
1112	 2.78468969971407E-02 
1113	 2.78380968789441E-02 
1114	 2.78071346231796E-02 
1115	 2.78031740936263E-02 
1116	 2.78259028157301E-02 
1117	 0.027839875360704 
1118	 2.78459871666891E-02 
1119	 2.78528930459735E-02 
1120	 2.78572518472964E-02 
1121	 2.78535529445713E-02 
1122	 2.78451442174171E-02 
1123	 2.78382762168757E-02 
1124	 2.78425550054843E-02 
1125	 2.78378904656634E-02 
1126	 2.78368932219081E-02 
1127	 2.78499813384619E-02 
1128	 2.78687295670603E-02 
1129	 2.78847511396111E-02 
1130	 0.027888164438451 
1131	 2.78869069569132E-02 
1132	 2.78727656441779E-02 
1133	 2.78530445400055E-02 
1134	 2.78423254726577E-02 
1135	 2.78377324863653E-02 
1136	 2.78493807372771E-02 
1137	 2.78479698162836E-02 
1138	 2.78443854165509E-02 
1139	 2.78383699809131E-02 
1140	 2.78270131837311E-02 
1141	 2.78112500631187E-02 
1142	 2.78051869457291E-02 
1143	 2.78055300482645E-02 
1144	 2.78151663877098E-02 
1145	 2.78320980389882E-02 
1146	 2.78440628732096E-02 
1147	 2.78483278449687E-02 
1148	 2.78380388937579E-02 
1149	 2.78302372457346E-02 
1150	 2.78368926414648E-02 
1151	 2.78342526997512E-02 
1152	 2.78325028810824E-02 
1153	 2.78377801278497E-02 
1154	 2.78405608098302E-02 
1155	 2.78359847751106E-02 
1156	 2.78355879541517E-02 
1157	 2.78415321840339E-02 
1158	 2.78425887694066E-02 
1159	 2.78369541657503E-02 
1160	 2.78390649744459E-02 
1161	 2.78326840795458E-02 
1162	 2.78226972848211E-02 
1163	 2.78312096126555E-02 
1164	 2.78366504829688E-02 
1165	 2.78378085677494E-02 
1166	 2.78495665072854E-02 
1167	 2.78528165813748E-02 
1168	 0.027845892228845 
1169	 0.027851260625064 
1170	 2.78759652533791E-02 
1171	 2.78779168338405E-02 
1172	 0.02787049101431 
1173	 2.78734207781968E-02 
1174	 2.78674405418185E-02 
1175	 2.78684157184846E-02 
1176	 0.027881529630579 
1177	 2.78854958981668E-02 
1178	 2.78816357655751E-02 
1179	 2.78906671416851E-02 
1180	 2.78901526697675E-02 
1181	 2.78758859490804E-02 
1182	 2.78680208411731E-02 
1183	 2.78672862644109E-02 
1184	 2.78757535303998E-02 
1185	 2.78922408568037E-02 
1186	 0.027895651659963 
1187	 2.78898690314985E-02 
1188	 0.027890444633343 
1189	 2.78897353985514E-02 
1190	 2.78912864482855E-02 
1191	 2.78996323850727E-02 
1192	 2.79027412788793E-02 
1193	 0.027895091606441 
1194	 2.78960217860859E-02 
1195	 2.79077944160172E-02 
1196	 2.79114893920097E-02 
1197	 2.79116764041441E-02 
1198	 2.79183854314673E-02 
1199	 2.79232291447965E-02 
1200	 2.79133965578095E-02 
1201	 2.79153031665543E-02 
1202	 2.79126197987338E-02 
1203	 2.79106099097682E-02 
1204	 2.79098752850812E-02 
1205	 2.79105963848011E-02 
1206	 2.79143676652891E-02 
1207	 2.79209386328499E-02 
1208	 2.79364352087373E-02 
1209	 2.79367091580254E-02 
1210	 2.79252568653058E-02 
1211	 2.79251134524541E-02 
1212	 2.79183362740343E-02 
1213	 0.027918546152909 
1214	 2.79367958356773E-02 
1215	 2.79452986706405E-02 
1216	 0.027945220002298 
1217	 2.79498118861425E-02 
1218	 2.79523132076174E-02 
1219	 2.79632553083898E-02 
1220	 2.79731864907485E-02 
1221	 2.79762394103957E-02 
1222	 2.79791497306331E-02 
1223	 2.79809478195324E-02 
1224	 2.79834686188326E-02 
1225	 2.79890539049912E-02 
1226	 2.79863005073059E-02 
1227	 2.79736135549363E-02 
1228	 2.79767896584005E-02 
1229	 2.79854980606329E-02 
1230	 2.79869072869324E-02 
1231	 2.79910069979141E-02 
1232	 2.79996453925286E-02 
1233	 2.80058895454328E-02 
1234	 2.80112394052275E-02 
1235	 2.80258995099664E-02 
1236	 2.80369091125838E-02 
1237	 0.02804131284209 
1238	 2.80440696362214E-02 
1239	 2.80542782637899E-02 
1240	 2.80508823498658E-02 
1241	 0.028045018656352 
1242	 2.80451289651013E-02 
1243	 2.80466044522337E-02 
1244	 0.028051790139571 
1245	 2.80563572415651E-02 
1246	 2.80646112297512E-02 
1247	 2.80654905208665E-02 
1248	 0.028063983320507 
1249	 2.80636897058595E-02 
1250	 0.028058844236449 
1251	 2.80560128895697E-02 
1252	 2.80541338693649E-02 
1253	 2.80537951760642E-02 
1254	 2.80547872869316E-02 
1255	 2.80538023441107E-02 
1256	 2.80475727426982E-02 
1257	 2.80524897552965E-02 
1258	 2.80705119004395E-02 
1259	 2.80746889255019E-02 
1260	 2.80785697149775E-02 
1261	 2.80820233012592E-02 
1262	 2.80800436351442E-02 
1263	 2.80654665658392E-02 
1264	 2.80608838773117E-02 
1265	 2.80634921856974E-02 
1266	 2.80637933831708E-02 
1267	 2.80622491683263E-02 
1268	 2.80607481728561E-02 
1269	 2.80616171061364E-02 
1270	 2.80612704855994E-02 
1271	 2.80572658200202E-02 
1272	 2.80570996906163E-02 
1273	 2.80576240739546E-02 
1274	 2.80625334273232E-02 
1275	 2.80707396502504E-02 
1276	 2.80783662577545E-02 
1277	 2.80920158917029E-02 
1278	 2.81020330088496E-02 
1279	 2.81114594272077E-02 
1280	 2.81170534398596E-02 
1281	 0.028116573189948 
1282	 0.02812088513879 
1283	 2.81291696357073E-02 
1284	 2.81310190217247E-02 
1285	 2.81310629437852E-02 
1286	 2.81305987164801E-02 
1287	 2.81352529055039E-02 
1288	 2.81354240222339E-02 
1289	 2.81415412071633E-02 
1290	 2.81583357443851E-02 
1291	 2.81666324209483E-02 
1292	 2.81698644570562E-02 
1293	 2.81762275708394E-02 
1294	 2.81774101714874E-02 
1295	 0.028192383494652 
1296	 2.82174650245831E-02 
1297	 2.82353838109369E-02 
1298	 2.82656360191854E-02 
1299	 2.82804229056169E-02 
1300	 2.82821536118722E-02 
1301	 0.028285326898636 
1302	 2.82760649576415E-02 
1303	 2.82800206882198E-02 
1304	 2.82953002387499E-02 
1305	 2.83004513701286E-02 
1306	 2.83064535195849E-02 
1307	 2.83129544596121E-02 
1308	 2.83103835339419E-02 
1309	 2.83097833096126E-02 
1310	 2.83154529602488E-02 
1311	 2.83300068045011E-02 
1312	 0.028337306368586 
1313	 2.83439587160318E-02 
1314	 2.83495666233658E-02 
1315	 2.83523405946718E-02 
1316	 2.83585425699686E-02 
1317	 2.83713803812078E-02 
1318	 2.83704966624267E-02 
1319	 2.83546900965077E-02 
1320	 2.83609450666526E-02 
1321	 2.83750579633652E-02 
1322	 2.83788131500821E-02 
1323	 2.83937438388209E-02 
1324	 2.84020902769118E-02 
1325	 2.83897171701617E-02 
1326	 2.83915975179054E-02 
1327	 2.84117016357752E-02 
1328	 2.84190046288126E-02 
1329	 2.84217218687116E-02 
1330	 2.84236438872161E-02 
1331	 2.84170876583845E-02 
1332	 2.84152232172595E-02 
1333	 2.84072802320175E-02 
1334	 0.028413947432478 
1335	 2.84225505232011E-02 
1336	 0.028442068522472 
1337	 2.84417818758505E-02 
1338	 2.84395190099454E-02 
1339	 2.84349473954444E-02 
1340	 2.84140809095404E-02 
1341	 2.84088646445138E-02 
1342	 2.84147916745804E-02 
1343	 2.84126874712507E-02 
1344	 2.84052482207326E-02 
1345	 2.84070688616455E-02 
1346	 2.84181860497816E-02 
1347	 2.84157913140731E-02 
1348	 2.84100857617596E-02 
1349	 0.028408905543887 
1350	 2.83963208235289E-02 
1351	 2.83938540698284E-02 
1352	 2.84072416120125E-02 
1353	 2.84100087951379E-02 
1354	 2.84099587708306E-02 
1355	 2.84081902163299E-02 
1356	 2.83977798072631E-02 
1357	 2.83953220122022E-02 
1358	 2.83999874406976E-02 
1359	 2.83978469798912E-02 
1360	 2.83936980716901E-02 
1361	 2.83924341282091E-02 
1362	 2.83925847526681E-02 
1363	 2.83906883762751E-02 
1364	 0.028393024485639 
1365	 2.84048227166323E-02 
1366	 2.84076333518309E-02 
1367	 0.028406185605449 
1368	 2.84052653245686E-02 
1369	 2.84000596735689E-02 
1370	 2.84040303954225E-02 
1371	 2.84094708555703E-02 
1372	 2.84169587624571E-02 
1373	 2.84400665222952E-02 
1374	 2.84414291222883E-02 
1375	 2.84309118610526E-02 
1376	 2.84252404876743E-02 
1377	 2.84042326218337E-02 
1378	 0.028398783871021 
1379	 2.84078417252366E-02 
1380	 2.84085280498732E-02 
1381	 2.84087126330666E-02 
1382	 0.028411280034768 
1383	 2.84109082982822E-02 
1384	 2.84130925101252E-02 
1385	 2.84231682723939E-02 
1386	 2.84272118149061E-02 
1387	 2.84262115010397E-02 
1388	 2.84273480235705E-02 
1389	 2.84339386294957E-02 
1390	 2.84304471455622E-02 
1391	 0.028419161083013 
1392	 2.84090593588883E-02 
1393	 2.84044488245867E-02 
1394	 0.028397970705444 
1395	 2.83968058311702E-02 
1396	 2.84096730250578E-02 
1397	 2.84089091176569E-02 
1398	 2.83990099012026E-02 
1399	 2.83970121185938E-02 
1400	 2.83948251581623E-02 
1401	 2.83957663086124E-02 
1402	 2.84021037493078E-02 
1403	 2.84043594832483E-02 
1404	 2.84067100690728E-02 
1405	 2.84086969190556E-02 
1406	 2.84100558641551E-02 
1407	 0.028408299623443 
1408	 2.84051599588756E-02 
1409	 2.84026520751114E-02 
1410	 2.83947554092166E-02 
1411	 2.83937295226442E-02 
1412	 2.84009237426571E-02 
1413	 2.83989926583014E-02 
1414	 0.02838717212929 
1415	 2.83915315844787E-02 
1416	 2.84043137253711E-02 
1417	 2.84097948888472E-02 
1418	 0.028426082163744 
1419	 2.84342517278937E-02 
1420	 2.84242408836735E-02 
1421	 2.84258662519844E-02 
1422	 2.84433248032608E-02 
1423	 2.84462156688037E-02 
1424	 2.84386236125395E-02 
1425	 2.84375497987245E-02 
1426	 2.84411176273287E-02 
1427	 2.84363112496985E-02 
1428	 2.84504899406723E-02 
1429	 2.84614594685753E-02 
1430	 2.84659565965602E-02 
1431	 2.84635821556586E-02 
1432	 2.84646790734293E-02 
1433	 2.84628903331717E-02 
1434	 2.84657829115081E-02 
1435	 2.84693715795517E-02 
1436	 2.84744419484272E-02 
1437	 2.84836732628269E-02 
1438	 2.84900262780483E-02 
1439	 2.84951388486124E-02 
1440	 2.85014891744496E-02 
1441	 2.85097214513093E-02 
1442	 2.85142948020749E-02 
1443	 2.85169059278989E-02 
1444	 2.85217583617872E-02 
1445	 2.85242027939045E-02 
1446	 2.85277537013571E-02 
1447	 2.85352842445178E-02 
1448	 2.85402994495291E-02 
1449	 2.85423515671213E-02 
1450	 2.85470361782327E-02 
1451	 2.85522540370416E-02 
1452	 0.028557747263812 
1453	 2.85654194165716E-02 
1454	 2.85710711636985E-02 
1455	 2.85777774684557E-02 
1456	 2.85812565083665E-02 
1457	 2.85830182645888E-02 
1458	 2.85824581378227E-02 
1459	 2.85722028911678E-02 
1460	 0.028572304912178 
1461	 2.85792169111667E-02 
1462	 0.028583175154388 
1463	 2.85923962197128E-02 
1464	 0.028600700804121 
1465	 2.86117344695445E-02 
1466	 2.86098744081132E-02 
1467	 2.86078937500431E-02 
1468	 2.86162322390776E-02 
1469	 0.02861487384758 
1470	 2.86126685368841E-02 
1471	 2.86207742206229E-02 
1472	 2.86385906812563E-02 
1473	 2.86436886208175E-02 
1474	 2.86494360197743E-02 
1475	 2.86534886200213E-02 
1476	 2.86479749381875E-02 
1477	 2.86515831087215E-02 
1478	 2.86615385962469E-02 
1479	 2.86689873731003E-02 
1480	 2.86789390087861E-02 
1481	 2.86815468209779E-02 
1482	 2.86800176006524E-02 
1483	 2.86828345958103E-02 
1484	 2.86827163846897E-02 
1485	 0.028683806281082 
1486	 2.86908922914792E-02 
1487	 2.86925160662477E-02 
1488	 0.028685018018213 
1489	 2.86878532014201E-02 
1490	 2.86975814570082E-02 
1491	 2.87018427264045E-02 
1492	 2.87095254551396E-02 
1493	 2.87140002639326E-02 
1494	 2.87127369106516E-02 
1495	 2.87131276200997E-02 
1496	 2.87113002156356E-02 
1497	 2.87152134543147E-02 
1498	 2.87217175358802E-02 
1499	 2.87280713196566E-02 
1500	 0.028740695801732 
1501	 2.87493191547929E-02 
1502	 2.87565828540749E-02 
1503	 2.87604035857734E-02 
1504	 2.87587031383259E-02 
1505	 2.87625522395981E-02 
1506	 2.87669566287737E-02 
1507	 2.87707007652915E-02 
1508	 2.87814364863624E-02 
1509	 2.87854813244174E-02 
1510	 2.87783584307137E-02 
1511	 2.87805667384914E-02 
1512	 2.87889922738501E-02 
1513	 2.87921978991536E-02 
1514	 2.87966053337631E-02 
1515	 2.88017271718615E-02 
1516	 2.88005997563175E-02 
1517	 2.88037815298236E-02 
1518	 2.88147213514349E-02 
1519	 2.88223703362835E-02 
1520	 2.88274277810995E-02 
1521	 2.88362014159948E-02 
1522	 2.88416533320324E-02 
1523	 2.88351588355407E-02 
1524	 0.028840885977069 
1525	 2.88469695612093E-02 
1526	 2.88543200124368E-02 
1527	 2.88683730151434E-02 
1528	 2.88779190209375E-02 
1529	 2.88867630623333E-02 
1530	 2.88883095731706E-02 
1531	 2.88880734429465E-02 
1532	 2.88854926852075E-02 
1533	 2.88698753425408E-02 
1534	 2.88735929012005E-02 
1535	 2.88858484446935E-02 
1536	 2.88974207733032E-02 
1537	 0.028921926346877 
1538	 2.89292477853049E-02 
1539	 2.89300915958406E-02 
1540	 2.89299361138372E-02 
1541	 2.89164113306855E-02 
1542	 2.89210652907506E-02 
1543	 2.89352609998027E-02 
1544	 2.89420211324452E-02 
1545	 2.89572994515772E-02 
1546	 2.89606674814417E-02 
1547	 2.89504163006468E-02 
1548	 2.89511506739197E-02 
1549	 2.89538177822986E-02 
1550	 2.89562707030012E-02 
1551	 2.89592148184175E-02 
1552	 2.89681314599733E-02 
1553	 2.89861450373548E-02 
1554	 2.89886117303714E-02 
1555	 2.89829848370114E-02 
1556	 0.028990058914316 
1557	 2.89923587385674E-02 
1558	 2.89977497396621E-02 
1559	 2.90223748667903E-02 
1560	 2.90295128978746E-02 
1561	 2.90206192975042E-02 
1562	 2.90194508684506E-02 
1563	 2.90148622398312E-02 
1564	 0.029018426811258 
1565	 2.90292932017329E-02 
1566	 2.90341540551402E-02 
1567	 2.90421241718113E-02 
1568	 2.90471667178653E-02 
1569	 2.90447825684048E-02 
1570	 2.90475767733555E-02 
1571	 2.90506645884401E-02 
1572	 2.90597453896718E-02 
1573	 2.90807352133587E-02 
1574	 2.90857336657331E-02 
1575	 2.90792550326725E-02 
1576	 2.90876385334826E-02 
1577	 2.90977445720041E-02 
1578	 2.91013989966136E-02 
1579	 2.91158233332055E-02 
1580	 2.91233079633311E-02 
1581	 2.91147704043692E-02 
1582	 0.02911297125541 
1583	 0.02911284694616 
1584	 2.91208894587294E-02 
1585	 2.91353424261662E-02 
1586	 2.91431910498907E-02 
1587	 2.91613198505444E-02 
1588	 2.91679902675168E-02 
1589	 2.91589229609496E-02 
1590	 0.029156210799975 
1591	 2.91494044543823E-02 
1592	 2.91499242158861E-02 
1593	 2.91552949307984E-02 
1594	 2.91605183312698E-02 
1595	 2.91767058307101E-02 
1596	 2.91811014784212E-02 
1597	 2.91700087868569E-02 
1598	 2.91751363981754E-02 
1599	 2.91857214283634E-02 
1600	 2.91931802987204E-02 
1601	 2.92190239395499E-02 
1602	 2.92255121404582E-02 
1603	 2.92077850036561E-02 
1604	 2.92059080547125E-02 
1605	 2.91997361386826E-02 
1606	 2.92041810715411E-02 
1607	 2.92274939327645E-02 
1608	 2.92413920994771E-02 
1609	 2.92625438682542E-02 
1610	 2.92692243741575E-02 
1611	 2.92590398794191E-02 
1612	 2.92574687841962E-02 
1613	 2.92421787073576E-02 
1614	 2.92453644593903E-02 
1615	 2.92824913852347E-02 
1616	 2.92873066693395E-02 
1617	 2.92772895563624E-02 
1618	 2.92754388646485E-02 
1619	 2.92483097682082E-02 
1620	 2.92413793052394E-02 
1621	 2.92597060767553E-02 
1622	 2.92693713015002E-02 
1623	 2.92786040690154E-02 
1624	 2.92892371123604E-02 
1625	 2.93009233055776E-02 
1626	 2.93116579012034E-02 
1627	 2.93245827996646E-02 
1628	 2.93357044966077E-02 
1629	 2.93466484836771E-02 
1630	 2.93537555394231E-02 
1631	 2.93568784422772E-02 
1632	 2.93622125258903E-02 
1633	 2.93629836673988E-02 
1634	 2.93686697126769E-02 
1635	 2.93800926792426E-02 
1636	 2.93868636214482E-02 
1637	 0.029395436028022 
1638	 2.94019355663319E-02 
1639	 2.94016492072363E-02 
1640	 2.94085539380088E-02 
1641	 0.029421230286607 
1642	 2.94265238483408E-02 
1643	 2.94309389991246E-02 
1644	 2.94371711933596E-02 
1645	 2.94409270110714E-02 
1646	 2.94432268949765E-02 
1647	 2.94448693557729E-02 
1648	 0.029448983407919 
1649	 2.94512282574552E-02 
1650	 2.94531439568233E-02 
1651	 2.94618717093645E-02 
1652	 2.94669741087441E-02 
1653	 2.94596441746245E-02 
1654	 0.029467860330303 
1655	 2.94876067879253E-02 
1656	 0.029500576726023 
1657	 0.029525107139019 
1658	 2.95338729974295E-02 
1659	 2.95275946321058E-02 
1660	 0.029527848047329 
1661	 2.95263056303412E-02 
1662	 2.95222999736413E-02 
1663	 2.95109027209323E-02 
1664	 2.95128176098052E-02 
1665	 2.95221548395722E-02 
1666	 2.95231969557777E-02 
1667	 2.95327864384597E-02 
1668	 2.95386832687145E-02 
1669	 2.95320700184934E-02 
1670	 2.95324725827251E-02 
1671	 2.95396094818421E-02 
1672	 2.95430071949438E-02 
1673	 2.95484779822921E-02 
1674	 2.95469731520208E-02 
1675	 2.95396057462262E-02 
1676	 2.95372065480883E-02 
1677	 2.95265876311022E-02 
1678	 2.95241136820123E-02 
1679	 2.95357371507341E-02 
1680	 2.95381696874854E-02 
1681	 2.95426039132969E-02 
1682	 2.95339495845067E-02 
1683	 2.95067584944045E-02 
1684	 2.95026113497043E-02 
1685	 2.95045973652856E-02 
1686	 2.94994665687481E-02 
1687	 0.029506376257785 
1688	 0.029506969080056 
1689	 2.94895497915872E-02 
1690	 0.02948805271726 
1691	 2.95085812360286E-02 
1692	 2.95051016499538E-02 
1693	 2.94853767091293E-02 
1694	 2.94847100278273E-02 
1695	 2.94807885262603E-02 
1696	 2.94813491033573E-02 
1697	 2.95043607736998E-02 
1698	 2.94992398030552E-02 
1699	 2.94742490241913E-02 
1700	 2.94705968764384E-02 
1701	 2.94651991693692E-02 
1702	 2.94606853758118E-02 
1703	 2.94733167203603E-02 
1704	 2.94639632233931E-02 
1705	 0.0294314147768 
1706	 2.94484752299401E-02 
1707	 2.94432479181068E-02 
1708	 2.94490901507345E-02 
1709	 0.029464192040872 
1710	 2.94566474411366E-02 
1711	 0.029457669500561 
1712	 2.94396617519164E-02 
1713	 2.94208543128689E-02 
1714	 2.94221489673334E-02 
1715	 2.94081320965895E-02 
1716	 2.94093653552322E-02 
1717	 2.94140976356383E-02 
1718	 2.93944360106548E-02 
1719	 2.93916088169941E-02 
1720	 2.93954725271671E-02 
1721	 2.93888028717978E-02 
1722	 2.93906048610952E-02 
1723	 2.93885705894181E-02 
1724	 2.93862302929693E-02 
1725	 2.94046255686613E-02 
1726	 2.94173436683107E-02 
1727	 2.94097814817349E-02 
1728	 2.94160025817282E-02 
1729	 2.94300160399986E-02 
1730	 2.94521697135576E-02 
1731	 2.94879186092375E-02 
1732	 2.95002365430104E-02 
1733	 2.94940485785607E-02 
1734	 2.94949538358181E-02 
1735	 2.95019247319513E-02 
1736	 0.029521594411842 
1737	 2.95553615171798E-02 
1738	 2.95534728324464E-02 
1739	 2.95503866307917E-02 
1740	 2.95282085801635E-02 
1741	 2.95279653771816E-02 
1742	 2.95428918997298E-02 
1743	 2.95581197826264E-02 
1744	 2.95955216798627E-02 
1745	 2.96030043664397E-02 
1746	 2.95884703258605E-02 
1747	 2.95812194099062E-02 
1748	 2.95549261561128E-02 
1749	 2.95485638128825E-02 
1750	 2.95603997802142E-02 
1751	 2.95687256951053E-02 
1752	 2.95884182442944E-02 
1753	 2.95958353179722E-02 
1754	 2.95931660264953E-02 
1755	 2.95963862536864E-02 
1756	 2.95966052925579E-02 
1757	 0.029585005635127 
1758	 2.95936583788285E-02 
1759	 0.029588318366235 
1760	 2.95858716333323E-02 
1761	 2.96031994332622E-02 
1762	 2.96024313741456E-02 
1763	 0.029599517035724 
1764	 2.96006370751608E-02 
1765	 2.96327162431885E-02 
1766	 2.96715586962016E-02 
1767	 2.96807209336302E-02 
1768	 2.97066682316413E-02 
1769	 2.97172359793343E-02 
1770	 2.97088610093159E-02 
1771	 2.97224319902494E-02 
1772	 2.97453814960727E-02 
1773	 2.97540275849749E-02 
1774	 2.97505062622884E-02 
1775	 2.97623180486722E-02 
1776	 2.97736516350421E-02 
1777	 2.97824844327339E-02 
1778	 2.98122051739319E-02 
1779	 2.98312283873491E-02 
1780	 2.98321517145296E-02 
1781	 2.98513236837515E-02 
1782	 2.98643197029386E-02 
1783	 2.98735456286944E-02 
1784	 2.99030695583369E-02 
1785	 2.98706379427143E-02 
1786	 2.98688088556726E-02 
1787	 2.98843951505084E-02 
1788	 2.98901896526295E-02 
1789	 2.99165510335199E-02 
1790	 2.99242124212455E-02 
1791	 2.99020058101619E-02 
1792	 2.99026882867934E-02 
1793	 2.99121670567821E-02 
1794	 2.99365505243459E-02 
1795	 2.99548945601956E-02 
1796	 2.99669306212084E-02 
1797	 2.99575007310558E-02 
1798	 2.99662666184983E-02 
1799	 2.99984161165946E-02 
1800	 3.00066567145796E-02 
1801	 2.99114933056173E-02 
1802	 2.99185084413119E-02 
1803	 2.99272243891568E-02 
1804	 2.99381818310282E-02 
1805	 2.99632985846257E-02 
1806	 2.99755455664149E-02 
1807	 2.99809726314353E-02 
1808	 2.99893535961977E-02 
1809	 2.99923153992606E-02 
1810	 0.030003786314996 
1811	 3.00282190059634E-02 
1812	 3.00410411220727E-02 
1813	 3.00571795520554E-02 
1814	 0.030059006785185 
1815	 3.00620090353376E-02 
1816	 3.00675800353709E-02 
1817	 0.030068330187868 
1818	 3.00662107336836E-02 
1819	 3.00729459759959E-02 
1820	 3.00787001170936E-02 
1821	 3.00846147298605E-02 
1822	 3.00950774532425E-02 
1823	 3.01110916313851E-02 
1824	 3.01266154706433E-02 
1825	 3.01391420107973E-02 
1826	 3.01548042264685E-02 
1827	 3.01810145562122E-02 
1828	 3.01952173263303E-02 
1829	 3.02028074936863E-02 
1830	 3.02115973092664E-02 
1831	 3.02154860453208E-02 
1832	 3.02238243283587E-02 
1833	 3.02360525884988E-02 
1834	 3.02383007379608E-02 
1835	 3.02358397456708E-02 
1836	 3.02496440131989E-02 
1837	 3.02598545317861E-02 
1838	 3.02705593173459E-02 
1839	 3.02783951439019E-02 
1840	 3.02887237497637E-02 
1841	 3.02954848947156E-02 
1842	 3.02955381592499E-02 
1843	 3.02984526867794E-02 
1844	 3.03089897128834E-02 
1845	 3.03270995979736E-02 
1846	 3.03463680105551E-02 
1847	 3.03659417293842E-02 
1848	 3.03768142425878E-02 
1849	 3.03795330243794E-02 
1850	 3.03859023589448E-02 
1851	 0.030388460064744 
1852	 3.03913098473955E-02 
1853	 3.03917655998504E-02 
1854	 3.04014835475334E-02 
1855	 3.04100537480769E-02 
1856	 3.04121018202084E-02 
1857	 3.04264455043186E-02 
1858	 3.04477201462955E-02 
1859	 3.04605372701214E-02 
1860	 3.04695200550508E-02 
1861	 3.04806297907422E-02 
1862	 3.04930372258721E-02 
1863	 3.04930676944118E-02 
1864	 3.05065258594559E-02 
1865	 3.05236048010452E-02 
1866	 3.05354107089808E-02 
1867	 3.05435955262269E-02 
1868	 3.05405726553725E-02 
1869	 3.05324561958747E-02 
1870	 3.05310399132949E-02 
1871	 3.05326072823077E-02 
1872	 3.05361504179384E-02 
1873	 3.05458440295118E-02 
1874	 0.030549549614854 
1875	 3.05456928680396E-02 
1876	 3.05409215642815E-02 
1877	 3.05395180935746E-02 
1878	 3.05429921317983E-02 
1879	 3.05468331220202E-02 
1880	 3.05490686278067E-02 
1881	 3.05464901059793E-02 
1882	 3.05367377955296E-02 
1883	 3.05268735036333E-02 
1884	 0.030523402684838 
1885	 3.05077644166103E-02 
1886	 3.04967567659984E-02 
1887	 3.04912412212261E-02 
1888	 3.04761423571043E-02 
1889	 3.04692920504327E-02 
1890	 3.04633892315549E-02 
1891	 3.04503088026761E-02 
1892	 3.04331400498581E-02 
1893	 3.04184469722851E-02 
1894	 3.04043743063133E-02 
1895	 3.03976199394041E-02 
1896	 3.03820587970975E-02 
1897	 3.03649474003143E-02 
1898	 3.03594560471882E-02 
1899	 3.03397823846466E-02 
1900	 3.03172405946093E-02 
1901	 0.030303056987831 
1902	 3.02817595399348E-02 
1903	 3.02656115750746E-02 
1904	 3.02549722419577E-02 
1905	 3.02526566068025E-02 
1906	 3.02465529921429E-02 
1907	 3.02407949565062E-02 
1908	 3.02415044057575E-02 
1909	 3.02231937130961E-02 
1910	 3.02017836564171E-02 
1911	 0.030197007976498 
1912	 3.01833798421441E-02 
1913	 3.01747383210164E-02 
1914	 3.01804673055108E-02 
1915	 3.01770512818766E-02 
1916	 3.01676180738088E-02 
1917	 3.01544729051406E-02 
1918	 3.01516216467141E-02 
1919	 3.01488884611816E-02 
1920	 3.01525329411946E-02 
1921	 3.01555780681536E-02 
1922	 3.01528864861466E-02 
1923	 3.01571737537225E-02 
1924	 3.01518478108013E-02 
1925	 3.01438198542113E-02 
1926	 0.030144008470476 
1927	 3.01476071283336E-02 
1928	 3.01489318447564E-02 
1929	 3.01517185177227E-02 
1930	 3.01628015719128E-02 
1931	 3.01719959928755E-02 
1932	 0.030178250855779 
1933	 0.030184238622663 
1934	 3.01882570359458E-02 
1935	 3.01847833390434E-02 
1936	 3.01931050002535E-02 
1937	 3.01988035729643E-02 
1938	 3.02021943561515E-02 
1939	 3.02100600419321E-02 
1940	 3.02246786617926E-02 
1941	 3.02297181317644E-02 
1942	 3.02321219046018E-02 
1943	 3.02509417431383E-02 
1944	 3.02759759135547E-02 
1945	 3.02972414688369E-02 
1946	 3.03268669369311E-02 
1947	 3.03521709259883E-02 
1948	 3.03532816495782E-02 
1949	 0.030361686958743 
1950	 3.03738720595137E-02 
1951	 3.03823874263328E-02 
1952	 3.03938070066127E-02 
1953	 3.04139018046359E-02 
1954	 3.04328156611771E-02 
1955	 3.04399348147422E-02 
1956	 3.04492705855812E-02 
1957	 0.03046731002719 
1958	 3.04774177999575E-02 
1959	 3.04911767651188E-02 
1960	 3.05127966606189E-02 
1961	 3.05273509617558E-02 
1962	 3.05369814268815E-02 
1963	 3.05528778032961E-02 
1964	 3.05655730493753E-02 
1965	 3.05833374413319E-02 
1966	 3.06093099136153E-02 
1967	 3.06338635030047E-02 
1968	 3.06467848908021E-02 
1969	 0.030663383600909 
1970	 3.06802454885415E-02 
1971	 0.03069992778714 
1972	 3.07211161729701E-02 
1973	 3.07405338271937E-02 
1974	 3.07653625645345E-02 
1975	 3.07985461421731E-02 
1976	 3.08149497533763E-02 
1977	 3.08265849740884E-02 
1978	 3.08411347016279E-02 
1979	 3.08442936620588E-02 
1980	 3.08466388429634E-02 
1981	 0.030872598197681 
1982	 3.09016279269297E-02 
1983	 3.09348661910256E-02 
1984	 3.09654698527254E-02 
1985	 3.09833283075371E-02 
1986	 3.10010884932088E-02 
1987	 3.10138719186311E-02 
1988	 0.031013331032003 
1989	 3.10249085711036E-02 
1990	 3.10387500484791E-02 
1991	 3.10530793854862E-02 
1992	 0.031073778944786 
1993	 3.10919908891304E-02 
1994	 3.10984095886433E-02 
1995	 3.11174316709294E-02 
1996	 3.11396300894898E-02 
1997	 3.11653404203351E-02 
1998	 3.11884663322197E-02 
1999	 3.12162333075927E-02 
2000	 3.12353819927432E-02 
2001	 3.12499532438634E-02 
2002	 3.12633515563784E-02 
2003	 3.12677386737037E-02 
2004	 3.12877999660409E-02 
2005	 3.13158919933611E-02 
2006	 3.13379779956758E-02 
2007	 3.13652840563669E-02 
2008	 3.13960668455049E-02 
2009	 3.14160536116697E-02 
2010	 3.14255323901581E-02 
2011	 3.14441983425251E-02 
2012	 3.14686050058262E-02 
2013	 3.14849528560551E-02 
2014	 3.14983482257501E-02 
2015	 3.15158161363153E-02 
2016	 3.15295198860988E-02 
2017	 0.031542479731286 
2018	 3.15624731209315E-02 
2019	 3.15761505520238E-02 
2020	 3.15797476116296E-02 
2021	 3.15889322214188E-02 
2022	 3.16128561051792E-02 
2023	 3.16267456609537E-02 
2024	 3.16421204625097E-02 
2025	 0.031664669208534 
2026	 3.16802387340409E-02 
2027	 3.16899726845993E-02 
2028	 3.16988422597604E-02 
2029	 3.17073760144047E-02 
2030	 3.17156142622336E-02 
2031	 3.17107290169312E-02 
2032	 3.17207625486638E-02 
2033	 3.17474765010961E-02 
2034	 3.17605067454022E-02 
2035	 3.17673497012515E-02 
2036	 3.17906164319928E-02 
2037	 3.17972324214919E-02 
2038	 3.17919879173119E-02 
2039	 3.17988806552941E-02 
2040	 3.18078970757804E-02 
2041	 3.18226546349192E-02 
2042	 3.18484831224207E-02 
2043	 3.18616394814759E-02 
2044	 3.18678890819669E-02 
2045	 0.031883443900355 
2046	 3.19000672754156E-02 
2047	 3.19124909948842E-02 
2048	 3.19320784124789E-02 
2049	 0.031949621043461 
2050	 3.19608186143614E-02 
2051	 3.19652050261351E-02 
2052	 3.19841400872215E-02 
2053	 3.20095627237652E-02 
2054	 3.20324292011966E-02 
2055	 3.20584322070489E-02 
2056	 0.032081401955285 
2057	 3.21088732198744E-02 
2058	 3.21223223786501E-02 
2059	 3.21183979200257E-02 
2060	 3.21354797309911E-02 
2061	 3.21530491642542E-02 
2062	 3.21748403495034E-02 
2063	 3.22159194028397E-02 
2064	 3.22468840091548E-02 
2065	 3.22708972862124E-02 
2066	 3.23014921718608E-02 
2067	 3.23176241402895E-02 
2068	 3.23373026219513E-02 
2069	 3.23514276614184E-02 
2070	 3.23508370675843E-02 
2071	 3.23670705346951E-02 
2072	 3.23930677950876E-02 
2073	 3.24106449262423E-02 
2074	 3.24294103928886E-02 
2075	 3.24493622643545E-02 
2076	 3.24635273499923E-02 
2077	 3.24834843271232E-02 
2078	 3.25150036428029E-02 
2079	 3.25372457129132E-02 
2080	 3.25565791349571E-02 
2081	 3.25744241399765E-02 
2082	 3.25856059534453E-02 
2083	 3.25969609594167E-02 
2084	 0.032621257374658 
2085	 3.26339797767515E-02 
2086	 3.26474714266754E-02 
2087	 3.26581171964111E-02 
2088	 3.26765224888464E-02 
2089	 3.26969047574591E-02 
2090	 3.27149257097809E-02 
2091	 0.032740297594604 
2092	 3.27599757291272E-02 
2093	 3.27723076666301E-02 
2094	 3.27843443591401E-02 
2095	 3.27974931026203E-02 
2096	 0.032809980423644 
2097	 3.28203573409323E-02 
2098	 0.032825119464134 
2099	 3.28349945141747E-02 
2100	 3.28585015240521E-02 
2101	 3.28738696471215E-02 
2102	 3.28872053056871E-02 
2103	 3.29080551551784E-02 
2104	 3.29328271465772E-02 
2105	 3.29520842771246E-02 
2106	 3.29797326022162E-02 
2107	 3.29961456971715E-02 
2108	 3.29955136811308E-02 
2109	 3.30084218340669E-02 
2110	 3.30265162162489E-02 
2111	 0.033041773208559 
2112	 3.30635059300989E-02 
2113	 0.033080878387532 
2114	 3.30883394826819E-02 
2115	 3.31023238937121E-02 
2116	 3.31114652285629E-02 
2117	 3.31347565075454E-02 
2118	 3.31663296531209E-02 
2119	 3.32171974794301E-02 
2120	 3.32367058526906E-02 
2121	 3.32524576268156E-02 
2122	 0.033267825213975 
2123	 3.32615861105741E-02 
2124	 3.32677942456004E-02 
2125	 3.32856737121111E-02 
2126	 3.32977850682968E-02 
2127	 3.33003354840037E-02 
2128	 3.33111673038647E-02 
2129	 3.33340489229854E-02 
2130	 3.33487472373307E-02 
2131	 3.33581833178247E-02 
2132	 3.33689788069858E-02 
2133	 3.33770900638369E-02 
2134	 3.33874325826797E-02 
2135	 3.33962160862497E-02 
2136	 3.34136376675964E-02 
2137	 3.34152393708527E-02 
2138	 3.34058509675591E-02 
2139	 3.34086489759302E-02 
2140	 0.033410246757392 
2141	 3.34088020901477E-02 
2142	 3.34110645122181E-02 
2143	 3.34161086060681E-02 
2144	 3.34193125588217E-02 
2145	 3.34190643419258E-02 
2146	 3.34274457610028E-02 
2147	 3.34263063362114E-02 
2148	 3.34113129550137E-02 
2149	 3.34003805087913E-02 
2150	 3.33881351144508E-02 
2151	 3.33801795468923E-02 
2152	 3.33757095497267E-02 
2153	 3.33663646696762E-02 
2154	 3.33617810809352E-02 
2155	 3.33511098053378E-02 
2156	 3.33308538389588E-02 
2157	 3.32960160219596E-02 
2158	 3.32762117008606E-02 
2159	 3.32552049129295E-02 
2160	 0.033237027990955 
2161	 3.32323066919462E-02 
2162	 3.32128767325773E-02 
2163	 3.31731174408154E-02 
2164	 3.31609918616509E-02 
2165	 0.033164041291897 
2166	 3.31552331654405E-02 
2167	 3.31639184871246E-02 
2168	 3.31546746519266E-02 
2169	 3.31143947831994E-02 
2170	 3.30967741342803E-02 
2171	 3.30952629052404E-02 
2172	 3.30822005160232E-02 
2173	 0.033073311886575 
2174	 0.033059770039482 
2175	 3.30420015503148E-02 
2176	 0.033009215798652 
2177	 3.29930734283095E-02 
2178	 3.29868232244062E-02 
2179	 3.29747528598822E-02 
2180	 3.29594442148918E-02 
2181	 3.29584608730964E-02 
2182	 3.29663268099724E-02 
2183	 3.29619505391126E-02 
2184	 3.29634613574996E-02 
2185	 3.29614970202409E-02 
2186	 3.29419003250655E-02 
2187	 3.29398375365741E-02 
2188	 3.29590294726968E-02 
2189	 3.29591517228317E-02 
2190	 3.29530582319152E-02 
2191	 3.29482319221972E-02 
2192	 3.29315714427356E-02 
2193	 3.29236164736447E-02 
2194	 3.29190500906476E-02 
2195	 3.29194186964399E-02 
2196	 0.032931457872339 
2197	 3.29306701639863E-02 
2198	 0.032933423572561 
2199	 3.29456671298328E-02 
2200	 3.29515553577045E-02 
2201	 3.29568469507315E-02 
2202	 3.29552227394318E-02 
2203	 3.29501995317198E-02 
2204	 3.29451719391378E-02 
2205	 3.29274747074133E-02 
2206	 3.29302919074924E-02 
2207	 3.29461436964011E-02 
2208	 0.032952922961275 
2209	 3.29714555074897E-02 
2210	 3.29762392155989E-02 
2211	 3.29621754807153E-02 
2212	 3.29650765920746E-02 
2213	 3.29738100570696E-02 
2214	 0.032977990289669 
2215	 0.032989273139709 
2216	 3.29961290751973E-02 
2217	 3.30011053896073E-02 
2218	 3.30006214108847E-02 
2219	 3.29922812648109E-02 
2220	 3.29903170485815E-02 
2221	 3.29849896301517E-02 
2222	 3.29771329429986E-02 
2223	 0.032992025702877 
2224	 3.30223832753036E-02 
2225	 3.30514727119499E-02 
2226	 3.30613997873164E-02 
2227	 3.30733931504949E-02 
2228	 0.033085953815535 
2229	 3.30704383562785E-02 
2230	 3.30346740790094E-02 
2231	 3.30198091551337E-02 
2232	 3.29805605917513E-02 
2233	 3.29721394852065E-02 
2234	 3.30094485620289E-02 
2235	 3.30013988362661E-02 
2236	 3.29693617420928E-02 
2237	 3.29583248720084E-02 
2238	 3.29473747143754E-02 
2239	 3.29253184405939E-02 
2240	 3.29127540091154E-02 
2241	 3.28919383620632E-02 
2242	 3.28472119315601E-02 
2243	 3.28133727602167E-02 
2244	 3.27816207489877E-02 
2245	 0.032760239578989 
2246	 3.27503784786426E-02 
2247	 3.27277637805248E-02 
2248	 3.27289873735457E-02 
2249	 3.26993036325133E-02 
2250	 3.26310762267221E-02 
2251	 3.25657073271141E-02 
2252	 3.25390058523281E-02 
2253	 0.032490646420596 
2254	 3.24741328826671E-02 
2255	 3.24724312037192E-02 
2256	 3.24285397398542E-02 
2257	 3.23920445637598E-02 
2258	 3.23559712842363E-02 
2259	 3.23171898789743E-02 
2260	 3.22769165566213E-02 
2261	 3.22383078819599E-02 
2262	 3.21980323947076E-02 
2263	 3.21405442453288E-02 
2264	 3.21213562841161E-02 
2265	 3.21409346929869E-02 
2266	 3.21140036234087E-02 
2267	 3.20766208595886E-02 
2268	 3.20558674728922E-02 
2269	 3.20081180868988E-02 
2270	 3.19774544478513E-02 
2271	 3.19928011941273E-02 
2272	 3.19753067026406E-02 
2273	 3.19185543953824E-02 
2274	 3.18964766329491E-02 
2275	 3.18932683541199E-02 
2276	 3.18774074174953E-02 
2277	 3.18780616404522E-02 
2278	 3.18571385377905E-02 
2279	 3.18131720123491E-02 
2280	 3.17751579039594E-02 
2281	 3.17231974399502E-02 
2282	 3.16927636062977E-02 
2283	 3.16851754286986E-02 
2284	 3.16567180364981E-02 
2285	 3.16273307853298E-02 
2286	 3.15848894498677E-02 
2287	 3.15304917634625E-02 
2288	 3.14929787484154E-02 
2289	 0.031477107970318 
2290	 3.14464017136376E-02 
2291	 0.031398113204724 
2292	 3.13574373791537E-02 
2293	 3.13231514790362E-02 
2294	 3.12825704071275E-02 
2295	 3.12350832209385E-02 
2296	 3.11926959866047E-02 
2297	 3.11775444136014E-02 
2298	 3.11678927282221E-02 
2299	 3.11625167573287E-02 
2300	 3.11932537801329E-02 
2301	 3.12122572917128E-02 
2302	 3.12208859074142E-02 
2303	 3.12163362599647E-02 
2304	 3.12140781286249E-02 
2305	 3.12114233099921E-02 
2306	 3.11859853352097E-02 
2307	 3.11939887286997E-02 
2308	 3.12172971915844E-02 
2309	 0.031257727465876 
2310	 3.13143664678644E-02 
2311	 0.031364897444578 
2312	 3.14427762925134E-02 
2313	 0.031504424649829 
2314	 0.031545566390167 
2315	 3.16057859730729E-02 
2316	 3.16876858880179E-02 
2317	 3.17460440309149E-02 
2318	 3.17893478594658E-02 
2319	 3.18486246738105E-02 
2320	 3.19200901781349E-02 
2321	 3.19583517396971E-02 
2322	 3.19895823466201E-02 
2323	 3.20173857228591E-02 
2324	 3.19948684205519E-02 
2325	 3.20137673749949E-02 
2326	 3.20700653955698E-02 
2327	 3.21139758140205E-02 
2328	 3.21955022210533E-02 
2329	 3.22183928208418E-02 
2330	 3.21999826710687E-02 
2331	 3.21845715473323E-02 
2332	 3.21536940798894E-02 
2333	 3.21279302890268E-02 
2334	 3.21239972449224E-02 
2335	 3.20810297229614E-02 
2336	 3.20287922424176E-02 
2337	 0.031961187130087 
2338	 3.19060839222883E-02 
2339	 3.18893137615707E-02 
2340	 3.18483348861318E-02 
2341	 3.18201048599058E-02 
2342	 3.18023445432547E-02 
2343	 3.17838665153417E-02 
2344	 3.18309659555486E-02 
2345	 0.031873833006118 
2346	 3.18432169528836E-02 
2347	 3.18338855974083E-02 
2348	 3.18706777415724E-02 
2349	 3.18705538243935E-02 
2350	 3.18891817065161E-02 
2351	 3.19459704747408E-02 
2352	 3.19831985043118E-02 
2353	 3.19937609737189E-02 
2354	 3.20213507817501E-02 
2355	 3.21260563995194E-02 
2356	 3.21767267434285E-02 
2357	 3.21755600294132E-02 
2358	 3.22229848814994E-02 
2359	 3.22441106348896E-02 
2360	 3.22260814164704E-02 
2361	 3.22250883835257E-02 
2362	 3.22511945714629E-02 
2363	 0.032240927008016 
2364	 3.22282079729131E-02 
2365	 3.22741828775276E-02 
2366	 3.23212009649076E-02 
2367	 3.23377689755988E-02 
2368	 3.23363347886666E-02 
2369	 3.22997552240461E-02 
2370	 3.22175120569117E-02 
2371	 3.21955544419764E-02 
2372	 3.22618300537584E-02 
2373	 3.23024621678419E-02 
2374	 3.23311090239825E-02 
2375	 3.23424400425319E-02 
2376	 3.22880764272567E-02 
2377	 0.032278278787472 
2378	 3.22943114250826E-02 
2379	 3.22926146690997E-02 
2380	 3.23746566469039E-02 
2381	 3.24361539151897E-02 
2382	 3.24586719250458E-02 
2383	 3.24838232915724E-02 
2384	 3.25115896285253E-02 
2385	 3.24832092684787E-02 
2386	 3.24920119576985E-02 
2387	 3.25521529901426E-02 
2388	 3.25526714734685E-02 
2389	 3.24972603515522E-02 
2390	 3.24862917961222E-02 
2391	 3.24653576871965E-02 
2392	 3.24884237105512E-02 
2393	 3.26025536735507E-02 
2394	 0.032598833323596 
2395	 3.25359829317304E-02 
2396	 3.25239640531854E-02 
2397	 0.032458595887866 
2398	 0.032431811694886 
2399	 3.24677773462605E-02 
2400	 3.24691872132192E-02 
2401	 3.24521492396381E-02 
2402	 0.03241056938783 
2403	 3.24605014571575E-02 
2404	 3.25444756037679E-02 
2405	 3.24913453729171E-02 
2406	 3.24701032017879E-02 
2407	 3.24812670049972E-02 
2408	 3.25100158774213E-02 
2409	 3.25832774114485E-02 
2410	 3.26634079899022E-02 
2411	 3.26967339275715E-02 
2412	 3.26620528138079E-02 
2413	 3.26067877024487E-02 
2414	 3.24453544546512E-02 
2415	 3.23652598315863E-02 
2416	 3.24041938908939E-02 
2417	 3.24637333169641E-02 
2418	 3.25922598300785E-02 
2419	 3.26200504072275E-02 
2420	 3.26241802170759E-02 
2421	 3.25900948750116E-02 
2422	 3.24924737237825E-02 
2423	 3.25518795134515E-02 
2424	 3.26023816891758E-02 
2425	 3.25315781789957E-02 
2426	 3.25467063141364E-02 
2427	 3.26091051063442E-02 
2428	 3.26159226732213E-02 
2429	 3.26430721176961E-02 
2430	 3.26851464948619E-02 
2431	 3.26946163186191E-02 
2432	 3.26784553364219E-02 
2433	 3.26853018175535E-02 
2434	 3.27387065482458E-02 
2435	 3.26913124477098E-02 
2436	 3.25665857386914E-02 
2437	 3.25502258537604E-02 
2438	 3.26078334919817E-02 
2439	 3.26140926705932E-02 
2440	 3.26260836413313E-02 
2441	 3.25958004070296E-02 
2442	 3.24050831303301E-02 
2443	 3.23633508522845E-02 
2444	 3.24563208281791E-02 
2445	 3.25075298164114E-02 
2446	 0.032556546257237 
2447	 3.24894975855022E-02 
2448	 3.24194204606996E-02 
2449	 3.24174712407926E-02 
2450	 3.24266366616341E-02 
2451	 3.25145365409708E-02 
2452	 3.25485109737168E-02 
2453	 0.032449187931717 
2454	 3.24703625197022E-02 
2455	 3.24512734353422E-02 
2456	 3.23152793377829E-02 
2457	 3.23945332111385E-02 
2458	 0.03237702742078 
2459	 3.22989220249521E-02 
2460	 3.23981846769587E-02 
2461	 3.24293524369859E-02 
2462	 3.25117323927755E-02 
2463	 3.25819400398479E-02 
2464	 3.26128225037226E-02 
2465	 3.26187506908771E-02 
2466	 3.24608501175875E-02 
2467	 3.23872938982348E-02 
2468	 3.23545196247417E-02 
2469	 3.22940081792166E-02 
2470	 3.23986939852585E-02 
2471	 3.23719782806452E-02 
2472	 3.22269891241273E-02 
2473	 3.23543634368551E-02 
2474	 3.24266603160729E-02 
2475	 3.24016148205767E-02 
2476	 3.26131853666312E-02 
2477	 3.25825844476229E-02 
2478	 3.22650582166735E-02 
2479	 3.22919734691108E-02 
2480	 3.24698340917074E-02 
2481	 3.25265079070081E-02 
2482	 3.28332027404967E-02 
2483	 3.28549818438729E-02 
2484	 3.25524915174788E-02 
2485	 3.24035510465776E-02 
2486	 3.22502973225993E-02 
2487	 3.21184529755623E-02 
2488	 3.23712854492418E-02 
2489	 3.26707424623831E-02 
2490	 0.03291368143678 
2491	 3.29520805992439E-02 
2492	 3.27610868473309E-02 
2493	 3.27533378990526E-02 
2494	 3.26259373838871E-02 
2495	 3.24263894512408E-02 
2496	 3.26067158636858E-02 
2497	 3.26617103099349E-02 
2498	 3.25347634391726E-02 
2499	 0.032740102869341 
2500	 3.27156218327138E-02 
