Wavelength	spectrum00006.asd
350	 5.68726468838159E-02 
351	 5.71031824455443E-02 
352	 5.76251793146568E-02 
353	 5.74303262226909E-02 
354	 0.055432698083769 
355	 5.53075590332341E-02 
356	 0.056545234207961 
357	 5.71931048630039E-02 
358	 0.053747504563417 
359	 5.22842676505128E-02 
360	 5.34617982668376E-02 
361	 5.48528031602923E-02 
362	 5.51015031027717E-02 
363	 5.40344664204319E-02 
364	 5.28583603682118E-02 
365	 5.42813118335688E-02 
366	 5.59392435729883E-02 
367	 5.64450974813241E-02 
368	 5.56994362958535E-02 
369	 5.67275916475118E-02 
370	 0.057860850400646 
371	 5.85588611825773E-02 
372	 5.90146687668515E-02 
373	 5.96446019352394E-02 
374	 6.00005371899023E-02 
375	 6.01876009976168E-02 
376	 6.12285286041876E-02 
377	 6.16399625578109E-02 
378	 6.22730365374927E-02 
379	 6.38452581740744E-02 
380	 6.44314199611103E-02 
381	 6.54640244978126E-02 
382	 6.65015598482674E-02 
383	 6.62670418466427E-02 
384	 6.70322837576722E-02 
385	 6.90481623389873E-02 
386	 7.13567097346686E-02 
387	 7.16149560292055E-02 
388	 7.21759486423515E-02 
389	 7.34391682461367E-02 
390	 7.49531951964682E-02 
391	 0.075148616903129 
392	 7.67153169727304E-02 
393	 0.079295423974208 
394	 0.080649217354716 
395	 8.19605238634413E-02 
396	 8.33810276336447E-02 
397	 8.49695117845126E-02 
398	 8.68772665476512E-02 
399	 8.85501016879447E-02 
400	 8.99384766297609E-02 
401	 9.12584462874627E-02 
402	 9.30252213986423E-02 
403	 9.50682936585565E-02 
404	 9.71259925767443E-02 
405	 9.89385840569354E-02 
406	 0.100769649359056 
407	 0.102466004417432 
408	 0.104155123508238 
409	 0.106711168239283 
410	 0.108661842982343 
411	 0.110438048368854 
412	 0.112764481329458 
413	 0.114475236210716 
414	 0.11603029781374 
415	 0.117831593984212 
416	 0.120088518541981 
417	 0.121994896676862 
418	 0.123853667660025 
419	 0.125883583095229 
420	 0.127622235644706 
421	 0.129287192647449 
422	 0.131195693329124 
423	 0.133549660044713 
424	 0.135608335596074 
425	 0.137332620800186 
426	 0.138996620806925 
427	 0.141136429392137 
428	 0.142860473670389 
429	 0.144574177047692 
430	 0.146645150558537 
431	 0.148418121043641 
432	 0.150320986394051 
433	 0.152351477990316 
434	 0.154293924784848 
435	 0.156393804539757 
436	 0.158316784348304 
437	 0.160012424337389 
438	 0.161943457904626 
439	 0.164134248731489 
440	 0.166198751914005 
441	 0.167897496636324 
442	 0.170158552090091 
443	 0.172462941075385 
444	 0.17454695431039 
445	 0.176434175066405 
446	 0.178562877336876 
447	 0.180716223468997 
448	 0.182768062192136 
449	 0.185042248946728 
450	 0.18737474722032 
451	 0.189648209156302 
452	 0.191809275766057 
453	 0.194092823593134 
454	 0.196438816903807 
455	 0.198807742117169 
456	 0.201216410016328 
457	 0.20363810093375 
458	 0.206034768108495 
459	 0.208416744420357 
460	 0.210927654158494 
461	 0.213529330811087 
462	 0.216105225719751 
463	 0.218532585247576 
464	 0.22101122522493 
465	 0.223663970649851 
466	 0.226412198201169 
467	 0.228888611671203 
468	 0.231409624632178 
469	 0.234008245462274 
470	 0.236658861626982 
471	 0.239451006821964 
472	 0.242203429853211 
473	 0.244848827808443 
474	 0.247430530527654 
475	 0.250110731585088 
476	 0.252898655351557 
477	 0.255732462627955 
478	 0.2584812483115 
479	 0.261067227767846 
480	 0.263663242472995 
481	 0.266484787153699 
482	 0.269311184575213 
483	 0.27199852935475 
484	 0.274609008913707 
485	 0.27741643276874 
486	 0.28016132127214 
487	 0.282829005278974 
488	 0.285469095430466 
489	 0.288133959413835 
490	 0.290922197706405 
491	 0.293726262485763 
492	 0.296348989296223 
493	 0.298976674654169 
494	 0.301621415299586 
495	 0.304285663912559 
496	 0.306999951423011 
497	 0.309537575813254 
498	 0.312085004498279 
499	 0.314831984042951 
500	 0.317386696155752 
501	 0.319792987093302 
502	 0.322200609349575 
503	 0.324814865540439 
504	 0.32737751819775 
505	 0.329844694217299 
506	 0.332254782953511 
507	 0.33474836485052 
508	 0.337117196327471 
509	 0.339438850220553 
510	 0.341873382536567 
511	 0.344190896425839 
512	 0.346498517061667 
513	 0.348823257157958 
514	 0.351060202364204 
515	 0.353244191565091 
516	 0.355414460129728 
517	 0.357593714532786 
518	 0.35974851201389 
519	 0.361843010525515 
520	 0.363879010785167 
521	 0.365883175185017 
522	 0.367842389525855 
523	 0.369770308160072 
524	 0.371670781909188 
525	 0.373534200649896 
526	 0.375259649070541 
527	 0.376939676779434 
528	 0.378686946186626 
529	 0.380294598286053 
530	 0.38184125313068 
531	 0.383371614417856 
532	 0.384869552979799 
533	 0.386236323983156 
534	 0.387494639619393 
535	 0.388696262968842 
536	 0.38989385521408 
537	 0.39104220869918 
538	 0.39209051748556 
539	 0.392998594972281 
540	 0.393838779544724 
541	 0.39457399816021 
542	 0.395192391118037 
543	 0.39573876329801 
544	 0.396243293947632 
545	 0.396653058867351 
546	 0.396914716067466 
547	 0.397105228397287 
548	 0.397202203341604 
549	 0.397189170920406 
550	 0.397060477791682 
551	 0.396854481637035 
552	 0.396558727791697 
553	 0.396152133731978 
554	 0.395622154487406 
555	 0.394953186958955 
556	 0.394164330181863 
557	 0.393290505546629 
558	 0.392330753742309 
559	 0.391263505049383 
560	 0.390096412983971 
561	 0.388878848296894 
562	 0.387564074878355 
563	 0.386167902487854 
564	 0.384715512559607 
565	 0.383206677585185 
566	 0.381590698063354 
567	 0.379863855331382 
568	 0.378062615445598 
569	 0.376241018899681 
570	 0.374305406690063 
571	 0.372230116023717 
572	 0.370178929302783 
573	 0.36815315893829 
574	 0.366109039355681 
575	 0.363999885796328 
576	 0.361935992144249 
577	 0.359806441394506 
578	 0.357586391344702 
579	 0.355366012539724 
580	 0.352980963517616 
581	 0.350495926007865 
582	 0.347974635373923 
583	 0.345310575372644 
584	 0.342596101437502 
585	 0.339868106433462 
586	 0.337128211712764 
587	 0.334422191058753 
588	 0.331688247574189 
589	 0.328897788154052 
590	 0.326102097830568 
591	 0.323190883069324 
592	 0.320237341097084 
593	 0.317338205837234 
594	 0.314408171711135 
595	 0.311539973057671 
596	 0.308709569634361 
597	 0.30580386506533 
598	 0.302897135113359 
599	 0.300004991841493 
600	 0.297115864003445 
601	 0.294205298484986 
602	 0.291255713079656 
603	 0.288289600850654 
604	 0.285347482350878 
605	 0.28240670679679 
606	 0.279504902015888 
607	 0.276652748021023 
608	 0.273830179641626 
609	 0.270956830700322 
610	 0.268144248396695 
611	 0.265467017910421 
612	 0.262741098655839 
613	 0.260037577954998 
614	 0.257376574853202 
615	 0.254744805584721 
616	 0.252184626356937 
617	 0.24964943622755 
618	 0.247118032779494 
619	 0.244629983181379 
620	 0.242154566479576 
621	 0.239718126751423 
622	 0.2373498576288 
623	 0.235002283656658 
624	 0.232689221093088 
625	 0.230407805194487 
626	 0.228138086730634 
627	 0.225946291876185 
628	 0.223808042183235 
629	 0.221695341332223 
630	 0.219624855365497 
631	 0.217556996613301 
632	 0.215506605127639 
633	 0.213512501419502 
634	 0.211564895881693 
635	 0.209647758183668 
636	 0.207768642674373 
637	 0.20597054487704 
638	 0.204171872345209 
639	 0.202373011908953 
640	 0.200604800375983 
641	 0.198922664282099 
642	 0.197255491742282 
643	 0.195610603445992 
644	 0.194034420154251 
645	 0.192493965021532 
646	 0.190926049602804 
647	 0.189345019021133 
648	 0.187892142867265 
649	 0.186477881201801 
650	 0.18505203166974 
651	 0.183606784580452 
652	 0.182253454185228 
653	 0.180947515045332 
654	 0.179647803938628 
655	 0.178329726249935 
656	 0.177081737764016 
657	 0.175878607564555 
658	 0.174694581710551 
659	 0.173542554160535 
660	 0.172394669255288 
661	 0.171269673559795 
662	 0.17018908342013 
663	 0.169084838595541 
664	 0.168005630966341 
665	 0.166971604234923 
666	 0.165968087223661 
667	 0.164981264961428 
668	 0.164009490989668 
669	 0.163049770579902 
670	 0.162075561225834 
671	 0.161164334702722 
672	 0.16028171738182 
673	 0.159361209061974 
674	 0.158512398337699 
675	 0.157663524650934 
676	 0.156800496010713 
677	 0.155994878051594 
678	 0.155163248722016 
679	 0.154342587044047 
680	 0.153572033588474 
681	 0.152809560643612 
682	 0.152053869084615 
683	 0.151318802008351 
684	 0.150616635753549 
685	 0.149873069153073 
686	 0.149147712625778 
687	 0.148467981818912 
688	 0.147796433546725 
689	 0.14712711635791 
690	 0.146461384610151 
691	 0.145807572534995 
692	 0.145191758295009 
693	 0.144556282754485 
694	 0.143912231904363 
695	 0.143310460224318 
696	 0.142721005672 
697	 0.142101053874305 
698	 0.141465314754614 
699	 0.140918234873181 
700	 0.140371104665531 
701	 0.139821490138723 
702	 0.139284256100353 
703	 0.138743612251132 
704	 0.138216121416531 
705	 0.137687531537928 
706	 0.137131715720362 
707	 0.136644658638798 
708	 0.136159136949564 
709	 0.135637639998203 
710	 0.13512768463341 
711	 0.134637390203775 
712	 0.134164578987966 
713	 0.133700897396088 
714	 0.133235622758672 
715	 0.132779114357666 
716	 0.132325905121068 
717	 0.131864384654756 
718	 0.131434294211688 
719	 0.13102216471687 
720	 0.130609470838278 
721	 0.130181162057807 
722	 0.1297891555188 
723	 0.129387606847335 
724	 0.128940889210792 
725	 0.128576825026527 
726	 0.128182628011891 
727	 0.127773888416183 
728	 0.127445922488926 
729	 0.127084880972896 
730	 0.126702900622656 
731	 0.126327987201666 
732	 0.125984278297155 
733	 0.125654426544185 
734	 0.125337701579686 
735	 0.125025812069886 
736	 0.124665627009825 
737	 0.124317302227979 
738	 0.124001266551647 
739	 0.123707138833502 
740	 0.12342265280074 
741	 0.123127028209047 
742	 0.122825749334134 
743	 0.122562454922841 
744	 0.122285364544709 
745	 0.122021515288033 
746	 0.121791626548426 
747	 0.121527626009213 
748	 0.121236866875494 
749	 0.120960238081268 
750	 0.120746688572963 
751	 0.120548844251471 
752	 0.120332878218828 
753	 0.120096005430881 
754	 0.119872694103281 
755	 0.119662822777112 
756	 0.119462908701704 
757	 0.119269012609354 
758	 0.119085046915363 
759	 0.118891373357127 
760	 0.118681545158656 
761	 0.118465569047888 
762	 0.118300755735502 
763	 0.118165974977089 
764	 0.118034345081514 
765	 0.117881320006935 
766	 0.117706965709637 
767	 0.117542616486741 
768	 0.117407197800941 
769	 0.117280471166634 
770	 0.117133015228093 
771	 0.116987396366344 
772	 0.116876101579769 
773	 0.116775186023877 
774	 0.116649213628642 
775	 0.116511763480709 
776	 0.116412263798611 
777	 0.116324655249812 
778	 0.116227014330018 
779	 0.11611239666126 
780	 0.115997531838897 
781	 0.115895542775387 
782	 0.115803205577313 
783	 0.115719802476452 
784	 0.115678475565675 
785	 0.115619672860081 
786	 0.115528122031703 
787	 0.115424960378587 
788	 0.115379483480804 
789	 0.115314593051512 
790	 0.115210812138197 
791	 0.115132107252336 
792	 0.115069222864553 
793	 0.115026693480677 
794	 0.115001928435022 
795	 0.114976282630882 
796	 0.11491761902486 
797	 0.11486170339903 
798	 0.114848899229213 
799	 0.114803482663895 
800	 0.114763168021565 
801	 0.1147406644428 
802	 0.114723350020638 
803	 0.114688080831299 
804	 0.114650757367908 
805	 0.114622672922203 
806	 0.114599162917294 
807	 0.11462331075986 
808	 0.114647266528108 
809	 0.114629138909152 
810	 0.114613252947786 
811	 0.114607255931791 
812	 0.114614763261563 
813	 0.114634005881834 
814	 0.114655337013181 
815	 0.114685187168374 
816	 0.114710502333431 
817	 0.114706138681993 
818	 0.114721604668192 
819	 0.114749394136156 
820	 0.11478336909494 
821	 0.114834714067401 
822	 0.114889026166573 
823	 0.1149398680912 
824	 0.114985200360369 
825	 0.115026079450875 
826	 0.11508465884313 
827	 0.115151791023958 
828	 0.115211298789282 
829	 0.115300497404632 
830	 0.115396882243714 
831	 0.115474019781588 
832	 0.115515719261695 
833	 0.115612310778555 
834	 0.115730716638001 
835	 0.115835416749528 
836	 0.115918493740277 
837	 0.116033696559544 
838	 0.116148606028102 
839	 0.1162474160273 
840	 0.116426329909605 
841	 0.116617224038913 
842	 0.116769676533174 
843	 0.116868089517776 
844	 0.11701526042687 
845	 0.117191888079039 
846	 0.117374038977707 
847	 0.117541529953719 
848	 0.117702201086936 
849	 0.117886426855534 
850	 0.118103829152286 
851	 0.118332975395148 
852	 0.11852900886867 
853	 0.118723653441351 
854	 0.118955717365349 
855	 0.119244389820869 
856	 0.119507489875593 
857	 0.11973493834369 
858	 0.119955403793995 
859	 0.120238638464326 
860	 0.120496960119182 
861	 0.120751135690506 
862	 0.121065283455045 
863	 0.121395846440426 
864	 0.121715259621556 
865	 0.122021964721836 
866	 0.122334307906704 
867	 0.122614271201657 
868	 0.12295720763372 
869	 0.123356959778657 
870	 0.12365464926337 
871	 0.123991281773871 
872	 0.124390464905116 
873	 0.124819169523527 
874	 0.125179588439624 
875	 0.125576830581692 
876	 0.125999051484328 
877	 0.126411308737149 
878	 0.12683291701245 
879	 0.127276685130523 
880	 0.127727741095449 
881	 0.128167924339555 
882	 0.128639714832832 
883	 0.129144444349034 
884	 0.129649136825614 
885	 0.130112096554488 
886	 0.13061965103346 
887	 0.131141635930586 
888	 0.131656983094076 
889	 0.1321720542057 
890	 0.132713134722489 
891	 0.133249589553056 
892	 0.133775165415013 
893	 0.134341171960074 
894	 0.134941549928704 
895	 0.135521723473763 
896	 0.13606606024195 
897	 0.136692566972908 
898	 0.137316108349808 
899	 0.137929156266602 
900	 0.138544055195702 
901	 0.139131000643269 
902	 0.13980929757105 
903	 0.14053420509404 
904	 0.141203978662295 
905	 0.141914982687566 
906	 0.142577100039284 
907	 0.143223965909094 
908	 0.143958201207739 
909	 0.144639579316368 
910	 0.145345822731577 
911	 0.146091521260492 
912	 0.146813704737373 
913	 0.147566375578186 
914	 0.148356609812221 
915	 0.149158785253863 
916	 0.149919865200203 
917	 0.150696282285941 
918	 0.151493916135163 
919	 0.152318773130858 
920	 0.153198410003099 
921	 0.153968958640324 
922	 0.154757950885831 
923	 0.155657396544586 
924	 0.156466270978107 
925	 0.157318758443579 
926	 0.158180140855091 
927	 0.159011340273055 
928	 0.159953396610924 
929	 0.160807453039438 
930	 0.161628114983407 
931	 0.162537359244072 
932	 0.163434080021477 
933	 0.164376197070781 
934	 0.165341318478893 
935	 0.166268165320254 
936	 0.167144102714478 
937	 0.168097442924338 
938	 0.16909893147966 
939	 0.170027764110667 
940	 0.170982874376776 
941	 0.171931122516169 
942	 0.172861166404491 
943	 0.173796446730434 
944	 0.174798710618325 
945	 0.175791574615747 
946	 0.176747845742465 
947	 0.17771184260253 
948	 0.178719193703964 
949	 0.179699353837506 
950	 0.180617726182173 
951	 0.18151321064021 
952	 0.182485242764654 
953	 0.18352313548663 
954	 0.184555830472125 
955	 0.185474435904054 
956	 0.186418311120465 
957	 0.187403664401032 
958	 0.188417819682451 
959	 0.189446305856925 
960	 0.190352914285814 
961	 0.191269928736029 
962	 0.192287114544446 
963	 0.193278818413044 
964	 0.194216985713655 
965	 0.195142298959178 
966	 0.196102308220933 
967	 0.197104551071285 
968	 0.198202349770578 
969	 0.199270514317591 
970	 0.200233905095994 
971	 0.201268959748026 
972	 0.202344420424666 
973	 0.203330693939599 
974	 0.204184621120138 
975	 0.205181277341799 
976	 0.206181270651145 
977	 0.207225756328726 
978	 0.208330504273737 
979	 0.20926751655467 
980	 0.210261331484559 
981	 0.211279995837015 
982	 0.212251527187219 
983	 0.213279142519848 
984	 0.21424823379002 
985	 0.215242704427486 
986	 0.216318878292525 
987	 0.217199346800234 
988	 0.218158224372972 
989	 0.219170199244014 
990	 0.220129751981219 
991	 0.221061784498619 
992	 0.222034433309185 
993	 0.223044708948295 
994	 0.224059379814904 
995	 0.225055702135242 
996	 0.226018672782765 
997	 0.226904963976334 
998	 0.227752275303985 
999	 0.228892484220992 
1000	 0.229831030976517 
1001	 0.233200449051034 
1002	 0.234164838761268 
1003	 0.23513856410358 
1004	 0.236040250462589 
1005	 0.236885445414838 
1006	 0.237748230790582 
1007	 0.238551611705864 
1008	 0.239417081078713 
1009	 0.240299692130336 
1010	 0.24118084543598 
1011	 0.242111591587642 
1012	 0.24299283856343 
1013	 0.24385480687291 
1014	 0.244710365580117 
1015	 0.245547020686222 
1016	 0.246367275605109 
1017	 0.247189459360754 
1018	 0.247969731314816 
1019	 0.248834482808535 
1020	 0.249726493397982 
1021	 0.250546463817259 
1022	 0.251381811150693 
1023	 0.252178574725287 
1024	 0.252869036274637 
1025	 0.253641141818413 
1026	 0.254477861440391 
1027	 0.25525473577961 
1028	 0.256031363323411 
1029	 0.256791509154193 
1030	 0.257497775779933 
1031	 0.258217170785036 
1032	 0.258951838712165 
1033	 0.259667244199279 
1034	 0.260406846023543 
1035	 0.261126355043489 
1036	 0.261827333762294 
1037	 0.262541011030018 
1038	 0.263209997536849 
1039	 0.263831287679817 
1040	 0.264462225875817 
1041	 0.265068860977989 
1042	 0.26568136146842 
1043	 0.26630329482501 
1044	 0.266905947594095 
1045	 0.267488900402638 
1046	 0.268068244101812 
1047	 0.268626024072738 
1048	 0.269189813896738 
1049	 0.26973297632428 
1050	 0.270269312932057 
1051	 0.270785596401728 
1052	 0.271291361903371 
1053	 0.271815149478141 
1054	 0.272373761174494 
1055	 0.272867396216799 
1056	 0.273335004572919 
1057	 0.273817726279535 
1058	 0.274279268457164 
1059	 0.274722486098012 
1060	 0.275185883036313 
1061	 0.275636979074144 
1062	 0.276086782150746 
1063	 0.276517596910531 
1064	 0.276936224538617 
1065	 0.277361203139213 
1066	 0.277738730345683 
1067	 0.27811050606469 
1068	 0.278504734271923 
1069	 0.278872927554846 
1070	 0.279244495984114 
1071	 0.27961212384572 
1072	 0.279983793549583 
1073	 0.280331806649391 
1074	 0.280668100397833 
1075	 0.28097959975747 
1076	 0.28127666683826 
1077	 0.281584751135585 
1078	 0.281868314276437 
1079	 0.282171979933683 
1080	 0.282485998832591 
1081	 0.282765816365003 
1082	 0.283067911595238 
1083	 0.283341616814621 
1084	 0.283576678304634 
1085	 0.283804451099616 
1086	 0.284033271483782 
1087	 0.284249445266518 
1088	 0.284467372267282 
1089	 0.284686659380998 
1090	 0.284922537785054 
1091	 0.285135258809112 
1092	 0.285319845449375 
1093	 0.285520227608164 
1094	 0.285720370880846 
1095	 0.285906766116959 
1096	 0.286086801837352 
1097	 0.286235759747834 
1098	 0.286364254467181 
1099	 0.286493818153187 
1100	 0.286633594331402 
1101	 0.286795156402443 
1102	 0.286952660559097 
1103	 0.287101402578092 
1104	 0.287250001063521 
1105	 0.287387595994014 
1106	 0.287493609651076 
1107	 0.2875924132717 
1108	 0.287689969818886 
1109	 0.287794739074202 
1110	 0.287924021221913 
1111	 0.288053070997515 
1112	 0.288158424366691 
1113	 0.288249284261123 
1114	 0.288338788294801 
1115	 0.288409431020858 
1116	 0.288462876510273 
1117	 0.288514907745998 
1118	 0.288561683109421 
1119	 0.288582258029682 
1120	 0.28862654406678 
1121	 0.288685208962702 
1122	 0.288736511556781 
1123	 0.28878010399016 
1124	 0.28881529397436 
1125	 0.288839726375904 
1126	 0.288852048032565 
1127	 0.288857360127299 
1128	 0.288846077009357 
1129	 0.288822808307781 
1130	 0.288794722940148 
1131	 0.288762882051122 
1132	 0.288732341992939 
1133	 0.288692400896913 
1134	 0.288652640670408 
1135	 0.288608314134688 
1136	 0.288573526563019 
1137	 0.288502527448874 
1138	 0.288403523864317 
1139	 0.288314853213912 
1140	 0.288211409682519 
1141	 0.288102786660365 
1142	 0.288002112314023 
1143	 0.287917563429849 
1144	 0.287813734821807 
1145	 0.287696339501485 
1146	 0.287603798066984 
1147	 0.287474930262487 
1148	 0.287313628794411 
1149	 0.287173683001298 
1150	 0.28701399228543 
1151	 0.286865622000409 
1152	 0.286725446777593 
1153	 0.286601197123878 
1154	 0.286465114070838 
1155	 0.286338543979902 
1156	 0.286189407777176 
1157	 0.286029247941909 
1158	 0.28587488028349 
1159	 0.285711466446689 
1160	 0.285542949817752 
1161	 0.28537271038465 
1162	 0.28519472488885 
1163	 0.285021014640468 
1164	 0.284847140818953 
1165	 0.284694996564299 
1166	 0.284563736452288 
1167	 0.28441728568886 
1168	 0.284275106356997 
1169	 0.284140251248401 
1170	 0.284017791263995 
1171	 0.283874278396672 
1172	 0.283723261652804 
1173	 0.283579399141906 
1174	 0.283419501348988 
1175	 0.283276771963749 
1176	 0.283162958983643 
1177	 0.283029375778823 
1178	 0.282890816741861 
1179	 0.282742588144475 
1180	 0.282602593581226 
1181	 0.282455865403384 
1182	 0.282305518673348 
1183	 0.282173186296828 
1184	 0.282040422735211 
1185	 0.281900024971775 
1186	 0.281778483347767 
1187	 0.281655644785311 
1188	 0.281573945067635 
1189	 0.281515209965471 
1190	 0.281472887028135 
1191	 0.281465082549395 
1192	 0.28146324047124 
1193	 0.281474417492822 
1194	 0.281486673093932 
1195	 0.281509878320168 
1196	 0.281547023284361 
1197	 0.28158699592967 
1198	 0.281641266748692 
1199	 0.28171326973083 
1200	 0.281795938859108 
1201	 0.281902764950157 
1202	 0.282024253170811 
1203	 0.282163703832872 
1204	 0.282342131356901 
1205	 0.28251571249353 
1206	 0.282676940417711 
1207	 0.282903173368162 
1208	 0.283145111982428 
1209	 0.283442065114857 
1210	 0.283783216476831 
1211	 0.284178075439541 
1212	 0.284616761970154 
1213	 0.285106970913965 
1214	 0.28566497793467 
1215	 0.286251820150768 
1216	 0.286885313445558 
1217	 0.287538790270179 
1218	 0.288241904419171 
1219	 0.28894021275374 
1220	 0.289673384863854 
1221	 0.290478711310459 
1222	 0.291234205416891 
1223	 0.292010502339471 
1224	 0.292762498632265 
1225	 0.293486885774444 
1226	 0.294207694628918 
1227	 0.294938484183761 
1228	 0.29563561636036 
1229	 0.296316126311985 
1230	 0.296977557748063 
1231	 0.297619904082168 
1232	 0.298243150658211 
1233	 0.29883903787518 
1234	 0.299420807338051 
1235	 0.299978762365101 
1236	 0.300535351923934 
1237	 0.30108572928191 
1238	 0.301620469179792 
1239	 0.302137306185074 
1240	 0.302653601027631 
1241	 0.303181468761284 
1242	 0.303665558029456 
1243	 0.304142798615297 
1244	 0.304607659747096 
1245	 0.30507953471349 
1246	 0.305528259612317 
1247	 0.305993618208076 
1248	 0.306483856112257 
1249	 0.30694735814334 
1250	 0.307388537112985 
1251	 0.307844260749661 
1252	 0.308301327525506 
1253	 0.308756869182657 
1254	 0.309231137769221 
1255	 0.309679841112714 
1256	 0.310111417038283 
1257	 0.310544958048039 
1258	 0.310954835824687 
1259	 0.311380792920176 
1260	 0.311822007512817 
1261	 0.3122554393413 
1262	 0.312681204019233 
1263	 0.313130658267199 
1264	 0.313558928329266 
1265	 0.313976831922211 
1266	 0.314400405289713 
1267	 0.314825282298804 
1268	 0.315237400445369 
1269	 0.315638065591868 
1270	 0.316052139449658 
1271	 0.316465879425886 
1272	 0.31687627764193 
1273	 0.317290741044951 
1274	 0.317708350683325 
1275	 0.318121032127964 
1276	 0.318530664151548 
1277	 0.318944512162933 
1278	 0.319359007625666 
1279	 0.319758598442587 
1280	 0.320172414651664 
1281	 0.320581252273305 
1282	 0.321018227321639 
1283	 0.321487491723828 
1284	 0.321939343663685 
1285	 0.322393159159187 
1286	 0.322866813861175 
1287	 0.323314937716447 
1288	 0.32373201640676 
1289	 0.324186720692566 
1290	 0.324647698381091 
1291	 0.325123692987153 
1292	 0.325628774868269 
1293	 0.326104130562328 
1294	 0.326570247481869 
1295	 0.32704749069205 
1296	 0.327520353280786 
1297	 0.3279890942621 
1298	 0.328462075394111 
1299	 0.328938049942431 
1300	 0.329406174444643 
1301	 0.329875054217667 
1302	 0.330347652191587 
1303	 0.330827135724509 
1304	 0.33129982325721 
1305	 0.331781281027007 
1306	 0.332281339752261 
1307	 0.332774729737651 
1308	 0.333260597579492 
1309	 0.333756194493429 
1310	 0.33424629594367 
1311	 0.334731803876928 
1312	 0.335231315428454 
1313	 0.335741754771646 
1314	 0.336233584987101 
1315	 0.336723685199956 
1316	 0.337216583354427 
1317	 0.337690041702705 
1318	 0.338188736994764 
1319	 0.338705869567993 
1320	 0.339219363284567 
1321	 0.33975223176851 
1322	 0.340255260991883 
1323	 0.340748092451765 
1324	 0.341236584641565 
1325	 0.341700922154446 
1326	 0.342176483732024 
1327	 0.342661621625861 
1328	 0.343135797748184 
1329	 0.343612232737784 
1330	 0.344072363768983 
1331	 0.344512796839302 
1332	 0.344959715175032 
1333	 0.345388899430669 
1334	 0.345843471346424 
1335	 0.346274741944764 
1336	 0.34671234950571 
1337	 0.347121096314495 
1338	 0.347508817024358 
1339	 0.347895796271855 
1340	 0.348268411158252 
1341	 0.348644373038505 
1342	 0.349023129266195 
1343	 0.349383567075383 
1344	 0.34974387593669 
1345	 0.350077438810009 
1346	 0.350399065689756 
1347	 0.350692560518712 
1348	 0.350951503526008 
1349	 0.351219640410848 
1350	 0.35147410774447 
1351	 0.351722927582197 
1352	 0.351967528760364 
1353	 0.352213112093719 
1354	 0.352441083306148 
1355	 0.3526824768979 
1356	 0.35294492237894 
1357	 0.353190228486399 
1358	 0.353425456040465 
1359	 0.353667212404274 
1360	 0.353905505039809 
1361	 0.354141134319161 
1362	 0.354395207818 
1363	 0.354624049878179 
1364	 0.354844518209769 
1365	 0.355056698907101 
1366	 0.355250681706034 
1367	 0.355436466814562 
1368	 0.355593176194775 
1369	 0.355734814893863 
1370	 0.355846829579799 
1371	 0.355931423313551 
1372	 0.355997215237768 
1373	 0.356038205030295 
1374	 0.356066047400501 
1375	 0.356078348749316 
1376	 0.356068714558926 
1377	 0.356042377514254 
1378	 0.355992803799261 
1379	 0.35591709715291 
1380	 0.35582937836247 
1381	 0.355724019291351 
1382	 0.355603727875539 
1383	 0.355457091053027 
1384	 0.355313832765768 
1385	 0.35514343190329 
1386	 0.354997910524178 
1387	 0.354845540853817 
1388	 0.354729722390006 
1389	 0.354640827502868 
1390	 0.354565964249017 
1391	 0.354523868113879 
1392	 0.354486318385997 
1393	 0.354466851108574 
1394	 0.354431517262352 
1395	 0.354371589539401 
1396	 0.354330337418478 
1397	 0.354185576717109 
1398	 0.354010377194142 
1399	 0.353736647296826 
1400	 0.35339371213589 
1401	 0.352959316700539 
1402	 0.352455960754488 
1403	 0.35184972139568 
1404	 0.351136003661965 
1405	 0.350380672914044 
1406	 0.349510197228444 
1407	 0.348661235251012 
1408	 0.347705895469331 
1409	 0.346878321764486 
1410	 0.346009721873982 
1411	 0.345330678496052 
1412	 0.344736392162189 
1413	 0.344302535082424 
1414	 0.344014164566031 
1415	 0.343836005110071 
1416	 0.34384714442873 
1417	 0.343870872598241 
1418	 0.344027168318298 
1419	 0.344162109441171 
1420	 0.344330447693934 
1421	 0.344501799653722 
1422	 0.344681463091808 
1423	 0.34487581322623 
1424	 0.345080881575095 
1425	 0.345298613491966 
1426	 0.345530934771405 
1427	 0.345800740258428 
1428	 0.346100160787085 
1429	 0.346406436478721 
1430	 0.346750061010504 
1431	 0.347120367983796 
1432	 0.347516955654302 
1433	 0.347944255614 
1434	 0.348393407265598 
1435	 0.348861962993269 
1436	 0.349371264642591 
1437	 0.349910532283611 
1438	 0.350475031073311 
1439	 0.351085037909976 
1440	 0.351693316140459 
1441	 0.352323199671359 
1442	 0.352961740195732 
1443	 0.353602268473639 
1444	 0.354279013878257 
1445	 0.354986536348879 
1446	 0.355691052459212 
1447	 0.356416936609754 
1448	 0.357148665697359 
1449	 0.357897057076568 
1450	 0.358630159342468 
1451	 0.359358640026274 
1452	 0.36010810535502 
1453	 0.360863055806889 
1454	 0.361604114277736 
1455	 0.362364363679208 
1456	 0.363112486032329 
1457	 0.363834946849836 
1458	 0.364566874092476 
1459	 0.365300217366676 
1460	 0.366044545196351 
1461	 0.366787892433562 
1462	 0.367536166936598 
1463	 0.368295788722885 
1464	 0.369061729637136 
1465	 0.369813003595282 
1466	 0.370610307863229 
1467	 0.371378482811367 
1468	 0.372180877645211 
1469	 0.373000036825065 
1470	 0.373761135731426 
1471	 0.374537582698871 
1472	 0.375311700740628 
1473	 0.376089890766761 
1474	 0.376870373416866 
1475	 0.377621987410311 
1476	 0.378379543196407 
1477	 0.379103928443223 
1478	 0.379787202562159 
1479	 0.380471189723179 
1480	 0.381152562409818 
1481	 0.381805429957796 
1482	 0.382432635319557 
1483	 0.383058139823175 
1484	 0.383658744356078 
1485	 0.384275763365901 
1486	 0.384900351298885 
1487	 0.385502593473041 
1488	 0.386099470876095 
1489	 0.386692000322983 
1490	 0.387251754502433 
1491	 0.387848185715775 
1492	 0.388449724008636 
1493	 0.389081560380865 
1494	 0.389736728275266 
1495	 0.390403239168614 
1496	 0.39109659474224 
1497	 0.391794066803773 
1498	 0.392507356406102 
1499	 0.393224293199384 
1500	 0.393948843503382 
1501	 0.394682246010906 
1502	 0.395427051905366 
1503	 0.396165769834992 
1504	 0.39690173518804 
1505	 0.397654762862042 
1506	 0.398412932559617 
1507	 0.399177864090657 
1508	 0.399963785289461 
1509	 0.400744793964541 
1510	 0.401527537880408 
1511	 0.402302676151047 
1512	 0.403071213502758 
1513	 0.403848917670077 
1514	 0.404632303551468 
1515	 0.405408346558748 
1516	 0.406181476842187 
1517	 0.406962403161116 
1518	 0.407736441734378 
1519	 0.40851405683897 
1520	 0.409299824555114 
1521	 0.410089720631771 
1522	 0.410876019528438 
1523	 0.411712584797768 
1524	 0.412519442946819 
1525	 0.41333775308246 
1526	 0.41415419079874 
1527	 0.414952587131686 
1528	 0.415778959395116 
1529	 0.416620627717986 
1530	 0.417478279993074 
1531	 0.418350278849538 
1532	 0.419226474090098 
1533	 0.420115193006001 
1534	 0.421024327065279 
1535	 0.421950104106372 
1536	 0.422859443582307 
1537	 0.423787531148662 
1538	 0.424699697070457 
1539	 0.425590257890272 
1540	 0.4264931173171 
1541	 0.427410041978194 
1542	 0.428309594113219 
1543	 0.429208775473196 
1544	 0.430076550036905 
1545	 0.430932336187252 
1546	 0.431768519770913 
1547	 0.432582787786776 
1548	 0.433373534177147 
1549	 0.434134612875007 
1550	 0.434909244762388 
1551	 0.435664801492042 
1552	 0.436421825611811 
1553	 0.437187729771645 
1554	 0.437947790242589 
1555	 0.438692383839742 
1556	 0.439443911326579 
1557	 0.440198812547973 
1558	 0.440962365132649 
1559	 0.441724392858534 
1560	 0.442492508098178 
1561	 0.443269453404314 
1562	 0.444056201027827 
1563	 0.444851764920043 
1564	 0.44564067385958 
1565	 0.446431611451659 
1566	 0.447236446800921 
1567	 0.448038063983321 
1568	 0.448851453165873 
1569	 0.449690496251304 
1570	 0.450520079456628 
1571	 0.451351682144168 
1572	 0.452172948787161 
1573	 0.452986726810445 
1574	 0.453809428098904 
1575	 0.454631529273027 
1576	 0.455449248378015 
1577	 0.456268965810271 
1578	 0.457094041357453 
1579	 0.457914353447713 
1580	 0.4587354070711 
1581	 0.459573398932597 
1582	 0.46039457868222 
1583	 0.461197427161651 
1584	 0.462010881433081 
1585	 0.462821064021696 
1586	 0.463638336500522 
1587	 0.464474948203376 
1588	 0.465285722112314 
1589	 0.466061555697056 
1590	 0.466883149072942 
1591	 0.467713489419018 
1592	 0.468552877972278 
1593	 0.469421502736188 
1594	 0.470303303872286 
1595	 0.471205681944718 
1596	 0.472081493904882 
1597	 0.472971072669656 
1598	 0.473847252760872 
1599	 0.474687516789579 
1600	 0.475543109804757 
1601	 0.476419105758154 
1602	 0.47727642552197 
1603	 0.478113867386408 
1604	 0.478957050627595 
1605	 0.47980735387939 
1606	 0.480638428050571 
1607	 0.481464578082309 
1608	 0.482284284993043 
1609	 0.483079275510857 
1610	 0.483884725802674 
1611	 0.484715385090335 
1612	 0.485498618662552 
1613	 0.486262821375444 
1614	 0.487010682304395 
1615	 0.487721223178005 
1616	 0.488429173355105 
1617	 0.48913227272706 
1618	 0.48981993102948 
1619	 0.490493238181134 
1620	 0.491142632002017 
1621	 0.491772461556148 
1622	 0.492391654904217 
1623	 0.492977786307037 
1624	 0.493579266820995 
1625	 0.494188428206937 
1626	 0.494782002882041 
1627	 0.495373013890681 
1628	 0.495950421707381 
1629	 0.496503485191979 
1630	 0.497066518582476 
1631	 0.497649778631844 
1632	 0.498197113421187 
1633	 0.498720712556492 
1634	 0.499248332278455 
1635	 0.499747441279133 
1636	 0.500250816637931 
1637	 0.500777151432779 
1638	 0.501274687415886 
1639	 0.501771254051154 
1640	 0.502225862048003 
1641	 0.502642343275317 
1642	 0.503053503059764 
1643	 0.503447092117713 
1644	 0.503801410365179 
1645	 0.504139189819508 
1646	 0.504447182625525 
1647	 0.504716381800261 
1648	 0.504957261316061 
1649	 0.505178082731946 
1650	 0.505363986236474 
1651	 0.505496351180382 
1652	 0.505623683578306 
1653	 0.5057702435194 
1654	 0.505823391147474 
1655	 0.505847018146946 
1656	 0.505784437070256 
1657	 0.505634775306442 
1658	 0.505419933609095 
1659	 0.505150048547192 
1660	 0.504791504107915 
1661	 0.504352064553936 
1662	 0.503830543650737 
1663	 0.503238331792051 
1664	 0.502529487340364 
1665	 0.501735558577905 
1666	 0.50081121814758 
1667	 0.499747952732728 
1668	 0.498625082279956 
1669	 0.49741461362104 
1670	 0.496090656160409 
1671	 0.49468139884415 
1672	 0.493143582311862 
1673	 0.491469888852215 
1674	 0.489700907826905 
1675	 0.487818148613713 
1676	 0.4858788154418 
1677	 0.483833669218482 
1678	 0.481734843306732 
1679	 0.479542887341754 
1680	 0.477307181686767 
1681	 0.475003818022425 
1682	 0.472644270848443 
1683	 0.470225472614223 
1684	 0.467810488807796 
1685	 0.465337462413915 
1686	 0.462860299836624 
1687	 0.460333137497082 
1688	 0.457852211001457 
1689	 0.455367202078213 
1690	 0.45289115781919 
1691	 0.450476675156565 
1692	 0.448060714997304 
1693	 0.445656724541919 
1694	 0.443199723666862 
1695	 0.440735468722081 
1696	 0.438206891392147 
1697	 0.435603789429975 
1698	 0.432994763271659 
1699	 0.430360216224154 
1700	 0.427792165552436 
1701	 0.425182174999781 
1702	 0.422696143733432 
1703	 0.420223512078181 
1704	 0.417931002230993 
1705	 0.41573564930182 
1706	 0.413656456862819 
1707	 0.411835408675842 
1708	 0.41007772195154 
1709	 0.408436456552688 
1710	 0.406935601060336 
1711	 0.405426204240811 
1712	 0.404020815033486 
1713	 0.402639914262224 
1714	 0.401273003498723 
1715	 0.400067011073621 
1716	 0.398883737742356 
1717	 0.397769143111101 
1718	 0.396778311894533 
1719	 0.395826608362494 
1720	 0.394985541166949 
1721	 0.394309544977756 
1722	 0.39378251270883 
1723	 0.393473614686596 
1724	 0.393416596463947 
1725	 0.393583945775172 
1726	 0.394062745019805 
1727	 0.394876154756252 
1728	 0.395947535408956 
1729	 0.397360758854207 
1730	 0.399083663083755 
1731	 0.400888830464193 
1732	 0.402962936875578 
1733	 0.405122256786999 
1734	 0.407252249948407 
1735	 0.409464166621388 
1736	 0.411484940730163 
1737	 0.413353742237695 
1738	 0.415061653760315 
1739	 0.416516989811951 
1740	 0.417797792495051 
1741	 0.418833981801424 
1742	 0.419589000735355 
1743	 0.420217382887578 
1744	 0.420609485951538 
1745	 0.420903232578232 
1746	 0.420997737402238 
1747	 0.421077481201694 
1748	 0.421000541557133 
1749	 0.420996002076927 
1750	 0.420951623978979 
1751	 0.420965869577532 
1752	 0.420985895922353 
1753	 0.421110471798137 
1754	 0.42124243288801 
1755	 0.421559393874205 
1756	 0.421963182606155 
1757	 0.422545514334467 
1758	 0.423358214616455 
1759	 0.424317180106214 
1760	 0.425493059782227 
1761	 0.426886871407514 
1762	 0.428387252889677 
1763	 0.430145346676625 
1764	 0.43205611962512 
1765	 0.434105899688111 
1766	 0.43641478374355 
1767	 0.438705825207191 
1768	 0.441048232833689 
1769	 0.443449638887868 
1770	 0.445618793124202 
1771	 0.447764621378699 
1772	 0.449842735358703 
1773	 0.451748116392513 
1774	 0.453689524124058 
1775	 0.455477456137918 
1776	 0.457169235139028 
1777	 0.458778243402574 
1778	 0.460151796209258 
1779	 0.461502096863612 
1780	 0.462745866580532 
1781	 0.463829213412614 
1782	 0.464919900652592 
1783	 0.465887401126467 
1784	 0.466770190412673 
1785	 0.467542966506174 
1786	 0.468255734094152 
1787	 0.468872051446996 
1788	 0.469457332363551 
1789	 0.469989385662869 
1790	 0.470535037914991 
1791	 0.47104664129585 
1792	 0.471545031357013 
1793	 0.472021850430839 
1794	 0.472480075462274 
1795	 0.472912630149907 
1796	 0.473358823034927 
1797	 0.473842051312255 
1798	 0.474299290705961 
1799	 0.47478493968248 
1800	 0.475273766867797 
1801	 0.472901731961848 
1802	 0.473402221266382 
1803	 0.473874402979698 
1804	 0.474302451683775 
1805	 0.474784964873224 
1806	 0.475234282786489 
1807	 0.475663167248492 
1808	 0.476102716933049 
1809	 0.476551451237462 
1810	 0.476982166372278 
1811	 0.477383002792218 
1812	 0.477825803331515 
1813	 0.478279928346967 
1814	 0.47874912924837 
1815	 0.479220438572151 
1816	 0.479724064129771 
1817	 0.480220132909135 
1818	 0.480705553942128 
1819	 0.481207410468208 
1820	 0.481713036956239 
1821	 0.482241029905008 
1822	 0.482781381128303 
1823	 0.483354349909641 
1824	 0.483893288710699 
1825	 0.484447565088016 
1826	 0.484953007366594 
1827	 0.485405675722967 
1828	 0.485871950962632 
1829	 0.486313075856172 
1830	 0.486775528546709 
1831	 0.487233842440879 
1832	 0.487721035017856 
1833	 0.48819627896235 
1834	 0.488660412908165 
1835	 0.489116574448911 
1836	 0.489540172970663 
1837	 0.4899647015792 
1838	 0.490375479769731 
1839	 0.490795316440263 
1840	 0.491211926754167 
1841	 0.491626455811273 
1842	 0.492039929394005 
1843	 0.492458002450558 
1844	 0.492871790944304 
1845	 0.493251420555502 
1846	 0.493644377914482 
1847	 0.494027069669692 
1848	 0.494408750274401 
1849	 0.494809966503986 
1850	 0.49516264188886 
1851	 0.495504421065166 
1852	 0.495818329047403 
1853	 0.496071046442166 
1854	 0.496298271522689 
1855	 0.496521170687827 
1856	 0.496695503591706 
1857	 0.496824004724955 
1858	 0.496904836108146 
1859	 0.496921088843233 
1860	 0.496879082259228 
1861	 0.496766258994234 
1862	 0.496595774291526 
1863	 0.496372683227922 
1864	 0.496055728019219 
1865	 0.495683436709414 
1866	 0.495243654565875 
1867	 0.494692549565665 
1868	 0.494089871458856 
1869	 0.493356804538578 
1870	 0.492527880784684 
1871	 0.49162022537315 
1872	 0.490613303678354 
1873	 0.489497341133871 
1874	 0.488321289461522 
1875	 0.487046726264628 
1876	 0.485556613179694 
1877	 0.483984940612124 
1878	 0.482216352820624 
1879	 0.480263127158736 
1880	 0.478303566725797 
1881	 0.476137647445972 
1882	 0.473798040216278 
1883	 0.471342647918301 
1884	 0.468695169092085 
1885	 0.465665136946247 
1886	 0.462555001232642 
1887	 0.459191320959506 
1888	 0.455524379025707 
1889	 0.451989990066295 
1890	 0.448223601011401 
1891	 0.444422607842958 
1892	 0.44068005366868 
1893	 0.436817565869643 
1894	 0.432783636332184 
1895	 0.428932589387801 
1896	 0.425014977593713 
1897	 0.421099433551261 
1898	 0.417552918333215 
1899	 0.413963992849003 
1900	 0.410511838268635 
1901	 0.407265316253418 
1902	 0.403898843310096 
1903	 0.400770511762755 
1904	 0.397762698062333 
1905	 0.394841149922897 
1906	 0.392049311525207 
1907	 0.389608983363153 
1908	 0.387158079408788 
1909	 0.384831612339904 
1910	 0.38269539485062 
1911	 0.380524508038746 
1912	 0.378533802436102 
1913	 0.376647712330096 
1914	 0.374800427523917 
1915	 0.373104468998358 
1916	 0.371571848538142 
1917	 0.37005258488148 
1918	 0.368625224007476 
1919	 0.367328615251118 
1920	 0.366009050850026 
1921	 0.364780186670755 
1922	 0.363612709212612 
1923	 0.362464502170068 
1924	 0.361466520888406 
1925	 0.360531751074428 
1926	 0.359655478361448 
1927	 0.358867393453149 
1928	 0.358132975835785 
1929	 0.357442763620707 
1930	 0.356831155236493 
1931	 0.356298345882831 
1932	 0.355834570989272 
1933	 0.355476583102134 
1934	 0.355202464160206 
1935	 0.354980119922657 
1936	 0.354814147174375 
1937	 0.354708377461168 
1938	 0.354637929811583 
1939	 0.354655423463882 
1940	 0.354742437376447 
1941	 0.354922687434092 
1942	 0.355140009816484 
1943	 0.355395408431869 
1944	 0.355688850877441 
1945	 0.356031252901851 
1946	 0.356446088765935 
1947	 0.356884415920185 
1948	 0.357358942930223 
1949	 0.357864765769114 
1950	 0.358380318226414 
1951	 0.358921212420512 
1952	 0.359474420470166 
1953	 0.360042901670374 
1954	 0.3606176021896 
1955	 0.361248793086842 
1956	 0.361859386874075 
1957	 0.362514730329797 
1958	 0.363198708458492 
1959	 0.363822437430657 
1960	 0.364456795872538 
1961	 0.365105054569486 
1962	 0.365744628180734 
1963	 0.366405856038181 
1964	 0.36709850662476 
1965	 0.367773850066104 
1966	 0.368465650990836 
1967	 0.369129308127188 
1968	 0.369753884027483 
1969	 0.370403247440824 
1970	 0.371011728761726 
1971	 0.371609594275686 
1972	 0.372259146721676 
1973	 0.372875826538129 
1974	 0.373497500274728 
1975	 0.374149722873615 
1976	 0.374754629773347 
1977	 0.375331201981642 
1978	 0.375908777499066 
1979	 0.376466576978543 
1980	 0.377005637595957 
1981	 0.377584342969135 
1982	 0.37812823909113 
1983	 0.378680323404654 
1984	 0.379229303182254 
1985	 0.379704628187346 
1986	 0.38019421926194 
1987	 0.380677165172196 
1988	 0.381133825548141 
1989	 0.38160013305251 
1990	 0.382094710105196 
1991	 0.382539878383661 
1992	 0.382962366546366 
1993	 0.383376860620438 
1994	 0.383746200190004 
1995	 0.384118533857804 
1996	 0.384488263256384 
1997	 0.384847663911137 
1998	 0.385204784972281 
1999	 0.385564540323599 
2000	 0.385906612371606 
2001	 0.386252058803939 
2002	 0.386561278354481 
2003	 0.386853585224992 
2004	 0.387119239159122 
2005	 0.387358807169725 
2006	 0.387571029406635 
2007	 0.38775370113379 
2008	 0.38792382358661 
2009	 0.388081070939481 
2010	 0.388202623132577 
2011	 0.388282099246138 
2012	 0.388319401203665 
2013	 0.388299242605702 
2014	 0.388217013672674 
2015	 0.388094027529591 
2016	 0.38794010035951 
2017	 0.387709058269212 
2018	 0.387409896595079 
2019	 0.387056855351121 
2020	 0.386632982499985 
2021	 0.386165597593643 
2022	 0.385665174665722 
2023	 0.385114478812437 
2024	 0.384480003841374 
2025	 0.383805043787442 
2026	 0.383088517083586 
2027	 0.382264919597531 
2028	 0.381502898731885 
2029	 0.380726744665516 
2030	 0.379959545203429 
2031	 0.379202293367635 
2032	 0.378455947315017 
2033	 0.377655890471277 
2034	 0.376961078075194 
2035	 0.376307434328049 
2036	 0.375694809517306 
2037	 0.37518266724448 
2038	 0.374753128471016 
2039	 0.374384507774665 
2040	 0.374087174192056 
2041	 0.373855962040832 
2042	 0.373696678953803 
2043	 0.373603604434977 
2044	 0.373587614228064 
2045	 0.373614420255399 
2046	 0.373724668085435 
2047	 0.373856402738221 
2048	 0.374027705353642 
2049	 0.374245197640556 
2050	 0.374514713807123 
2051	 0.374808683490475 
2052	 0.37515075320725 
2053	 0.375532592171296 
2054	 0.37591566652963 
2055	 0.376324797123088 
2056	 0.376744111780094 
2057	 0.377174855664003 
2058	 0.37762204965124 
2059	 0.378090681229683 
2060	 0.378563620809614 
2061	 0.379063100995343 
2062	 0.379548853659591 
2063	 0.380048813310413 
2064	 0.380531321769953 
2065	 0.381006312686362 
2066	 0.381459541875126 
2067	 0.381934819689434 
2068	 0.382378241300108 
2069	 0.382813777916238 
2070	 0.383261961195673 
2071	 0.383651799034403 
2072	 0.383999180566335 
2073	 0.38434418625934 
2074	 0.384655647421183 
2075	 0.38495948031749 
2076	 0.385249456049237 
2077	 0.38553236403729 
2078	 0.385817162035638 
2079	 0.386062713265237 
2080	 0.386295377108647 
2081	 0.38649960840597 
2082	 0.386672424943635 
2083	 0.386800597808546 
2084	 0.386926276500305 
2085	 0.387034601182992 
2086	 0.387127981619567 
2087	 0.387201067570041 
2088	 0.387264636262141 
2089	 0.387315598822803 
2090	 0.387349074994435 
2091	 0.387372442859053 
2092	 0.387369010305857 
2093	 0.387344373893546 
2094	 0.387303567593577 
2095	 0.387237740889936 
2096	 0.387157692372001 
2097	 0.387065111950753 
2098	 0.386953352612873 
2099	 0.386807438360381 
2100	 0.386650771565592 
2101	 0.386463662722053 
2102	 0.386243805910506 
2103	 0.386015944527694 
2104	 0.385759103994217 
2105	 0.385507387036989 
2106	 0.385246919581605 
2107	 0.384971325668717 
2108	 0.384697826987857 
2109	 0.384395356297297 
2110	 0.384061424523059 
2111	 0.383731423091184 
2112	 0.383382129121013 
2113	 0.383035133997614 
2114	 0.382696073188322 
2115	 0.38233495085407 
2116	 0.38197255081791 
2117	 0.381581782294499 
2118	 0.38117741112453 
2119	 0.380742141574931 
2120	 0.380335564834694 
2121	 0.379900021305902 
2122	 0.37953049128698 
2123	 0.379204064666707 
2124	 0.378868073707656 
2125	 0.37857122924491 
2126	 0.378251693372714 
2127	 0.377923105070061 
2128	 0.377601634640845 
2129	 0.377293716874451 
2130	 0.376965222527374 
2131	 0.37665445745822 
2132	 0.376289935283941 
2133	 0.375876325083496 
2134	 0.375477770316019 
2135	 0.375033972803213 
2136	 0.374559531503415 
2137	 0.374060458179137 
2138	 0.373526173704633 
2139	 0.373000926492146 
2140	 0.372446434678363 
2141	 0.371905261029391 
2142	 0.371372145982142 
2143	 0.370836649108752 
2144	 0.370287721769775 
2145	 0.369753455001843 
2146	 0.369215038271942 
2147	 0.368703591635263 
2148	 0.368211095269206 
2149	 0.367722131286606 
2150	 0.367272379601792 
2151	 0.366799244388794 
2152	 0.366335258493079 
2153	 0.365840505711683 
2154	 0.36530719112497 
2155	 0.364742015900441 
2156	 0.364175458529166 
2157	 0.363563843346065 
2158	 0.362979744452514 
2159	 0.362422551297707 
2160	 0.361813931222576 
2161	 0.361170329023329 
2162	 0.360553871575823 
2163	 0.359896123617627 
2164	 0.359298081455849 
2165	 0.35873907885418 
2166	 0.358186287684159 
2167	 0.357643894967606 
2168	 0.35713746839936 
2169	 0.356647264399353 
2170	 0.356199163995282 
2171	 0.355774633439052 
2172	 0.35540487442615 
2173	 0.355090109820593 
2174	 0.35478833590832 
2175	 0.354546378088344 
2176	 0.354373238170025 
2177	 0.354185249768232 
2178	 0.354024263399845 
2179	 0.353878978265513 
2180	 0.353744060835157 
2181	 0.353625789285128 
2182	 0.353540000965183 
2183	 0.353455398482485 
2184	 0.353383713907277 
2185	 0.353312208067871 
2186	 0.353270542761659 
2187	 0.353189316289234 
2188	 0.353084997802579 
2189	 0.352987831691106 
2190	 0.352901419082742 
2191	 0.352767458048843 
2192	 0.35264128253086 
2193	 0.352456503537414 
2194	 0.352224472302448 
2195	 0.351943445926836 
2196	 0.351606187772152 
2197	 0.351238060055155 
2198	 0.350869969956411 
2199	 0.350441602536407 
2200	 0.349969326629903 
2201	 0.349500182566146 
2202	 0.348902593525723 
2203	 0.348201449716614 
2204	 0.347479706822639 
2205	 0.346654768954025 
2206	 0.345869750508358 
2207	 0.345063406110761 
2208	 0.344245390059709 
2209	 0.343425271281363 
2210	 0.342590204910911 
2211	 0.341683644904269 
2212	 0.340873876377551 
2213	 0.340059736703548 
2214	 0.33933934120823 
2215	 0.338699184412122 
2216	 0.338106483885884 
2217	 0.337593815401008 
2218	 0.337110891182123 
2219	 0.336713200011974 
2220	 0.336299874384871 
2221	 0.335927396552903 
2222	 0.335529198831277 
2223	 0.335161148398162 
2224	 0.334727056980895 
2225	 0.334241205847611 
2226	 0.333720653550827 
2227	 0.333047883340974 
2228	 0.332289394241016 
2229	 0.331376132790394 
2230	 0.330300031163591 
2231	 0.329187361537615 
2232	 0.32796920382824 
2233	 0.326643746846627 
2234	 0.325279106137998 
2235	 0.323721781251159 
2236	 0.322005629536445 
2237	 0.320180440253203 
2238	 0.318167438752867 
2239	 0.316122130186789 
2240	 0.313977363101296 
2241	 0.31173362493976 
2242	 0.309498648042369 
2243	 0.307015221170243 
2244	 0.304318123915474 
2245	 0.301562465517984 
2246	 0.298541495795421 
2247	 0.295570856852091 
2248	 0.2926028230476 
2249	 0.289531922517074 
2250	 0.286401865138005 
2251	 0.28326679582883 
2252	 0.279840559815406 
2253	 0.276494838746737 
2254	 0.273087314884331 
2255	 0.269627680232738 
2256	 0.266494795425324 
2257	 0.263351287257909 
2258	 0.260347040735037 
2259	 0.257529477887374 
2260	 0.254672734920541 
2261	 0.251772888942703 
2262	 0.249187668792734 
2263	 0.246637878878945 
2264	 0.244441928655853 
2265	 0.242620091281064 
2266	 0.24080557244575 
2267	 0.239203147348429 
2268	 0.23768180980089 
2269	 0.236242270791586 
2270	 0.234975194943409 
2271	 0.233878292026674 
2272	 0.2328712873832 
2273	 0.2320678378261 
2274	 0.231240417985279 
2275	 0.230527067773459 
2276	 0.229790502190685 
2277	 0.229071438648352 
2278	 0.228360722397249 
2279	 0.22765342141639 
2280	 0.226964083747608 
2281	 0.226300904461635 
2282	 0.22563669379636 
2283	 0.224991859062902 
2284	 0.224369860562877 
2285	 0.223659236476186 
2286	 0.222911716651724 
2287	 0.222128777738067 
2288	 0.221302060964615 
2289	 0.220512267750066 
2290	 0.219670432053407 
2291	 0.21883765980112 
2292	 0.217997726789044 
2293	 0.21709985254965 
2294	 0.216271798213487 
2295	 0.215420367598331 
2296	 0.214585784840584 
2297	 0.213933343423462 
2298	 0.213366647475627 
2299	 0.212948415727313 
2300	 0.212684637885387 
2301	 0.212547016152213 
2302	 0.212514220961973 
2303	 0.212690819724968 
2304	 0.213051852308128 
2305	 0.213546287874463 
2306	 0.214223555572279 
2307	 0.215042500027814 
2308	 0.215998284439588 
2309	 0.217148360189248 
2310	 0.218563878802321 
2311	 0.219956964367281 
2312	 0.221580533527791 
2313	 0.22306419446398 
2314	 0.224572846284955 
2315	 0.225975257520729 
2316	 0.227335882825947 
2317	 0.228575799110416 
2318	 0.229786973677345 
2319	 0.23076156638457 
2320	 0.231607820686615 
2321	 0.232253242011565 
2322	 0.232640582682921 
2323	 0.232933048496189 
2324	 0.233049830567249 
2325	 0.233043794887211 
2326	 0.23290952411044 
2327	 0.232626910563294 
2328	 0.232162167159452 
2329	 0.231608816348593 
2330	 0.230953128495636 
2331	 0.230073111618402 
2332	 0.229126526673671 
2333	 0.228083993951878 
2334	 0.226829753237277 
2335	 0.225518865318789 
2336	 0.224065922187725 
2337	 0.222518454450656 
2338	 0.221074152250553 
2339	 0.219534190834419 
2340	 0.218045617429407 
2341	 0.216651225722225 
2342	 0.215128376929209 
2343	 0.213774950040521 
2344	 0.212560468607822 
2345	 0.211462198780282 
2346	 0.210712271232096 
2347	 0.210170494563784 
2348	 0.209798120370695 
2349	 0.209681619579895 
2350	 0.209709513503331 
2351	 0.209934493450387 
2352	 0.210342037754783 
2353	 0.210881904579487 
2354	 0.211466973349102 
2355	 0.212099141370691 
2356	 0.212779043480871 
2357	 0.213394773628627 
2358	 0.214095695951153 
2359	 0.214739441500402 
2360	 0.215249664096042 
2361	 0.215777125433005 
2362	 0.216185939794194 
2363	 0.216536178611889 
2364	 0.216901005848015 
2365	 0.217277929927551 
2366	 0.217664483271332 
2367	 0.217938557926884 
2368	 0.218204430106686 
2369	 0.218456159624525 
2370	 0.218608637653664 
2371	 0.218815393461329 
2372	 0.219011518460749 
2373	 0.219058039185481 
2374	 0.219113676602511 
2375	 0.21915879049676 
2376	 0.21915276232114 
2377	 0.219187066066118 
2378	 0.219184083348411 
2379	 0.219162658920468 
2380	 0.219159641557506 
2381	 0.219157791487402 
2382	 0.219180530140439 
2383	 0.219253760565462 
2384	 0.219289521767371 
2385	 0.219314079907302 
2386	 0.219354548235315 
2387	 0.219389450075252 
2388	 0.219397787363271 
2389	 0.219432963895217 
2390	 0.219380460926145 
2391	 0.219269853869991 
2392	 0.219179993065435 
2393	 0.219050319546022 
2394	 0.218930102942175 
2395	 0.218817523280968 
2396	 0.218674299753437 
2397	 0.218453103312397 
2398	 0.218344992468026 
2399	 0.218267119032551 
2400	 0.218218030676571 
2401	 0.218252570735782 
2402	 0.218345099657185 
2403	 0.218430110355804 
2404	 0.218514902170426 
2405	 0.218660967482121 
2406	 0.218822137791652 
2407	 0.218942598811021 
2408	 0.219083650703914 
2409	 0.219202437513741 
2410	 0.219305933292724 
2411	 0.219508615266143 
2412	 0.219669779308173 
2413	 0.219756349774572 
2414	 0.219884677181819 
2415	 0.219909964580329 
2416	 0.220020729721174 
2417	 0.220180234866853 
2418	 0.220156062652029 
2419	 0.220220808571697 
2420	 0.220292997341403 
2421	 0.220320936485072 
2422	 0.220475572704905 
2423	 0.220550472964398 
2424	 0.220557306858168 
2425	 0.220740194351436 
2426	 0.220963113132763 
2427	 0.221118807528016 
2428	 0.221303295800774 
2429	 0.221379166689722 
2430	 0.221414473962087 
2431	 0.221588615404155 
2432	 0.221715365604419 
2433	 0.221891899739335 
2434	 0.222121207911262 
2435	 0.222146940497008 
2436	 0.222179504723389 
2437	 0.222179587643714 
2438	 0.222004320385008 
2439	 0.222002265441566 
2440	 0.222096155360487 
2441	 0.222051323219778 
2442	 0.222129047256374 
2443	 0.222235672059009 
2444	 0.222304831642401 
2445	 0.222505061086154 
2446	 0.222547160320818 
2447	 0.22243229139629 
2448	 0.222306701951801 
2449	 0.222032916959083 
2450	 0.221887097536089 
2451	 0.221968324712269 
2452	 0.221847655802245 
2453	 0.221748590096471 
2454	 0.22187127249955 
2455	 0.221891182248277 
2456	 0.221946797039487 
2457	 0.22204335139136 
2458	 0.221985390623943 
2459	 0.221897223658219 
2460	 0.22190305112713 
2461	 0.221965414524441 
2462	 0.221999229835526 
2463	 0.221950132010101 
2464	 0.221851522507386 
2465	 0.221721323816596 
2466	 0.221579583687974 
2467	 0.221461927036229 
2468	 0.221381338592651 
2469	 0.221412121508592 
2470	 0.221460519192415 
2471	 0.221426853070114 
2472	 0.221321903960193 
2473	 0.221246076115153 
2474	 0.221251918187265 
2475	 0.221285171068513 
2476	 0.221371772691475 
2477	 0.221505709326879 
2478	 0.221608309939558 
2479	 0.221748127697916 
2480	 0.221572806400582 
2481	 0.22154924848994 
2482	 0.221537178674349 
2483	 0.221459830540639 
2484	 0.221761570274118 
2485	 0.221926518481871 
2486	 0.221729362316482 
2487	 0.221706665166769 
2488	 0.221738873209178 
2489	 0.221828018241198 
2490	 0.222136292562046 
2491	 0.222242692967409 
2492	 0.222241728995467 
2493	 0.222400683168976 
2494	 0.22262156618169 
2495	 0.222980226204947 
2496	 0.223380555222138 
2497	 0.22353343739907 
2498	 0.223454189591595 
2499	 0.223387848915825 
2500	 0.223388584077344 
