Wavelength	spectrum00000.asd
350	 0.143595200305212 
351	 0.138749744003123 
352	 0.136146191114177 
353	 0.136306821415236 
354	 0.133677647582808 
355	 0.131146706668677 
356	 0.129628721605531 
357	 0.128937880824791 
358	 0.126946099270345 
359	 0.125145568497523 
360	 0.124959849303983 
361	 0.127027059142679 
362	 0.1270318080594 
363	 0.125466057239457 
364	 0.124314328431708 
365	 0.126749461726551 
366	 0.128767679359145 
367	 0.129721623447861 
368	 0.130235673724866 
369	 0.132168576501447 
370	 0.132967355020303 
371	 0.133228906435942 
372	 0.135000491362562 
373	 0.135691967904995 
374	 0.137355636388726 
375	 0.140375851752217 
376	 0.142142595257786 
377	 0.143310595896303 
378	 0.144772693051158 
379	 0.146941010597689 
380	 0.148138793300537 
381	 0.15039720261201 
382	 0.153026460922955 
383	 0.15407621617383 
384	 0.156676814661722 
385	 0.159320932244019 
386	 0.160964857854815 
387	 0.16199458263619 
388	 0.164487441646098 
389	 0.167468677703916 
390	 0.169626613073817 
391	 0.171837121854552 
392	 0.174085750177077 
393	 0.176583850191522 
394	 0.179566203553602 
395	 0.181841882306192 
396	 0.184033939448018 
397	 0.186532508282197 
398	 0.188936125986512 
399	 0.191596306689893 
400	 0.194411676544151 
401	 0.197184302585957 
402	 0.199853347617648 
403	 0.202859289495475 
404	 0.205896471155222 
405	 0.208222977327488 
406	 0.210987037544987 
407	 0.213834385993699 
408	 0.216544067332949 
409	 0.219606010632778 
410	 0.222496024866507 
411	 0.22555995663742 
412	 0.229135831613599 
413	 0.232093811912327 
414	 0.235097172534638 
415	 0.238327678153359 
416	 0.24144379778123 
417	 0.24467494756614 
418	 0.247940314313924 
419	 0.251192699747501 
420	 0.254636469752964 
421	 0.257822210039252 
422	 0.261031897512129 
423	 0.264705286945846 
424	 0.268192099324519 
425	 0.27149332223221 
426	 0.274742214973229 
427	 0.278146610829353 
428	 0.28149379409523 
429	 0.284924779658509 
430	 0.288492453084348 
431	 0.291765954174381 
432	 0.295161144270979 
433	 0.298652948303145 
434	 0.302019704716457 
435	 0.305695106444354 
436	 0.309204872356537 
437	 0.312400871836689 
438	 0.315766045462113 
439	 0.319343991233665 
440	 0.322954159856523 
441	 0.326400659525274 
442	 0.329773299146828 
443	 0.333270202161115 
444	 0.336862455426707 
445	 0.340353006612234 
446	 0.34375370104467 
447	 0.347183248196057 
448	 0.350688282931135 
449	 0.354095382372963 
450	 0.357636761093212 
451	 0.361169720396321 
452	 0.36448932584857 
453	 0.367948960643944 
454	 0.371508494127958 
455	 0.375055107831833 
456	 0.378449243195656 
457	 0.381850031258164 
458	 0.385235342749429 
459	 0.388612594739302 
460	 0.392211493194063 
461	 0.395731880965904 
462	 0.399064852888123 
463	 0.402270278998558 
464	 0.40577384775396 
465	 0.409306305156816 
466	 0.412668293024341 
467	 0.415886242014386 
468	 0.419367986339658 
469	 0.422845824850242 
470	 0.426023602848771 
471	 0.429381309607575 
472	 0.432651521391194 
473	 0.435827859184922 
474	 0.439107616218121 
475	 0.442261938960707 
476	 0.445396158527532 
477	 0.44858850044184 
478	 0.451743014897172 
479	 0.454896874898191 
480	 0.458006577465952 
481	 0.461028637396499 
482	 0.464084073415479 
483	 0.467216779560966 
484	 0.470366041385951 
485	 0.473357468882969 
486	 0.47627743691344 
487	 0.479191578293674 
488	 0.482137463477458 
489	 0.48508777113928 
490	 0.488024851783395 
491	 0.490941556600035 
492	 0.4938437118326 
493	 0.496768883078524 
494	 0.499601835484484 
495	 0.502320755999686 
496	 0.505070959580466 
497	 0.5079493691978 
498	 0.510820319334129 
499	 0.513525955772876 
500	 0.516218307360899 
501	 0.518819727149259 
502	 0.521399715935907 
503	 0.524147907748557 
504	 0.526861273474332 
505	 0.529491383815059 
506	 0.532046716144899 
507	 0.534592795118916 
508	 0.537075031151336 
509	 0.53954871722113 
510	 0.542098415064829 
511	 0.544669088844017 
512	 0.547185320765505 
513	 0.549614675389079 
514	 0.551989158104904 
515	 0.554317471851648 
516	 0.556699328404825 
517	 0.559179813136468 
518	 0.561554655274556 
519	 0.563881406250771 
520	 0.566195138020559 
521	 0.568509686898334 
522	 0.570822685775829 
523	 0.573091906284801 
524	 0.57532106626881 
525	 0.57762539755708 
526	 0.579865142986617 
527	 0.582079248234059 
528	 0.584331728801379 
529	 0.586425585317164 
530	 0.588619270221821 
531	 0.590919072679131 
532	 0.593039041805852 
533	 0.59516220238742 
534	 0.597280500637899 
535	 0.599381351759579 
536	 0.601564620371502 
537	 0.603790417868406 
538	 0.605950073035256 
539	 0.607934225851109 
540	 0.609970093818812 
541	 0.611999720429161 
542	 0.613993607283226 
543	 0.616021383748788 
544	 0.618056056710201 
545	 0.620010895907078 
546	 0.621835179937049 
547	 0.623730221523865 
548	 0.625574708775386 
549	 0.627366401108035 
550	 0.629212311998911 
551	 0.630985146051329 
552	 0.63277051964594 
553	 0.634637326367859 
554	 0.636520917283026 
555	 0.638300010770188 
556	 0.640055922904592 
557	 0.64192956981907 
558	 0.643692968196079 
559	 0.645470850399667 
560	 0.647312521795976 
561	 0.64912128396835 
562	 0.650890129621965 
563	 0.652648157000444 
564	 0.654419144432885 
565	 0.656174068816505 
566	 0.657774501336749 
567	 0.659243359793676 
568	 0.66072338434938 
569	 0.662171515710096 
570	 0.663640655039946 
571	 0.665153458870913 
572	 0.666632341843434 
573	 0.668211869496511 
574	 0.669854253810976 
575	 0.671471465114055 
576	 0.673125017336952 
577	 0.674738681077995 
578	 0.676285674906602 
579	 0.677802104826165 
580	 0.679276044275399 
581	 0.680767320232067 
582	 0.682299345617447 
583	 0.683721956686848 
584	 0.685164743421705 
585	 0.68667200146498 
586	 0.688229482631622 
587	 0.689788690490741 
588	 0.691359563999848 
589	 0.692925759043755 
590	 0.694419377978108 
591	 0.695786288151582 
592	 0.697163916784531 
593	 0.698674970054805 
594	 0.700102849497832 
595	 0.701492280103845 
596	 0.702903191748622 
597	 0.704382834633093 
598	 0.70572143450903 
599	 0.707114547773534 
600	 0.708659914989238 
601	 0.710028819018404 
602	 0.711380908717531 
603	 0.712789903719744 
604	 0.714265036229609 
605	 0.715638020105376 
606	 0.717000619399683 
607	 0.718380926094392 
608	 0.719697714216819 
609	 0.720979883914151 
610	 0.722292144297035 
611	 0.723662507085613 
612	 0.724953845640321 
613	 0.726250018665491 
614	 0.727539431949757 
615	 0.728765193636267 
616	 0.730065460732967 
617	 0.731397330326693 
618	 0.732712509600074 
619	 0.73400764310827 
620	 0.735177457647197 
621	 0.736355369294211 
622	 0.73768022114454 
623	 0.738899118213859 
624	 0.740104135324097 
625	 0.741341740812273 
626	 0.74259747341546 
627	 0.743736863802813 
628	 0.744936140739921 
629	 0.746273945042518 
630	 0.74744055466076 
631	 0.748536127661401 
632	 0.749686607123345 
633	 0.750976907423835 
634	 0.752102681975298 
635	 0.753169379408694 
636	 0.754277982544265 
637	 0.755471964963352 
638	 0.756619830079285 
639	 0.757673556895804 
640	 0.758678282729751 
641	 0.759921979526439 
642	 0.760966845956424 
643	 0.761883857291927 
644	 0.763031324150539 
645	 0.764223527754855 
646	 0.765217393568977 
647	 0.766011047952615 
648	 0.766996127534171 
649	 0.768182337884082 
650	 0.769293574874693 
651	 0.770109980467357 
652	 0.771069421988061 
653	 0.772149692448778 
654	 0.773224040767313 
655	 0.774114429853599 
656	 0.775045193514496 
657	 0.775912494942432 
658	 0.776720782229374 
659	 0.777835870164519 
660	 0.778889753586189 
661	 0.779833540096047 
662	 0.780738822908056 
663	 0.78164462172078 
664	 0.782463909500312 
665	 0.783232812612622 
666	 0.78411328725511 
667	 0.785156008895398 
668	 0.786111780807343 
669	 0.786848076945125 
670	 0.787670697218861 
671	 0.788652721746528 
672	 0.7895638402014 
673	 0.790150921220015 
674	 0.791079373142884 
675	 0.791972348848357 
676	 0.792690426679822 
677	 0.793484202434158 
678	 0.794309996936219 
679	 0.795034606889593 
680	 0.795639807934492 
681	 0.796535062447892 
682	 0.797379693520131 
683	 0.798121340322789 
684	 0.798857742765938 
685	 0.799480101105871 
686	 0.800147575674995 
687	 0.800875600689101 
688	 0.801441475908707 
689	 0.802195758960479 
690	 0.802993449328223 
691	 0.803658193579232 
692	 0.804398276525949 
693	 0.805035100063726 
694	 0.805601184865748 
695	 0.806249856420627 
696	 0.806896854637271 
697	 0.807568203298863 
698	 0.808276467518427 
699	 0.809000601368208 
700	 0.809629889513312 
701	 0.810227453150137 
702	 0.810904081676667 
703	 0.81176477222005 
704	 0.8124102560503 
705	 0.812855807959006 
706	 0.813404284619809 
707	 0.814025002906546 
708	 0.814666008656055 
709	 0.815313161879999 
710	 0.816034618585014 
711	 0.816617474750291 
712	 0.817194096166636 
713	 0.817892755942882 
714	 0.818375177124283 
715	 0.818877762801214 
716	 0.819473096514376 
717	 0.820095356326611 
718	 0.820670478728081 
719	 0.821259468656248 
720	 0.821863804279377 
721	 0.822344077058818 
722	 0.822951903535516 
723	 0.823462331500903 
724	 0.823699767944039 
725	 0.824266491918771 
726	 0.824906908247151 
727	 0.825488079133886 
728	 0.825982196768764 
729	 0.826334180696694 
730	 0.826712516787182 
731	 0.827222338764675 
732	 0.827826176143122 
733	 0.828298908673023 
734	 0.828747326298557 
735	 0.829276008560373 
736	 0.829561982926114 
737	 0.829856309725471 
738	 0.830281878043744 
739	 0.83083287830033 
740	 0.831276623230939 
741	 0.831601558710832 
742	 0.831914363557505 
743	 0.832447450518457 
744	 0.83291659619696 
745	 0.833330689065505 
746	 0.833733561199922 
747	 0.833984223291441 
748	 0.834311011059175 
749	 0.834742067229643 
750	 0.835185827218816 
751	 0.83565985657455 
752	 0.836061380891217 
753	 0.836404827653267 
754	 0.83686204236531 
755	 0.837275375282103 
756	 0.837600507510695 
757	 0.83787266765231 
758	 0.838270752375935 
759	 0.838625202253007 
760	 0.838956744721224 
761	 0.839359137953194 
762	 0.839764693299793 
763	 0.84021770205678 
764	 0.840676078763212 
765	 0.84101194916929 
766	 0.841384608389562 
767	 0.841732015820656 
768	 0.842025429442842 
769	 0.842412315845623 
770	 0.842816667174135 
771	 0.843170248111081 
772	 0.843467724268469 
773	 0.84399348953846 
774	 0.84455421936181 
775	 0.844925064607829 
776	 0.844941877679287 
777	 0.845134147623247 
778	 0.845493540522431 
779	 0.845908811081569 
780	 0.846251195483572 
781	 0.846533296166936 
782	 0.846745855907274 
783	 0.846940088953124 
784	 0.847385095280896 
785	 0.847761015128353 
786	 0.848026567144271 
787	 0.84830457907469 
788	 0.848585832632204 
789	 0.848877973906952 
790	 0.849123876400838 
791	 0.849206554858081 
792	 0.849430687229503 
793	 0.849770493189083 
794	 0.850124431453066 
795	 0.850388869117785 
796	 0.850713208416237 
797	 0.850980295284192 
798	 0.851072873834842 
799	 0.851366593897473 
800	 0.851633832580222 
801	 0.851844956130796 
802	 0.852125901632885 
803	 0.852337738255092 
804	 0.852547555622489 
805	 0.852764968148809 
806	 0.852875029991343 
807	 0.853127031167122 
808	 0.853447611823796 
809	 0.853706757976099 
810	 0.853858431190119 
811	 0.854120154581775 
812	 0.854363670369027 
813	 0.854398186931512 
814	 0.854631251696958 
815	 0.854924155023863 
816	 0.855188143603934 
817	 0.855410816530116 
818	 0.855573275597196 
819	 0.855692503202686 
820	 0.855830870877604 
821	 0.856111284423183 
822	 0.856296909431379 
823	 0.856448061589788 
824	 0.856644305981363 
825	 0.856751484434212 
826	 0.856905744600501 
827	 0.857078262094226 
828	 0.857205375119657 
829	 0.857487338251467 
830	 0.857875131956068 
831	 0.858160797184787 
832	 0.858086599278953 
833	 0.858215311314077 
834	 0.858466664728594 
835	 0.858706224694185 
836	 0.858877982664303 
837	 0.858930547856748 
838	 0.859037850588409 
839	 0.859311857976817 
840	 0.859544187910598 
841	 0.859685702468754 
842	 0.859839764094466 
843	 0.860110103911384 
844	 0.860231845202787 
845	 0.860464851042577 
846	 0.860750122147471 
847	 0.860822578648931 
848	 0.86090301455526 
849	 0.861168469650312 
850	 0.861520922271671 
851	 0.861553249415759 
852	 0.86145909600899 
853	 0.861460062658729 
854	 0.861680717714508 
855	 0.862049030698138 
856	 0.862153918995494 
857	 0.862098595852093 
858	 0.862136982809711 
859	 0.862379997749391 
860	 0.862492772361701 
861	 0.862525950746615 
862	 0.862701072088338 
863	 0.862926336882401 
864	 0.863017172750108 
865	 0.863071911246932 
866	 0.863369486730427 
867	 0.863364814198638 
868	 0.863279354940556 
869	 0.863292913319525 
870	 0.863369802833761 
871	 0.863356187708561 
872	 0.863369715503792 
873	 0.863488094640052 
874	 0.863566672412048 
875	 0.863614279123454 
876	 0.863669994568385 
877	 0.863750535394855 
878	 0.863749046299177 
879	 0.86372652962563 
880	 0.863686074848756 
881	 0.863631025225218 
882	 0.863740287048392 
883	 0.863711538269949 
884	 0.863542293332562 
885	 0.86347047359502 
886	 0.863520071929862 
887	 0.863433462646798 
888	 0.86319268837524 
889	 0.863083393006527 
890	 0.863123819060802 
891	 0.863130512563332 
892	 0.862976373917003 
893	 0.862701575430956 
894	 0.862674903971283 
895	 0.862621704930106 
896	 0.862310584048828 
897	 0.862051023315277 
898	 0.862008727867864 
899	 0.861991080905113 
900	 0.861753058013551 
901	 0.861385308096473 
902	 0.861153132692076 
903	 0.861090717954594 
904	 0.861070017998581 
905	 0.860885002932603 
906	 0.860603957540145 
907	 0.86036488523738 
908	 0.860287661853791 
909	 0.8600844697592 
910	 0.859904876489739 
911	 0.859782271659126 
912	 0.859605906892372 
913	 0.859532736556485 
914	 0.859476008484119 
915	 0.859421176358277 
916	 0.859487586213746 
917	 0.859396639593667 
918	 0.859176720567586 
919	 0.858991029741204 
920	 0.859106839314719 
921	 0.859082242188849 
922	 0.859077789973101 
923	 0.859248493493983 
924	 0.859316131148757 
925	 0.859481075217485 
926	 0.859632061566693 
927	 0.859676975926177 
928	 0.859927774788005 
929	 0.86015835673457 
930	 0.860416811801603 
931	 0.860803007512347 
932	 0.861121285286147 
933	 0.861405887597082 
934	 0.861757326678393 
935	 0.862263336420865 
936	 0.862770589632089 
937	 0.863293622206008 
938	 0.863865859286468 
939	 0.864477604720212 
940	 0.864792750315215 
941	 0.865112350374724 
942	 0.865518373230441 
943	 0.865865732045567 
944	 0.86623814617613 
945	 0.866562498331017 
946	 0.866800151469554 
947	 0.866976736103125 
948	 0.867206626471516 
949	 0.867331872884328 
950	 0.867265906992548 
951	 0.867083626734765 
952	 0.867088645263038 
953	 0.867094303585945 
954	 0.867015910149852 
955	 0.867048645083454 
956	 0.867077387886478 
957	 0.867062227289025 
958	 0.866945384050607 
959	 0.866625729122588 
960	 0.866411691472709 
961	 0.866240207252675 
962	 0.866059364629727 
963	 0.86602461568745 
964	 0.865904326410612 
965	 0.865652380828582 
966	 0.865378027814134 
967	 0.865394574109717 
968	 0.865420018289685 
969	 0.865438674709772 
970	 0.865485581857622 
971	 0.865526034868102 
972	 0.865569879669624 
973	 0.865567972556268 
974	 0.865475431548925 
975	 0.865295590652934 
976	 0.865190013839364 
977	 0.865162901309842 
978	 0.865172462144514 
979	 0.865240454868808 
980	 0.865177906975329 
981	 0.865123969084194 
982	 0.86522589950835 
983	 0.865280898285031 
984	 0.865278863636869 
985	 0.865183171300704 
986	 0.865025243824406 
987	 0.86502837760198 
988	 0.865261313886256 
989	 0.865468614787484 
990	 0.865400065963496 
991	 0.865227375974049 
992	 0.865241650267271 
993	 0.865392183387594 
994	 0.865507844592317 
995	 0.865542020075241 
996	 0.865479614586328 
997	 0.865428424196306 
998	 0.86546832354263 
999	 0.865435356606319 
1000	 0.865401270066173 
1001	 0.86798407935385 
1002	 0.867919292726095 
1003	 0.867871977249446 
1004	 0.867829623717902 
1005	 0.867772780098838 
1006	 0.867743427170376 
1007	 0.867731573133992 
1008	 0.867719133569483 
1009	 0.867728071814312 
1010	 0.867712162452382 
1011	 0.867682881954765 
1012	 0.867665305960243 
1013	 0.867638188347395 
1014	 0.867622721506844 
1015	 0.867613635966489 
1016	 0.867611397532543 
1017	 0.867631293410369 
1018	 0.86765738751538 
1019	 0.867720094242732 
1020	 0.867798454943763 
1021	 0.867843512496408 
1022	 0.867846422739687 
1023	 0.867922841293256 
1024	 0.868045119311071 
1025	 0.86810986700627 
1026	 0.868199741700383 
1027	 0.868272808033136 
1028	 0.868307400341798 
1029	 0.868301417873219 
1030	 0.868374543872706 
1031	 0.868459616246837 
1032	 0.868521460362205 
1033	 0.868607802589685 
1034	 0.868705849952452 
1035	 0.868828063577803 
1036	 0.868959134030645 
1037	 0.869131373635039 
1038	 0.869254785831728 
1039	 0.869346722678517 
1040	 0.869474696815341 
1041	 0.869588754908411 
1042	 0.869725681409059 
1043	 0.869897495400755 
1044	 0.870076218038678 
1045	 0.870227484070419 
1046	 0.870423037328495 
1047	 0.870639309391467 
1048	 0.870841252938079 
1049	 0.870986083614505 
1050	 0.87113266608024 
1051	 0.871342263179175 
1052	 0.871503463933051 
1053	 0.871694268661205 
1054	 0.871957603561212 
1055	 0.872182420833059 
1056	 0.872372146925383 
1057	 0.872581256977797 
1058	 0.872801620057433 
1059	 0.873023727451964 
1060	 0.873249789100477 
1061	 0.873451086226247 
1062	 0.873669207600786 
1063	 0.87387298292009 
1064	 0.874047459357184 
1065	 0.874258007450019 
1066	 0.874487664777943 
1067	 0.874665462535042 
1068	 0.87481718380983 
1069	 0.874991027253146 
1070	 0.87515397015713 
1071	 0.875311145002237 
1072	 0.875460760108918 
1073	 0.875586598647941 
1074	 0.875686181006961 
1075	 0.875789969621188 
1076	 0.875926975626087 
1077	 0.876122230511905 
1078	 0.87631956109639 
1079	 0.876525399216583 
1080	 0.876697490930598 
1081	 0.876821700649083 
1082	 0.876976334507244 
1083	 0.877116730551411 
1084	 0.877250217214457 
1085	 0.877370638576736 
1086	 0.877473080923577 
1087	 0.87755311820942 
1088	 0.877613841313705 
1089	 0.877665361329803 
1090	 0.877732120947218 
1091	 0.877813951180056 
1092	 0.877901270354 
1093	 0.878009197253446 
1094	 0.878144009069251 
1095	 0.878222293364568 
1096	 0.878272972790872 
1097	 0.878312833477801 
1098	 0.878282256783947 
1099	 0.87826887675554 
1100	 0.878281425655843 
1101	 0.878258244411871 
1102	 0.878269319074934 
1103	 0.878252412640958 
1104	 0.878223818525235 
1105	 0.878161552083478 
1106	 0.87814751341389 
1107	 0.878096213006945 
1108	 0.878073316271615 
1109	 0.878081494423367 
1110	 0.878023882427037 
1111	 0.877966081540601 
1112	 0.877907267145321 
1113	 0.877816368418256 
1114	 0.877715233590917 
1115	 0.877593255127923 
1116	 0.877440761848521 
1117	 0.877270378320223 
1118	 0.877068952805958 
1119	 0.876855630609229 
1120	 0.876584340887585 
1121	 0.876274839411706 
1122	 0.87593076861892 
1123	 0.875553678440521 
1124	 0.875172711648714 
1125	 0.874774543504885 
1126	 0.874341175577405 
1127	 0.873831663922095 
1128	 0.873238257167617 
1129	 0.872622808761599 
1130	 0.871916095058939 
1131	 0.871102670437222 
1132	 0.870275073548606 
1133	 0.869381468930749 
1134	 0.86843091182227 
1135	 0.867412220847056 
1136	 0.866353288706725 
1137	 0.865215149585166 
1138	 0.863980833805819 
1139	 0.86270644446873 
1140	 0.861360008380097 
1141	 0.860056536615174 
1142	 0.858633630801101 
1143	 0.857178504781448 
1144	 0.855706447621628 
1145	 0.854092574383025 
1146	 0.852493887033106 
1147	 0.850849273012789 
1148	 0.84911869852792 
1149	 0.847438426837548 
1150	 0.845703023392043 
1151	 0.843964319347119 
1152	 0.842201020353748 
1153	 0.840440435868419 
1154	 0.838607844125465 
1155	 0.836748938008892 
1156	 0.834811423737627 
1157	 0.832801439985067 
1158	 0.830811524092778 
1159	 0.828767001807357 
1160	 0.826728745301394 
1161	 0.824703890898894 
1162	 0.822551367412155 
1163	 0.820461011709824 
1164	 0.818345589766058 
1165	 0.816239853307297 
1166	 0.814329789609622 
1167	 0.812380023165467 
1168	 0.810485760508696 
1169	 0.808596403931513 
1170	 0.806735511582701 
1171	 0.804850432284434 
1172	 0.803001440887059 
1173	 0.801078435403095 
1174	 0.79914524126038 
1175	 0.797209281890684 
1176	 0.795224131955359 
1177	 0.793239737705763 
1178	 0.791301192120023 
1179	 0.789225680320023 
1180	 0.787182248140223 
1181	 0.785090635381418 
1182	 0.782930209026258 
1183	 0.780901104716067 
1184	 0.778872026309974 
1185	 0.776920648006771 
1186	 0.775079075169966 
1187	 0.773309276336769 
1188	 0.771659602778026 
1189	 0.770106317857515 
1190	 0.768657681916038 
1191	 0.767347504309415 
1192	 0.766111588058461 
1193	 0.764973184670766 
1194	 0.763889217043967 
1195	 0.762869438157563 
1196	 0.761930035987997 
1197	 0.76106728757815 
1198	 0.760274704517775 
1199	 0.759513155182132 
1200	 0.758860492913097 
1201	 0.758246017744276 
1202	 0.757703738857204 
1203	 0.757281200442439 
1204	 0.756948730810194 
1205	 0.756794703266982 
1206	 0.756701665917371 
1207	 0.756922426828386 
1208	 0.757316079786815 
1209	 0.757994096611721 
1210	 0.758876068832809 
1211	 0.760089833490607 
1212	 0.761580347536998 
1213	 0.763368454205734 
1214	 0.765502928737874 
1215	 0.767862854831868 
1216	 0.770548756756881 
1217	 0.773350831526446 
1218	 0.776417578625062 
1219	 0.779603099809317 
1220	 0.782883181931066 
1221	 0.786434551052336 
1222	 0.789902490666461 
1223	 0.793444530812357 
1224	 0.796856561685825 
1225	 0.80025404223018 
1226	 0.803446638263147 
1227	 0.806572656643109 
1228	 0.809520405538031 
1229	 0.812322875316775 
1230	 0.814979315327904 
1231	 0.81749587697903 
1232	 0.819878102272471 
1233	 0.822084086982855 
1234	 0.824160704151277 
1235	 0.826107417319901 
1236	 0.827932928164238 
1237	 0.829608094793855 
1238	 0.83118078439997 
1239	 0.832603253199696 
1240	 0.833962996916207 
1241	 0.835277793410574 
1242	 0.836444076749096 
1243	 0.837590892551151 
1244	 0.838692468997173 
1245	 0.839729379684912 
1246	 0.84068861194146 
1247	 0.841606349795561 
1248	 0.842485751960239 
1249	 0.84329971846544 
1250	 0.84404551942871 
1251	 0.844736063294463 
1252	 0.84537071138903 
1253	 0.845956508663323 
1254	 0.846474292334024 
1255	 0.84696308927487 
1256	 0.847399330518881 
1257	 0.847816448055787 
1258	 0.848195431151757 
1259	 0.848543782974848 
1260	 0.848839470663132 
1261	 0.849148786715063 
1262	 0.849441035271327 
1263	 0.849722725517817 
1264	 0.849996966472543 
1265	 0.850289762345692 
1266	 0.850525854115975 
1267	 0.850711090371471 
1268	 0.850929387139942 
1269	 0.851133024171123 
1270	 0.851343590741267 
1271	 0.851587828722878 
1272	 0.851777744786836 
1273	 0.851929201076875 
1274	 0.85209418835933 
1275	 0.852240194113385 
1276	 0.852386543988878 
1277	 0.852534663360196 
1278	 0.852680867208572 
1279	 0.852808105191492 
1280	 0.85295111158361 
1281	 0.853098258999936 
1282	 0.853258354985648 
1283	 0.853444820691147 
1284	 0.853609839873033 
1285	 0.8537699627783 
1286	 0.853935106477311 
1287	 0.854086392517244 
1288	 0.854215069811954 
1289	 0.854359742031945 
1290	 0.854519429861517 
1291	 0.854648625761754 
1292	 0.85477050782966 
1293	 0.854876969729404 
1294	 0.854971555007683 
1295	 0.855041166581436 
1296	 0.855105210652732 
1297	 0.855132964409555 
1298	 0.855127734095253 
1299	 0.855106631124142 
1300	 0.855053270140904 
1301	 0.854998807438893 
1302	 0.854935195838391 
1303	 0.854851416029028 
1304	 0.854754158800392 
1305	 0.854645936042537 
1306	 0.854528608529517 
1307	 0.854384670650966 
1308	 0.854216763834361 
1309	 0.854035578597656 
1310	 0.853882432650877 
1311	 0.853722800697496 
1312	 0.853557420154556 
1313	 0.853418898374794 
1314	 0.853247369184723 
1315	 0.853044435599613 
1316	 0.852848961199863 
1317	 0.852669134340583 
1318	 0.852447899381985 
1319	 0.852200463786692 
1320	 0.851948250757309 
1321	 0.851680414310432 
1322	 0.851396964477927 
1323	 0.851133051118294 
1324	 0.85079601087592 
1325	 0.850413949932435 
1326	 0.850010554203394 
1327	 0.849570214919155 
1328	 0.849091683107671 
1329	 0.848595677541328 
1330	 0.848055987431066 
1331	 0.847472719913279 
1332	 0.846850573547604 
1333	 0.846219605712613 
1334	 0.845505462182454 
1335	 0.844759532736187 
1336	 0.843971437972204 
1337	 0.843124930555024 
1338	 0.842236823521859 
1339	 0.84128276244762 
1340	 0.840283223736955 
1341	 0.839201291362647 
1342	 0.838054845217396 
1343	 0.836841194039524 
1344	 0.835576988544892 
1345	 0.834201241842545 
1346	 0.832742404251244 
1347	 0.831221799892127 
1348	 0.829591662867542 
1349	 0.827934661400369 
1350	 0.826197650895297 
1351	 0.824464735770795 
1352	 0.822684065707781 
1353	 0.820894328656897 
1354	 0.819079302276185 
1355	 0.817282122937958 
1356	 0.815466419980039 
1357	 0.813655992361641 
1358	 0.811861763617487 
1359	 0.810058165139455 
1360	 0.808271314958241 
1361	 0.806442309295999 
1362	 0.804574484561765 
1363	 0.802767959245199 
1364	 0.80084783488911 
1365	 0.798920255646296 
1366	 0.796823997028067 
1367	 0.794639726681689 
1368	 0.792365927796862 
1369	 0.78997923225741 
1370	 0.787501455190661 
1371	 0.784937405992618 
1372	 0.782329509076697 
1373	 0.7796201196514 
1374	 0.77685628230075 
1375	 0.774018285647127 
1376	 0.771147897304706 
1377	 0.76819953151259 
1378	 0.765188854740734 
1379	 0.762133983480257 
1380	 0.759042213788578 
1381	 0.75589017027165 
1382	 0.752669259469969 
1383	 0.749344920073605 
1384	 0.746088228036189 
1385	 0.742742809905727 
1386	 0.739517976199701 
1387	 0.736309532739599 
1388	 0.733307018717296 
1389	 0.730390387456613 
1390	 0.727627751634801 
1391	 0.725135964891271 
1392	 0.722599226044158 
1393	 0.720284582331937 
1394	 0.717940979681534 
1395	 0.71548309159733 
1396	 0.71311806684682 
1397	 0.710426845954878 
1398	 0.707644318186627 
1399	 0.704476089174905 
1400	 0.701091221937095 
1401	 0.697382905380146 
1402	 0.693376854577987 
1403	 0.689038353148189 
1404	 0.684354900185625 
1405	 0.679557120638498 
1406	 0.674314925608339 
1407	 0.669248303150759 
1408	 0.663878928742531 
1409	 0.65899536435797 
1410	 0.65401898253394 
1411	 0.6497257984353 
1412	 0.645787861057667 
1413	 0.642432881640922 
1414	 0.63967802127188 
1415	 0.637204376015875 
1416	 0.635377061984669 
1417	 0.633551033450822 
1418	 0.632113224714042 
1419	 0.630572890833033 
1420	 0.629139251917751 
1421	 0.627687197011985 
1422	 0.626202939153825 
1423	 0.624756040746676 
1424	 0.623357108105278 
1425	 0.62191833447669 
1426	 0.620572368151319 
1427	 0.619254265240915 
1428	 0.617994591142918 
1429	 0.616887222102435 
1430	 0.615845213769188 
1431	 0.614884693727886 
1432	 0.614006171778059 
1433	 0.613207306032881 
1434	 0.61252768331556 
1435	 0.61193507598722 
1436	 0.611436938247629 
1437	 0.611068028228336 
1438	 0.610755106274421 
1439	 0.610513094790873 
1440	 0.610353136256309 
1441	 0.610301666817501 
1442	 0.61027390579966 
1443	 0.61030555752482 
1444	 0.610389692003417 
1445	 0.610524480777171 
1446	 0.610711740493295 
1447	 0.61096944480295 
1448	 0.611251582057501 
1449	 0.611598401435845 
1450	 0.611939499720377 
1451	 0.612312195123369 
1452	 0.612688255717661 
1453	 0.613087420948774 
1454	 0.613464927544068 
1455	 0.613842415919452 
1456	 0.614220230520347 
1457	 0.614567079788267 
1458	 0.614949533567821 
1459	 0.615342869688085 
1460	 0.615764093672046 
1461	 0.616212790102412 
1462	 0.616673199380354 
1463	 0.617144031042863 
1464	 0.617649617659624 
1465	 0.618172761788672 
1466	 0.618740663179922 
1467	 0.619296581449077 
1468	 0.619874170679574 
1469	 0.620468768463065 
1470	 0.621023517767777 
1471	 0.621598917086238 
1472	 0.622198166888646 
1473	 0.622769872125208 
1474	 0.623345029442004 
1475	 0.623858064430514 
1476	 0.624361447671335 
1477	 0.624797072586388 
1478	 0.625164840495434 
1479	 0.625515729365152 
1480	 0.625828862227397 
1481	 0.626117340835484 
1482	 0.626363477448175 
1483	 0.626605606818612 
1484	 0.626820475988753 
1485	 0.627031704042964 
1486	 0.627233078711986 
1487	 0.627416894368229 
1488	 0.627580374386548 
1489	 0.627746855288606 
1490	 0.627878458598402 
1491	 0.628058375866132 
1492	 0.628232150178508 
1493	 0.628470387231518 
1494	 0.628757777773524 
1495	 0.629063260947077 
1496	 0.629406239116041 
1497	 0.629779896291707 
1498	 0.630189607796381 
1499	 0.630609176784838 
1500	 0.631060374537811 
1501	 0.631528098257762 
1502	 0.632002100618148 
1503	 0.632502240956286 
1504	 0.633034613085899 
1505	 0.633580639048662 
1506	 0.634152002707194 
1507	 0.634728000266238 
1508	 0.635314723590403 
1509	 0.635919413210494 
1510	 0.636556553982589 
1511	 0.637166010085726 
1512	 0.637773905273607 
1513	 0.638387193925284 
1514	 0.638971744908788 
1515	 0.639580292548645 
1516	 0.640206683416925 
1517	 0.640845165612962 
1518	 0.641519729427981 
1519	 0.642162638872672 
1520	 0.642794143099661 
1521	 0.643434107601642 
1522	 0.644044459847205 
1523	 0.644662085827265 
1524	 0.645292539491878 
1525	 0.645931000691444 
1526	 0.646599383068686 
1527	 0.647285982386708 
1528	 0.647963259754392 
1529	 0.648660655501946 
1530	 0.64935773943618 
1531	 0.650033608061241 
1532	 0.650761179278023 
1533	 0.651524563611909 
1534	 0.652287469931295 
1535	 0.653079988535253 
1536	 0.653842644708781 
1537	 0.654607736943297 
1538	 0.655357429418517 
1539	 0.656107936532465 
1540	 0.656808366838667 
1541	 0.657495989108812 
1542	 0.658137826591196 
1543	 0.658742486813305 
1544	 0.659292346199581 
1545	 0.659828119943889 
1546	 0.660259073549318 
1547	 0.660609788019143 
1548	 0.660909249081308 
1549	 0.661115412851478 
1550	 0.661318974384348 
1551	 0.661459853159554 
1552	 0.66161809723246 
1553	 0.661762597756433 
1554	 0.661894425766568 
1555	 0.662010970338085 
1556	 0.662133568546173 
1557	 0.662224576908786 
1558	 0.66236262123642 
1559	 0.662527368522745 
1560	 0.662693274036063 
1561	 0.662859713770228 
1562	 0.663075901920727 
1563	 0.6633035487248 
1564	 0.663576687726704 
1565	 0.663902319711002 
1566	 0.664251420257931 
1567	 0.664633327084869 
1568	 0.665033903417836 
1569	 0.665487626413086 
1570	 0.665921084854196 
1571	 0.666360989383779 
1572	 0.666801886442043 
1573	 0.667227675885896 
1574	 0.667686757998454 
1575	 0.668181405785235 
1576	 0.66865001732685 
1577	 0.669136135550583 
1578	 0.669596836668132 
1579	 0.670031380149794 
1580	 0.670460903253358 
1581	 0.67087842446219 
1582	 0.671296625738674 
1583	 0.671698131504477 
1584	 0.672110097280054 
1585	 0.672531379726688 
1586	 0.672945872275122 
1587	 0.673372520909297 
1588	 0.67377000285519 
1589	 0.674129774448747 
1590	 0.674523528465782 
1591	 0.674906657318993 
1592	 0.675315433958153 
1593	 0.675749734363897 
1594	 0.676203280206152 
1595	 0.676688765987012 
1596	 0.677153535325426 
1597	 0.67763720332459 
1598	 0.678106977103389 
1599	 0.678565889385054 
1600	 0.679005978648331 
1601	 0.679449090512098 
1602	 0.67986332163765 
1603	 0.680245815132665 
1604	 0.680614307728419 
1605	 0.680967584631425 
1606	 0.681301268333418 
1607	 0.681609079428089 
1608	 0.681909536447834 
1609	 0.682194661010762 
1610	 0.682468518354596 
1611	 0.682746394702837 
1612	 0.682981643655703 
1613	 0.683204515413786 
1614	 0.683377961427298 
1615	 0.683510551834161 
1616	 0.683605481085701 
1617	 0.683649664625867 
1618	 0.683673036793502 
1619	 0.683655751283041 
1620	 0.683620722666687 
1621	 0.683551678642322 
1622	 0.6834818531457 
1623	 0.683395393172933 
1624	 0.683294845033467 
1625	 0.683190307895873 
1626	 0.68306479596155 
1627	 0.68291670109054 
1628	 0.682759770207917 
1629	 0.682596845875729 
1630	 0.682403912359835 
1631	 0.682191212984269 
1632	 0.681957822540536 
1633	 0.681674794921841 
1634	 0.681414579518296 
1635	 0.681146028450264 
1636	 0.680891330171631 
1637	 0.680704171134198 
1638	 0.680423297091038 
1639	 0.680114648293885 
1640	 0.67974870400273 
1641	 0.679311302730651 
1642	 0.678831717193355 
1643	 0.678318130704068 
1644	 0.677753692690865 
1645	 0.677124767738091 
1646	 0.676459188696305 
1647	 0.675757028055291 
1648	 0.67499301712989 
1649	 0.674177749652738 
1650	 0.673308601188449 
1651	 0.6723780796577 
1652	 0.671416151448908 
1653	 0.670458676166736 
1654	 0.669354153108219 
1655	 0.66818762111009 
1656	 0.666878443102563 
1657	 0.665455511018762 
1658	 0.663866644970617 
1659	 0.662144657382467 
1660	 0.660296363058664 
1661	 0.658322124584863 
1662	 0.656146617960732 
1663	 0.653812780257658 
1664	 0.651294896466732 
1665	 0.648590063846543 
1666	 0.645658988106595 
1667	 0.642550509818272 
1668	 0.6392756278285 
1669	 0.635782736993912 
1670	 0.632103308850417 
1671	 0.628222416161461 
1672	 0.62417387158246 
1673	 0.619921744519623 
1674	 0.615490259157498 
1675	 0.610876117983395 
1676	 0.606222332857745 
1677	 0.601396546804331 
1678	 0.596490073786267 
1679	 0.591476229119759 
1680	 0.586362194389634 
1681	 0.581107834690362 
1682	 0.57578339369876 
1683	 0.570368840453353 
1684	 0.565021930900905 
1685	 0.559597546254617 
1686	 0.554197782629396 
1687	 0.548781297343952 
1688	 0.543399421223583 
1689	 0.53799706381867 
1690	 0.532628566930395 
1691	 0.52735300215815 
1692	 0.522146057341359 
1693	 0.516995330940103 
1694	 0.511793343281981 
1695	 0.506627496488094 
1696	 0.501356489204466 
1697	 0.495994453838414 
1698	 0.490601297458755 
1699	 0.485170390161191 
1700	 0.479896077340455 
1701	 0.474554439740489 
1702	 0.469466590228237 
1703	 0.464439038094234 
1704	 0.459734904679602 
1705	 0.455212875673631 
1706	 0.450882140349768 
1707	 0.44708715839787 
1708	 0.443406150948742 
1709	 0.439948932573698 
1710	 0.436789323794885 
1711	 0.43360046484554 
1712	 0.430632010368996 
1713	 0.427744257739668 
1714	 0.424882285243846 
1715	 0.422326052290754 
1716	 0.419777647724464 
1717	 0.417351090817885 
1718	 0.415148057185273 
1719	 0.412997943170392 
1720	 0.411096937174492 
1721	 0.409436953136088 
1722	 0.408003813176302 
1723	 0.407002901199338 
1724	 0.406370380500986 
1725	 0.406142950795677 
1726	 0.40651325070181 
1727	 0.40738673278756 
1728	 0.408730227669926 
1729	 0.410691361925804 
1730	 0.413160441424961 
1731	 0.415844765321847 
1732	 0.418947677400039 
1733	 0.422164162369405 
1734	 0.425381279686695 
1735	 0.428753022760868 
1736	 0.431898354150427 
1737	 0.434817148856769 
1738	 0.437453665321372 
1739	 0.439606642826111 
1740	 0.44139870865268 
1741	 0.44280179961304 
1742	 0.443733112376597 
1743	 0.444411926627653 
1744	 0.444674571517132 
1745	 0.44476891227672 
1746	 0.444493161759459 
1747	 0.444188941533631 
1748	 0.443644866458112 
1749	 0.443170143597585 
1750	 0.442563420527948 
1751	 0.442103831906056 
1752	 0.441638687909916 
1753	 0.441367780200805 
1754	 0.441181693137324 
1755	 0.441221715938083 
1756	 0.441362532047146 
1757	 0.441830198170966 
1758	 0.442614023293235 
1759	 0.443670108838387 
1760	 0.445123290392025 
1761	 0.44694531414821 
1762	 0.448981633390124 
1763	 0.451431444416566 
1764	 0.454112472038152 
1765	 0.457022627558095 
1766	 0.460331167568184 
1767	 0.463647086470332 
1768	 0.467095153285607 
1769	 0.47061070588246 
1770	 0.473813782742496 
1771	 0.476999262976278 
1772	 0.480030624731531 
1773	 0.482808554681136 
1774	 0.485580123225592 
1775	 0.488079681138412 
1776	 0.490447452273998 
1777	 0.492668535666189 
1778	 0.494538499085438 
1779	 0.496363117167259 
1780	 0.498028927058384 
1781	 0.499450666466984 
1782	 0.500822106138019 
1783	 0.501979411743815 
1784	 0.502972658451201 
1785	 0.503830267997387 
1786	 0.50458397022717 
1787	 0.50520853673078 
1788	 0.505778697576006 
1789	 0.506220385655183 
1790	 0.506675683916177 
1791	 0.507082931492488 
1792	 0.507475194607014 
1793	 0.507826859323959 
1794	 0.508169054257024 
1795	 0.508497100658512 
1796	 0.508851321762907 
1797	 0.509183156094155 
1798	 0.509522496547724 
1799	 0.50992205091227 
1800	 0.510308946447637 
1801	 0.507349483612649 
1802	 0.507777836508594 
1803	 0.508179641550708 
1804	 0.508542787775327 
1805	 0.508977536178201 
1806	 0.509362013992934 
1807	 0.509727171517539 
1808	 0.510099735543677 
1809	 0.510459918980595 
1810	 0.510828882521275 
1811	 0.511171746650713 
1812	 0.51157423907807 
1813	 0.511999656376652 
1814	 0.51245150271969 
1815	 0.512928575051202 
1816	 0.513452009995455 
1817	 0.513981712753206 
1818	 0.514537590411192 
1819	 0.515080767767204 
1820	 0.515638093111552 
1821	 0.516199117078196 
1822	 0.516742860215995 
1823	 0.517329275381977 
1824	 0.51791176900037 
1825	 0.518510677830847 
1826	 0.519101799822793 
1827	 0.519688984296546 
1828	 0.520273524719145 
1829	 0.520869787853228 
1830	 0.521448446166242 
1831	 0.52201184931714 
1832	 0.522591955687193 
1833	 0.523164052012558 
1834	 0.523723520476033 
1835	 0.524300552823925 
1836	 0.524866751838934 
1837	 0.525416402164643 
1838	 0.52593773536363 
1839	 0.526490532994895 
1840	 0.52704737430942 
1841	 0.527603871753352 
1842	 0.52817599489892 
1843	 0.528756110925087 
1844	 0.529311674561331 
1845	 0.529793962733991 
1846	 0.530281209529221 
1847	 0.530746700117301 
1848	 0.531163225436653 
1849	 0.531587459404659 
1850	 0.531905527880029 
1851	 0.532169273957552 
1852	 0.532351743840991 
1853	 0.532455530083306 
1854	 0.532499130251583 
1855	 0.532490354244434 
1856	 0.532406736727019 
1857	 0.532250848865708 
1858	 0.532020853618625 
1859	 0.531724666817642 
1860	 0.531373956714331 
1861	 0.530909917767702 
1862	 0.530357717022504 
1863	 0.529758784578568 
1864	 0.529024344389975 
1865	 0.528233945845557 
1866	 0.52736637692231 
1867	 0.526310904015258 
1868	 0.525196054926717 
1869	 0.523916645448251 
1870	 0.522503934548223 
1871	 0.520998512555767 
1872	 0.519356327455886 
1873	 0.517563209353208 
1874	 0.515687457995186 
1875	 0.513684711794346 
1876	 0.511366743874959 
1877	 0.508994598046339 
1878	 0.506387790203213 
1879	 0.503535104055377 
1880	 0.500698681938604 
1881	 0.497586529271673 
1882	 0.494237246293686 
1883	 0.490741642688834 
1884	 0.487021946769357 
1885	 0.482796795284847 
1886	 0.47845685859545 
1887	 0.47373043334225 
1888	 0.46858360113402 
1889	 0.463622329198055 
1890	 0.458330762360384 
1891	 0.452977843441653 
1892	 0.447649123554131 
1893	 0.442120973667565 
1894	 0.436311691768915 
1895	 0.430718302853841 
1896	 0.425000108276319 
1897	 0.419284725524302 
1898	 0.414056948115493 
1899	 0.408710776863419 
1900	 0.403536910122163 
1901	 0.398622661289829 
1902	 0.393456890740331 
1903	 0.388599506550715 
1904	 0.383890714885281 
1905	 0.379266795287653 
1906	 0.374780583144925 
1907	 0.370818528490675 
1908	 0.366844460966193 
1909	 0.363065400198459 
1910	 0.359538759562231 
1911	 0.355921477460909 
1912	 0.352575117370781 
1913	 0.34933323821865 
1914	 0.346160431469798 
1915	 0.343248863184734 
1916	 0.340612554519018 
1917	 0.337978924807457 
1918	 0.335501212746247 
1919	 0.333180498083261 
1920	 0.330782708690394 
1921	 0.328551176486606 
1922	 0.326419485104014 
1923	 0.324349815753877 
1924	 0.322509601007793 
1925	 0.320750195815154 
1926	 0.319107671449266 
1927	 0.317619163516826 
1928	 0.31618846782277 
1929	 0.314829008888923 
1930	 0.313604529085389 
1931	 0.312481067152164 
1932	 0.311460478489792 
1933	 0.310631830779439 
1934	 0.309909720597531 
1935	 0.30926047095587 
1936	 0.308750206473153 
1937	 0.308344645005985 
1938	 0.308040700615914 
1939	 0.307848557538028 
1940	 0.307781354233085 
1941	 0.307811702598633 
1942	 0.307926116833107 
1943	 0.30811246831292 
1944	 0.30834612195235 
1945	 0.308658910249778 
1946	 0.309064278622956 
1947	 0.309513134821165 
1948	 0.31005165148282 
1949	 0.310653625148125 
1950	 0.311262570788681 
1951	 0.311902856055585 
1952	 0.312584424073707 
1953	 0.313291633209644 
1954	 0.314031604160569 
1955	 0.314871575234424 
1956	 0.315673429295384 
1957	 0.316520681273299 
1958	 0.317418380566225 
1959	 0.318225133150188 
1960	 0.319074131057115 
1961	 0.319927949636393 
1962	 0.320754184406289 
1963	 0.321625422052025 
1964	 0.32255017799176 
1965	 0.323441184498622 
1966	 0.324342647940508 
1967	 0.325259353266685 
1968	 0.326100121437231 
1969	 0.326968849875191 
1970	 0.327822404661413 
1971	 0.328647455869959 
1972	 0.329523365803299 
1973	 0.330372084693968 
1974	 0.331239297169266 
1975	 0.332146014447004 
1976	 0.333006454751116 
1977	 0.333854028496424 
1978	 0.334693502309917 
1979	 0.335505813643676 
1980	 0.336316567904802 
1981	 0.337133331195099 
1982	 0.337918392231258 
1983	 0.338741505546469 
1984	 0.339524168975009 
1985	 0.340251598454779 
1986	 0.34102268817839 
1987	 0.34175193405834 
1988	 0.342435369654753 
1989	 0.343123054338664 
1990	 0.343812752927766 
1991	 0.344466732952165 
1992	 0.345101358288651 
1993	 0.345717178041068 
1994	 0.346283934731929 
1995	 0.346852898289723 
1996	 0.347398657482652 
1997	 0.347939960949484 
1998	 0.348484700753607 
1999	 0.349045932988993 
2000	 0.349568697345638 
2001	 0.350093596104507 
2002	 0.350567199175258 
2003	 0.350995385871406 
2004	 0.351418807896949 
2005	 0.351819848517369 
2006	 0.352193702641038 
2007	 0.352554294296949 
2008	 0.352896511068208 
2009	 0.353195919754708 
2010	 0.35342704831195 
2011	 0.353591898142264 
2012	 0.35369968496888 
2013	 0.35374071461334 
2014	 0.35371109074174 
2015	 0.353621661255324 
2016	 0.353498465417714 
2017	 0.353261473902137 
2018	 0.352925638692391 
2019	 0.352525499492728 
2020	 0.352054821091255 
2021	 0.351476840400906 
2022	 0.350825604823274 
2023	 0.350096320611605 
2024	 0.349225385881886 
2025	 0.348284578708063 
2026	 0.347271461352993 
2027	 0.346112095099924 
2028	 0.34502034120965 
2029	 0.343880589922489 
2030	 0.342741891606444 
2031	 0.341617551797141 
2032	 0.340478142916068 
2033	 0.339238379593673 
2034	 0.338134055818078 
2035	 0.337048234368609 
2036	 0.336041556830699 
2037	 0.335199496780156 
2038	 0.334419069839953 
2039	 0.333757153816772 
2040	 0.333230846378314 
2041	 0.33275058453968 
2042	 0.332351175556827 
2043	 0.332049423297828 
2044	 0.331820469586003 
2045	 0.331691297877078 
2046	 0.33169310003299 
2047	 0.331734134692158 
2048	 0.33186986552427 
2049	 0.332041910890073 
2050	 0.332286796263496 
2051	 0.332551360251808 
2052	 0.332855069992973 
2053	 0.333216682565273 
2054	 0.333606509048808 
2055	 0.334035855466139 
2056	 0.334495208167358 
2057	 0.334993375125185 
2058	 0.335521229210232 
2059	 0.336105863067178 
2060	 0.336669434150691 
2061	 0.337278296691491 
2062	 0.337849647030549 
2063	 0.338391176221864 
2064	 0.338946573413272 
2065	 0.339500378037555 
2066	 0.340043616645194 
2067	 0.340625146352872 
2068	 0.341163095230983 
2069	 0.341688294224489 
2070	 0.342218292209747 
2071	 0.342692566837645 
2072	 0.343127875691443 
2073	 0.343550022484839 
2074	 0.343937584459274 
2075	 0.344307034318801 
2076	 0.344660151848113 
2077	 0.344982056163891 
2078	 0.345280567044068 
2079	 0.345547713163751 
2080	 0.345793347805534 
2081	 0.345999809532571 
2082	 0.346152332231933 
2083	 0.346299290377982 
2084	 0.34643532107975 
2085	 0.346541081504188 
2086	 0.346632470452826 
2087	 0.346719368003684 
2088	 0.346772226479368 
2089	 0.346776029486554 
2090	 0.346805190304547 
2091	 0.346850599178149 
2092	 0.346842027138961 
2093	 0.346824602029957 
2094	 0.346773263858339 
2095	 0.346676829005787 
2096	 0.346560650539165 
2097	 0.346430737536771 
2098	 0.346266544168127 
2099	 0.346065196420153 
2100	 0.345823330241219 
2101	 0.345554124371213 
2102	 0.345256668524053 
2103	 0.34492096343452 
2104	 0.344534566494008 
2105	 0.344147855552357 
2106	 0.343735452295896 
2107	 0.343300332726371 
2108	 0.342868393182902 
2109	 0.342380555978092 
2110	 0.341841115867827 
2111	 0.341290874284012 
2112	 0.340694950788344 
2113	 0.340094801528324 
2114	 0.339487659325816 
2115	 0.338854148565875 
2116	 0.338193721143894 
2117	 0.337522717726309 
2118	 0.336846413342517 
2119	 0.336132430117404 
2120	 0.335478449305101 
2121	 0.33483044038506 
2122	 0.334217832439264 
2123	 0.333639811672494 
2124	 0.333075114627736 
2125	 0.332535312004567 
2126	 0.332010650860051 
2127	 0.331523012744277 
2128	 0.331027136406353 
2129	 0.33054271724709 
2130	 0.33005642041711 
2131	 0.329586225568352 
2132	 0.32908977614934 
2133	 0.328592049023508 
2134	 0.328080642241214 
2135	 0.327524367636275 
2136	 0.326968906787759 
2137	 0.326399247884764 
2138	 0.325801981983769 
2139	 0.325221788390385 
2140	 0.324628112046566 
2141	 0.324066616020064 
2142	 0.323521210400235 
2143	 0.322979884103291 
2144	 0.322458156581872 
2145	 0.321940420718168 
2146	 0.32139076614056 
2147	 0.32091640297816 
2148	 0.320494399199064 
2149	 0.320071635375427 
2150	 0.319717447891444 
2151	 0.319332786630501 
2152	 0.318951086321221 
2153	 0.318539193000876 
2154	 0.318139963477176 
2155	 0.317706645803771 
2156	 0.317267795388934 
2157	 0.316808914306409 
2158	 0.316355084436075 
2159	 0.315893930423449 
2160	 0.315428612415374 
2161	 0.31495246126875 
2162	 0.31449118362335 
2163	 0.314012293826648 
2164	 0.313569614600191 
2165	 0.313130921764404 
2166	 0.312740849501897 
2167	 0.312364890024392 
2168	 0.31205041247425 
2169	 0.311789297545758 
2170	 0.311565845178937 
2171	 0.311376442433779 
2172	 0.311249887785357 
2173	 0.311190134137197 
2174	 0.311150340874984 
2175	 0.311146042040658 
2176	 0.311194664633133 
2177	 0.311289528890139 
2178	 0.311410487598073 
2179	 0.311594153604691 
2180	 0.311858515502102 
2181	 0.312120315361801 
2182	 0.31241518095511 
2183	 0.312732193652006 
2184	 0.313092219931991 
2185	 0.31344495222378 
2186	 0.3138017592395 
2187	 0.314193297985349 
2188	 0.314602057927005 
2189	 0.315023778349932 
2190	 0.315518672192053 
2191	 0.315952370072881 
2192	 0.316365596967952 
2193	 0.316770846353728 
2194	 0.317144835332622 
2195	 0.317509633698255 
2196	 0.317864339269934 
2197	 0.318222365085307 
2198	 0.318535705681027 
2199	 0.318869031087577 
2200	 0.31914830737075 
2201	 0.319403694871646 
2202	 0.319623554026236 
2203	 0.319804086000349 
2204	 0.31996670467446 
2205	 0.320103485254847 
2206	 0.320217291885381 
2207	 0.320315264378439 
2208	 0.320362259039675 
2209	 0.32035850008536 
2210	 0.320356861628986 
2211	 0.32033596927026 
2212	 0.320269704692075 
2213	 0.320196768515608 
2214	 0.320072482002014 
2215	 0.319882829719352 
2216	 0.319673466998583 
2217	 0.319461242132798 
2218	 0.319176033434892 
2219	 0.318853194020367 
2220	 0.318457615973345 
2221	 0.318019596772314 
2222	 0.31746390488609 
2223	 0.316854600560152 
2224	 0.316200744703733 
2225	 0.315474691423986 
2226	 0.314667264635074 
2227	 0.313693443697312 
2228	 0.312607143499625 
2229	 0.311398439829526 
2230	 0.31001681408867 
2231	 0.308576931111428 
2232	 0.307085044866669 
2233	 0.305383724869986 
2234	 0.303587379338058 
2235	 0.301539646929091 
2236	 0.299269341817334 
2237	 0.296865489562837 
2238	 0.294186121014676 
2239	 0.291496636715854 
2240	 0.288760489333115 
2241	 0.285783644040592 
2242	 0.282730024918631 
2243	 0.279420651898356 
2244	 0.275766884208729 
2245	 0.27211002632051 
2246	 0.268183531524247 
2247	 0.26434637877442 
2248	 0.260534345189928 
2249	 0.256624547347868 
2250	 0.25266772423287 
2251	 0.248750040509154 
2252	 0.244555784639273 
2253	 0.240501728641082 
2254	 0.236426369850484 
2255	 0.232364479305764 
2256	 0.228656083358728 
2257	 0.224924379438569 
2258	 0.221384114529364 
2259	 0.218084390083048 
2260	 0.214739316721974 
2261	 0.211417976659168 
2262	 0.208293731523166 
2263	 0.205182946436535 
2264	 0.202370803908177 
2265	 0.199851190949099 
2266	 0.197312585050266 
2267	 0.19501774525959 
2268	 0.192624516737042 
2269	 0.190198890280852 
2270	 0.18788815736105 
2271	 0.185558011744913 
2272	 0.183397775559366 
2273	 0.181445448031934 
2274	 0.179405104345843 
2275	 0.1775041194879 
2276	 0.175479609193845 
2277	 0.173336178803583 
2278	 0.171258840269358 
2279	 0.169167548222888 
2280	 0.167058594097376 
2281	 0.164992284384076 
2282	 0.162867142237374 
2283	 0.160679607030689 
2284	 0.158535263116963 
2285	 0.156271533546119 
2286	 0.15401608521076 
2287	 0.151695837215876 
2288	 0.14930989773206 
2289	 0.147056326664844 
2290	 0.144698854958831 
2291	 0.142310736850429 
2292	 0.139917520820148 
2293	 0.137380087145883 
2294	 0.134920474128098 
2295	 0.132533537254941 
2296	 0.130257814533693 
2297	 0.128245250180434 
2298	 0.126414580834055 
2299	 0.124788437054114 
2300	 0.123367067193199 
2301	 0.122215290166458 
2302	 0.121238096108764 
2303	 0.120670118714858 
2304	 0.120437131282872 
2305	 0.120508192908044 
2306	 0.120951819394114 
2307	 0.121646556740174 
2308	 0.122641878840069 
2309	 0.123954741514818 
2310	 0.125691653717085 
2311	 0.127501003047856 
2312	 0.129739006668994 
2313	 0.131818779457759 
2314	 0.134047247711781 
2315	 0.136120045275017 
2316	 0.138205836026529 
2317	 0.140076964027471 
2318	 0.141899353786248 
2319	 0.143398078027325 
2320	 0.144685114199383 
2321	 0.145732325981616 
2322	 0.146465566704489 
2323	 0.147047209639491 
2324	 0.147399013295895 
2325	 0.147579688595404 
2326	 0.147544021865236 
2327	 0.147336146315893 
2328	 0.146882078740232 
2329	 0.146340693713939 
2330	 0.145644937278989 
2331	 0.144789794091933 
2332	 0.143813747168289 
2333	 0.142657001111641 
2334	 0.141261856710159 
2335	 0.139762298532908 
2336	 0.138180947575146 
2337	 0.13644896836251 
2338	 0.134690044678378 
2339	 0.132976282659611 
2340	 0.131344227204366 
2341	 0.129759023166924 
2342	 0.128262091593159 
2343	 0.126969008128516 
2344	 0.125874749622584 
2345	 0.125144805752407 
2346	 0.124870901270982 
2347	 0.124969588332399 
2348	 0.12533526985581 
2349	 0.126116473556772 
2350	 0.127208838815961 
2351	 0.128551090320781 
2352	 0.130104877442215 
2353	 0.131738680868551 
2354	 0.133274768725318 
2355	 0.134760030670885 
2356	 0.136258158243128 
2357	 0.137555692598115 
2358	 0.13871097260212 
2359	 0.139621208714519 
2360	 0.140316807566078 
2361	 0.140857580611054 
2362	 0.141270155791839 
2363	 0.141632764658152 
2364	 0.141779644246261 
2365	 0.141826082622397 
2366	 0.141966856097266 
2367	 0.141998305105268 
2368	 0.142065822256627 
2369	 0.142233755429569 
2370	 0.142235409776024 
2371	 0.142316932432758 
2372	 0.14243436358411 
2373	 0.142414093867145 
2374	 0.14247584583045 
2375	 0.142489628297644 
2376	 0.142468400400025 
2377	 0.142522867677246 
2378	 0.142525664890069 
2379	 0.142646518791909 
2380	 0.142836314145122 
2381	 0.142995385560777 
2382	 0.143133178359945 
2383	 0.143253757219463 
2384	 0.143385122535303 
2385	 0.143488514273062 
2386	 0.143643357953628 
2387	 0.143885034083051 
2388	 0.144024669886514 
2389	 0.144088590984144 
2390	 0.14423770086656 
2391	 0.144395514477479 
2392	 0.144549909833691 
2393	 0.144795571040666 
2394	 0.144915648056853 
2395	 0.144910425117704 
2396	 0.144994581765834 
2397	 0.145074594981506 
2398	 0.145146877065781 
2399	 0.145271882283624 
2400	 0.145339527714869 
2401	 0.145394535212644 
2402	 0.145393468115475 
2403	 0.145315112880151 
2404	 0.145416869547581 
2405	 0.145568080755305 
2406	 0.145705594566329 
2407	 0.145836158019035 
2408	 0.145934341266019 
2409	 0.145964632836089 
2410	 0.146003197554574 
2411	 0.146179339955893 
2412	 0.146342408255552 
2413	 0.146394039157191 
2414	 0.146382077842462 
2415	 0.14637191381531 
2416	 0.146405363839294 
2417	 0.146541335118359 
2418	 0.146658005944446 
2419	 0.146744276618187 
2420	 0.146802931187835 
2421	 0.14658778663627 
2422	 0.146484807456529 
2423	 0.146552140985393 
2424	 0.146439521558224 
2425	 0.146433509887416 
2426	 0.146492968014224 
2427	 0.146451304405116 
2428	 0.146496969791488 
2429	 0.146507912252921 
2430	 0.146432431677111 
2431	 0.146346418001175 
2432	 0.146176467136791 
2433	 0.146097752770002 
2434	 0.146067029745134 
2435	 0.14598060904051 
2436	 0.145716021921895 
2437	 0.145311147214972 
2438	 0.145112609671898 
2439	 0.144703894674637 
2440	 0.144345491263988 
2441	 0.144284612877331 
2442	 0.143898692981595 
2443	 0.143597178868618 
2444	 0.143463326766836 
2445	 0.143154463614494 
2446	 0.142715175281424 
2447	 0.142146205039551 
2448	 0.141674443198584 
2449	 0.141145810804409 
2450	 0.140465862715925 
2451	 0.139909062124735 
2452	 0.139404263604227 
2453	 0.139022483945595 
2454	 0.138722938810607 
2455	 0.138410619280056 
2456	 0.138059705177713 
2457	 0.137537811534212 
2458	 0.137185611169571 
2459	 0.136928860207736 
2460	 0.136612377403107 
2461	 0.136191414137909 
2462	 0.135751380592364 
2463	 0.135478749613128 
2464	 0.135069172213422 
2465	 0.134736558531717 
2466	 0.134386246380605 
2467	 0.134041868607571 
2468	 0.13366178130477 
2469	 0.133136754361963 
2470	 0.133015845556421 
2471	 0.132961433329549 
2472	 0.133018843479257 
2473	 0.133180571655879 
2474	 0.132932983404021 
2475	 0.132574446121933 
2476	 0.132293833204273 
2477	 0.132164635446612 
2478	 0.132270863458014 
2479	 0.132347312632564 
2480	 0.132066945669348 
2481	 0.132008824957572 
2482	 0.132026917764313 
2483	 0.131969926668438 
2484	 0.131721629329763 
2485	 0.131475646552194 
2486	 0.131418271895318 
2487	 0.131457410593432 
2488	 0.131772971108617 
2489	 0.132010686159924 
2490	 0.132097439654564 
2491	 0.13212260577291 
2492	 0.132184456055001 
2493	 0.132432968011073 
2494	 0.132579785859673 
2495	 0.132530527974079 
2496	 0.132564103233139 
2497	 0.132548964755653 
2498	 0.132341841368424 
2499	 0.132421136728001 
2500	 0.132638497831171 
