Wavelength	spectrum00004.asd
350	 9.35829757713266E-02 
351	 0.096951271292026 
352	 9.70426128076016E-02 
353	 9.39870838910783E-02 
354	 9.69064330577229E-02 
355	 9.80024305985338E-02 
356	 9.89592142414603E-02 
357	 0.101086994181603 
358	 9.76535179815288E-02 
359	 9.74002403040819E-02 
360	 0.1003236828083 
361	 0.102004331420685 
362	 0.103472214783915 
363	 0.10278572328125 
364	 0.101151526080861 
365	 0.104028270735063 
366	 0.107065528864122 
367	 0.108608658842625 
368	 0.10864619415374 
369	 0.109951647180228 
370	 0.111610291493385 
371	 0.11337628365357 
372	 0.115343841589261 
373	 0.117176332044129 
374	 0.118854958392832 
375	 0.120631785029535 
376	 0.123100045064094 
377	 0.124351835155666 
378	 0.125287565931281 
379	 0.127140088287464 
380	 0.129563150354547 
381	 0.131948842108114 
382	 0.134324445965673 
383	 0.136973819075807 
384	 0.138328494672818 
385	 0.140711744445477 
386	 0.144202660351666 
387	 0.144842654567734 
388	 0.146686603422624 
389	 0.149299730539246 
390	 0.151399730833637 
391	 0.153292830932244 
392	 0.15591986081587 
393	 0.158937898909248 
394	 0.161274901239746 
395	 0.163787843153318 
396	 0.166275862494837 
397	 0.168516691914792 
398	 0.170413175601033 
399	 0.173057127677586 
400	 0.175729169209835 
401	 0.177672302164358 
402	 0.180296053629111 
403	 0.183176217702456 
404	 0.185823111070459 
405	 0.187869305538828 
406	 0.19031614938716 
407	 0.193035645318023 
408	 0.195780272534671 
409	 0.198472333928609 
410	 0.200608415333671 
411	 0.202804558294437 
412	 0.205727704755543 
413	 0.208408343771162 
414	 0.210588662408457 
415	 0.212742583287908 
416	 0.215840087818721 
417	 0.218404842404668 
418	 0.220811201993634 
419	 0.223430639437083 
420	 0.225832124337793 
421	 0.228188574407495 
422	 0.230698458463535 
423	 0.233466824300436 
424	 0.235939317559105 
425	 0.238278564077487 
426	 0.240682015600612 
427	 0.243307102496705 
428	 0.24563188894504 
429	 0.24797621022413 
430	 0.25057706213629 
431	 0.252827263232442 
432	 0.255230157839298 
433	 0.257752335841405 
434	 0.260094907264493 
435	 0.262514811348169 
436	 0.264889298374627 
437	 0.267199370042116 
438	 0.269640158658573 
439	 0.272201792833763 
440	 0.274645042478179 
441	 0.276790975139387 
442	 0.27899372647484 
443	 0.281258811280625 
444	 0.283566749559247 
445	 0.285886395694066 
446	 0.288101571036993 
447	 0.290331216915458 
448	 0.29263590595486 
449	 0.29484111675642 
450	 0.297187886413417 
451	 0.299548193268585 
452	 0.301700130554227 
453	 0.303800689369252 
454	 0.305905890232645 
455	 0.307997052340793 
456	 0.309994116847272 
457	 0.312199361188793 
458	 0.314321792610509 
459	 0.316186439375717 
460	 0.318378431459241 
461	 0.320460799712138 
462	 0.322375041691709 
463	 0.324279196964088 
464	 0.326198560172522 
465	 0.32805476142609 
466	 0.329839876966109 
467	 0.331675480271057 
468	 0.333519131802846 
469	 0.335320177933969 
470	 0.33707480119161 
471	 0.338987810062714 
472	 0.340814075735381 
473	 0.342474052850941 
474	 0.344037586096921 
475	 0.345534994931181 
476	 0.347110378146491 
477	 0.348825017960518 
478	 0.350553370810823 
479	 0.352174939560395 
480	 0.353770713309473 
481	 0.355458694510243 
482	 0.356988162380812 
483	 0.358536130396347 
484	 0.360161135228555 
485	 0.361748062512206 
486	 0.363289924921236 
487	 0.364788477252353 
488	 0.366268570633792 
489	 0.367826995196268 
490	 0.369261191585646 
491	 0.370593513020652 
492	 0.371960705897961 
493	 0.373167556676736 
494	 0.37434106124968 
495	 0.3755742912643 
496	 0.376857931603458 
497	 0.377863452909966 
498	 0.378783463933226 
499	 0.379871520172096 
500	 0.380850611084022 
501	 0.381692863356827 
502	 0.38246680326873 
503	 0.38330486290355 
504	 0.384036215370847 
505	 0.384725178341846 
506	 0.385404398826974 
507	 0.385911826888507 
508	 0.386434229622391 
509	 0.386989969305408 
510	 0.387508505756581 
511	 0.387890670673294 
512	 0.388225852812056 
513	 0.388531091374395 
514	 0.388708474959269 
515	 0.388858502610619 
516	 0.38895813899932 
517	 0.388995184951804 
518	 0.389132948016443 
519	 0.389085755877037 
520	 0.388903329812651 
521	 0.388843870003408 
522	 0.38862128321568 
523	 0.388287973409774 
524	 0.387931542376531 
525	 0.387624395490158 
526	 0.387179777829467 
527	 0.386658948978599 
528	 0.386168938415667 
529	 0.385522131924288 
530	 0.38483068321521 
531	 0.384155531900575 
532	 0.38348135725881 
533	 0.382622725638874 
534	 0.381644053901003 
535	 0.380637567701461 
536	 0.379589306244616 
537	 0.378522691466091 
538	 0.377407318090301 
539	 0.376182545383181 
540	 0.374817892475523 
541	 0.373403719525734 
542	 0.371993675237375 
543	 0.370561381520295 
544	 0.369150246944194 
545	 0.367674067246629 
546	 0.366060084951866 
547	 0.364474084432991 
548	 0.362844805471624 
549	 0.361158532612149 
550	 0.35945775893111 
551	 0.357665764936066 
552	 0.355829059941032 
553	 0.353986691722612 
554	 0.352106376089597 
555	 0.350205930181699 
556	 0.348265732312685 
557	 0.346257721410499 
558	 0.344201303939909 
559	 0.342181838803071 
560	 0.340222905454425 
561	 0.3382564364349 
562	 0.336190234426633 
563	 0.334124866402303 
564	 0.332153396799507 
565	 0.330117118663648 
566	 0.328080673944477 
567	 0.326060254922925 
568	 0.324031644086994 
569	 0.321981210187841 
570	 0.319911212137702 
571	 0.317819801830943 
572	 0.315681352383901 
573	 0.31360812062986 
574	 0.311596365343875 
575	 0.309610684846283 
576	 0.307758529436192 
577	 0.305861430652917 
578	 0.303869502229592 
579	 0.30190254329732 
580	 0.29991385204073 
581	 0.297910369340683 
582	 0.295908772806505 
583	 0.293936426102544 
584	 0.291951422415431 
585	 0.289952431321842 
586	 0.287955992786029 
587	 0.285920526187623 
588	 0.283883240156909 
589	 0.281868301651704 
590	 0.279867051467543 
591	 0.27780738197644 
592	 0.275769728282563 
593	 0.273832091026107 
594	 0.271833135630619 
595	 0.269857801283228 
596	 0.267925630638586 
597	 0.266000518914384 
598	 0.264110640011692 
599	 0.262232866677553 
600	 0.260335305224982 
601	 0.258391849804832 
602	 0.256504384871321 
603	 0.25468456833536 
604	 0.252895261514908 
605	 0.251066601027782 
606	 0.249238629325367 
607	 0.247440556283121 
608	 0.24567960939793 
609	 0.243900624024961 
610	 0.242153872487953 
611	 0.240486676743256 
612	 0.238873837797307 
613	 0.237220175491289 
614	 0.235543887413372 
615	 0.23393020594731 
616	 0.232332496745236 
617	 0.230770651400795 
618	 0.229239559374523 
619	 0.227670276430686 
620	 0.226130637663573 
621	 0.224650454789014 
622	 0.223224473163806 
623	 0.221752197151093 
624	 0.220300012328572 
625	 0.218899381986595 
626	 0.217537895480817 
627	 0.216184691371978 
628	 0.214848282187309 
629	 0.213541005039883 
630	 0.212268889696004 
631	 0.210997754889667 
632	 0.209743531681092 
633	 0.208537390814501 
634	 0.207331513184939 
635	 0.206125739166439 
636	 0.204948938018032 
637	 0.203862632956737 
638	 0.20271623367003 
639	 0.201558939965548 
640	 0.200469314965302 
641	 0.199449253039668 
642	 0.19843134450861 
643	 0.197407682910538 
644	 0.196406917403758 
645	 0.195437799802166 
646	 0.194471522858833 
647	 0.193505925643932 
648	 0.192586381722297 
649	 0.191719929618455 
650	 0.190852144406296 
651	 0.189938999276756 
652	 0.189060362361548 
653	 0.188222789095848 
654	 0.187422189499002 
655	 0.186646454122125 
656	 0.185873310407139 
657	 0.185103949658787 
658	 0.184355038770264 
659	 0.183669390540653 
660	 0.182960045367921 
661	 0.182234062655679 
662	 0.181532208866311 
663	 0.180865396615589 
664	 0.180175227256178 
665	 0.179490137618339 
666	 0.178923224461189 
667	 0.178356990674196 
668	 0.177772270086223 
669	 0.177184307373329 
670	 0.17663757017027 
671	 0.176120621737714 
672	 0.175591145199631 
673	 0.175017611517572 
674	 0.17454587789787 
675	 0.174094400718966 
676	 0.17363358812898 
677	 0.173218992877614 
678	 0.172745834717231 
679	 0.172244500806385 
680	 0.171776855351561 
681	 0.171397442684475 
682	 0.171019428070964 
683	 0.17062838850508 
684	 0.170252244128249 
685	 0.1699001124378 
686	 0.169568064230821 
687	 0.16923229305111 
688	 0.168843810402438 
689	 0.168495252353978 
690	 0.168195582988624 
691	 0.167929372418367 
692	 0.167696120782682 
693	 0.167415679333808 
694	 0.167109869708766 
695	 0.166858905781185 
696	 0.166616529482423 
697	 0.166373334834225 
698	 0.166136455078097 
699	 0.165931944714671 
700	 0.165732622051832 
701	 0.165536636036748 
702	 0.16535242974401 
703	 0.165201889647105 
704	 0.165034483776738 
705	 0.164852291859442 
706	 0.164694384694188 
707	 0.164568523671824 
708	 0.164445328076901 
709	 0.164314264682019 
710	 0.16420515103761 
711	 0.164096855469828 
712	 0.164000673026102 
713	 0.163924008706865 
714	 0.163818849384864 
715	 0.163735643006417 
716	 0.163675965530196 
717	 0.163609726319056 
718	 0.163587646442422 
719	 0.163568105401692 
720	 0.163523282710641 
721	 0.163466787360114 
722	 0.163467158354989 
723	 0.163461159205445 
724	 0.163394075813813 
725	 0.163414845174477 
726	 0.163453795566575 
727	 0.163480591526232 
728	 0.163497171688265 
729	 0.163493491308251 
730	 0.163495941918524 
731	 0.163530528705671 
732	 0.163616877033388 
733	 0.163673144650941 
734	 0.163733621183738 
735	 0.163837438673878 
736	 0.163906206479009 
737	 0.163941663009164 
738	 0.163996156863385 
739	 0.164137771327466 
740	 0.164269134382102 
741	 0.164353432298502 
742	 0.164421689628712 
743	 0.164592511154305 
744	 0.164693313371716 
745	 0.1647898770544 
746	 0.164960595564074 
747	 0.16510267080575 
748	 0.165220688811309 
749	 0.165350215604972 
750	 0.165533768898673 
751	 0.165715083218191 
752	 0.165884439659348 
753	 0.166055624248173 
754	 0.166264251458567 
755	 0.166426560316448 
756	 0.166586317470273 
757	 0.166788587112618 
758	 0.166992804245596 
759	 0.167187214115746 
760	 0.167379964238482 
761	 0.16759140648887 
762	 0.16784461851264 
763	 0.16810283879145 
764	 0.168335171444941 
765	 0.168528519291671 
766	 0.168768916941033 
767	 0.169010430315126 
768	 0.1692244261653 
769	 0.169484182398824 
770	 0.169752443133763 
771	 0.170024105233512 
772	 0.170305562380207 
773	 0.170608601311312 
774	 0.170887981446662 
775	 0.171146939979636 
776	 0.171428043386285 
777	 0.171712635039205 
778	 0.172016173060686 
779	 0.172337879336898 
780	 0.172642481712355 
781	 0.172950963825474 
782	 0.173254283919871 
783	 0.173553039761762 
784	 0.173911612460591 
785	 0.174254629886423 
786	 0.174575036262942 
787	 0.174907777331816 
788	 0.175269939800731 
789	 0.175632607449132 
790	 0.1759781242875 
791	 0.176310484249436 
792	 0.176680561795005 
793	 0.177060625630824 
794	 0.177427237003337 
795	 0.177810420214128 
796	 0.178193488459618 
797	 0.178583619841641 
798	 0.178985837641995 
799	 0.179350252487644 
800	 0.179745500818808 
801	 0.180173908541497 
802	 0.180585354843001 
803	 0.180996311529522 
804	 0.181401910331158 
805	 0.181802235397494 
806	 0.182206895914441 
807	 0.182653595867467 
808	 0.183099645582394 
809	 0.183515143388242 
810	 0.183968247463072 
811	 0.184455800576983 
812	 0.184930350582995 
813	 0.1853519645284 
814	 0.185846279588608 
815	 0.186337995118768 
816	 0.186802011617369 
817	 0.18726709543444 
818	 0.187708824856285 
819	 0.188160840516365 
820	 0.188656006300369 
821	 0.18921212346941 
822	 0.189712847127112 
823	 0.19019875023713 
824	 0.190720010320347 
825	 0.191210090454604 
826	 0.191709955264518 
827	 0.192242760985684 
828	 0.192811990256845 
829	 0.193371539069148 
830	 0.19394083349956 
831	 0.194501557385787 
832	 0.195011756892324 
833	 0.195581039637684 
834	 0.196162429632063 
835	 0.196728713374805 
836	 0.197320539702008 
837	 0.197876393574156 
838	 0.198426488949699 
839	 0.199010747345132 
840	 0.199630901511035 
841	 0.200270412088131 
842	 0.200883228465822 
843	 0.201439348762344 
844	 0.20203037301678 
845	 0.20265445614665 
846	 0.203302621342053 
847	 0.203958189608045 
848	 0.204569319434223 
849	 0.205191807400973 
850	 0.205847087835757 
851	 0.206494750256602 
852	 0.207101372514958 
853	 0.207727275939622 
854	 0.208418030493865 
855	 0.209150435589047 
856	 0.209798818853322 
857	 0.210452434211693 
858	 0.211200657180178 
859	 0.211864062983865 
860	 0.212540055910585 
861	 0.213243054548135 
862	 0.213951722646765 
863	 0.214723407736894 
864	 0.215466373548954 
865	 0.216169966554663 
866	 0.216898986276826 
867	 0.217617464649125 
868	 0.218351676896398 
869	 0.219101277187645 
870	 0.219822478631228 
871	 0.220585928047965 
872	 0.221362030184705 
873	 0.222125459390384 
874	 0.222910330171131 
875	 0.223710191965947 
876	 0.224517503012558 
877	 0.225322375597816 
878	 0.226107682899778 
879	 0.226886642020557 
880	 0.227690044283559 
881	 0.228536338685028 
882	 0.22934387876827 
883	 0.230146271034807 
884	 0.230947061252054 
885	 0.231735619031052 
886	 0.232616865919419 
887	 0.233490457921727 
888	 0.234325307492268 
889	 0.235195093002461 
890	 0.236111666962964 
891	 0.23700954732944 
892	 0.237850704351328 
893	 0.238668938148342 
894	 0.239567319179665 
895	 0.240495316393353 
896	 0.241387318761965 
897	 0.242248713532824 
898	 0.243177250756106 
899	 0.24410877524744 
900	 0.244963945765362 
901	 0.245824512562111 
902	 0.246768287290223 
903	 0.247749858406053 
904	 0.248677789398888 
905	 0.249587806446978 
906	 0.250565195056718 
907	 0.251567394481963 
908	 0.252482336463014 
909	 0.253425212349406 
910	 0.254436427862774 
911	 0.255468181652096 
912	 0.256412181154335 
913	 0.257415645510067 
914	 0.258440759182873 
915	 0.259442685077349 
916	 0.260411356805908 
917	 0.261369874625692 
918	 0.262368150519302 
919	 0.263418258907559 
920	 0.264458854399155 
921	 0.265441702029362 
922	 0.266448971362651 
923	 0.267536817810876 
924	 0.268608486245887 
925	 0.269640031399047 
926	 0.270677625893508 
927	 0.271763918590234 
928	 0.272841813272194 
929	 0.273894255663861 
930	 0.274949639494556 
931	 0.276028926895442 
932	 0.277019499766839 
933	 0.278116665566087 
934	 0.279270770092849 
935	 0.280329711666974 
936	 0.281398460127531 
937	 0.282554618722331 
938	 0.283708472675732 
939	 0.284710645449176 
940	 0.285822027730983 
941	 0.286926627968142 
942	 0.288042878398757 
943	 0.289290900194131 
944	 0.290391283595781 
945	 0.291471990568415 
946	 0.292608791183168 
947	 0.293768583201734 
948	 0.294970561044315 
949	 0.296095849617091 
950	 0.297109518266351 
951	 0.298112865514651 
952	 0.299249107447183 
953	 0.300442668182777 
954	 0.301624555182206 
955	 0.302805303204446 
956	 0.303944735581735 
957	 0.305092579671515 
958	 0.306272986946414 
959	 0.307435330957292 
960	 0.30857464447219 
961	 0.309689226459213 
962	 0.31082634297424 
963	 0.312115476554674 
964	 0.313319515962012 
965	 0.314436867034106 
966	 0.315566659397222 
967	 0.316874182562573 
968	 0.318080913858239 
969	 0.319214968642216 
970	 0.320381455529023 
971	 0.321629082897236 
972	 0.322943680465142 
973	 0.324182416307136 
974	 0.325262230056361 
975	 0.326360965913357 
976	 0.327519970443833 
977	 0.328751322781902 
978	 0.330027463999078 
979	 0.33126531923861 
980	 0.332499841895172 
981	 0.33371375130801 
982	 0.334896864707479 
983	 0.336116444020964 
984	 0.337301170688453 
985	 0.338534851230254 
986	 0.339879078268405 
987	 0.34116023949529 
988	 0.342254804780618 
989	 0.343393157187498 
990	 0.344760411584461 
991	 0.34593455938467 
992	 0.347138930407704 
993	 0.348407406042793 
994	 0.349703617737775 
995	 0.351006761448613 
996	 0.352255715048338 
997	 0.353480810890254 
998	 0.354722171903954 
999	 0.355918461454706 
1000	 0.357195383581265 
1001	 0.358741100118571 
1002	 0.359965114668683 
1003	 0.361191188907225 
1004	 0.362388153632581 
1005	 0.363585785912506 
1006	 0.364788342225307 
1007	 0.365939616948465 
1008	 0.367163118421377 
1009	 0.368422567758929 
1010	 0.369668133611631 
1011	 0.370968488251025 
1012	 0.372207988784701 
1013	 0.373398428270317 
1014	 0.374628257954974 
1015	 0.37585634687979 
1016	 0.377054085633216 
1017	 0.378319115423634 
1018	 0.379573055983941 
1019	 0.380842640292464 
1020	 0.382151412988524 
1021	 0.383392750814452 
1022	 0.384600459486456 
1023	 0.385842488003473 
1024	 0.387036142238236 
1025	 0.388285974184896 
1026	 0.389599261646565 
1027	 0.390890892506589 
1028	 0.392209036982784 
1029	 0.393503302505677 
1030	 0.394717112656291 
1031	 0.395996650099638 
1032	 0.397235467498544 
1033	 0.398445063065901 
1034	 0.399782825399572 
1035	 0.401076296814938 
1036	 0.402376225185613 
1037	 0.403744308493833 
1038	 0.405011529604012 
1039	 0.406200705862104 
1040	 0.407450417071531 
1041	 0.408650950273517 
1042	 0.409914816917991 
1043	 0.411258139029921 
1044	 0.412551661191606 
1045	 0.413845992064789 
1046	 0.415136876067989 
1047	 0.416345337817172 
1048	 0.417602020334298 
1049	 0.418834235088148 
1050	 0.420039783577155 
1051	 0.421324846028435 
1052	 0.422554151098483 
1053	 0.423809293263233 
1054	 0.425116262358809 
1055	 0.426374911126226 
1056	 0.427590128779501 
1057	 0.42885485996135 
1058	 0.430125802534686 
1059	 0.431366615767507 
1060	 0.432683439689715 
1061	 0.433946042205035 
1062	 0.435216789888705 
1063	 0.436499252103168 
1064	 0.437695766492918 
1065	 0.43894351554147 
1066	 0.440181001851438 
1067	 0.441383228255435 
1068	 0.442659666927495 
1069	 0.443913657345372 
1070	 0.445158677660165 
1071	 0.446404184951632 
1072	 0.447650645024671 
1073	 0.448824232428405 
1074	 0.45002435408224 
1075	 0.451229085819829 
1076	 0.45245179827742 
1077	 0.453744488762685 
1078	 0.455000986804748 
1079	 0.456301011745204 
1080	 0.457573956600821 
1081	 0.458733736416496 
1082	 0.459953947112037 
1083	 0.461159768427804 
1084	 0.462332247127472 
1085	 0.463570614301095 
1086	 0.464780019256779 
1087	 0.465970501068491 
1088	 0.467157089944705 
1089	 0.468386011711315 
1090	 0.469599673925684 
1091	 0.470828876665948 
1092	 0.472035715212421 
1093	 0.473247930764261 
1094	 0.47451077659115 
1095	 0.475728852344632 
1096	 0.476969812418052 
1097	 0.478215960070465 
1098	 0.479351723081258 
1099	 0.480517030891659 
1100	 0.481672550759879 
1101	 0.482818042518189 
1102	 0.484074579163593 
1103	 0.485289734390866 
1104	 0.486507503613215 
1105	 0.487757035768999 
1106	 0.489006083151238 
1107	 0.490129966895358 
1108	 0.491305929367897 
1109	 0.492473565215271 
1110	 0.493645182767714 
1111	 0.494929785666672 
1112	 0.496151377108702 
1113	 0.497391200898418 
1114	 0.498651235296535 
1115	 0.4998053507744 
1116	 0.501005535161283 
1117	 0.502188940201011 
1118	 0.503366571854318 
1119	 0.504543858855346 
1120	 0.505710567049739 
1121	 0.506850535999724 
1122	 0.508030564484895 
1123	 0.509242298826332 
1124	 0.510359703948234 
1125	 0.511526347496709 
1126	 0.51269154951529 
1127	 0.513789879120983 
1128	 0.514944242388382 
1129	 0.516066948240852 
1130	 0.517184961406348 
1131	 0.51830793905987 
1132	 0.519323103821873 
1133	 0.520357485531133 
1134	 0.521368439460955 
1135	 0.522385747827557 
1136	 0.52341925717387 
1137	 0.52444073689173 
1138	 0.525440054831003 
1139	 0.526460686036827 
1140	 0.527514030994334 
1141	 0.528467601359311 
1142	 0.529435709905924 
1143	 0.530395728519168 
1144	 0.531324995660711 
1145	 0.532279950776853 
1146	 0.533219248927633 
1147	 0.534182130388552 
1148	 0.535110530068563 
1149	 0.535991993697429 
1150	 0.536906931642266 
1151	 0.53778492443158 
1152	 0.538661094252063 
1153	 0.539540712281847 
1154	 0.540397791431274 
1155	 0.541246422524435 
1156	 0.542076353165673 
1157	 0.542866233656142 
1158	 0.54365811807148 
1159	 0.544448078162827 
1160	 0.545212882842679 
1161	 0.545976769871626 
1162	 0.546799864372419 
1163	 0.547572875122043 
1164	 0.548344811273727 
1165	 0.549116093867499 
1166	 0.549846742467891 
1167	 0.550601320997573 
1168	 0.55134041408861 
1169	 0.552098524535605 
1170	 0.552874781892141 
1171	 0.553639010448091 
1172	 0.554418128212195 
1173	 0.555182607179489 
1174	 0.555919294835671 
1175	 0.556659379319464 
1176	 0.55739003963311 
1177	 0.558129796554952 
1178	 0.55885875518271 
1179	 0.55964704201759 
1180	 0.560369148478791 
1181	 0.561112893654361 
1182	 0.561866697272778 
1183	 0.562561755350957 
1184	 0.563321183785092 
1185	 0.564088506382539 
1186	 0.564870351940649 
1187	 0.565666557962503 
1188	 0.566483233543876 
1189	 0.567329406883094 
1190	 0.56816657716445 
1191	 0.569006770939463 
1192	 0.569844567089444 
1193	 0.570662294072595 
1194	 0.571519774768398 
1195	 0.572402543437964 
1196	 0.573303143556134 
1197	 0.574220404003193 
1198	 0.575181735938143 
1199	 0.576152083351048 
1200	 0.577041307756015 
1201	 0.577970419827443 
1202	 0.578891739996553 
1203	 0.579801348664758 
1204	 0.580798167792734 
1205	 0.581778432227876 
1206	 0.582760593772295 
1207	 0.583798589350027 
1208	 0.584850486794651 
1209	 0.585947518883212 
1210	 0.587083037036127 
1211	 0.588266750535024 
1212	 0.589490338722952 
1213	 0.590773161415417 
1214	 0.592122381034831 
1215	 0.59350282936294 
1216	 0.594947093234254 
1217	 0.596375535624159 
1218	 0.597816109327997 
1219	 0.599291287500753 
1220	 0.600779990178785 
1221	 0.602359844414311 
1222	 0.60390307331988 
1223	 0.605472105155792 
1224	 0.607006305013279 
1225	 0.608510013053908 
1226	 0.609989197754583 
1227	 0.611462347545315 
1228	 0.612911343809172 
1229	 0.614341718725539 
1230	 0.615735960254661 
1231	 0.617101398752719 
1232	 0.618466370111441 
1233	 0.619796520066454 
1234	 0.621102898028249 
1235	 0.622416411159809 
1236	 0.62369256544333 
1237	 0.624937293806998 
1238	 0.626150221300762 
1239	 0.627327070382025 
1240	 0.628490756752216 
1241	 0.629652554759574 
1242	 0.630731333137975 
1243	 0.631851470252152 
1244	 0.632970097100446 
1245	 0.634098623764651 
1246	 0.635247916259596 
1247	 0.636351682259106 
1248	 0.637447392654899 
1249	 0.638535544746915 
1250	 0.639585968764 
1251	 0.640640380976352 
1252	 0.641708014174308 
1253	 0.642755151389755 
1254	 0.643786094120767 
1255	 0.644813854284746 
1256	 0.645849236869747 
1257	 0.64685723777073 
1258	 0.64784288740501 
1259	 0.648815092852236 
1260	 0.649741558207809 
1261	 0.650703251052654 
1262	 0.651657336317555 
1263	 0.652659374113914 
1264	 0.653625935627025 
1265	 0.654614558070487 
1266	 0.655566846174939 
1267	 0.656496979144323 
1268	 0.657401284307865 
1269	 0.658275335579031 
1270	 0.659167587245202 
1271	 0.660042655802159 
1272	 0.660914861024469 
1273	 0.661792698628435 
1274	 0.662671637554861 
1275	 0.663537827725907 
1276	 0.664392926242444 
1277	 0.665260902009588 
1278	 0.666107577776748 
1279	 0.666913961121759 
1280	 0.667736812090836 
1281	 0.668544257377217 
1282	 0.669377424504857 
1283	 0.670240451199927 
1284	 0.671077051026062 
1285	 0.671908741698133 
1286	 0.672753963307947 
1287	 0.673568246704605 
1288	 0.674355833312263 
1289	 0.675137890824186 
1290	 0.675901146931811 
1291	 0.67668171734014 
1292	 0.677452517167385 
1293	 0.678224502360657 
1294	 0.679008006347165 
1295	 0.679784538618803 
1296	 0.680558978787531 
1297	 0.681313808930977 
1298	 0.682073012505985 
1299	 0.682806643089393 
1300	 0.683500042114651 
1301	 0.68420789461802 
1302	 0.68490514957201 
1303	 0.685611988775754 
1304	 0.686329868477215 
1305	 0.687036781254452 
1306	 0.687737725531403 
1307	 0.688443210448744 
1308	 0.689129969384802 
1309	 0.689844932008143 
1310	 0.690546506423966 
1311	 0.691249534396006 
1312	 0.69196198378507 
1313	 0.692682587210015 
1314	 0.693382804518384 
1315	 0.694083867514837 
1316	 0.694780292426371 
1317	 0.695466366197197 
1318	 0.696139647970178 
1319	 0.69681630539503 
1320	 0.697475473692632 
1321	 0.698119036503885 
1322	 0.698741569351784 
1323	 0.69934145919529 
1324	 0.699951648053948 
1325	 0.700554063502453 
1326	 0.701141082484133 
1327	 0.701729556330602 
1328	 0.702309880314668 
1329	 0.702865101174582 
1330	 0.703421283125057 
1331	 0.703992131705715 
1332	 0.704540283998196 
1333	 0.705064215431339 
1334	 0.705601104037926 
1335	 0.70609048544726 
1336	 0.706558694667838 
1337	 0.707010237228239 
1338	 0.707439999201609 
1339	 0.707835672392032 
1340	 0.708214496537602 
1341	 0.70856374612786 
1342	 0.708867957051906 
1343	 0.709177579711839 
1344	 0.709485487508179 
1345	 0.709757390621672 
1346	 0.710009046767884 
1347	 0.710240763376271 
1348	 0.710447233158059 
1349	 0.710635457712489 
1350	 0.71079904707701 
1351	 0.710959659947761 
1352	 0.711099564693241 
1353	 0.711236133887887 
1354	 0.711357540241362 
1355	 0.711492465124537 
1356	 0.711627594294985 
1357	 0.711759505490572 
1358	 0.711920983386572 
1359	 0.712046406117219 
1360	 0.712139416494427 
1361	 0.712236170232814 
1362	 0.712336936615951 
1363	 0.71241293545141 
1364	 0.712484380209427 
1365	 0.712575313050134 
1366	 0.712595801819036 
1367	 0.712587531960253 
1368	 0.712532641238665 
1369	 0.712430033991414 
1370	 0.712310395363911 
1371	 0.712158437299496 
1372	 0.711979049980135 
1373	 0.71179176616218 
1374	 0.711534752642204 
1375	 0.711239047693668 
1376	 0.710886214862709 
1377	 0.71048307883591 
1378	 0.710019275827041 
1379	 0.709499013699 
1380	 0.708932293110936 
1381	 0.708305767423754 
1382	 0.707636145296001 
1383	 0.706905588450128 
1384	 0.706158645158958 
1385	 0.705375522586059 
1386	 0.704561721624141 
1387	 0.703708677872197 
1388	 0.702861646039456 
1389	 0.701996015286392 
1390	 0.701108882302853 
1391	 0.700248144370945 
1392	 0.699301374083073 
1393	 0.69838271303607 
1394	 0.697412253202169 
1395	 0.69637262500573 
1396	 0.695323983556548 
1397	 0.694153317094391 
1398	 0.692910996685587 
1399	 0.691541088367809 
1400	 0.690089071669003 
1401	 0.688505347708202 
1402	 0.686811627333398 
1403	 0.68497069791135 
1404	 0.682989039630063 
1405	 0.680952502817764 
1406	 0.678727684513604 
1407	 0.67657217390262 
1408	 0.674282937650957 
1409	 0.672197371133402 
1410	 0.67008107810899 
1411	 0.668229084575767 
1412	 0.666517430509729 
1413	 0.665040539144679 
1414	 0.663775308322736 
1415	 0.662665767735585 
1416	 0.661829152382095 
1417	 0.661017235248665 
1418	 0.660383611132229 
1419	 0.659737115850233 
1420	 0.659165778598735 
1421	 0.658592655338891 
1422	 0.658054302776758 
1423	 0.657505040332507 
1424	 0.656983900641745 
1425	 0.656416041246459 
1426	 0.655860035481757 
1427	 0.655306530655057 
1428	 0.654734428185799 
1429	 0.654229182493185 
1430	 0.653753573061086 
1431	 0.653269970879452 
1432	 0.652933014186906 
1433	 0.652624075600175 
1434	 0.652532515217459 
1435	 0.652566955000005 
1436	 0.652765180296682 
1437	 0.653167047366467 
1438	 0.653605705497383 
1439	 0.654193584135745 
1440	 0.654790257283426 
1441	 0.655501445970977 
1442	 0.656149359163667 
1443	 0.656849269360557 
1444	 0.657478786437517 
1445	 0.658058956657635 
1446	 0.658635835422176 
1447	 0.659200166850621 
1448	 0.65973007359372 
1449	 0.660236525344685 
1450	 0.660725059614007 
1451	 0.661162608775534 
1452	 0.661622701152769 
1453	 0.662092316443077 
1454	 0.662534308498986 
1455	 0.662963414064224 
1456	 0.663394503558325 
1457	 0.663794353812328 
1458	 0.664218214938197 
1459	 0.664648249563363 
1460	 0.665097472295592 
1461	 0.6655653889931 
1462	 0.666033708356691 
1463	 0.6665199600195 
1464	 0.667008589552265 
1465	 0.667500020133862 
1466	 0.667998011788079 
1467	 0.668466922371622 
1468	 0.668956741327614 
1469	 0.669461841389515 
1470	 0.669934384821302 
1471	 0.670412542680507 
1472	 0.670910071003453 
1473	 0.671372647262339 
1474	 0.671824016721987 
1475	 0.672224555504972 
1476	 0.672612390505903 
1477	 0.672944654903318 
1478	 0.673214651268986 
1479	 0.673474029810444 
1480	 0.673696601765662 
1481	 0.673914918230893 
1482	 0.674105506350321 
1483	 0.674292603407837 
1484	 0.674462848268674 
1485	 0.674643838180528 
1486	 0.674818510332325 
1487	 0.674987638441938 
1488	 0.675155541118306 
1489	 0.67533126858247 
1490	 0.675478957246417 
1491	 0.675679937614048 
1492	 0.675889746984058 
1493	 0.676161155187907 
1494	 0.676469525854438 
1495	 0.676823998489557 
1496	 0.677239327141769 
1497	 0.677675606869566 
1498	 0.678169922551442 
1499	 0.678655393709803 
1500	 0.679148898308284 
1501	 0.67967678513147 
1502	 0.680216703926488 
1503	 0.680779022526955 
1504	 0.681380458086655 
1505	 0.681992655259865 
1506	 0.682634270556866 
1507	 0.683264681496099 
1508	 0.683897545902183 
1509	 0.684549107664861 
1510	 0.685187368077767 
1511	 0.685854451418094 
1512	 0.68656118330035 
1513	 0.687267610796966 
1514	 0.687998859213658 
1515	 0.688716756361583 
1516	 0.689415419695022 
1517	 0.690142821371449 
1518	 0.690876655281319 
1519	 0.691617773873111 
1520	 0.692384190523047 
1521	 0.693158533252738 
1522	 0.693920702499479 
1523	 0.694709991084233 
1524	 0.695464477528994 
1525	 0.696213360360864 
1526	 0.696970367963576 
1527	 0.697713460052851 
1528	 0.698454737456358 
1529	 0.699205553031271 
1530	 0.699954041745577 
1531	 0.700677911276404 
1532	 0.701441655147603 
1533	 0.702226627104492 
1534	 0.703028109317079 
1535	 0.703865916323262 
1536	 0.704648871450579 
1537	 0.705434723205152 
1538	 0.706194422749906 
1539	 0.706908029360324 
1540	 0.70764017967991 
1541	 0.708386871429883 
1542	 0.709098538609863 
1543	 0.709804136252381 
1544	 0.71045906417206 
1545	 0.711092087850539 
1546	 0.711676690068317 
1547	 0.712219394925393 
1548	 0.712720121086286 
1549	 0.713173457811463 
1550	 0.71360554600235 
1551	 0.713977862473179 
1552	 0.714371134614067 
1553	 0.714753501864713 
1554	 0.715128403641472 
1555	 0.715492688310045 
1556	 0.715865443823209 
1557	 0.716229900051751 
1558	 0.716600396660583 
1559	 0.716975869587425 
1560	 0.717359571806781 
1561	 0.717733997678068 
1562	 0.71813683371651 
1563	 0.71856183931237 
1564	 0.718992037497421 
1565	 0.719429054532982 
1566	 0.719891059935726 
1567	 0.720374690390245 
1568	 0.720860482998555 
1569	 0.721367460207482 
1570	 0.721876229403633 
1571	 0.722386163603092 
1572	 0.722903667707506 
1573	 0.723434344057538 
1574	 0.723966054547446 
1575	 0.724508477993847 
1576	 0.725038620698371 
1577	 0.725565167969025 
1578	 0.726095565578761 
1579	 0.726629756197794 
1580	 0.727143786973313 
1581	 0.727662976210055 
1582	 0.728158343731665 
1583	 0.728615961597057 
1584	 0.729088667784573 
1585	 0.729556818904914 
1586	 0.730026855341555 
1587	 0.73051041903155 
1588	 0.730969665894463 
1589	 0.731399174582964 
1590	 0.731857801627711 
1591	 0.732305351501544 
1592	 0.732781574345919 
1593	 0.733291104774446 
1594	 0.733804084518205 
1595	 0.734342506812751 
1596	 0.734860316772794 
1597	 0.735373034230793 
1598	 0.735893983356396 
1599	 0.73643510155848 
1600	 0.736929378309047 
1601	 0.737415641193293 
1602	 0.737879581467713 
1603	 0.738284837164722 
1604	 0.738701244380966 
1605	 0.739118256729021 
1606	 0.739529543138925 
1607	 0.739926014572293 
1608	 0.740329182371022 
1609	 0.740735936012321 
1610	 0.741139940128277 
1611	 0.741552509089964 
1612	 0.74194312473785 
1613	 0.74233671531852 
1614	 0.742698222390991 
1615	 0.743044661302871 
1616	 0.743359353063955 
1617	 0.743642146763129 
1618	 0.743902181882151 
1619	 0.744111492361714 
1620	 0.744334438720125 
1621	 0.744548320105994 
1622	 0.744756271478871 
1623	 0.744959367638218 
1624	 0.745167267271778 
1625	 0.74537056042234 
1626	 0.745570184564037 
1627	 0.745795206634034 
1628	 0.745977208499776 
1629	 0.74613517802319 
1630	 0.746276578154492 
1631	 0.746373172000178 
1632	 0.746486128622316 
1633	 0.746585501279274 
1634	 0.746699417614327 
1635	 0.74682674115296 
1636	 0.746951222264769 
1637	 0.747089040815941 
1638	 0.747214924614737 
1639	 0.74735227936134 
1640	 0.747449625995443 
1641	 0.747536242745018 
1642	 0.747584059437608 
1643	 0.747590564607378 
1644	 0.747581055446646 
1645	 0.747542430161646 
1646	 0.747486005827738 
1647	 0.747431645068514 
1648	 0.747311444059717 
1649	 0.747136399273589 
1650	 0.746950104249257 
1651	 0.746714518727009 
1652	 0.746463590895116 
1653	 0.746248068811397 
1654	 0.745922747604557 
1655	 0.745550531047751 
1656	 0.74508024467096 
1657	 0.744524703234664 
1658	 0.743873729582039 
1659	 0.743123224650271 
1660	 0.742314117913996 
1661	 0.741422447395259 
1662	 0.74044513805869 
1663	 0.739389830755468 
1664	 0.738251507698893 
1665	 0.737011157947807 
1666	 0.735705736904122 
1667	 0.734359159464426 
1668	 0.732889197454122 
1669	 0.731347174234959 
1670	 0.729657888671236 
1671	 0.727819253200541 
1672	 0.725888854977682 
1673	 0.723824075150903 
1674	 0.721682512812582 
1675	 0.719452163963751 
1676	 0.717164695096674 
1677	 0.714765657204952 
1678	 0.712344726517374 
1679	 0.709804820852863 
1680	 0.707320879320927 
1681	 0.704815643416938 
1682	 0.702328484707925 
1683	 0.699864874601353 
1684	 0.697461262964791 
1685	 0.695060606786929 
1686	 0.692714692416444 
1687	 0.690396713758738 
1688	 0.688153543725086 
1689	 0.685970097600059 
1690	 0.683810610538069 
1691	 0.681752432742839 
1692	 0.679699247572557 
1693	 0.677687589143417 
1694	 0.675627512988796 
1695	 0.673580647864153 
1696	 0.671472332957109 
1697	 0.669313566356441 
1698	 0.66710367853581 
1699	 0.664863980745476 
1700	 0.66266995630455 
1701	 0.66041196957434 
1702	 0.658240287651783 
1703	 0.656089485238031 
1704	 0.65400600668628 
1705	 0.651957067582901 
1706	 0.649938048297884 
1707	 0.648104937611962 
1708	 0.646243307996534 
1709	 0.644460562625298 
1710	 0.642779924394003 
1711	 0.641042556276865 
1712	 0.639390696716829 
1713	 0.637702515435456 
1714	 0.635948270796994 
1715	 0.634310313371471 
1716	 0.632637271232433 
1717	 0.631016478250021 
1718	 0.629516702172477 
1719	 0.628026621517181 
1720	 0.626672744412965 
1721	 0.625479177657837 
1722	 0.624414571671858 
1723	 0.623583137140057 
1724	 0.622976575837769 
1725	 0.622582546596188 
1726	 0.62250588021015 
1727	 0.622752538885258 
1728	 0.623282694338517 
1729	 0.624144754967271 
1730	 0.625329439915545 
1731	 0.626625081000312 
1732	 0.628150050206072 
1733	 0.629769007047185 
1734	 0.631364905770618 
1735	 0.633075349955288 
1736	 0.634668019945517 
1737	 0.636119136549976 
1738	 0.637421305124754 
1739	 0.638559473660842 
1740	 0.639564166603507 
1741	 0.640402600788891 
1742	 0.641083139220882 
1743	 0.641626388696339 
1744	 0.641956107562797 
1745	 0.64222607342547 
1746	 0.642353736372979 
1747	 0.64244581210302 
1748	 0.642419437813044 
1749	 0.642429829449797 
1750	 0.642374855869601 
1751	 0.64237636512983 
1752	 0.642363117591216 
1753	 0.642463944035738 
1754	 0.642608306554997 
1755	 0.642846418582182 
1756	 0.643163742283462 
1757	 0.64355260605104 
1758	 0.644094997939983 
1759	 0.644736870968291 
1760	 0.645548798583779 
1761	 0.646538368466875 
1762	 0.647592401981519 
1763	 0.648880662281594 
1764	 0.650310901895598 
1765	 0.651840894272022 
1766	 0.653576826897165 
1767	 0.655307308776408 
1768	 0.657075316734648 
1769	 0.65886008988122 
1770	 0.66047815576446 
1771	 0.662058360994943 
1772	 0.663537403447518 
1773	 0.664926321019803 
1774	 0.666348174533865 
1775	 0.667600597503615 
1776	 0.668781145919247 
1777	 0.669911543987682 
1778	 0.670855939521945 
1779	 0.671780700540186 
1780	 0.672644373133705 
1781	 0.673380366734923 
1782	 0.674083727931557 
1783	 0.674699580564378 
1784	 0.675234823612288 
1785	 0.675692999642978 
1786	 0.676108432953966 
1787	 0.676472650516318 
1788	 0.676811807319258 
1789	 0.67708306530757 
1790	 0.677371561711675 
1791	 0.67764228575983 
1792	 0.677902059329716 
1793	 0.678147945992751 
1794	 0.678383357372074 
1795	 0.678618127922491 
1796	 0.678876734882322 
1797	 0.679153096015042 
1798	 0.679415725927861 
1799	 0.679698688656007 
1800	 0.67997546717753 
1801	 0.676200058469705 
1802	 0.676472811924413 
1803	 0.67674383718386 
1804	 0.676995264004979 
1805	 0.677296200924847 
1806	 0.67756950469447 
1807	 0.677836515388331 
1808	 0.678111306221082 
1809	 0.678388049016732 
1810	 0.67866051990489 
1811	 0.678934798423717 
1812	 0.679215417899878 
1813	 0.679491443931786 
1814	 0.679783503254188 
1815	 0.680072810796427 
1816	 0.680359717648106 
1817	 0.680665638344213 
1818	 0.680974565040731 
1819	 0.681297253178181 
1820	 0.681626231032834 
1821	 0.681983489562191 
1822	 0.682374152059636 
1823	 0.68275852108102 
1824	 0.683127366542759 
1825	 0.68348931528132 
1826	 0.68382417807492 
1827	 0.684114712545319 
1828	 0.684422195290908 
1829	 0.6847311976455 
1830	 0.685031602211776 
1831	 0.685318638728193 
1832	 0.685611118582629 
1833	 0.685918901827541 
1834	 0.686210444162378 
1835	 0.686505106802712 
1836	 0.686805346909061 
1837	 0.687094539511487 
1838	 0.687363159382697 
1839	 0.687653202377837 
1840	 0.68794686197623 
1841	 0.68824321559451 
1842	 0.68855103235628 
1843	 0.688864839766615 
1844	 0.689163171156943 
1845	 0.689419835440681 
1846	 0.689624976057235 
1847	 0.689795645361993 
1848	 0.689931593636512 
1849	 0.690030996638103 
1850	 0.690090220193739 
1851	 0.690133074625449 
1852	 0.690101758625825 
1853	 0.690003688227334 
1854	 0.689877749337887 
1855	 0.689672027359843 
1856	 0.689436645357413 
1857	 0.689142103417003 
1858	 0.688747579672578 
1859	 0.68833530473398 
1860	 0.687890373373201 
1861	 0.687348093166121 
1862	 0.686745507634273 
1863	 0.686127765573057 
1864	 0.685344961546624 
1865	 0.684506661258722 
1866	 0.683582637010481 
1867	 0.682484972947186 
1868	 0.681350539456005 
1869	 0.680085659965745 
1870	 0.67871910754608 
1871	 0.677275536822378 
1872	 0.675736050876064 
1873	 0.674090214260945 
1874	 0.672378785542198 
1875	 0.670569344706926 
1876	 0.668494868943774 
1877	 0.666380076247556 
1878	 0.664024059607128 
1879	 0.661416914728194 
1880	 0.658838347821156 
1881	 0.655966096811895 
1882	 0.652839303645259 
1883	 0.649576975010259 
1884	 0.646125389084775 
1885	 0.64217617199669 
1886	 0.638131295755223 
1887	 0.633777324998501 
1888	 0.629045302806144 
1889	 0.624470117951903 
1890	 0.619619784738434 
1891	 0.614709110196766 
1892	 0.609801184268478 
1893	 0.604665711498815 
1894	 0.599255203416905 
1895	 0.594005527954525 
1896	 0.588579237446901 
1897	 0.583074652728951 
1898	 0.57802593084779 
1899	 0.572841431223328 
1900	 0.567778178231409 
1901	 0.562950102390237 
1902	 0.5578358797955 
1903	 0.552978954356378 
1904	 0.548242791314448 
1905	 0.543560222750375 
1906	 0.538969005071441 
1907	 0.534905707100278 
1908	 0.530826683793049 
1909	 0.526909825612103 
1910	 0.52326500922862 
1911	 0.519492335434771 
1912	 0.515969222408976 
1913	 0.512573679169623 
1914	 0.509226886773884 
1915	 0.506145233084304 
1916	 0.503339052105692 
1917	 0.500532360606238 
1918	 0.49788608913181 
1919	 0.495415893050795 
1920	 0.492866012541759 
1921	 0.490535933606681 
1922	 0.488299191810368 
1923	 0.486117922893661 
1924	 0.484242833477759 
1925	 0.482434266814694 
1926	 0.480725008356865 
1927	 0.479180775152355 
1928	 0.477693358418824 
1929	 0.476253636641152 
1930	 0.474956503180533 
1931	 0.473788855978481 
1932	 0.472706262268651 
1933	 0.471822183912137 
1934	 0.471047054452646 
1935	 0.47035083790967 
1936	 0.469800674435164 
1937	 0.469349411161668 
1938	 0.469000414164732 
1939	 0.468763429999023 
1940	 0.4686401634038 
1941	 0.468631372964077 
1942	 0.468719730718707 
1943	 0.468881737910275 
1944	 0.469122434532502 
1945	 0.469459484113444 
1946	 0.469906459271664 
1947	 0.470435867012143 
1948	 0.471075068144879 
1949	 0.471819333681994 
1950	 0.472592187466414 
1951	 0.47344863840013 
1952	 0.474333299052238 
1953	 0.475258734343981 
1954	 0.476219687680638 
1955	 0.477286616792598 
1956	 0.478310288111159 
1957	 0.479383387658792 
1958	 0.48049554919116 
1959	 0.481515856153828 
1960	 0.482601686439949 
1961	 0.48368680799453 
1962	 0.484762833447124 
1963	 0.485855386289352 
1964	 0.486985646590801 
1965	 0.488081881050805 
1966	 0.489179960413604 
1967	 0.490283011751386 
1968	 0.491303918363254 
1969	 0.492351050974795 
1970	 0.493353813615633 
1971	 0.494339209556255 
1972	 0.495419099866389 
1973	 0.496463293355927 
1974	 0.497520626841319 
1975	 0.498646140367882 
1976	 0.499684668474377 
1977	 0.50066748725355 
1978	 0.501670643574915 
1979	 0.502641821361788 
1980	 0.503598715882773 
1981	 0.504637533237795 
1982	 0.505646625192501 
1983	 0.50668095055147 
1984	 0.507727369142333 
1985	 0.508687470464437 
1986	 0.509695484395066 
1987	 0.510692647843502 
1988	 0.511664647283132 
1989	 0.512654865044495 
1990	 0.513675220431229 
1991	 0.514660300766228 
1992	 0.515628141976664 
1993	 0.51662753897753 
1994	 0.517551534975291 
1995	 0.518487340664491 
1996	 0.519407619442451 
1997	 0.520296905447894 
1998	 0.521219613984066 
1999	 0.52215873855198 
2000	 0.523082868539366 
2001	 0.524063610757491 
2002	 0.524937735346443 
2003	 0.525773786550079 
2004	 0.526569283785054 
2005	 0.527284225771464 
2006	 0.527986145146496 
2007	 0.528674102260066 
2008	 0.529314366184327 
2009	 0.529920180384677 
2010	 0.530466878779952 
2011	 0.530946092287567 
2012	 0.531394761006309 
2013	 0.531760738616519 
2014	 0.532066545736996 
2015	 0.532291951095389 
2016	 0.53246364435909 
2017	 0.532524819468397 
2018	 0.532491984729111 
2019	 0.53238138678216 
2020	 0.532183270554974 
2021	 0.531885512645437 
2022	 0.531524558559505 
2023	 0.5310831407226 
2024	 0.53051446651387 
2025	 0.52989667909255 
2026	 0.529206962732328 
2027	 0.528384875647474 
2028	 0.527598347565398 
2029	 0.526755883075761 
2030	 0.525925264610652 
2031	 0.525091147752831 
2032	 0.524254662823911 
2033	 0.523343201775574 
2034	 0.522544199227958 
2035	 0.521760617054569 
2036	 0.521033503584808 
2037	 0.520438945214155 
2038	 0.519945407387078 
2039	 0.519544479390143 
2040	 0.519236504558069 
2041	 0.519037222815995 
2042	 0.518952538958266 
2043	 0.51894078883297 
2044	 0.519033834390663 
2045	 0.519197798194512 
2046	 0.519447629045091 
2047	 0.519770583463685 
2048	 0.520163065603567 
2049	 0.520660400797038 
2050	 0.521265137629432 
2051	 0.521921607803082 
2052	 0.522680833302346 
2053	 0.523515879812596 
2054	 0.524339144602136 
2055	 0.525195675170987 
2056	 0.526091095430072 
2057	 0.526991229233743 
2058	 0.527965258304709 
2059	 0.529023356664469 
2060	 0.53005996228922 
2061	 0.531175662141518 
2062	 0.532228191476543 
2063	 0.533256272738525 
2064	 0.534284725352644 
2065	 0.535292871243127 
2066	 0.53626804866168 
2067	 0.537333688691903 
2068	 0.538354900616363 
2069	 0.539364441461346 
2070	 0.540410092677245 
2071	 0.541371854038071 
2072	 0.54228045785796 
2073	 0.543167550541946 
2074	 0.544009640355982 
2075	 0.544838114337931 
2076	 0.545635415262609 
2077	 0.546405050754298 
2078	 0.547189551327797 
2079	 0.547888735660555 
2080	 0.548522910710419 
2081	 0.549133293692452 
2082	 0.549695127227985 
2083	 0.550184202205882 
2084	 0.550702924653105 
2085	 0.551177924157118 
2086	 0.551620536359851 
2087	 0.552048723507842 
2088	 0.552411970619978 
2089	 0.552714758328402 
2090	 0.553006564988453 
2091	 0.553236530909375 
2092	 0.553478408735159 
2093	 0.553718708548504 
2094	 0.553926923491221 
2095	 0.554144777662901 
2096	 0.554297247023653 
2097	 0.554416009012811 
2098	 0.554475448143026 
2099	 0.554479936034504 
2100	 0.554456534523979 
2101	 0.554417805370634 
2102	 0.554345833766378 
2103	 0.554257209972549 
2104	 0.554150104901137 
2105	 0.554016381603222 
2106	 0.553857986744093 
2107	 0.553672235316786 
2108	 0.553454601052587 
2109	 0.553229112846508 
2110	 0.552986466723496 
2111	 0.552714655517673 
2112	 0.552423785780016 
2113	 0.552112292837098 
2114	 0.551765502476439 
2115	 0.551401799213714 
2116	 0.551015528194329 
2117	 0.550629557044423 
2118	 0.550215259564407 
2119	 0.549769033653672 
2120	 0.54934235583201 
2121	 0.548912250629366 
2122	 0.548463448945464 
2123	 0.548015611639402 
2124	 0.547541460062585 
2125	 0.547047236797281 
2126	 0.546537744547943 
2127	 0.54603873916996 
2128	 0.545481190490059 
2129	 0.544883757405663 
2130	 0.54425953234677 
2131	 0.543614319278357 
2132	 0.542900696568923 
2133	 0.542157701616915 
2134	 0.541367927282459 
2135	 0.54042755313421 
2136	 0.53945402902785 
2137	 0.538441656725854 
2138	 0.53732025846133 
2139	 0.536262319638538 
2140	 0.535207466352237 
2141	 0.534134317048659 
2142	 0.53308657250513 
2143	 0.531966700623411 
2144	 0.53077663701155 
2145	 0.529634498903687 
2146	 0.528448084080302 
2147	 0.527310571320006 
2148	 0.526246445393343 
2149	 0.525132682181589 
2150	 0.52403848280033 
2151	 0.522892425111545 
2152	 0.52168957366741 
2153	 0.520506332144785 
2154	 0.519285607942528 
2155	 0.518026637919644 
2156	 0.516802481253909 
2157	 0.515575670320425 
2158	 0.51436378953563 
2159	 0.513188284108019 
2160	 0.511957090693365 
2161	 0.510682239857685 
2162	 0.509479323565905 
2163	 0.50822193516349 
2164	 0.507091790821427 
2165	 0.506057648863373 
2166	 0.505051838054491 
2167	 0.504101115222973 
2168	 0.503204566787149 
2169	 0.502341184138788 
2170	 0.501564497399228 
2171	 0.500823915643653 
2172	 0.500205413350485 
2173	 0.499715587459217 
2174	 0.499256113444349 
2175	 0.498884293678326 
2176	 0.498607232282703 
2177	 0.49838731807577 
2178	 0.498221492395609 
2179	 0.498145888527719 
2180	 0.498189182354355 
2181	 0.498212152026481 
2182	 0.498289150371453 
2183	 0.498388163989326 
2184	 0.498494856881197 
2185	 0.498662809052514 
2186	 0.498896032613777 
2187	 0.499132266937643 
2188	 0.499413166582112 
2189	 0.49970010972968 
2190	 0.500015466576485 
2191	 0.500325328112416 
2192	 0.500636803681808 
2193	 0.500966132593328 
2194	 0.501321301764572 
2195	 0.501653436993581 
2196	 0.501985363178109 
2197	 0.502334771499314 
2198	 0.502636109755662 
2199	 0.502932217711813 
2200	 0.503210932642416 
2201	 0.50348244187593 
2202	 0.503725368487958 
2203	 0.503951133307457 
2204	 0.504142544633636 
2205	 0.504301926876916 
2206	 0.504448714570716 
2207	 0.504569828742311 
2208	 0.504674184482065 
2209	 0.504745453058997 
2210	 0.50484054507294 
2211	 0.504947025076273 
2212	 0.505002109968808 
2213	 0.505071598595366 
2214	 0.505075840672024 
2215	 0.505009777301789 
2216	 0.504933423296685 
2217	 0.504854354787198 
2218	 0.50470259641212 
2219	 0.504523490925327 
2220	 0.504261986220622 
2221	 0.503926347092939 
2222	 0.503521534748771 
2223	 0.503093418912196 
2224	 0.502580137155602 
2225	 0.501998609092837 
2226	 0.501368635760718 
2227	 0.500595073415431 
2228	 0.499710088901438 
2229	 0.498733269429903 
2230	 0.497618679493647 
2231	 0.496472461414597 
2232	 0.495285088335957 
2233	 0.493922085788823 
2234	 0.492512996804298 
2235	 0.490863316437806 
2236	 0.488994295938187 
2237	 0.487038714099593 
2238	 0.484901913866649 
2239	 0.482667713715941 
2240	 0.480332880605154 
2241	 0.477837862949767 
2242	 0.475268611081336 
2243	 0.472438295611138 
2244	 0.469358933647281 
2245	 0.46620551352733 
2246	 0.462721755945788 
2247	 0.459326733457442 
2248	 0.45592341199469 
2249	 0.452446361319218 
2250	 0.448926608556055 
2251	 0.445417395176928 
2252	 0.4416608209513 
2253	 0.438053619056854 
2254	 0.434456721148897 
2255	 0.43089799753616 
2256	 0.42770071795127 
2257	 0.424486545935581 
2258	 0.421418630075536 
2259	 0.418527843722346 
2260	 0.415661913533274 
2261	 0.41282580190977 
2262	 0.410203048276723 
2263	 0.407655569165112 
2264	 0.405339610518719 
2265	 0.403282146337166 
2266	 0.401223623714663 
2267	 0.399385359826534 
2268	 0.397467302721689 
2269	 0.39554290596927 
2270	 0.393710952826719 
2271	 0.391903779240066 
2272	 0.390152916456537 
2273	 0.388523387797268 
2274	 0.386842198548865 
2275	 0.385223719528209 
2276	 0.383516763328622 
2277	 0.381772469995431 
2278	 0.380010834725123 
2279	 0.37814098205336 
2280	 0.376333701686853 
2281	 0.37456117464659 
2282	 0.372757434599475 
2283	 0.370964075984488 
2284	 0.369196242122851 
2285	 0.367270651001853 
2286	 0.365372207416161 
2287	 0.363399405525452 
2288	 0.361369824875911 
2289	 0.359494170803133 
2290	 0.35752493275407 
2291	 0.355562625378854 
2292	 0.353635928206953 
2293	 0.351519050923814 
2294	 0.349440244086468 
2295	 0.347407241170451 
2296	 0.345442183593632 
2297	 0.343720002834418 
2298	 0.342173879681778 
2299	 0.340771633464971 
2300	 0.339494145473498 
2301	 0.338540523451597 
2302	 0.337762841614532 
2303	 0.337358118163298 
2304	 0.337300050583386 
2305	 0.337505119457818 
2306	 0.338016630648248 
2307	 0.338809641073709 
2308	 0.339913734473695 
2309	 0.341319806867317 
2310	 0.343148943669562 
2311	 0.345012818172362 
2312	 0.347293613888167 
2313	 0.349384808971358 
2314	 0.35156801183415 
2315	 0.35363100664644 
2316	 0.355683963367719 
2317	 0.35755381487283 
2318	 0.359424033464657 
2319	 0.360923589902663 
2320	 0.362215464843283 
2321	 0.363248576206408 
2322	 0.36392470985386 
2323	 0.364456619465726 
2324	 0.364740324964251 
2325	 0.364864431822668 
2326	 0.364780973374235 
2327	 0.364531584052306 
2328	 0.364063993426153 
2329	 0.363471530943815 
2330	 0.362715572091371 
2331	 0.361771156861158 
2332	 0.360674239481699 
2333	 0.35941926142153 
2334	 0.357955693781757 
2335	 0.356409247880321 
2336	 0.354750780326526 
2337	 0.353001937707143 
2338	 0.351337007619705 
2339	 0.349579008895465 
2340	 0.347907727367447 
2341	 0.346465995540282 
2342	 0.345062422679762 
2343	 0.343916546379604 
2344	 0.343044116032762 
2345	 0.342400707654595 
2346	 0.342119369218467 
2347	 0.342180411574859 
2348	 0.34250098265081 
2349	 0.343211484212482 
2350	 0.344208456135301 
2351	 0.345400640370796 
2352	 0.346780204604534 
2353	 0.348291064478664 
2354	 0.349705588934522 
2355	 0.350999308437128 
2356	 0.352229879027595 
2357	 0.35323209314207 
2358	 0.35414142003989 
2359	 0.354892449447778 
2360	 0.355451965171356 
2361	 0.355877248900334 
2362	 0.356178019414892 
2363	 0.356430879250668 
2364	 0.356617197654528 
2365	 0.356731270811808 
2366	 0.35685394593798 
2367	 0.356984735347056 
2368	 0.357109266420012 
2369	 0.357278898824071 
2370	 0.357382764275802 
2371	 0.357452908469537 
2372	 0.357588808349618 
2373	 0.357695307319586 
2374	 0.357817149241825 
2375	 0.357954073515752 
2376	 0.358032520937051 
2377	 0.358088446038696 
2378	 0.358207481600775 
2379	 0.358352322483372 
2380	 0.358451730719742 
2381	 0.358575931992284 
2382	 0.358671470983954 
2383	 0.358687965939465 
2384	 0.358781877324611 
2385	 0.358924547443222 
2386	 0.359047235341507 
2387	 0.359188287507303 
2388	 0.359297419191502 
2389	 0.359408893118714 
2390	 0.359471970533423 
2391	 0.359491884433247 
2392	 0.359550872705604 
2393	 0.359575359803368 
2394	 0.359616533051832 
2395	 0.359771691207487 
2396	 0.359703653693793 
2397	 0.359481852400125 
2398	 0.359352239960578 
2399	 0.359137016179553 
2400	 0.358956701114529 
2401	 0.358897916823343 
2402	 0.358637395138263 
2403	 0.358284142029483 
2404	 0.357887863714671 
2405	 0.35755862080347 
2406	 0.357171154532366 
2407	 0.356657132018319 
2408	 0.356274764073695 
2409	 0.355938511257372 
2410	 0.355642369356517 
2411	 0.355570998940968 
2412	 0.355534683047346 
2413	 0.355471277267337 
2414	 0.355572371880245 
2415	 0.355746214664146 
2416	 0.355949148445712 
2417	 0.356354133803749 
2418	 0.356803596659979 
2419	 0.357296925333076 
2420	 0.357833633538498 
2421	 0.358316047037258 
2422	 0.358787444997418 
2423	 0.359106340094958 
2424	 0.359333165157514 
2425	 0.359520531704536 
2426	 0.359670342083338 
2427	 0.359868179923829 
2428	 0.359971191778305 
2429	 0.359985916029679 
2430	 0.360022186973847 
2431	 0.35988710244863 
2432	 0.359544810343627 
2433	 0.359260885370582 
2434	 0.358904803355051 
2435	 0.358374977533081 
2436	 0.358003840414524 
2437	 0.357568518283507 
2438	 0.356820542859395 
2439	 0.356041731993515 
2440	 0.355331590281117 
2441	 0.354652396497876 
2442	 0.353915184094373 
2443	 0.353171908719547 
2444	 0.352420849518593 
2445	 0.351412189065143 
2446	 0.350445650677398 
2447	 0.349797991898803 
2448	 0.349121531721437 
2449	 0.348299561940442 
2450	 0.347414342459435 
2451	 0.346350432394569 
2452	 0.345137224097923 
2453	 0.344072505034758 
2454	 0.3431460570276 
2455	 0.342214951920943 
2456	 0.34130847563738 
2457	 0.340335218074231 
2458	 0.339488483793443 
2459	 0.338757787110079 
2460	 0.337958098752939 
2461	 0.337287088832376 
2462	 0.336668281449448 
2463	 0.336105990598513 
2464	 0.33568599022109 
2465	 0.335145162541137 
2466	 0.334618000863469 
2467	 0.334061882777891 
2468	 0.333341682482701 
2469	 0.333131468508732 
2470	 0.333109160561877 
2471	 0.332867381807898 
2472	 0.332581328422558 
2473	 0.332192943935448 
2474	 0.331769629536101 
2475	 0.331314485356171 
2476	 0.33123835332437 
2477	 0.331169959755951 
2478	 0.330871173210514 
2479	 0.330712065698067 
2480	 0.33034459943706 
2481	 0.330081095405416 
2482	 0.329916544156369 
2483	 0.329718002295008 
2484	 0.329527484720795 
2485	 0.329283085455609 
2486	 0.3288106105072 
2487	 0.328270425991371 
2488	 0.328130623514565 
2489	 0.328199670519284 
2490	 0.328280971176897 
2491	 0.328745183215722 
2492	 0.329029035521653 
2493	 0.328785712114308 
2494	 0.3284879880579 
2495	 0.328312640964152 
2496	 0.328134424917742 
2497	 0.328313751837225 
2498	 0.328585742343991 
2499	 0.328220927398032 
2500	 0.327986733241994 
