Wavelength	spectrum00011.asd
350	 3.99647998807901E-02 
351	 0.039150552822172 
352	 3.79405482437977E-02 
353	 0.037473872049748 
354	 3.89337016387459E-02 
355	 3.84230881492175E-02 
356	 3.75569936196787E-02 
357	 3.78105995049768E-02 
358	 3.61864285719391E-02 
359	 3.55958570737656E-02 
360	 3.63783218608132E-02 
361	 3.73559001208582E-02 
362	 3.73958941641044E-02 
363	 3.67566383517256E-02 
364	 3.58472206507278E-02 
365	 3.50099935347205E-02 
366	 3.56031422785037E-02 
367	 3.60038698293305E-02 
368	 3.52043394447874E-02 
369	 3.67848508979162E-02 
370	 3.71848442238443E-02 
371	 3.64819876158094E-02 
372	 0.036700559342801 
373	 3.67562865040742E-02 
374	 3.70088693406607E-02 
375	 3.75895199971165E-02 
376	 3.81354897297184E-02 
377	 3.79379939877746E-02 
378	 3.74218533049673E-02 
379	 3.71911497054858E-02 
380	 3.72377086438334E-02 
381	 3.76700220388925E-02 
382	 3.79408480645286E-02 
383	 3.73878756531866E-02 
384	 3.81884131466409E-02 
385	 3.86851668275135E-02 
386	 3.82558156928224E-02 
387	 3.84769133226049E-02 
388	 0.038839227877991 
389	 3.90033205389633E-02 
390	 3.88551423128133E-02 
391	 3.90124052787158E-02 
392	 0.038840975497308 
393	 3.86256259417706E-02 
394	 3.91311780542008E-02 
395	 0.039318477048205 
396	 3.92981359994222E-02 
397	 3.92450712164182E-02 
398	 3.91627905340363E-02 
399	 3.92024800868435E-02 
400	 3.93680967706017E-02 
401	 3.95674327361396E-02 
402	 3.95157637606047E-02 
403	 0.039708899898874 
404	 0.039976205026983 
405	 3.97227841098648E-02 
406	 3.99021744633632E-02 
407	 4.00062225056332E-02 
408	 3.99011549465952E-02 
409	 4.06814456671686E-02 
410	 4.09118780712694E-02 
411	 4.05876867674054E-02 
412	 4.02583039789184E-02 
413	 4.06287390234881E-02 
414	 4.06649727457377E-02 
415	 4.04111805829136E-02 
416	 4.08860591672743E-02 
417	 4.10898293353187E-02 
418	 4.11422513957187E-02 
419	 4.12132498157162E-02 
420	 4.10634461061688E-02 
421	 4.11307140137955E-02 
422	 4.15045899493881E-02 
423	 4.19908178710335E-02 
424	 4.16487865338601E-02 
425	 0.041545431949456 
426	 4.19434591862938E-02 
427	 4.20254229297655E-02 
428	 4.21560087335176E-02 
429	 4.22910400585675E-02 
430	 4.23456306130634E-02 
431	 4.23083946746355E-02 
432	 4.27138163149987E-02 
433	 0.043189347398879 
434	 4.30051638877066E-02 
435	 0.043234766567426 
436	 4.35370406654612E-02 
437	 4.36944497452813E-02 
438	 4.39415550033879E-02 
439	 4.40825395957094E-02 
440	 4.41716583053809E-02 
441	 4.43050283330617E-02 
442	 4.44226244165978E-02 
443	 4.46027356030127E-02 
444	 4.48219496531433E-02 
445	 4.49819931259008E-02 
446	 4.51868570118694E-02 
447	 4.53414953925492E-02 
448	 4.54133617078185E-02 
449	 4.55582664681893E-02 
450	 4.58676213791888E-02 
451	 4.61554268441607E-02 
452	 4.62020807985986E-02 
453	 4.63246630666686E-02 
454	 4.65399334999166E-02 
455	 4.67510815408309E-02 
456	 4.67710860780064E-02 
457	 4.69652619388386E-02 
458	 4.70946062490981E-02 
459	 4.70307489935089E-02 
460	 4.74157263197832E-02 
461	 0.04763108936349 
462	 4.76583053360646E-02 
463	 4.78001012842925E-02 
464	 4.79511439912817E-02 
465	 0.048045375591266 
466	 4.80997406622721E-02 
467	 4.82571131626128E-02 
468	 4.83596804958859E-02 
469	 0.048407688933256 
470	 4.84730806245626E-02 
471	 0.048721777817874 
472	 4.89039384457297E-02 
473	 4.89932154088621E-02 
474	 4.91421043889627E-02 
475	 4.91942479469227E-02 
476	 4.92553447726936E-02 
477	 4.93945262738102E-02 
478	 4.95238425735578E-02 
479	 4.95287469928509E-02 
480	 4.95571789777413E-02 
481	 0.049800420436662 
482	 5.00005334709151E-02 
483	 5.01312268723926E-02 
484	 0.050212714287617 
485	 5.02974926186492E-02 
486	 5.05328314860681E-02 
487	 5.07706391249697E-02 
488	 5.08839344363731E-02 
489	 5.10276080635653E-02 
490	 5.12439323621661E-02 
491	 5.14746792112966E-02 
492	 5.16158930222178E-02 
493	 5.17574202483843E-02 
494	 0.051927541956218 
495	 5.21252735567632E-02 
496	 5.23160026619596E-02 
497	 5.24929761055041E-02 
498	 5.26984656162413E-02 
499	 5.29679889351253E-02 
500	 5.32402582510516E-02 
501	 0.053484529167262 
502	 5.36876010450692E-02 
503	 5.38581378799054E-02 
504	 5.41499530132294E-02 
505	 5.44237858249192E-02 
506	 5.46018410926772E-02 
507	 5.48959802720039E-02 
508	 5.51086906205149E-02 
509	 5.53378480075141E-02 
510	 5.57486058560927E-02 
511	 0.055998769567654 
512	 5.62272752287268E-02 
513	 5.65282820138696E-02 
514	 5.68856256349341E-02 
515	 0.057083134798912 
516	 5.72609576094116E-02 
517	 5.75695573423134E-02 
518	 5.78480854101518E-02 
519	 5.80962130467314E-02 
520	 5.83404078481273E-02 
521	 0.058617939570416 
522	 5.88667607030555E-02 
523	 5.91019976490625E-02 
524	 0.059335749501477 
525	 5.95458047860388E-02 
526	 5.97992836449575E-02 
527	 0.060068877931447 
528	 6.03063998187833E-02 
529	 6.05686129603479E-02 
530	 6.07624118923783E-02 
531	 6.09276630999642E-02 
532	 6.12449066958314E-02 
533	 6.14870522785209E-02 
534	 6.16895537085505E-02 
535	 6.19080044413545E-02 
536	 0.062073492816051 
537	 6.22832169278759E-02 
538	 6.25185646583497E-02 
539	 0.062704149068882 
540	 6.28905415357758E-02 
541	 6.31080280205723E-02 
542	 6.33392191200413E-02 
543	 6.34921021000432E-02 
544	 6.36612937637733E-02 
545	 6.38329362365059E-02 
546	 0.06397461553491 
547	 6.41285623682438E-02 
548	 6.42843985120744E-02 
549	 6.44288136516168E-02 
550	 6.45498681033746E-02 
551	 6.46790873081398E-02 
552	 6.48342967816994E-02 
553	 6.50096242990059E-02 
554	 6.51473119514397E-02 
555	 6.52904726038486E-02 
556	 6.54362829638741E-02 
557	 6.55643667910463E-02 
558	 6.56923748022088E-02 
559	 6.58381566876159E-02 
560	 6.60004298207733E-02 
561	 0.066154017972882 
562	 6.62247275519972E-02 
563	 0.06630778766988 
564	 6.64822653693083E-02 
565	 6.65783806452383E-02 
566	 0.066651743760414 
567	 6.67224366782478E-02 
568	 6.67809889271069E-02 
569	 6.68260818198501E-02 
570	 6.68904854441835E-02 
571	 6.69731313790751E-02 
572	 6.69810004327771E-02 
573	 6.70620158699374E-02 
574	 6.71661110638198E-02 
575	 6.71948284826865E-02 
576	 0.067262982464876 
577	 6.73287431017786E-02 
578	 0.067376711196737 
579	 6.74325232131533E-02 
580	 6.74787948865095E-02 
581	 6.75121044716864E-02 
582	 0.067544368303933 
583	 6.76282654553234E-02 
584	 6.76858083310165E-02 
585	 6.77345222796713E-02 
586	 6.78369703830704E-02 
587	 6.79007991950551E-02 
588	 6.79487581602881E-02 
589	 6.79950814134255E-02 
590	 6.80156011824387E-02 
591	 6.80424113896485E-02 
592	 6.80814508976367E-02 
593	 6.81234622862278E-02 
594	 6.81314205073755E-02 
595	 6.81548239003921E-02 
596	 6.81956376115549E-02 
597	 0.06821434000238 
598	 6.82503752013511E-02 
599	 6.83098211918509E-02 
600	 6.83746686497671E-02 
601	 6.83785794300283E-02 
602	 6.84093727824854E-02 
603	 6.84640462142249E-02 
604	 6.85033163204919E-02 
605	 6.85400246718539E-02 
606	 6.85727581186149E-02 
607	 6.86095029912343E-02 
608	 0.068670446036221 
609	 6.86755293834935E-02 
610	 6.86884328797002E-02 
611	 6.87655275670481E-02 
612	 6.88203408697832E-02 
613	 6.88198506023297E-02 
614	 6.88080825023677E-02 
615	 0.068865381419999 
616	 0.068877164731091 
617	 6.89091965856582E-02 
618	 6.89789430049713E-02 
619	 6.89739197955758E-02 
620	 6.89900594884365E-02 
621	 6.90283907534849E-02 
622	 6.90607790941856E-02 
623	 6.90781341388392E-02 
624	 6.91069859382831E-02 
625	 6.91436321474196E-02 
626	 6.91573026754634E-02 
627	 6.91843911754218E-02 
628	 6.92307874411478E-02 
629	 6.92817167575623E-02 
630	 6.92855265579552E-02 
631	 6.92798208622928E-02 
632	 6.92964152925125E-02 
633	 6.93522274758398E-02 
634	 6.93823756514823E-02 
635	 6.94041273288103E-02 
636	 6.94328165167372E-02 
637	 6.94717651409451E-02 
638	 6.94875979876777E-02 
639	 6.94979663283269E-02 
640	 6.95219754283991E-02 
641	 6.95386611265956E-02 
642	 6.95530052599474E-02 
643	 6.95756028500146E-02 
644	 6.96158729479372E-02 
645	 6.96381756757382E-02 
646	 6.96587936025875E-02 
647	 6.96857718741664E-02 
648	 6.97018662767573E-02 
649	 6.97388525238205E-02 
650	 6.97696690963356E-02 
651	 6.97681051555887E-02 
652	 6.97932969117197E-02 
653	 6.98074812479755E-02 
654	 6.98139405407521E-02 
655	 6.98475252256804E-02 
656	 6.98689914881357E-02 
657	 6.98799165840969E-02 
658	 6.98896220786144E-02 
659	 6.99067565088285E-02 
660	 6.99524501710355E-02 
661	 0.07000497593215 
662	 7.00331225467234E-02 
663	 7.00571851348717E-02 
664	 7.00660082153576E-02 
665	 7.00735518764796E-02 
666	 7.01173208739796E-02 
667	 7.01461191736265E-02 
668	 7.01785842904505E-02 
669	 7.02217488122086E-02 
670	 7.02123121489404E-02 
671	 7.02195044345254E-02 
672	 7.02437680804873E-02 
673	 7.02623986325259E-02 
674	 7.03329827415736E-02 
675	 7.03792929559486E-02 
676	 7.03865962922456E-02 
677	 7.04258801284497E-02 
678	 7.04543791848165E-02 
679	 7.04738493712687E-02 
680	 7.04980699274368E-02 
681	 7.05470997075639E-02 
682	 7.05986057252629E-02 
683	 7.06386790907995E-02 
684	 7.06619847165246E-02 
685	 7.06824062613712E-02 
686	 7.07335455476789E-02 
687	 7.08093884635925E-02 
688	 7.08480194548543E-02 
689	 7.08711374508438E-02 
690	 7.08992015317619E-02 
691	 7.09523413409443E-02 
692	 0.071053695911139 
693	 7.11226572557049E-02 
694	 7.11516064955499E-02 
695	 7.11833368310763E-02 
696	 7.12439127916033E-02 
697	 0.071304817881062 
698	 7.13528288923929E-02 
699	 7.14097510136674E-02 
700	 7.14809595451305E-02 
701	 7.15675564414539E-02 
702	 7.16624393650885E-02 
703	 7.17398865575698E-02 
704	 0.071798187585898 
705	 7.18569984910404E-02 
706	 7.19465358849658E-02 
707	 7.20478580339753E-02 
708	 7.21462050883066E-02 
709	 7.22343286742783E-02 
710	 7.23150150776207E-02 
711	 7.24184678212765E-02 
712	 7.25248189544693E-02 
713	 7.26142511156512E-02 
714	 7.27348940972267E-02 
715	 7.28466152168133E-02 
716	 7.29391707883114E-02 
717	 7.30308096795317E-02 
718	 7.31869336356427E-02 
719	 7.33353266673114E-02 
720	 7.34387826802569E-02 
721	 7.35502316119853E-02 
722	 7.36809393767545E-02 
723	 7.38195131731903E-02 
724	 7.39511242375532E-02 
725	 7.40834287775031E-02 
726	 7.42381163363005E-02 
727	 7.44081223151673E-02 
728	 7.45674830109288E-02 
729	 7.47269682775633E-02 
730	 7.48732355141594E-02 
731	 7.50131860088977E-02 
732	 7.51906697142362E-02 
733	 0.075381166334274 
734	 0.075569058560392 
735	 7.57491151846427E-02 
736	 7.59457603690558E-02 
737	 7.61404727118114E-02 
738	 7.63222519453106E-02 
739	 7.64933107515074E-02 
740	 7.67243306293398E-02 
741	 7.69358941612979E-02 
742	 7.71188538705703E-02 
743	 7.73966988794056E-02 
744	 7.76204225468729E-02 
745	 7.78216493800664E-02 
746	 7.80570957342526E-02 
747	 7.82938485839327E-02 
748	 7.85233638108194E-02 
749	 7.87600265795054E-02 
750	 7.90256663967153E-02 
751	 7.92879689154125E-02 
752	 7.95453881599972E-02 
753	 7.97959066089804E-02 
754	 8.00330039424648E-02 
755	 8.03002946206188E-02 
756	 8.05899334930385E-02 
757	 0.080880738359956 
758	 0.081153039615535 
759	 8.14077744854575E-02 
760	 8.16737278831597E-02 
761	 8.19817091142106E-02 
762	 8.22880325451756E-02 
763	 8.25820799503368E-02 
764	 8.28686224624702E-02 
765	 8.31658823055128E-02 
766	 0.083456370133138 
767	 8.37433440965057E-02 
768	 8.40443881994061E-02 
769	 8.44074338408849E-02 
770	 8.47302340561929E-02 
771	 8.50182672319802E-02 
772	 8.53151956150692E-02 
773	 0.08562745377031 
774	 8.59517789962497E-02 
775	 8.62746702570975E-02 
776	 8.65788237531496E-02 
777	 8.68884994159888E-02 
778	 8.71992666271625E-02 
779	 8.75120712023384E-02 
780	 8.78441045850296E-02 
781	 8.81527962407824E-02 
782	 8.84424980255743E-02 
783	 8.87367579239014E-02 
784	 8.90727671798229E-02 
785	 8.94006458588659E-02 
786	 0.089705119423061 
787	 8.99949273624807E-02 
788	 9.02831623181388E-02 
789	 9.05822726533164E-02 
790	 9.08758299647528E-02 
791	 9.11189026099165E-02 
792	 0.091392349808383 
793	 0.091682753673756 
794	 9.19632304318949E-02 
795	 0.092224133077954 
796	 9.24900025693219E-02 
797	 9.27539466884919E-02 
798	 9.30002581966639E-02 
799	 9.32335739133087E-02 
800	 9.34580324667697E-02 
801	 9.36862584654726E-02 
802	 9.39324433995612E-02 
803	 9.41671706173273E-02 
804	 0.094364945708531 
805	 9.45414752731989E-02 
806	 9.47693204504446E-02 
807	 9.49576416248376E-02 
808	 9.51451425918325E-02 
809	 9.53658097998148E-02 
810	 9.55396327093395E-02 
811	 9.57237886748053E-02 
812	 9.58913511404943E-02 
813	 9.60040944587647E-02 
814	 9.61798857774171E-02 
815	 9.63586927003024E-02 
816	 9.65011555366028E-02 
817	 0.09660370185721 
818	 9.67319886212206E-02 
819	 9.68606277457557E-02 
820	 9.69789681788415E-02 
821	 9.71249572887115E-02 
822	 9.72247983118559E-02 
823	 9.73092659630094E-02 
824	 9.74155041576963E-02 
825	 9.75078766072225E-02 
826	 9.75915248129956E-02 
827	 9.76570378061466E-02 
828	 9.77044885840123E-02 
829	 9.78185265667222E-02 
830	 9.79340467134067E-02 
831	 9.80010748936483E-02 
832	 9.80062105618431E-02 
833	 9.80758446282563E-02 
834	 9.81458345731688E-02 
835	 9.81795027344108E-02 
836	 9.82275361672541E-02 
837	 9.82641726331802E-02 
838	 9.82788904230043E-02 
839	 9.82827674514173E-02 
840	 9.83367544358435E-02 
841	 9.83897489640333E-02 
842	 9.84273399724882E-02 
843	 9.84522085896235E-02 
844	 9.84693813247736E-02 
845	 9.84903212024559E-02 
846	 9.85098041354165E-02 
847	 9.85121080971283E-02 
848	 9.85048004141746E-02 
849	 9.85006864586835E-02 
850	 9.85054675652818E-02 
851	 9.85147272987696E-02 
852	 9.85253541584681E-02 
853	 9.85168860033273E-02 
854	 9.84949040297575E-02 
855	 9.85287322699761E-02 
856	 9.85077744572681E-02 
857	 9.84827597522277E-02 
858	 9.85169585386177E-02 
859	 9.85258897812625E-02 
860	 9.85096681649141E-02 
861	 9.84985637975972E-02 
862	 9.85276803507189E-02 
863	 9.85613422323571E-02 
864	 9.85777706326919E-02 
865	 9.85731416455318E-02 
866	 9.85610135364672E-02 
867	 9.85647887485537E-02 
868	 9.85691168703568E-02 
869	 9.85648305172022E-02 
870	 9.85599633494615E-02 
871	 9.85826854131623E-02 
872	 9.86057912567653E-02 
873	 9.86133547800403E-02 
874	 0.09864273873775 
875	 0.09866851838385 
876	 9.86958673367964E-02 
877	 9.87336293559349E-02 
878	 9.87711360857526E-02 
879	 9.87922223025843E-02 
880	 9.88103859052847E-02 
881	 9.88501297383106E-02 
882	 9.89107716918027E-02 
883	 0.098947790146167 
884	 9.89688993035539E-02 
885	 9.90190919763276E-02 
886	 9.90831062770108E-02 
887	 9.91198592071675E-02 
888	 9.91481039674143E-02 
889	 9.92473171534836E-02 
890	 9.92905627987926E-02 
891	 9.93467155867696E-02 
892	 9.94496069842673E-02 
893	 9.95145963275239E-02 
894	 9.95995420589231E-02 
895	 9.96585017973622E-02 
896	 9.96799268846831E-02 
897	 9.98070959133732E-02 
898	 9.99233133896067E-02 
899	 9.99907654749867E-02 
900	 0.100024642456365 
901	 0.100122364863901 
902	 0.100218700809933 
903	 0.100309020325312 
904	 0.100413968205403 
905	 0.100507013440745 
906	 0.100610393806228 
907	 0.100727043632534 
908	 0.100843895547831 
909	 0.100956085507935 
910	 0.101073763758162 
911	 0.101197699339001 
912	 0.101320538895218 
913	 0.101478105952278 
914	 0.101626480830932 
915	 0.101755323859612 
916	 0.101913778320177 
917	 0.102061788845999 
918	 0.102197175272541 
919	 0.10233736376029 
920	 0.102519931282171 
921	 0.102660480740344 
922	 0.102799747565336 
923	 0.102983477795981 
924	 0.103184951397283 
925	 0.103363108375547 
926	 0.103541357799712 
927	 0.103746050673645 
928	 0.103933487527584 
929	 0.104118215749055 
930	 0.104299313056956 
931	 0.104471347246474 
932	 0.104630064287462 
933	 0.104842297882609 
934	 0.105106249067533 
935	 0.10536806753364 
936	 0.10553102452162 
937	 0.105768217088981 
938	 0.106043938897775 
939	 0.106204432688988 
940	 0.106416672370893 
941	 0.106641969098085 
942	 0.106852042596995 
943	 0.107054722788303 
944	 0.107356140004834 
945	 0.107614446308218 
946	 0.107811967152539 
947	 0.108071684554051 
948	 0.108211608246832 
949	 0.108375802181276 
950	 0.1086063810762 
951	 0.108770054209094 
952	 0.10899074300551 
953	 0.109244686960514 
954	 0.109476228993032 
955	 0.109632825221253 
956	 0.109856839318963 
957	 0.110077898291454 
958	 0.110265258302605 
959	 0.110529704322432 
960	 0.110741043875419 
961	 0.110912786500628 
962	 0.111097256114964 
963	 0.111348856287084 
964	 0.111485081476062 
965	 0.111625578236338 
966	 0.111872370004532 
967	 0.112104117746055 
968	 0.112283594876704 
969	 0.112442443464349 
970	 0.112631758983961 
971	 0.112886791369274 
972	 0.113130595898932 
973	 0.113295792472279 
974	 0.113390434665408 
975	 0.113605456994114 
976	 0.113792045932562 
977	 0.113982733317962 
978	 0.114223968680081 
979	 0.114427513559739 
980	 0.114610041443504 
981	 0.114762265361385 
982	 0.114886926827529 
983	 0.11503718373163 
984	 0.115230734926643 
985	 0.11546692672654 
986	 0.115718643483514 
987	 0.11591403275119 
988	 0.116070896510913 
989	 0.116209600521912 
990	 0.116341157718462 
991	 0.116421069767328 
992	 0.116673438858981 
993	 0.116931544406194 
994	 0.117016673586701 
995	 0.117216630846249 
996	 0.117517605573742 
997	 0.117695201462107 
998	 0.117647019650483 
999	 0.117922475722288 
1000	 0.118116547186163 
1001	 0.119267633327053 
1002	 0.119417449305402 
1003	 0.119553990450366 
1004	 0.119697747388249 
1005	 0.119852401808237 
1006	 0.119995266245128 
1007	 0.120124609628263 
1008	 0.120269164063897 
1009	 0.120414073457767 
1010	 0.120557494009327 
1011	 0.120723657319238 
1012	 0.120867492820379 
1013	 0.120978114005587 
1014	 0.121114096062034 
1015	 0.121264750115332 
1016	 0.121400473890063 
1017	 0.121513911620795 
1018	 0.12167515098788 
1019	 0.121819480916264 
1020	 0.121920593014481 
1021	 0.122033194633939 
1022	 0.122142242732657 
1023	 0.122263301910679 
1024	 0.122380038331195 
1025	 0.122500889444056 
1026	 0.122638212722179 
1027	 0.122765326673818 
1028	 0.122882009847959 
1029	 0.123014817695811 
1030	 0.123128108399626 
1031	 0.123233819921888 
1032	 0.123331560912449 
1033	 0.123399763357206 
1034	 0.123481213771333 
1035	 0.123587492654629 
1036	 0.123700814705954 
1037	 0.123838120545645 
1038	 0.123947416944906 
1039	 0.124054285790593 
1040	 0.12416215662558 
1041	 0.124245048206806 
1042	 0.124361200492184 
1043	 0.124512522209916 
1044	 0.124632104323615 
1045	 0.124736143954814 
1046	 0.124838736324879 
1047	 0.124928089479288 
1048	 0.125040895108696 
1049	 0.125148469405549 
1050	 0.125243695501052 
1051	 0.125374242285647 
1052	 0.12551086360222 
1053	 0.125652768966727 
1054	 0.12585040441129 
1055	 0.125996297831846 
1056	 0.126091164334999 
1057	 0.126221211278445 
1058	 0.126353971302027 
1059	 0.126486316578728 
1060	 0.126630863451608 
1061	 0.126783901624092 
1062	 0.126925470318946 
1063	 0.127078995841745 
1064	 0.127238582576307 
1065	 0.12740577904428 
1066	 0.127594332671578 
1067	 0.127766549829303 
1068	 0.127931633391826 
1069	 0.128105720267404 
1070	 0.128280003600319 
1071	 0.128443551587276 
1072	 0.128623615185189 
1073	 0.128802401278534 
1074	 0.128955688815681 
1075	 0.129102769786526 
1076	 0.129255803776293 
1077	 0.129426981475792 
1078	 0.129609563034594 
1079	 0.1298004710995 
1080	 0.129972641778721 
1081	 0.130128025942111 
1082	 0.130322494907213 
1083	 0.13052437328012 
1084	 0.130722360068882 
1085	 0.130931933720852 
1086	 0.131116070851321 
1087	 0.13127715899434 
1088	 0.131439840151002 
1089	 0.131614875158674 
1090	 0.131773750833485 
1091	 0.131958500975917 
1092	 0.132150534354432 
1093	 0.132323173652639 
1094	 0.132507098244421 
1095	 0.132700732035204 
1096	 0.132900537038318 
1097	 0.133098609366666 
1098	 0.13327948361433 
1099	 0.133460884325221 
1100	 0.133639525865488 
1101	 0.133822351390815 
1102	 0.134040649081399 
1103	 0.134242651645702 
1104	 0.134444392228717 
1105	 0.134635245209496 
1106	 0.134849752304864 
1107	 0.13504886836922 
1108	 0.135254581226663 
1109	 0.135466332890892 
1110	 0.135655001016893 
1111	 0.135846793288008 
1112	 0.136040981234123 
1113	 0.136249911075025 
1114	 0.1364602519419 
1115	 0.136653903798792 
1116	 0.136865400089512 
1117	 0.137063418479575 
1118	 0.137265262073869 
1119	 0.137479774126959 
1120	 0.13767969403012 
1121	 0.137861773433003 
1122	 0.138067357997609 
1123	 0.138286805841415 
1124	 0.138498623467331 
1125	 0.138728692869216 
1126	 0.1389418079714 
1127	 0.139131940818207 
1128	 0.139333545268162 
1129	 0.139536868876599 
1130	 0.139746382407021 
1131	 0.139963148042037 
1132	 0.140150678189794 
1133	 0.140344915280335 
1134	 0.140551619662523 
1135	 0.140744816978078 
1136	 0.140936847907124 
1137	 0.141124458004207 
1138	 0.141307128419278 
1139	 0.141481269956663 
1140	 0.141646203706436 
1141	 0.141809348073082 
1142	 0.141989299012087 
1143	 0.142151427314911 
1144	 0.142330508512928 
1145	 0.142525071088642 
1146	 0.142679555790902 
1147	 0.142840562111053 
1148	 0.143004400216188 
1149	 0.143146995936249 
1150	 0.143313889505437 
1151	 0.143488741727744 
1152	 0.143659389771288 
1153	 0.143833830155747 
1154	 0.144003022999863 
1155	 0.144161836046492 
1156	 0.144339058289698 
1157	 0.14453633388233 
1158	 0.144704885891564 
1159	 0.144868926975153 
1160	 0.145030006521543 
1161	 0.145180931181222 
1162	 0.145347944294953 
1163	 0.145530897853238 
1164	 0.145711803778896 
1165	 0.145890816338855 
1166	 0.146065396384843 
1167	 0.146265624517738 
1168	 0.146478192676279 
1169	 0.146676209800819 
1170	 0.146874946868967 
1171	 0.14706834244431 
1172	 0.147242028897881 
1173	 0.147440345562188 
1174	 0.14765647548444 
1175	 0.147857817011621 
1176	 0.148055542287472 
1177	 0.148259343866348 
1178	 0.14845823232132 
1179	 0.148669241099904 
1180	 0.148859790920154 
1181	 0.149067138398049 
1182	 0.14926413441021 
1183	 0.149434987101179 
1184	 0.149617866398339 
1185	 0.149807659025274 
1186	 0.150006888519079 
1187	 0.150198461533471 
1188	 0.15041782573239 
1189	 0.150656656530494 
1190	 0.15090920342591 
1191	 0.151186443694717 
1192	 0.151454205963181 
1193	 0.151723024855943 
1194	 0.152005599676873 
1195	 0.152291251362005 
1196	 0.152588060692803 
1197	 0.152893068255845 
1198	 0.153223507959011 
1199	 0.15356159933933 
1200	 0.153889409125518 
1201	 0.154236042355003 
1202	 0.154584996496487 
1203	 0.154938965893494 
1204	 0.155319560084077 
1205	 0.155714549165293 
1206	 0.156124612967707 
1207	 0.156564862151493 
1208	 0.157017582749384 
1209	 0.157502256947355 
1210	 0.158006162561676 
1211	 0.158558225488809 
1212	 0.159149476586402 
1213	 0.159774772743959 
1214	 0.160447543838502 
1215	 0.161141477365873 
1216	 0.161859825308243 
1217	 0.162602460834949 
1218	 0.163378736223616 
1219	 0.16417857078309 
1220	 0.164985439682216 
1221	 0.165858546623777 
1222	 0.166712760122645 
1223	 0.167569666922357 
1224	 0.168419820849772 
1225	 0.16926836977135 
1226	 0.170097278188396 
1227	 0.170921075083703 
1228	 0.171735893945425 
1229	 0.172547168252992 
1230	 0.173336475087456 
1231	 0.174107965861251 
1232	 0.174878339043225 
1233	 0.175633585819855 
1234	 0.176369420569972 
1235	 0.177097210417983 
1236	 0.177819922433175 
1237	 0.178526054286172 
1238	 0.179222260141027 
1239	 0.179900262522505 
1240	 0.180592463865478 
1241	 0.181307133592369 
1242	 0.181964493314034 
1243	 0.182630949688376 
1244	 0.183308722514738 
1245	 0.183962618732458 
1246	 0.184585498126278 
1247	 0.185223614516017 
1248	 0.185871017693846 
1249	 0.186500535897111 
1250	 0.187118267725243 
1251	 0.18773035026771 
1252	 0.188322164344672 
1253	 0.188936831790282 
1254	 0.189575597118238 
1255	 0.190182657539874 
1256	 0.190780146114111 
1257	 0.191387528137394 
1258	 0.191973802466338 
1259	 0.192564906085521 
1260	 0.193187673528477 
1261	 0.193785939635171 
1262	 0.194335271453599 
1263	 0.194935338556725 
1264	 0.19552197006008 
1265	 0.196103199715034 
1266	 0.196698393490819 
1267	 0.197313081642859 
1268	 0.197903433865632 
1269	 0.198482829267573 
1270	 0.199074974888243 
1271	 0.199656677696518 
1272	 0.200256107115203 
1273	 0.200872276229263 
1274	 0.201485465061586 
1275	 0.20209500655232 
1276	 0.202715808077693 
1277	 0.203345710328487 
1278	 0.203974331163679 
1279	 0.204604547027768 
1280	 0.205243064262595 
1281	 0.205874718526527 
1282	 0.206524279510939 
1283	 0.207198694639807 
1284	 0.2078592179939 
1285	 0.208518329444664 
1286	 0.209180400706635 
1287	 0.20984044025213 
1288	 0.210498595543509 
1289	 0.21114006963525 
1290	 0.211770094759746 
1291	 0.212416743431694 
1292	 0.213048933568652 
1293	 0.21369624840895 
1294	 0.214366828453728 
1295	 0.21502510166884 
1296	 0.215675093632358 
1297	 0.216329562948312 
1298	 0.216996674924097 
1299	 0.217644687110132 
1300	 0.218284359138182 
1301	 0.218917007738734 
1302	 0.219520019312719 
1303	 0.220150792157805 
1304	 0.220802287992277 
1305	 0.22143509912078 
1306	 0.222072235884203 
1307	 0.222706158325237 
1308	 0.223302330340943 
1309	 0.223936302321968 
1310	 0.224566912932924 
1311	 0.225216844847073 
1312	 0.225839126281099 
1313	 0.226455978653355 
1314	 0.227070717521386 
1315	 0.227665921840712 
1316	 0.228279632338027 
1317	 0.22891964391833 
1318	 0.229516071064793 
1319	 0.230085993707053 
1320	 0.23067755572084 
1321	 0.231261753561338 
1322	 0.231835964864085 
1323	 0.232427093010738 
1324	 0.232997850697836 
1325	 0.233544209309973 
1326	 0.23408652565087 
1327	 0.234618390107297 
1328	 0.235157885080544 
1329	 0.235697238767281 
1330	 0.236221373311311 
1331	 0.236751850706285 
1332	 0.237267757691694 
1333	 0.237754593899349 
1334	 0.238252615111658 
1335	 0.238730653599718 
1336	 0.239204151927575 
1337	 0.239665169263577 
1338	 0.240115562032806 
1339	 0.240544689058018 
1340	 0.240966583826359 
1341	 0.241364630586619 
1342	 0.241739745163189 
1343	 0.242103144743789 
1344	 0.242452754765226 
1345	 0.242787961121535 
1346	 0.243106486217376 
1347	 0.243411217393547 
1348	 0.243704955554452 
1349	 0.243982146470699 
1350	 0.2442415977468 
1351	 0.244492126429572 
1352	 0.244724984937469 
1353	 0.244957299159882 
1354	 0.245175712748446 
1355	 0.245399146291105 
1356	 0.245622801652682 
1357	 0.24584279256528 
1358	 0.246074011379306 
1359	 0.246285779282913 
1360	 0.246479700598565 
1361	 0.246679901584324 
1362	 0.246882363277599 
1363	 0.247038828587181 
1364	 0.247179557082905 
1365	 0.247309409277988 
1366	 0.247407666952093 
1367	 0.24747381994614 
1368	 0.247521830793571 
1369	 0.247558114466733 
1370	 0.247555372086256 
1371	 0.247521953486773 
1372	 0.247462318346353 
1373	 0.247379328956691 
1374	 0.247259581456853 
1375	 0.247116488061848 
1376	 0.246926772130776 
1377	 0.246715435198508 
1378	 0.246430540119167 
1379	 0.246100583885028 
1380	 0.245708412126841 
1381	 0.245289899380562 
1382	 0.244746153578249 
1383	 0.244140714878317 
1384	 0.243418491416653 
1385	 0.242569916916501 
1386	 0.241651396318834 
1387	 0.240583147327178 
1388	 0.239548518809795 
1389	 0.238390772277456 
1390	 0.23733475373873 
1391	 0.236316189877842 
1392	 0.235310454928067 
1393	 0.234465451187262 
1394	 0.233702137159405 
1395	 0.233041139674945 
1396	 0.232533071928598 
1397	 0.231991839020948 
1398	 0.231545005233588 
1399	 0.23100675045796 
1400	 0.23049515825015 
1401	 0.229870008881159 
1402	 0.229211909662183 
1403	 0.228430428992356 
1404	 0.227553950042711 
1405	 0.226625120415187 
1406	 0.225567641562961 
1407	 0.224543978346905 
1408	 0.223413644381821 
1409	 0.222422901454379 
1410	 0.221390643266353 
1411	 0.220565675035797 
1412	 0.219833376245018 
1413	 0.219283127416823 
1414	 0.218886531407649 
1415	 0.218632715465214 
1416	 0.218574116718852 
1417	 0.21858097263886 
1418	 0.218756966222392 
1419	 0.218948110250937 
1420	 0.219225813693753 
1421	 0.219523550464395 
1422	 0.219858055898644 
1423	 0.220231042594454 
1424	 0.220637129369968 
1425	 0.221100535839273 
1426	 0.221556753801668 
1427	 0.222047740689001 
1428	 0.222567088742526 
1429	 0.22306743736504 
1430	 0.223601507970204 
1431	 0.22415731561274 
1432	 0.224745489785757 
1433	 0.225351859557549 
1434	 0.225982472018186 
1435	 0.226647492001725 
1436	 0.227336123245663 
1437	 0.228039927016747 
1438	 0.228766905116966 
1439	 0.229527602424892 
1440	 0.230306909717927 
1441	 0.231111238247268 
1442	 0.231922824020227 
1443	 0.232764548738507 
1444	 0.233607232071708 
1445	 0.234451110553494 
1446	 0.235303582897932 
1447	 0.236177358226839 
1448	 0.237043802197469 
1449	 0.237926109883664 
1450	 0.238784231276767 
1451	 0.239641179303137 
1452	 0.240478173196338 
1453	 0.241290141932452 
1454	 0.242092712380068 
1455	 0.242879080846647 
1456	 0.24366439436195 
1457	 0.244447928150652 
1458	 0.245215903762083 
1459	 0.245963379882037 
1460	 0.24672286768321 
1461	 0.247472113597526 
1462	 0.248221761431078 
1463	 0.248974222904983 
1464	 0.249739077665098 
1465	 0.250488524089138 
1466	 0.251278780639043 
1467	 0.252056333427023 
1468	 0.252860769680946 
1469	 0.253689357032566 
1470	 0.254476994994589 
1471	 0.255282496183407 
1472	 0.256099313448908 
1473	 0.256910398921561 
1474	 0.257722090243893 
1475	 0.258515755019231 
1476	 0.259313824830698 
1477	 0.260089387667311 
1478	 0.260839957712889 
1479	 0.261582043785119 
1480	 0.262312232760406 
1481	 0.263040205663216 
1482	 0.263760759078908 
1483	 0.264463931867151 
1484	 0.265161134561343 
1485	 0.265848002542577 
1486	 0.266510688926996 
1487	 0.267172562047562 
1488	 0.267828588355555 
1489	 0.268486021205783 
1490	 0.269130598204717 
1491	 0.269787168724665 
1492	 0.270447249999061 
1493	 0.271118541083921 
1494	 0.271797221934347 
1495	 0.27247398786006 
1496	 0.273156212372737 
1497	 0.273845489912651 
1498	 0.27454573139909 
1499	 0.275233525675824 
1500	 0.275919690440544 
1501	 0.27661246127984 
1502	 0.27729921613755 
1503	 0.277981983609462 
1504	 0.278662998730292 
1505	 0.279358098246461 
1506	 0.280064910453516 
1507	 0.280754795624332 
1508	 0.281446801343994 
1509	 0.282141933778415 
1510	 0.282827352243617 
1511	 0.28350162939164 
1512	 0.284165354779003 
1513	 0.284849943890295 
1514	 0.285541479620478 
1515	 0.286220387075104 
1516	 0.286912385388023 
1517	 0.287603282160673 
1518	 0.288277056062403 
1519	 0.288946347907556 
1520	 0.289621376038254 
1521	 0.290299504486267 
1522	 0.290945882101962 
1523	 0.291612331676412 
1524	 0.292258583838215 
1525	 0.292900262256093 
1526	 0.293545095192243 
1527	 0.294177003561719 
1528	 0.294822153699359 
1529	 0.29547532277476 
1530	 0.296131044207229 
1531	 0.2967883006377 
1532	 0.297454199469981 
1533	 0.298128330422941 
1534	 0.298805790871764 
1535	 0.299492484130829 
1536	 0.300166317125115 
1537	 0.300842944210815 
1538	 0.301510742939396 
1539	 0.302166535925515 
1540	 0.30282834763331 
1541	 0.303495117582991 
1542	 0.304148726744653 
1543	 0.304812835458547 
1544	 0.305428143972761 
1545	 0.306015121244566 
1546	 0.306597072770944 
1547	 0.307154805567407 
1548	 0.307694235895595 
1549	 0.308223353590976 
1550	 0.308738569757778 
1551	 0.309218692462358 
1552	 0.309708692572908 
1553	 0.310189154685361 
1554	 0.310688247833296 
1555	 0.311194023038031 
1556	 0.311691220102779 
1557	 0.312196875307669 
1558	 0.312702330625802 
1559	 0.313193118178823 
1560	 0.313697811011955 
1561	 0.314208188261061 
1562	 0.314738314609003 
1563	 0.315276649981136 
1564	 0.315823953717253 
1565	 0.316396531844233 
1566	 0.316964039587208 
1567	 0.317524692258685 
1568	 0.318104762269118 
1569	 0.318695704866513 
1570	 0.319298795244128 
1571	 0.319934615383778 
1572	 0.320537656342174 
1573	 0.321133036644343 
1574	 0.321729358352442 
1575	 0.322305593771252 
1576	 0.322890921282753 
1577	 0.323489466747473 
1578	 0.324078864043559 
1579	 0.324662384622435 
1580	 0.325240592416097 
1581	 0.325812538392195 
1582	 0.326388514763705 
1583	 0.326959620003546 
1584	 0.32753398146458 
1585	 0.328120809734005 
1586	 0.328692826062408 
1587	 0.329259634617635 
1588	 0.329816616413456 
1589	 0.330346592320628 
1590	 0.330903830248848 
1591	 0.331467845206757 
1592	 0.332036945767423 
1593	 0.332628636661692 
1594	 0.333211548476461 
1595	 0.33380261880525 
1596	 0.334369532801373 
1597	 0.334917759207244 
1598	 0.33547580105745 
1599	 0.336029026848189 
1600	 0.336571374552642 
1601	 0.337123822853376 
1602	 0.337657740709322 
1603	 0.338166185284232 
1604	 0.338669874401831 
1605	 0.339166141617964 
1606	 0.339659434480835 
1607	 0.340142378432417 
1608	 0.340624479800465 
1609	 0.341111726665519 
1610	 0.341581525264136 
1611	 0.342048033056379 
1612	 0.342489173757244 
1613	 0.342906255124778 
1614	 0.343318527640686 
1615	 0.343720152449882 
1616	 0.344103305611326 
1617	 0.34447715677332 
1618	 0.344833798537135 
1619	 0.345155569177313 
1620	 0.345482855613768 
1621	 0.345812343376625 
1622	 0.346122786413568 
1623	 0.346427743180581 
1624	 0.346717160829769 
1625	 0.346982557497357 
1626	 0.347244718032431 
1627	 0.347486753166102 
1628	 0.347739744997114 
1629	 0.347993203624016 
1630	 0.348245653416994 
1631	 0.348519520120019 
1632	 0.348763265840556 
1633	 0.348980853107193 
1634	 0.349204970746471 
1635	 0.34940913714888 
1636	 0.349623715866947 
1637	 0.349865727773789 
1638	 0.350076073782566 
1639	 0.350284523394041 
1640	 0.350459968971804 
1641	 0.350606867286356 
1642	 0.350733131741667 
1643	 0.350838367803504 
1644	 0.350914798443584 
1645	 0.350970775231453 
1646	 0.35099485766403 
1647	 0.350977507554295 
1648	 0.350949702021289 
1649	 0.350905829963837 
1650	 0.350825477154145 
1651	 0.350726672137365 
1652	 0.35059455422946 
1653	 0.350439883140165 
1654	 0.350227851710591 
1655	 0.349991082769742 
1656	 0.349678471049015 
1657	 0.349318069793546 
1658	 0.348864453509948 
1659	 0.348329366715678 
1660	 0.347733307947434 
1661	 0.347069221852469 
1662	 0.346309122515904 
1663	 0.345473357503928 
1664	 0.344550650848523 
1665	 0.343525744641134 
1666	 0.342418000041778 
1667	 0.34125237258827 
1668	 0.339970050074162 
1669	 0.338582280599992 
1670	 0.337101162920905 
1671	 0.335492978092799 
1672	 0.333818732087141 
1673	 0.332073952507404 
1674	 0.330203190113366 
1675	 0.328238984206249 
1676	 0.326209632554414 
1677	 0.32407055873902 
1678	 0.321858943794492 
1679	 0.319545311649357 
1680	 0.317181904150245 
1681	 0.314735263443929 
1682	 0.312219954164428 
1683	 0.309648729828984 
1684	 0.307067867893687 
1685	 0.304392513756481 
1686	 0.301739488263714 
1687	 0.299065822213603 
1688	 0.29637597216755 
1689	 0.293669563399874 
1690	 0.290943284242049 
1691	 0.288221318161776 
1692	 0.285518527855012 
1693	 0.282813058051275 
1694	 0.280079996064513 
1695	 0.277338312077651 
1696	 0.274551957478303 
1697	 0.271722456558337 
1698	 0.268864859849626 
1699	 0.26596741042465 
1700	 0.263181431334627 
1701	 0.260349651865192 
1702	 0.257699588935631 
1703	 0.255126513212759 
1704	 0.252706459022523 
1705	 0.250405776420185 
1706	 0.248182910430309 
1707	 0.246230526057761 
1708	 0.244382420862313 
1709	 0.242679855933115 
1710	 0.241156919363632 
1711	 0.23965725080738 
1712	 0.238281859738759 
1713	 0.236958556576558 
1714	 0.235670717219456 
1715	 0.234546405407051 
1716	 0.233428814989643 
1717	 0.232371597174779 
1718	 0.231450218161148 
1719	 0.230570739886743 
1720	 0.229793874256896 
1721	 0.229168927254299 
1722	 0.22868599212818 
1723	 0.228402631134333 
1724	 0.228354497089408 
1725	 0.22851751806199 
1726	 0.228941942609473 
1727	 0.229662067916395 
1728	 0.230617087238109 
1729	 0.231864592174731 
1730	 0.233395642533222 
1731	 0.235014687143126 
1732	 0.236828249591473 
1733	 0.238709544727759 
1734	 0.240571837275193 
1735	 0.242474991598026 
1736	 0.244250205333239 
1737	 0.245896239450499 
1738	 0.247345712893013 
1739	 0.248530623985139 
1740	 0.249489148702426 
1741	 0.250254478877827 
1742	 0.250763641463695 
1743	 0.251146220096887 
1744	 0.2513150061368 
1745	 0.251394749796183 
1746	 0.251271125922138 
1747	 0.251149129210786 
1748	 0.250897291118595 
1749	 0.250712082738292 
1750	 0.25048565394141 
1751	 0.25033873604845 
1752	 0.250203694906614 
1753	 0.250197210234238 
1754	 0.250219749098911 
1755	 0.250441230558796 
1756	 0.250788257690473 
1757	 0.251277358334086 
1758	 0.251967752785837 
1759	 0.252812162082323 
1760	 0.253868540337102 
1761	 0.25515932856561 
1762	 0.256581327262845 
1763	 0.258212230876255 
1764	 0.259966231430992 
1765	 0.261827386081039 
1766	 0.263909446892064 
1767	 0.266005784875085 
1768	 0.268169976347232 
1769	 0.270342830097624 
1770	 0.272349593825227 
1771	 0.274394007448426 
1772	 0.276322185706865 
1773	 0.278122831597024 
1774	 0.279957611497131 
1775	 0.281587094066808 
1776	 0.283121713587406 
1777	 0.284603902179093 
1778	 0.285884944472634 
1779	 0.28708230680606 
1780	 0.288193113160131 
1781	 0.28920638379665 
1782	 0.290176049758017 
1783	 0.291036503297665 
1784	 0.291806258072385 
1785	 0.292449633716273 
1786	 0.29306618687425 
1787	 0.293608049077637 
1788	 0.294142431761891 
1789	 0.294649279617846 
1790	 0.295109974823168 
1791	 0.295532065966634 
1792	 0.295951256345435 
1793	 0.296312958578239 
1794	 0.296694948941248 
1795	 0.297076485013772 
1796	 0.297469355646459 
1797	 0.297863717987501 
1798	 0.298262401727023 
1799	 0.298688564548293 
1800	 0.299097754363611 
1801	 0.299768789315168 
1802	 0.300203687344771 
1803	 0.300618578438869 
1804	 0.301007414570971 
1805	 0.301454516974811 
1806	 0.301860940278159 
1807	 0.302238995607812 
1808	 0.302652953221037 
1809	 0.303084225657602 
1810	 0.303497297288164 
1811	 0.303916690466283 
1812	 0.30434222217928 
1813	 0.304749632043297 
1814	 0.305179460703746 
1815	 0.305622480477195 
1816	 0.306095363854239 
1817	 0.306578828174303 
1818	 0.307080930523121 
1819	 0.30757961031638 
1820	 0.308079598754128 
1821	 0.308607474538658 
1822	 0.309150250427114 
1823	 0.309714686618233 
1824	 0.310251030350265 
1825	 0.310795148492613 
1826	 0.311324439445196 
1827	 0.311815926118617 
1828	 0.312326847049247 
1829	 0.31285596433458 
1830	 0.313368564339125 
1831	 0.313864610203532 
1832	 0.314375352207201 
1833	 0.314881538319602 
1834	 0.315397101645269 
1835	 0.315906298274827 
1836	 0.316388341093681 
1837	 0.316878025083894 
1838	 0.317351387341057 
1839	 0.317843004245741 
1840	 0.318351695802176 
1841	 0.31884641338703 
1842	 0.319345269046687 
1843	 0.31983866099299 
1844	 0.320317103586178 
1845	 0.320746011347192 
1846	 0.321168149725509 
1847	 0.321561984634571 
1848	 0.321935518377893 
1849	 0.322308724316652 
1850	 0.322629201445891 
1851	 0.322923598783105 
1852	 0.323174578836053 
1853	 0.32338028012554 
1854	 0.323506680541917 
1855	 0.323576804720854 
1856	 0.32360310663896 
1857	 0.323568013958118 
1858	 0.323483654571249 
1859	 0.323358626880575 
1860	 0.323203807733455 
1861	 0.322974728531935 
1862	 0.322698347494767 
1863	 0.32236136458703 
1864	 0.32193550248527 
1865	 0.32144593609624 
1866	 0.320861574117367 
1867	 0.320167903790226 
1868	 0.319449290533095 
1869	 0.318608949153669 
1870	 0.317647885706228 
1871	 0.316613705558013 
1872	 0.315461064639383 
1873	 0.314181572679874 
1874	 0.312821011708346 
1875	 0.311361663286887 
1876	 0.309664416325372 
1877	 0.307880295007807 
1878	 0.305867568164631 
1879	 0.303645938073711 
1880	 0.301414861144437 
1881	 0.298910346976793 
1882	 0.296178137990863 
1883	 0.293307523590262 
1884	 0.290210772632277 
1885	 0.286681011810966 
1886	 0.283063140226399 
1887	 0.279114695426897 
1888	 0.274820174577453 
1889	 0.270650102056872 
1890	 0.266173595365297 
1891	 0.261638329774987 
1892	 0.257121785737132 
1893	 0.252435976559696 
1894	 0.247503544237715 
1895	 0.242756315029759 
1896	 0.237938120072837 
1897	 0.233096547392464 
1898	 0.228690783677584 
1899	 0.224254947855625 
1900	 0.219998372037728 
1901	 0.216038231304727 
1902	 0.211975659869521 
1903	 0.20823373565513 
1904	 0.204729565934688 
1905	 0.201392606073725 
1906	 0.19829703812206 
1907	 0.195703294732715 
1908	 0.193246198089387 
1909	 0.191013953287856 
1910	 0.189089068901677 
1911	 0.187240092373585 
1912	 0.185647973307641 
1913	 0.18427067917378 
1914	 0.183048070659975 
1915	 0.182004671680692 
1916	 0.181187386316408 
1917	 0.180452389944612 
1918	 0.179855543170544 
1919	 0.179391201981994 
1920	 0.178986408299332 
1921	 0.17871124735828 
1922	 0.178526581131531 
1923	 0.178387865275243 
1924	 0.178337997362106 
1925	 0.178349369123425 
1926	 0.178393507348259 
1927	 0.178480091079078 
1928	 0.17861750751143 
1929	 0.178814221916165 
1930	 0.179021711492573 
1931	 0.179287342921983 
1932	 0.179590723495918 
1933	 0.179914619595878 
1934	 0.180288371863278 
1935	 0.180680349400219 
1936	 0.181105327544677 
1937	 0.181589102857108 
1938	 0.182139881599921 
1939	 0.182689221441939 
1940	 0.183278638707925 
1941	 0.183891732700781 
1942	 0.184481830979061 
1943	 0.185102492511173 
1944	 0.185735674751128 
1945	 0.186380649413448 
1946	 0.187095392233311 
1947	 0.187790449903627 
1948	 0.188515699077424 
1949	 0.189285632870768 
1950	 0.190016757683656 
1951	 0.190721669322397 
1952	 0.191460198455659 
1953	 0.192197679283068 
1954	 0.192935749792443 
1955	 0.193737258049307 
1956	 0.19449297758234 
1957	 0.195268824782749 
1958	 0.196059870684024 
1959	 0.196784609489686 
1960	 0.197555814381305 
1961	 0.198317243471095 
1962	 0.199051394931029 
1963	 0.199817308854078 
1964	 0.200620069179551 
1965	 0.20138946699268 
1966	 0.202161396127495 
1967	 0.202935356560816 
1968	 0.203659556522464 
1969	 0.204402177064853 
1970	 0.205122061324807 
1971	 0.205842141828701 
1972	 0.206619881905039 
1973	 0.20736617855905 
1974	 0.208115883926085 
1975	 0.208905325071962 
1976	 0.209645906870474 
1977	 0.210345276569259 
1978	 0.211060862085156 
1979	 0.211769999768587 
1980	 0.212458315847702 
1981	 0.213192440950153 
1982	 0.213896735060498 
1983	 0.214606742209094 
1984	 0.215323033791133 
1985	 0.215952919023497 
1986	 0.21658697311883 
1987	 0.217219200408772 
1988	 0.217819279894952 
1989	 0.218432736072116 
1990	 0.219080683800032 
1991	 0.219677751361172 
1992	 0.220252057822853 
1993	 0.220819511648736 
1994	 0.221341971773742 
1995	 0.221849260191661 
1996	 0.222337391936576 
1997	 0.222804301230008 
1998	 0.223280658897249 
1999	 0.223756553925418 
2000	 0.224208247013244 
2001	 0.224671498223517 
2002	 0.22508711105311 
2003	 0.225469100374271 
2004	 0.225833238810603 
2005	 0.226157641045494 
2006	 0.226481868216076 
2007	 0.226808162069515 
2008	 0.227082025817488 
2009	 0.227351828197958 
2010	 0.227613399166136 
2011	 0.227811969335465 
2012	 0.227996310675891 
2013	 0.228130732090498 
2014	 0.228223134254371 
2015	 0.228280559666821 
2016	 0.228304995964516 
2017	 0.228275541015408 
2018	 0.228207277789502 
2019	 0.228089208420329 
2020	 0.227919295473823 
2021	 0.227703401930269 
2022	 0.227440291683598 
2023	 0.227144071507582 
2024	 0.226781520809964 
2025	 0.226375487397394 
2026	 0.225940624996087 
2027	 0.225438992952289 
2028	 0.224954854768657 
2029	 0.224440609072684 
2030	 0.223937253954749 
2031	 0.223428380117112 
2032	 0.22292614177961 
2033	 0.222389443771243 
2034	 0.221916089152199 
2035	 0.221457506868784 
2036	 0.221036423290759 
2037	 0.220693687547303 
2038	 0.220383061122769 
2039	 0.220106368955943 
2040	 0.219872275395601 
2041	 0.219680965742285 
2042	 0.219522600368167 
2043	 0.219415124702591 
2044	 0.219365885819533 
2045	 0.219338246298012 
2046	 0.219340673273965 
2047	 0.219390036829983 
2048	 0.219487572353093 
2049	 0.219609623262955 
2050	 0.219779883763027 
2051	 0.219974096744644 
2052	 0.220176077039526 
2053	 0.220404341763569 
2054	 0.220639613393175 
2055	 0.220898871205976 
2056	 0.221148551291822 
2057	 0.221392699518318 
2058	 0.221669809656239 
2059	 0.221966250074151 
2060	 0.222257945480482 
2061	 0.222592416027506 
2062	 0.222890017770444 
2063	 0.223160550464382 
2064	 0.223438287664528 
2065	 0.223717925849673 
2066	 0.223974398982589 
2067	 0.224235649255348 
2068	 0.224493188579 
2069	 0.224736748110949 
2070	 0.224975623388446 
2071	 0.225188606114945 
2072	 0.225382831849726 
2073	 0.225573361768984 
2074	 0.225744998932132 
2075	 0.225909081890308 
2076	 0.226078020381113 
2077	 0.226215285577263 
2078	 0.22633384389635 
2079	 0.226433493250547 
2080	 0.226502857462569 
2081	 0.226567739921996 
2082	 0.226626043159778 
2083	 0.226655098991154 
2084	 0.226671601773261 
2085	 0.226680369617475 
2086	 0.226671307804149 
2087	 0.226631063916304 
2088	 0.226605675372928 
2089	 0.22658258291779 
2090	 0.226543661232651 
2091	 0.22650766836006 
2092	 0.226448328357835 
2093	 0.226369872762615 
2094	 0.226279404553282 
2095	 0.226168375114171 
2096	 0.226054481856271 
2097	 0.225950701947665 
2098	 0.225806367890497 
2099	 0.225622540622644 
2100	 0.225423416628176 
2101	 0.22519343626842 
2102	 0.224916060444612 
2103	 0.224636727253044 
2104	 0.224341084216376 
2105	 0.224030735009453 
2106	 0.223695359943642 
2107	 0.223346070842657 
2108	 0.222997772857066 
2109	 0.222612796699127 
2110	 0.222193144325431 
2111	 0.221764893856592 
2112	 0.221301330911983 
2113	 0.220842383581248 
2114	 0.220371236390997 
2115	 0.219897755088943 
2116	 0.219416890972074 
2117	 0.218943675281892 
2118	 0.218457828076891 
2119	 0.217958162382612 
2120	 0.217483196741434 
2121	 0.216995426543571 
2122	 0.216551396745039 
2123	 0.216128875242816 
2124	 0.215733363704661 
2125	 0.215380888959143 
2126	 0.215017074949388 
2127	 0.214653506503364 
2128	 0.214330672792553 
2129	 0.214034167866171 
2130	 0.213735278573117 
2131	 0.213478720429888 
2132	 0.21320470330648 
2133	 0.212910381656479 
2134	 0.212631046379163 
2135	 0.21235544607395 
2136	 0.212097960738447 
2137	 0.211830186808176 
2138	 0.211561414005915 
2139	 0.211295170176765 
2140	 0.211020454893628 
2141	 0.210770574272201 
2142	 0.210514098199156 
2143	 0.210305606309525 
2144	 0.210119801630448 
2145	 0.20996756426886 
2146	 0.209852758789315 
2147	 0.209762094392305 
2148	 0.209709623322774 
2149	 0.209666335439107 
2150	 0.209662301784024 
2151	 0.209649537241055 
2152	 0.209646446033616 
2153	 0.209648915296789 
2154	 0.209638058932211 
2155	 0.20961599651624 
2156	 0.209586243388488 
2157	 0.209545296218088 
2158	 0.20949508393563 
2159	 0.209447470364247 
2160	 0.209363568927632 
2161	 0.209251511536426 
2162	 0.209143568986549 
2163	 0.209004519384713 
2164	 0.208883984907299 
2165	 0.208767361543849 
2166	 0.208656624352339 
2167	 0.208539582869871 
2168	 0.208444143805418 
2169	 0.208351544753693 
2170	 0.20828647780861 
2171	 0.208229939810089 
2172	 0.208213064859944 
2173	 0.208232859447876 
2174	 0.208269792462307 
2175	 0.208342242258449 
2176	 0.208425942971797 
2177	 0.20850128285293 
2178	 0.208576627976638 
2179	 0.208675194636186 
2180	 0.208778248143146 
2181	 0.208895136278006 
2182	 0.209042858512567 
2183	 0.209178265226988 
2184	 0.209313359449299 
2185	 0.209451501950837 
2186	 0.209598376257975 
2187	 0.209734339444006 
2188	 0.209873114387817 
2189	 0.209998761609767 
2190	 0.210124691782035 
2191	 0.210226175211357 
2192	 0.210316210335438 
2193	 0.210385082422483 
2194	 0.210432321739369 
2195	 0.210463167163972 
2196	 0.210469190375441 
2197	 0.21047095275347 
2198	 0.210460568955653 
2199	 0.210415012345295 
2200	 0.210355914498065 
2201	 0.210286011979959 
2202	 0.21017272252623 
2203	 0.210029090268937 
2204	 0.209864030097259 
2205	 0.209652808068272 
2206	 0.209454595340441 
2207	 0.209243259660026 
2208	 0.209020572484292 
2209	 0.208801423686723 
2210	 0.208549531721432 
2211	 0.208282392102178 
2212	 0.2079876146432 
2213	 0.207657083622323 
2214	 0.207322535880317 
2215	 0.206991151302107 
2216	 0.206600638143275 
2217	 0.206203916210729 
2218	 0.205738822043826 
2219	 0.205210845445319 
2220	 0.204638210861616 
2221	 0.204009643298079 
2222	 0.203331880755167 
2223	 0.202667413098036 
2224	 0.201913221376237 
2225	 0.201123782145961 
2226	 0.200276148530696 
2227	 0.199286331291307 
2228	 0.198178610846895 
2229	 0.197007729971387 
2230	 0.195710603725075 
2231	 0.194390321674606 
2232	 0.193031780153394 
2233	 0.191530128927515 
2234	 0.189963035569067 
2235	 0.188256491149788 
2236	 0.186395511351895 
2237	 0.18448938223675 
2238	 0.182434758804232 
2239	 0.180389746272941 
2240	 0.178293592193151 
2241	 0.17613987430456 
2242	 0.174015064621416 
2243	 0.171727946789764 
2244	 0.169287627320925 
2245	 0.166850904807816 
2246	 0.164217959369552 
2247	 0.161708830920135 
2248	 0.159279008291567 
2249	 0.156799195864009 
2250	 0.15430776763854 
2251	 0.151911223873136 
2252	 0.149340212529993 
2253	 0.146858902026275 
2254	 0.144420255023482 
2255	 0.141948847867466 
2256	 0.139714903908057 
2257	 0.137506167226537 
2258	 0.135382612379621 
2259	 0.133401524642317 
2260	 0.131394557637681 
2261	 0.129386449126287 
2262	 0.127517684887873 
2263	 0.125691748433985 
2264	 0.123987137512837 
2265	 0.122436372588195 
2266	 0.120874228224326 
2267	 0.119418630214674 
2268	 0.117918346800645 
2269	 0.11641877977513 
2270	 0.114967751226149 
2271	 0.11348655254121 
2272	 0.112112016037146 
2273	 0.110871565139243 
2274	 0.109546752826079 
2275	 0.108282675644851 
2276	 0.106946107517938 
2277	 0.10550878081249 
2278	 0.104129889094025 
2279	 0.102722964284763 
2280	 0.101361139679745 
2281	 0.100082312633134 
2282	 9.87368850897991E-02 
2283	 9.73856229740344E-02 
2284	 9.60417911106633E-02 
2285	 9.45817330485472E-02 
2286	 9.31204648973142E-02 
2287	 9.16120044502997E-02 
2288	 9.00680056611056E-02 
2289	 8.86389871720613E-02 
2290	 8.71855286314038E-02 
2291	 8.58078902022326E-02 
2292	 8.45191600513711E-02 
2293	 8.31384932953614E-02 
2294	 8.18461605560314E-02 
2295	 8.06253362688372E-02 
2296	 7.94232540981072E-02 
2297	 7.84177156239085E-02 
2298	 7.75518794012252E-02 
2299	 7.68040023584944E-02 
2300	 7.61999217754543E-02 
2301	 7.57369080930476E-02 
2302	 7.53987730412345E-02 
2303	 7.52154145242633E-02 
2304	 0.075198150688507 
2305	 7.53094158685073E-02 
2306	 7.55849015230402E-02 
2307	 7.59722975240757E-02 
2308	 7.65082282300835E-02 
2309	 7.71546401264975E-02 
2310	 0.077967752734643 
2311	 7.88099910039482E-02 
2312	 7.98177052052493E-02 
2313	 8.07784876007164E-02 
2314	 8.18161158325818E-02 
2315	 8.27731402658096E-02 
2316	 8.37369578695298E-02 
2317	 8.46160395782691E-02 
2318	 8.54592333081905E-02 
2319	 8.61795331554717E-02 
2320	 0.086857956957055 
2321	 0.087367934691631 
2322	 8.76898792090829E-02 
2323	 8.79914414601286E-02 
2324	 8.81868426944823E-02 
2325	 8.82970904938861E-02 
2326	 8.83541490902061E-02 
2327	 8.83064320333103E-02 
2328	 8.81237895448707E-02 
2329	 0.087887133009069 
2330	 8.75779259221676E-02 
2331	 8.71693129349047E-02 
2332	 8.67200473925568E-02 
2333	 8.61424727519002E-02 
2334	 8.54353490540369E-02 
2335	 0.084696846395898 
2336	 8.38587859999584E-02 
2337	 8.29813331157434E-02 
2338	 8.21772864695157E-02 
2339	 8.13299310159195E-02 
2340	 8.05080688923064E-02 
2341	 7.97831361624951E-02 
2342	 0.079101533859669 
2343	 7.85449288854328E-02 
2344	 7.81098667070791E-02 
2345	 7.78295374180238E-02 
2346	 7.77104017688594E-02 
2347	 7.77260471861249E-02 
2348	 7.79080036610252E-02 
2349	 7.82981767064611E-02 
2350	 7.88202869132392E-02 
2351	 7.94951410605782E-02 
2352	 8.03013801549211E-02 
2353	 8.11044071367032E-02 
2354	 8.18637679218183E-02 
2355	 8.26005356565809E-02 
2356	 8.32258201949308E-02 
2357	 8.37481930148258E-02 
2358	 8.42635048639391E-02 
2359	 8.46760553589198E-02 
2360	 8.50118818266459E-02 
2361	 8.52662194493082E-02 
2362	 8.54330631205691E-02 
2363	 8.55169552521626E-02 
2364	 8.55792641812964E-02 
2365	 8.56591187023491E-02 
2366	 8.56920154667747E-02 
2367	 8.57602783712327E-02 
2368	 8.58017211969593E-02 
2369	 8.57703245354285E-02 
2370	 8.58167191323113E-02 
2371	 8.58985897963907E-02 
2372	 8.59157894751434E-02 
2373	 8.59276149348589E-02 
2374	 8.58989323463686E-02 
2375	 8.58004759458852E-02 
2376	 8.57922763491513E-02 
2377	 8.58593879558205E-02 
2378	 8.58967825716485E-02 
2379	 8.59583470724991E-02 
2380	 0.086011542429317 
2381	 8.60219783048427E-02 
2382	 8.60402682916827E-02 
2383	 8.60550900850744E-02 
2384	 8.60819725419422E-02 
2385	 0.086098869774168 
2386	 8.61419754366612E-02 
2387	 8.62255705860974E-02 
2388	 8.62488182981468E-02 
2389	 8.62635658244546E-02 
2390	 8.62422135253666E-02 
2391	 8.61408061137796E-02 
2392	 8.61629721446907E-02 
2393	 8.62246363760973E-02 
2394	 0.086285968576732 
2395	 8.64309706836747E-02 
2396	 8.64978871922132E-02 
2397	 8.65102530572132E-02 
2398	 8.65277162625023E-02 
2399	 8.65308951425603E-02 
2400	 0.086551184703287 
2401	 8.65939182437042E-02 
2402	 8.65898765607008E-02 
2403	 8.65840997758969E-02 
2404	 8.66293649305959E-02 
2405	 8.66061595141721E-02 
2406	 0.08665319034426 
2407	 8.67796167663172E-02 
2408	 8.68398172659706E-02 
2409	 8.68893292348617E-02 
2410	 8.69455993878629E-02 
2411	 8.69063958939765E-02 
2412	 8.69417444892797E-02 
2413	 8.70002892973524E-02 
2414	 8.69382759753257E-02 
2415	 8.69828318066015E-02 
2416	 8.69695169687571E-02 
2417	 8.68899163392418E-02 
2418	 8.69323449417045E-02 
2419	 8.69384227743163E-02 
2420	 8.69233551288887E-02 
2421	 8.69604897857654E-02 
2422	 8.69420169790218E-02 
2423	 8.68504738820164E-02 
2424	 8.67696758630026E-02 
2425	 8.66583244939065E-02 
2426	 8.65932351721731E-02 
2427	 8.66013807797277E-02 
2428	 8.65622175507486E-02 
2429	 8.65103557974184E-02 
2430	 8.64313511320195E-02 
2431	 8.63075298651448E-02 
2432	 8.61927480469885E-02 
2433	 0.086095708469809 
2434	 8.59510696967161E-02 
2435	 8.58089328104452E-02 
2436	 8.56669339994952E-02 
2437	 8.54489500310498E-02 
2438	 8.53300204498757E-02 
2439	 8.52637217193167E-02 
2440	 8.51423553253652E-02 
2441	 8.50289509452129E-02 
2442	 8.48667172159967E-02 
2443	 8.45953838440475E-02 
2444	 8.43826045892458E-02 
2445	 8.42304720172278E-02 
2446	 8.39071109539838E-02 
2447	 8.36562450337261E-02 
2448	 8.34980474990868E-02 
2449	 8.32367651498749E-02 
2450	 0.083032274003805 
2451	 8.27733597019939E-02 
2452	 8.24092651906357E-02 
2453	 8.20175707756961E-02 
2454	 8.17361893498619E-02 
2455	 8.15368127952162E-02 
2456	 0.081133091830986 
2457	 0.080881418704761 
2458	 0.080709199348617 
2459	 8.03600789759886E-02 
2460	 8.02106265336487E-02 
2461	 8.00940857804641E-02 
2462	 7.98853863175668E-02 
2463	 7.97069013108148E-02 
2464	 7.94939599528066E-02 
2465	 7.91961878740003E-02 
2466	 7.89710706433356E-02 
2467	 0.078769163162655 
2468	 7.84621673561413E-02 
2469	 7.83258411849911E-02 
2470	 7.81356787383319E-02 
2471	 7.79531807560017E-02 
2472	 7.80195570258005E-02 
2473	 7.79410435223643E-02 
2474	 7.77801585885375E-02 
2475	 7.77833922793237E-02 
2476	 7.77285540093182E-02 
2477	 7.76802915652875E-02 
2478	 7.77130457867569E-02 
2479	 7.74588024637015E-02 
2480	 7.74346535626785E-02 
2481	 0.077361415786462 
2482	 0.077216931217903 
2483	 0.077177231297299 
2484	 7.70998768455108E-02 
2485	 7.71174808663387E-02 
2486	 0.077147910399915 
2487	 7.71920185442994E-02 
2488	 7.72123016400666E-02 
2489	 7.72135413113395E-02 
2490	 7.72979866749271E-02 
2491	 7.73971616304293E-02 
2492	 7.73208527766405E-02 
2493	 7.72935411064607E-02 
2494	 7.74479247828844E-02 
2495	 7.75005659541428E-02 
2496	 0.077646797593858 
2497	 0.078004685550924 
2498	 0.078168720151322 
2499	 7.82312388071248E-02 
2500	 7.85898560892462E-02 
