Wavelength	spectrum00008.asd
350	 5.16057591601839E-02 
351	 0.050334195358568 
352	 0.049432665387903 
353	 0.0490184238367 
354	 0.049953882759557 
355	 0.051157026954724 
356	 5.15626574964035E-02 
357	 5.05484339748722E-02 
358	 0.048218857880742 
359	 4.74167832907467E-02 
360	 4.88612890107196E-02 
361	 5.14995339836645E-02 
362	 5.08393222217665E-02 
363	 4.92542716515629E-02 
364	 4.85493227538815E-02 
365	 4.88197194773963E-02 
366	 4.97160980844269E-02 
367	 5.07284573234119E-02 
368	 5.14384219922096E-02 
369	 5.18502141634593E-02 
370	 5.14642901243009E-02 
371	 5.14722884562814E-02 
372	 5.34887317984264E-02 
373	 5.39617084114849E-02 
374	 5.45763751929266E-02 
375	 5.56331517709582E-02 
376	 0.054604792628214 
377	 5.59095233448304E-02 
378	 5.73725128729205E-02 
379	 5.66985657771032E-02 
380	 5.73311513452124E-02 
381	 5.89490962018597E-02 
382	 5.99855469098039E-02 
383	 5.87719440412652E-02 
384	 5.98348880985789E-02 
385	 6.13700859971915E-02 
386	 6.21964741416393E-02 
387	 0.063264280813762 
388	 6.34817259844322E-02 
389	 6.38751386168959E-02 
390	 6.53359119517755E-02 
391	 6.61894961442682E-02 
392	 6.66612542104997E-02 
393	 6.71955599645005E-02 
394	 0.068247113403543 
395	 6.89885767275986E-02 
396	 0.069974094142054 
397	 7.12256013614515E-02 
398	 7.15560174171798E-02 
399	 7.24878053573518E-02 
400	 7.36320680580708E-02 
401	 7.43079774565757E-02 
402	 7.50270622898939E-02 
403	 7.62603708058949E-02 
404	 7.76470522516388E-02 
405	 7.83340475387907E-02 
406	 7.95025631986923E-02 
407	 8.04069614981822E-02 
408	 8.08262794044262E-02 
409	 8.21302769445333E-02 
410	 8.30216381447627E-02 
411	 8.37860352429957E-02 
412	 8.50133133165364E-02 
413	 8.61376715543111E-02 
414	 8.69699849180942E-02 
415	 8.76364022153541E-02 
416	 8.85065392887328E-02 
417	 0.089739865354296 
418	 9.07617863521886E-02 
419	 9.13437019331363E-02 
420	 0.092344728416726 
421	 9.33437364991639E-02 
422	 9.44631723200147E-02 
423	 9.58822758229038E-02 
424	 9.67065488790723E-02 
425	 9.74772455353092E-02 
426	 9.84401609478881E-02 
427	 9.93715947964301E-02 
428	 0.100203973750567 
429	 0.101158023011806 
430	 0.102327373536055 
431	 0.103196430180697 
432	 0.104400360326729 
433	 0.105684652160609 
434	 0.106410025613866 
435	 0.107345790910204 
436	 0.108426159260875 
437	 0.109517182854061 
438	 0.110528133552926 
439	 0.111637445740218 
440	 0.112800624772125 
441	 0.113944100388201 
442	 0.115190074697658 
443	 0.116358327550128 
444	 0.117414949757122 
445	 0.118458663491647 
446	 0.119539747907369 
447	 0.120687822115603 
448	 0.121907565922463 
449	 0.123166858960536 
450	 0.124487416758033 
451	 0.125754129399543 
452	 0.126868931687513 
453	 0.128164596914108 
454	 0.129422833872705 
455	 0.130584493791764 
456	 0.131813955127526 
457	 0.133157946912342 
458	 0.13456156423724 
459	 0.135960947411214 
460	 0.137358698880723 
461	 0.138691513336962 
462	 0.139990810786712 
463	 0.14134698649679 
464	 0.142844937335669 
465	 0.14428327744405 
466	 0.145584973309258 
467	 0.146906628908269 
468	 0.1483827554707 
469	 0.149827979494657 
470	 0.151111543500266 
471	 0.152773212032976 
472	 0.154300672050068 
473	 0.155639997875236 
474	 0.157117698293021 
475	 0.158629907668691 
476	 0.160140268112063 
477	 0.161640183358752 
478	 0.163180474329467 
479	 0.164591972727463 
480	 0.166045387608774 
481	 0.167746892845399 
482	 0.169212539771881 
483	 0.170712543641566 
484	 0.172343233398936 
485	 0.173936687724967 
486	 0.175507476815172 
487	 0.17702781135798 
488	 0.178502419388835 
489	 0.180053625262243 
490	 0.181588600110769 
491	 0.183132097066846 
492	 0.184759244450316 
493	 0.186304111141338 
494	 0.187817553738195 
495	 0.189365360306582 
496	 0.190998388537929 
497	 0.192521222430239 
498	 0.194045162939461 
499	 0.195711010164172 
500	 0.197348982387884 
501	 0.198867237529136 
502	 0.200330456740786 
503	 0.201927976307035 
504	 0.203569025519802 
505	 0.205196882350689 
506	 0.206778620294433 
507	 0.208319820174686 
508	 0.209836921512901 
509	 0.211363416221198 
510	 0.212933137141745 
511	 0.214541015188628 
512	 0.216136014730271 
513	 0.217693845787612 
514	 0.219234166171173 
515	 0.220799305679516 
516	 0.222335630730795 
517	 0.223807678219371 
518	 0.225340644271582 
519	 0.226840590142658 
520	 0.228317353991956 
521	 0.22984618924216 
522	 0.231357786628664 
523	 0.232796755200983 
524	 0.234174835902848 
525	 0.235639204775196 
526	 0.237018496424601 
527	 0.238368591748552 
528	 0.23978534893997 
529	 0.24110449647782 
530	 0.242387050539174 
531	 0.243682902330499 
532	 0.245008043803864 
533	 0.24619665243222 
534	 0.247348431873406 
535	 0.248557071899639 
536	 0.249725869832791 
537	 0.250884631562444 
538	 0.251988434059693 
539	 0.252969734414053 
540	 0.253936105396664 
541	 0.254876588238376 
542	 0.255763442268231 
543	 0.256560600267983 
544	 0.257359371766356 
545	 0.258096291787269 
546	 0.258701485886265 
547	 0.25931190167688 
548	 0.259837565651784 
549	 0.260285946026251 
550	 0.260751720832138 
551	 0.261126115096337 
552	 0.26143064418638 
553	 0.261682474052189 
554	 0.26182252334221 
555	 0.261877175354498 
556	 0.261877264762847 
557	 0.261843198821526 
558	 0.261691197729231 
559	 0.26149126774535 
560	 0.261260581906733 
561	 0.260923470303819 
562	 0.260527423095789 
563	 0.260086564569051 
564	 0.259596001392449 
565	 0.25901921892114 
566	 0.258345790350319 
567	 0.257587411314977 
568	 0.256777316468737 
569	 0.255996684236186 
570	 0.255165425109783 
571	 0.254222159218805 
572	 0.253192576397512 
573	 0.252173402121862 
574	 0.251145150663849 
575	 0.25005041862324 
576	 0.248936900114607 
577	 0.24774801489133 
578	 0.246487785472206 
579	 0.245235199508814 
580	 0.243851971122776 
581	 0.242432580050785 
582	 0.241046247900127 
583	 0.239515962753233 
584	 0.237961828939501 
585	 0.236392423033105 
586	 0.234753784071602 
587	 0.233097130157107 
588	 0.231372748245857 
589	 0.229578285461593 
590	 0.227807741963231 
591	 0.225975774445502 
592	 0.22413946169261 
593	 0.222370229555396 
594	 0.220603732570635 
595	 0.218831528032287 
596	 0.217058853943646 
597	 0.215302374112381 
598	 0.213460613110374 
599	 0.211583803033043 
600	 0.209706046467205 
601	 0.207758358747822 
602	 0.205857310664746 
603	 0.203973599041488 
604	 0.202028325418832 
605	 0.200057563057578 
606	 0.198131474797244 
607	 0.196266038367848 
608	 0.194412595533476 
609	 0.192516807028758 
610	 0.190651166853115 
611	 0.188872088879694 
612	 0.187093776535361 
613	 0.185289037837858 
614	 0.183484197975606 
615	 0.181736236493892 
616	 0.180041408970241 
617	 0.178370556383668 
618	 0.176705101254174 
619	 0.175048412578726 
620	 0.173401107275039 
621	 0.171781877226842 
622	 0.17020194080912 
623	 0.168605502437055 
624	 0.167063471984303 
625	 0.165574658330526 
626	 0.164067035687848 
627	 0.162577288043916 
628	 0.161127024258398 
629	 0.159716143256481 
630	 0.158297823063713 
631	 0.156914039666554 
632	 0.155574374691658 
633	 0.154269083604086 
634	 0.152953295280702 
635	 0.151650672510791 
636	 0.150390913381746 
637	 0.149206101717151 
638	 0.147983251969083 
639	 0.146751759751721 
640	 0.14557003564506 
641	 0.144469007418459 
642	 0.143341045742736 
643	 0.142215320699487 
644	 0.141188719024947 
645	 0.140155604549259 
646	 0.139101514502215 
647	 0.138048487270463 
648	 0.137053943768258 
649	 0.13612066296519 
650	 0.135190739115631 
651	 0.13421598153574 
652	 0.133267890763326 
653	 0.132383818352341 
654	 0.131538817052016 
655	 0.130664423250631 
656	 0.12980186306738 
657	 0.128984703512935 
658	 0.128211578724402 
659	 0.127405620791746 
660	 0.126629250143367 
661	 0.125891387437571 
662	 0.125175427720848 
663	 0.124441211362606 
664	 0.12372020318938 
665	 0.123023262446783 
666	 0.122337444219536 
667	 0.121671919127432 
668	 0.121022282257888 
669	 0.120385117809242 
670	 0.119764740027224 
671	 0.119144099720055 
672	 0.118531611618849 
673	 0.117944042098244 
674	 0.117370047010253 
675	 0.116804133519677 
676	 0.116239765854433 
677	 0.115669130494073 
678	 0.11510794940596 
679	 0.114569578039766 
680	 0.114055172434422 
681	 0.113531795431294 
682	 0.113023626134242 
683	 0.112537725808304 
684	 0.112067656463045 
685	 0.111587446075915 
686	 0.111103621238343 
687	 0.11062369548264 
688	 0.110150050610947 
689	 0.109717296928263 
690	 0.10928445540913 
691	 0.108820363663786 
692	 0.108403393700152 
693	 0.107982030909688 
694	 0.107553783879474 
695	 0.107145534398173 
696	 0.106734718806697 
697	 0.106319542908497 
698	 0.105911506210077 
699	 0.105538313152187 
700	 0.105160429471078 
701	 0.104778126880669 
702	 0.104402822476149 
703	 0.104041130663139 
704	 0.103686573393108 
705	 0.103331713154053 
706	 0.102970925805312 
707	 0.102627952225739 
708	 0.102275770096248 
709	 0.101911686462061 
710	 0.101584481289642 
711	 0.101260659951311 
712	 0.100946682719213 
713	 0.100650922794197 
714	 0.10034555312919 
715	 0.100027051882507 
716	 9.97014086882467E-02 
717	 9.93840750684851E-02 
718	 9.91059759946717E-02 
719	 9.88363994781507E-02 
720	 9.85528900374359E-02 
721	 9.82606217090812E-02 
722	 0.098002910244084 
723	 9.77403413447469E-02 
724	 9.74357247970772E-02 
725	 9.71628415271668E-02 
726	 9.69096186831481E-02 
727	 9.66611448112212E-02 
728	 9.64043683526065E-02 
729	 9.61620789820983E-02 
730	 0.095902806309371 
731	 9.56351338572694E-02 
732	 9.54442106639887E-02 
733	 0.095246557927356 
734	 0.09502233394415 
735	 0.094779458180671 
736	 9.45524697439932E-02 
737	 9.43306151434237E-02 
738	 9.41160768390205E-02 
739	 9.39181373967676E-02 
740	 9.37265001496703E-02 
741	 9.35299923471473E-02 
742	 9.33286741521796E-02 
743	 9.31384065447538E-02 
744	 9.29357432841069E-02 
745	 9.27579669057067E-02 
746	 9.26255148617385E-02 
747	 9.24535177110014E-02 
748	 9.22576541912656E-02 
749	 9.20659397676897E-02 
750	 0.091909996008307 
751	 9.17888089844206E-02 
752	 9.16539689727594E-02 
753	 9.14884579344006E-02 
754	 9.13220841643075E-02 
755	 9.11751431795245E-02 
756	 9.10488580091398E-02 
757	 9.09286280777533E-02 
758	 9.07728193094589E-02 
759	 9.06279632730607E-02 
760	 0.090491394413941 
761	 9.03457231276156E-02 
762	 9.02409048244049E-02 
763	 9.01351627875807E-02 
764	 9.00185657038919E-02 
765	 8.99202974178253E-02 
766	 8.98082598822693E-02 
767	 8.96941181404878E-02 
768	 8.95858803187893E-02 
769	 8.94611428125029E-02 
770	 8.93530996065035E-02 
771	 8.92640963581902E-02 
772	 8.91832996508793E-02 
773	 8.91013345592025E-02 
774	 0.089012382190627 
775	 8.89164464494007E-02 
776	 8.88202910290811E-02 
777	 8.87537149034897E-02 
778	 8.86876249205375E-02 
779	 8.86034181850761E-02 
780	 8.85148840257639E-02 
781	 0.088444898526304 
782	 8.83693896749282E-02 
783	 8.82763916950891E-02 
784	 8.82500910323874E-02 
785	 8.82085758000138E-02 
786	 8.81375333490438E-02 
787	 8.80647951079289E-02 
788	 8.80018734300698E-02 
789	 8.79410255244915E-02 
790	 8.78792217539297E-02 
791	 8.78219739433273E-02 
792	 8.77858109387501E-02 
793	 8.77517565472719E-02 
794	 8.77081587036216E-02 
795	 8.76800101456074E-02 
796	 8.76543474135666E-02 
797	 0.087626104844958 
798	 8.75895843418836E-02 
799	 8.75200423527137E-02 
800	 8.74777188490876E-02 
801	 8.74582643017571E-02 
802	 8.74112975557649E-02 
803	 8.73908608058933E-02 
804	 8.73725346376287E-02 
805	 8.73439963786062E-02 
806	 8.73261290217547E-02 
807	 8.73166291131179E-02 
808	 8.73036838719078E-02 
809	 8.72843284266113E-02 
810	 8.72928800524329E-02 
811	 8.72728434295679E-02 
812	 8.72394932817055E-02 
813	 8.72356925078525E-02 
814	 8.72567299935609E-02 
815	 8.72673205215829E-02 
816	 8.72551613874236E-02 
817	 8.72338883457158E-02 
818	 8.72396750119092E-02 
819	 8.72480375373229E-02 
820	 8.72456792600189E-02 
821	 8.72539505986005E-02 
822	 8.72559989880403E-02 
823	 8.72655278296612E-02 
824	 8.72900212100034E-02 
825	 0.087290076548256 
826	 8.73195165211657E-02 
827	 0.087365058562427 
828	 0.087391480072603 
829	 8.74356332571376E-02 
830	 8.74849714719478E-02 
831	 8.75233832990248E-02 
832	 8.75392352264054E-02 
833	 8.75721912633964E-02 
834	 8.76175262680509E-02 
835	 8.76676814832086E-02 
836	 8.77220300770125E-02 
837	 8.77682391539265E-02 
838	 8.78163284483525E-02 
839	 0.087877946544667 
840	 8.79539556043051E-02 
841	 8.80245089337339E-02 
842	 0.08808950527009 
843	 8.81573754929766E-02 
844	 8.82297234668119E-02 
845	 8.83090706006347E-02 
846	 8.84014799243308E-02 
847	 8.85104788876308E-02 
848	 8.85977728150316E-02 
849	 8.86867279843071E-02 
850	 8.87917174657015E-02 
851	 8.89051137744073E-02 
852	 8.90060269036364E-02 
853	 8.91159489238875E-02 
854	 8.92550492390725E-02 
855	 8.94246549072531E-02 
856	 8.95500481224132E-02 
857	 8.96549746455779E-02 
858	 8.97849983191177E-02 
859	 8.99370357656604E-02 
860	 9.00682267389013E-02 
861	 9.02037084752576E-02 
862	 0.090388834766452 
863	 9.05648876393087E-02 
864	 0.090709004148909 
865	 9.08616963199485E-02 
866	 9.10951512491018E-02 
867	 9.12412550392026E-02 
868	 9.14149845758432E-02 
869	 9.16438652061962E-02 
870	 9.17895705903396E-02 
871	 9.19976785409388E-02 
872	 9.22378220246564E-02 
873	 9.24600780160975E-02 
874	 9.26579664838902E-02 
875	 9.28840428740319E-02 
876	 9.31226787356378E-02 
877	 0.093349585604055 
878	 9.35949661529152E-02 
879	 9.38326781139522E-02 
880	 9.40785121734594E-02 
881	 9.43553968803135E-02 
882	 9.46078926857075E-02 
883	 9.48741921664038E-02 
884	 9.51583633323733E-02 
885	 9.54377558248506E-02 
886	 9.57354790648828E-02 
887	 9.59964856141541E-02 
888	 9.62403384617741E-02 
889	 9.65718333614629E-02 
890	 9.69344249811598E-02 
891	 9.72704503219866E-02 
892	 9.75548203845134E-02 
893	 9.78174335612624E-02 
894	 9.81712693580964E-02 
895	 9.85455297996336E-02 
896	 0.098877425412997 
897	 9.92622577083333E-02 
898	 9.96148504677287E-02 
899	 9.99481539976469E-02 
900	 0.100295968117758 
901	 0.100628670439045 
902	 0.100989212501707 
903	 0.101398921662653 
904	 0.101843128637486 
905	 0.102197241169717 
906	 0.102598721392299 
907	 0.103043028085278 
908	 0.103427875283442 
909	 0.10382152008518 
910	 0.104246471743648 
911	 0.10469389591077 
912	 0.105132068495052 
913	 0.105599335830135 
914	 0.10604997914498 
915	 0.106491286679616 
916	 0.107010114111388 
917	 0.107440635437166 
918	 0.107874570778899 
919	 0.108381672063348 
920	 0.108891760723333 
921	 0.109381925144025 
922	 0.109843886152671 
923	 0.110301934336102 
924	 0.110844187442383 
925	 0.111360880448145 
926	 0.11186076548869 
927	 0.112381954671086 
928	 0.112922578433606 
929	 0.113431475855826 
930	 0.113944255959491 
931	 0.11450290498458 
932	 0.115004782634294 
933	 0.115530568332697 
934	 0.116087234448948 
935	 0.116640667246052 
936	 0.117187043910897 
937	 0.117790001057932 
938	 0.118411627848737 
939	 0.118959982680396 
940	 0.119494773645245 
941	 0.120071112344832 
942	 0.120688427179362 
943	 0.121298337475573 
944	 0.121883254318473 
945	 0.122448602629587 
946	 0.123030929653099 
947	 0.123677558442238 
948	 0.124249948282817 
949	 0.124801877929424 
950	 0.125377223053799 
951	 0.125968837421349 
952	 0.126584424255815 
953	 0.127196578860669 
954	 0.127803779218387 
955	 0.12844763527233 
956	 0.12903757082514 
957	 0.129641766694923 
958	 0.130301086378042 
959	 0.13095290325945 
960	 0.131563252184924 
961	 0.132165834030738 
962	 0.132811201768041 
963	 0.133542530934704 
964	 0.134160129227272 
965	 0.134769914353521 
966	 0.135454938041757 
967	 0.136057600592426 
968	 0.136662646186732 
969	 0.137304478200846 
970	 0.137984050705441 
971	 0.138659301573239 
972	 0.139292157081393 
973	 0.139912699934799 
974	 0.140565473794758 
975	 0.141266657311398 
976	 0.141965245686774 
977	 0.142662473615511 
978	 0.143357001846428 
979	 0.143981424715456 
980	 0.144609801172491 
981	 0.145272494867012 
982	 0.145961846377077 
983	 0.146612271923597 
984	 0.147239585239465 
985	 0.147937938829354 
986	 0.148734563056714 
987	 0.149355461196142 
988	 0.149989164727236 
989	 0.150618742566521 
990	 0.151197727009234 
991	 0.151838490842581 
992	 0.152488675442235 
993	 0.153152031503247 
994	 0.15384075565616 
995	 0.154536651229365 
996	 0.155134867210848 
997	 0.15573814789071 
998	 0.156454119101606 
999	 0.157136637122274 
1000	 0.157871136044807 
1001	 0.158202593387688 
1002	 0.158863999590327 
1003	 0.159523929691688 
1004	 0.160118686078083 
1005	 0.160663350085215 
1006	 0.161239360056581 
1007	 0.161761792195923 
1008	 0.162362812164 
1009	 0.163014355259277 
1010	 0.163631549145685 
1011	 0.164310589539855 
1012	 0.164905072499223 
1013	 0.165413628315215 
1014	 0.165975568985867 
1015	 0.166526015793452 
1016	 0.167079035010216 
1017	 0.167665646152447 
1018	 0.168231892471588 
1019	 0.168784944779321 
1020	 0.169318974790312 
1021	 0.169859150505389 
1022	 0.170393156401913 
1023	 0.170955482996012 
1024	 0.171540757629233 
1025	 0.172090683788862 
1026	 0.172648570583183 
1027	 0.173186608718727 
1028	 0.173695243445872 
1029	 0.174210462754663 
1030	 0.174724834936074 
1031	 0.175208251028215 
1032	 0.175683785014088 
1033	 0.176178628622881 
1034	 0.176686435463991 
1035	 0.177201758715744 
1036	 0.177706236854909 
1037	 0.178236117943448 
1038	 0.178708693046018 
1039	 0.179137463606692 
1040	 0.179597367812641 
1041	 0.180032155948207 
1042	 0.18047474774814 
1043	 0.180940120508349 
1044	 0.181405470301299 
1045	 0.181828951921386 
1046	 0.182247567688916 
1047	 0.182632829783293 
1048	 0.183023056995885 
1049	 0.183405208136327 
1050	 0.183773170657181 
1051	 0.184176373284724 
1052	 0.184555483756041 
1053	 0.184935480365459 
1054	 0.185342793540895 
1055	 0.185701134439078 
1056	 0.18603019922734 
1057	 0.186354875179935 
1058	 0.18665320553625 
1059	 0.186930697161325 
1060	 0.187236317389465 
1061	 0.187532372761828 
1062	 0.187824535050468 
1063	 0.188092978050314 
1064	 0.1883159969978 
1065	 0.188578402195231 
1066	 0.188858317907326 
1067	 0.189125172017116 
1068	 0.189409350049795 
1069	 0.189647388242186 
1070	 0.189870383408628 
1071	 0.190048878930007 
1072	 0.190253161382816 
1073	 0.190457567565584 
1074	 0.190664559909355 
1075	 0.19085914901652 
1076	 0.191038297410269 
1077	 0.191238176276349 
1078	 0.191419875633876 
1079	 0.191601434214392 
1080	 0.191771745615731 
1081	 0.191889708897616 
1082	 0.192020959432282 
1083	 0.192158012578253 
1084	 0.192304904022981 
1085	 0.192460692885821 
1086	 0.192604107847015 
1087	 0.192740471137907 
1088	 0.192888906527196 
1089	 0.193012188530957 
1090	 0.193103197101146 
1091	 0.193209019857412 
1092	 0.193314355191861 
1093	 0.193420693043436 
1094	 0.193558165805539 
1095	 0.193681728375751 
1096	 0.193780978984378 
1097	 0.193882532102948 
1098	 0.193969268154999 
1099	 0.19405798759781 
1100	 0.194158113645997 
1101	 0.194248661200454 
1102	 0.194352178430911 
1103	 0.194449624824402 
1104	 0.19455947035662 
1105	 0.194632117450667 
1106	 0.194711026367008 
1107	 0.194800228774911 
1108	 0.194853941623812 
1109	 0.194920615812476 
1110	 0.195009223161493 
1111	 0.195068354865506 
1112	 0.19513783942434 
1113	 0.195250457922053 
1114	 0.195340517164476 
1115	 0.195405369936851 
1116	 0.195481011744048 
1117	 0.195537181770708 
1118	 0.195594980555482 
1119	 0.195649257179873 
1120	 0.195704734927759 
1121	 0.195759094562143 
1122	 0.195806682982778 
1123	 0.195870863164536 
1124	 0.195925427543426 
1125	 0.1959780964247 
1126	 0.196042972479465 
1127	 0.19609472379428 
1128	 0.196138540333339 
1129	 0.196174987946838 
1130	 0.196219634433347 
1131	 0.196276455200652 
1132	 0.196326669672268 
1133	 0.196380084832536 
1134	 0.196422995658616 
1135	 0.196457490412806 
1136	 0.19646964990196 
1137	 0.196495019213771 
1138	 0.196516793605537 
1139	 0.19654806203911 
1140	 0.196594856228947 
1141	 0.196620058095258 
1142	 0.196627430675117 
1143	 0.196645572986702 
1144	 0.196643999962914 
1145	 0.196647181513728 
1146	 0.196672959646111 
1147	 0.196697779871417 
1148	 0.196719529629051 
1149	 0.196730006757825 
1150	 0.196742173594544 
1151	 0.196752461265395 
1152	 0.196752557844672 
1153	 0.196740828020814 
1154	 0.196741504608074 
1155	 0.196738479695733 
1156	 0.19673976549389 
1157	 0.196759186280479 
1158	 0.196759698222366 
1159	 0.196757476224512 
1160	 0.196733252280112 
1161	 0.196704258343005 
1162	 0.196685473897414 
1163	 0.196669252211232 
1164	 0.196661470165872 
1165	 0.196648931335188 
1166	 0.19663315685076 
1167	 0.196621504999139 
1168	 0.196618435057022 
1169	 0.196615982194998 
1170	 0.196626007397362 
1171	 0.19662563945376 
1172	 0.196615819019638 
1173	 0.196617222329968 
1174	 0.196623453975739 
1175	 0.196627945627305 
1176	 0.196638311438864 
1177	 0.196646705765917 
1178	 0.196649470861781 
1179	 0.196661311668474 
1180	 0.196669302525021 
1181	 0.196672966856664 
1182	 0.196681198547015 
1183	 0.196687707372194 
1184	 0.196699854429667 
1185	 0.196706858674664 
1186	 0.196727209272075 
1187	 0.19674610481564 
1188	 0.196785635312516 
1189	 0.196843794062593 
1190	 0.19690020296457 
1191	 0.196969012134127 
1192	 0.197034822247746 
1193	 0.19709927819554 
1194	 0.197170268960162 
1195	 0.1972411745966 
1196	 0.197322286484843 
1197	 0.197404424513484 
1198	 0.197505886033513 
1199	 0.197620660326406 
1200	 0.197723386368764 
1201	 0.197840045219786 
1202	 0.197959377696365 
1203	 0.198069111786632 
1204	 0.198204365185033 
1205	 0.198336136406861 
1206	 0.198459349001512 
1207	 0.198614981232714 
1208	 0.198784539163456 
1209	 0.198965589536789 
1210	 0.19916468825877 
1211	 0.199381977908561 
1212	 0.199607855132439 
1213	 0.199860711671668 
1214	 0.200143733253749 
1215	 0.200434005667054 
1216	 0.200746432253765 
1217	 0.201059135660398 
1218	 0.201381430650636 
1219	 0.201710131382495 
1220	 0.202044555154522 
1221	 0.202405527003577 
1222	 0.202753240560569 
1223	 0.203112512025861 
1224	 0.203474633661958 
1225	 0.203843377318195 
1226	 0.204189468536667 
1227	 0.204534630174336 
1228	 0.204878356576831 
1229	 0.205201979049728 
1230	 0.20553903683026 
1231	 0.205897301491572 
1232	 0.206230509881443 
1233	 0.206551774827651 
1234	 0.206865151950601 
1235	 0.207162849074462 
1236	 0.207464881043062 
1237	 0.207759303127278 
1238	 0.208056090667755 
1239	 0.208355158537013 
1240	 0.208651063917176 
1241	 0.208942799520816 
1242	 0.209238257237912 
1243	 0.209540063500652 
1244	 0.209846037895615 
1245	 0.210149870595866 
1246	 0.210461302393435 
1247	 0.210765477583714 
1248	 0.21105952488926 
1249	 0.211368956762945 
1250	 0.211682929196504 
1251	 0.211998571408191 
1252	 0.212330685486997 
1253	 0.21264642085184 
1254	 0.212953917718005 
1255	 0.213267348738567 
1256	 0.213571172717991 
1257	 0.213886500592344 
1258	 0.214216376855086 
1259	 0.214537514892085 
1260	 0.214855723367813 
1261	 0.215179854882506 
1262	 0.215495175428698 
1263	 0.215828876186204 
1264	 0.216159400248559 
1265	 0.216501540087221 
1266	 0.216829509639322 
1267	 0.217151648607814 
1268	 0.217476389578835 
1269	 0.217793178054692 
1270	 0.218120452347595 
1271	 0.218456621024921 
1272	 0.218785922244712 
1273	 0.219111493048916 
1274	 0.219444696565689 
1275	 0.219782022465354 
1276	 0.220111377275556 
1277	 0.220447243915408 
1278	 0.220771647340829 
1279	 0.221070817435135 
1280	 0.221390315945339 
1281	 0.221714610750139 
1282	 0.222042407497618 
1283	 0.222384480528923 
1284	 0.222720423489446 
1285	 0.223054412746091 
1286	 0.223384576509732 
1287	 0.223716769765885 
1288	 0.224049125387241 
1289	 0.22437888606836 
1290	 0.224703782185023 
1291	 0.225037812224938 
1292	 0.225368004314329 
1293	 0.225711325320492 
1294	 0.226069763469166 
1295	 0.226418327904091 
1296	 0.22677473121926 
1297	 0.227116696519452 
1298	 0.227442163120355 
1299	 0.227779781728553 
1300	 0.228108871846752 
1301	 0.228452495901669 
1302	 0.228802111692057 
1303	 0.229164434181189 
1304	 0.229550626966273 
1305	 0.229920381998741 
1306	 0.230274014068684 
1307	 0.230655012385191 
1308	 0.231026765022683 
1309	 0.231430645962056 
1310	 0.23183518334134 
1311	 0.2322760473461 
1312	 0.23268023478914 
1313	 0.233062137858521 
1314	 0.23347516758333 
1315	 0.233889738088118 
1316	 0.234314268812138 
1317	 0.234766038497213 
1318	 0.235196873050974 
1319	 0.235617088081178 
1320	 0.236045108922712 
1321	 0.236466373880953 
1322	 0.236901721466757 
1323	 0.237343479679646 
1324	 0.237791144485741 
1325	 0.238247731419186 
1326	 0.238708182551322 
1327	 0.239178221169343 
1328	 0.239643716454376 
1329	 0.240117421002629 
1330	 0.240579747277286 
1331	 0.241026378899463 
1332	 0.241484423069822 
1333	 0.241934997227397 
1334	 0.242407192449415 
1335	 0.242860398042362 
1336	 0.243307966218213 
1337	 0.243781388640245 
1338	 0.244262462249211 
1339	 0.244726610334531 
1340	 0.245208069067722 
1341	 0.245671699519062 
1342	 0.246115340986439 
1343	 0.246553992745881 
1344	 0.24698831207082 
1345	 0.247431668700633 
1346	 0.247860740196188 
1347	 0.248297524298255 
1348	 0.248759136474415 
1349	 0.249198814668871 
1350	 0.249619138480263 
1351	 0.250050894014283 
1352	 0.250484043721603 
1353	 0.250917761800008 
1354	 0.25136124037455 
1355	 0.251789758869392 
1356	 0.252198729250164 
1357	 0.252628434821502 
1358	 0.25307213408799 
1359	 0.253502406639391 
1360	 0.253941294281501 
1361	 0.254376384556682 
1362	 0.254791294646002 
1363	 0.255168377763602 
1364	 0.255571997305525 
1365	 0.255974003912266 
1366	 0.256375719431394 
1367	 0.256790684843938 
1368	 0.257179113964271 
1369	 0.257556976037543 
1370	 0.257926264846246 
1371	 0.258273881684483 
1372	 0.258634489610096 
1373	 0.259003079950078 
1374	 0.259350355588548 
1375	 0.259701109499303 
1376	 0.260031408729569 
1377	 0.260337765671463 
1378	 0.260646287004265 
1379	 0.260948267902857 
1380	 0.261245383410792 
1381	 0.26153865410674 
1382	 0.261823810104696 
1383	 0.262095369956716 
1384	 0.262373104088469 
1385	 0.262632978850926 
1386	 0.262915899533015 
1387	 0.263212077415518 
1388	 0.263511833071505 
1389	 0.263822895956433 
1390	 0.264141180715084 
1391	 0.264460320538656 
1392	 0.264799072173628 
1393	 0.265140722547521 
1394	 0.265480816302012 
1395	 0.265797233492816 
1396	 0.266107579653435 
1397	 0.266391121974664 
1398	 0.266662661153267 
1399	 0.266895304582865 
1400	 0.267109528020879 
1401	 0.267282566609121 
1402	 0.267419952212131 
1403	 0.267524897724706 
1404	 0.267592590297516 
1405	 0.267642066441356 
1406	 0.267641878150141 
1407	 0.267662876901559 
1408	 0.267657159469972 
1409	 0.267686884229157 
1410	 0.26770510107401 
1411	 0.267788118002363 
1412	 0.267893139337512 
1413	 0.268053669827743 
1414	 0.268260827441768 
1415	 0.268519025165787 
1416	 0.268844691593888 
1417	 0.269181275553652 
1418	 0.269580233786912 
1419	 0.269969110382967 
1420	 0.270372633765662 
1421	 0.270771977778414 
1422	 0.271173409984939 
1423	 0.271580256643972 
1424	 0.271980500344051 
1425	 0.272400574343143 
1426	 0.272811521209794 
1427	 0.273248832240448 
1428	 0.273702881280018 
1429	 0.274143810495433 
1430	 0.274606272399454 
1431	 0.275085914891945 
1432	 0.275565652317832 
1433	 0.276042885539834 
1434	 0.276555398671073 
1435	 0.277088217882286 
1436	 0.277629612873491 
1437	 0.278198015205709 
1438	 0.278758288097509 
1439	 0.279315168193846 
1440	 0.279893617745506 
1441	 0.280493435574305 
1442	 0.281086011474714 
1443	 0.281674946328192 
1444	 0.282294418244316 
1445	 0.282928164632007 
1446	 0.283560067451699 
1447	 0.284221409540378 
1448	 0.284868732348366 
1449	 0.285508805146449 
1450	 0.286147132488925 
1451	 0.286783181997086 
1452	 0.287429429698822 
1453	 0.288073468121936 
1454	 0.28871609016428 
1455	 0.289370500536522 
1456	 0.290019789268575 
1457	 0.290659201394614 
1458	 0.291307537088065 
1459	 0.291955680214729 
1460	 0.292616873817214 
1461	 0.293289182337423 
1462	 0.293958233251984 
1463	 0.294638730275067 
1464	 0.295315185451547 
1465	 0.295973584598419 
1466	 0.296668096948423 
1467	 0.297308504097214 
1468	 0.297979348019173 
1469	 0.298684741990608 
1470	 0.299335650661706 
1471	 0.300011733859714 
1472	 0.300709490718589 
1473	 0.301394314226999 
1474	 0.302073077750808 
1475	 0.302735336360754 
1476	 0.303396773277547 
1477	 0.304057459613776 
1478	 0.30469569138703 
1479	 0.305336289864318 
1480	 0.305994577527342 
1481	 0.306625326506253 
1482	 0.307232591180471 
1483	 0.307843494310425 
1484	 0.308449954406903 
1485	 0.309052286192753 
1486	 0.309651731618982 
1487	 0.310232633747344 
1488	 0.310800568999683 
1489	 0.311369632331066 
1490	 0.311914308615135 
1491	 0.312485983252636 
1492	 0.313056891461284 
1493	 0.31366048714267 
1494	 0.314295633926058 
1495	 0.314918969907619 
1496	 0.315561809241806 
1497	 0.316200129953547 
1498	 0.316829215356402 
1499	 0.317467833356635 
1500	 0.318112568691374 
1501	 0.318766924927543 
1502	 0.319435932661462 
1503	 0.320087717846838 
1504	 0.320729141192528 
1505	 0.321389752155504 
1506	 0.322050920852626 
1507	 0.322713448152338 
1508	 0.323395460687338 
1509	 0.324074299376414 
1510	 0.324745991035324 
1511	 0.325413834808286 
1512	 0.326078556470074 
1513	 0.326756323534333 
1514	 0.32744197444426 
1515	 0.328119468176831 
1516	 0.328790333499102 
1517	 0.329482762876335 
1518	 0.330177416784131 
1519	 0.33087360852191 
1520	 0.331587540517741 
1521	 0.332312261576192 
1522	 0.333022193205415 
1523	 0.333755277035055 
1524	 0.334466630394585 
1525	 0.335180687125345 
1526	 0.335901859502752 
1527	 0.336607756682284 
1528	 0.337334900571711 
1529	 0.338081879782714 
1530	 0.338828140248298 
1531	 0.339570181122212 
1532	 0.340338915809793 
1533	 0.341122234259507 
1534	 0.341925570148194 
1535	 0.342755514212686 
1536	 0.343567726186397 
1537	 0.344391449733747 
1538	 0.345210137540746 
1539	 0.346018707117454 
1540	 0.346836118606669 
1541	 0.347659296778178 
1542	 0.348490281300668 
1543	 0.34932245402468 
1544	 0.35015796491275 
1545	 0.351017091831266 
1546	 0.351842414115003 
1547	 0.352658686295387 
1548	 0.353457772994882 
1549	 0.35422250795683 
1550	 0.355016942521113 
1551	 0.355810668355219 
1552	 0.356609833751558 
1553	 0.357422826461732 
1554	 0.35823688028133 
1555	 0.359056903921638 
1556	 0.359865007330134 
1557	 0.360673050177409 
1558	 0.361484897131678 
1559	 0.362290838439122 
1560	 0.36309267412588 
1561	 0.363898472193449 
1562	 0.364705807963195 
1563	 0.3655043386783 
1564	 0.366305210364668 
1565	 0.367114268802637 
1566	 0.367921867368032 
1567	 0.368719501967877 
1568	 0.369528208185715 
1569	 0.37035335190181 
1570	 0.371165669400798 
1571	 0.371977734142553 
1572	 0.372780860453371 
1573	 0.373569144568427 
1574	 0.37436881793735 
1575	 0.375176981116394 
1576	 0.375969907667333 
1577	 0.37675011174599 
1578	 0.377548977669204 
1579	 0.378340919563228 
1580	 0.379144224217433 
1581	 0.379972833058441 
1582	 0.380793315307023 
1583	 0.381609567596747 
1584	 0.382430190656866 
1585	 0.38325526823103 
1586	 0.384082655228092 
1587	 0.384917672247431 
1588	 0.385739136942939 
1589	 0.386546629477469 
1590	 0.387372857557659 
1591	 0.388196108812373 
1592	 0.389031397762469 
1593	 0.389873493322615 
1594	 0.390742516472617 
1595	 0.391641755238744 
1596	 0.392519251757187 
1597	 0.393412326007316 
1598	 0.394298864465663 
1599	 0.395166786929084 
1600	 0.396037712919033 
1601	 0.39691602912223 
1602	 0.397793116597057 
1603	 0.398660042064637 
1604	 0.399525833040141 
1605	 0.40039851621987 
1606	 0.401266264807382 
1607	 0.402138244556878 
1608	 0.402991021937822 
1609	 0.403825242319737 
1610	 0.404671677405229 
1611	 0.405517483026181 
1612	 0.406342777063958 
1613	 0.407171709219201 
1614	 0.407987778557043 
1615	 0.408789995258927 
1616	 0.409571130311203 
1617	 0.410334450946373 
1618	 0.41109880691729 
1619	 0.411837112581529 
1620	 0.412574861608574 
1621	 0.413318507650301 
1622	 0.414054776245995 
1623	 0.414789615824337 
1624	 0.415504916323836 
1625	 0.4162035916512 
1626	 0.416910734394633 
1627	 0.417605109411547 
1628	 0.418292741385958 
1629	 0.418995915161536 
1630	 0.419674955989972 
1631	 0.42032949726932 
1632	 0.420985523801618 
1633	 0.421625040872643 
1634	 0.422274300466483 
1635	 0.422920610195407 
1636	 0.423566789914886 
1637	 0.424222051529339 
1638	 0.424872030578833 
1639	 0.425544100618675 
1640	 0.426168881202604 
1641	 0.426773331786585 
1642	 0.427359730282383 
1643	 0.427900136140253 
1644	 0.428435903262602 
1645	 0.428969065852307 
1646	 0.429477937852223 
1647	 0.429972293650765 
1648	 0.430443621723122 
1649	 0.430889060020585 
1650	 0.431322359916509 
1651	 0.431731807485581 
1652	 0.432122890592109 
1653	 0.432534653080603 
1654	 0.432864453947006 
1655	 0.433147883533252 
1656	 0.433388583532082 
1657	 0.43356728316364 
1658	 0.433706611856389 
1659	 0.433825104281166 
1660	 0.433861555729678 
1661	 0.433826318401325 
1662	 0.433744391414646 
1663	 0.433595320715313 
1664	 0.433400344492806 
1665	 0.433172796098803 
1666	 0.43285974890838 
1667	 0.432494310870416 
1668	 0.432030926434389 
1669	 0.431475033143075 
1670	 0.430854985624709 
1671	 0.430139513997151 
1672	 0.429369131846162 
1673	 0.428529542651878 
1674	 0.427628756247329 
1675	 0.426658577117038 
1676	 0.42565491268876 
1677	 0.424608041985758 
1678	 0.42349111835566 
1679	 0.422303640722016 
1680	 0.421065078675017 
1681	 0.419751029254084 
1682	 0.418402701209025 
1683	 0.417007181315358 
1684	 0.41560576921065 
1685	 0.414165310459879 
1686	 0.412699489582851 
1687	 0.411191914771417 
1688	 0.409681375233866 
1689	 0.408133753808537 
1690	 0.406599521958259 
1691	 0.405088887094301 
1692	 0.403569436874216 
1693	 0.402042739358329 
1694	 0.400502746733906 
1695	 0.398951693146647 
1696	 0.39736823121715 
1697	 0.395770706631171 
1698	 0.39412976562377 
1699	 0.392440848523932 
1700	 0.390826430630897 
1701	 0.389183206124852 
1702	 0.387633669930307 
1703	 0.386116536723036 
1704	 0.384701357634808 
1705	 0.38333898310394 
1706	 0.382073532973515 
1707	 0.380972225693971 
1708	 0.379918281098596 
1709	 0.378948185598662 
1710	 0.378078603160835 
1711	 0.37723251918586 
1712	 0.376437027138489 
1713	 0.375675528079936 
1714	 0.374942582804714 
1715	 0.374288948481634 
1716	 0.373664601346151 
1717	 0.373071351901239 
1718	 0.372531539260319 
1719	 0.372025014168536 
1720	 0.371598428222864 
1721	 0.37129182569758 
1722	 0.371076069454472 
1723	 0.37099053391202 
1724	 0.371058522216331 
1725	 0.371245557501125 
1726	 0.371648080100811 
1727	 0.372303109990603 
1728	 0.373134262138727 
1729	 0.374216068668591 
1730	 0.375522765433 
1731	 0.376871397059369 
1732	 0.378385254113511 
1733	 0.379981677320966 
1734	 0.381583722950943 
1735	 0.383257868375285 
1736	 0.384840694856589 
1737	 0.386309089693453 
1738	 0.387649742432336 
1739	 0.388796662045894 
1740	 0.3897937340026 
1741	 0.390653885457264 
1742	 0.391319318362634 
1743	 0.391904949561366 
1744	 0.392349233266022 
1745	 0.392727846123707 
1746	 0.392953077957004 
1747	 0.393194216107706 
1748	 0.39336568081471 
1749	 0.393553020988504 
1750	 0.393698628967631 
1751	 0.39392271707373 
1752	 0.394142430772597 
1753	 0.394464768727423 
1754	 0.394848479702383 
1755	 0.395338070411322 
1756	 0.395872581544559 
1757	 0.396539801644472 
1758	 0.397377522701526 
1759	 0.398282076009566 
1760	 0.399379497424903 
1761	 0.400622261407877 
1762	 0.4018520625088 
1763	 0.40327601760742 
1764	 0.404838064109464 
1765	 0.406469099933205 
1766	 0.408317080142955 
1767	 0.41016269226928 
1768	 0.412030172596417 
1769	 0.413967464661557 
1770	 0.415763855795569 
1771	 0.417551114539446 
1772	 0.419252501213086 
1773	 0.420820073361726 
1774	 0.422421399184525 
1775	 0.423912636632468 
1776	 0.425345664955113 
1777	 0.426699124284573 
1778	 0.427859336267916 
1779	 0.428982763287888 
1780	 0.430038933728284 
1781	 0.430997132378414 
1782	 0.431972861121484 
1783	 0.432856203202362 
1784	 0.433634197096361 
1785	 0.434361945748107 
1786	 0.435035745131701 
1787	 0.435653964178391 
1788	 0.436247937412382 
1789	 0.436777636160296 
1790	 0.437308085923663 
1791	 0.437817816574647 
1792	 0.438310022341191 
1793	 0.438770838558625 
1794	 0.4392181085244 
1795	 0.439652769153531 
1796	 0.440093182027016 
1797	 0.44057600423071 
1798	 0.441079412525948 
1799	 0.441608113227967 
1800	 0.442145335864834 
1801	 0.438808881139947 
1802	 0.439278145482127 
1803	 0.439732442667961 
1804	 0.440161424703381 
1805	 0.440642803004163 
1806	 0.441098750836542 
1807	 0.441551747109239 
1808	 0.441984116625049 
1809	 0.442415451563347 
1810	 0.442839505137258 
1811	 0.443214564213499 
1812	 0.443639877571757 
1813	 0.444095152395402 
1814	 0.444559825707849 
1815	 0.444997498251777 
1816	 0.445478059518765 
1817	 0.445968109831433 
1818	 0.446458453595692 
1819	 0.446959325677399 
1820	 0.447493307855286 
1821	 0.44801942909911 
1822	 0.448538944169463 
1823	 0.449085504189899 
1824	 0.449604370994657 
1825	 0.450123833818835 
1826	 0.450621639410147 
1827	 0.451090590533438 
1828	 0.45155745947942 
1829	 0.452015761515427 
1830	 0.45247345658684 
1831	 0.452920552246476 
1832	 0.453368591652355 
1833	 0.453812833672053 
1834	 0.45424687473701 
1835	 0.454668076375064 
1836	 0.455068131227559 
1837	 0.455468170057166 
1838	 0.455849296896361 
1839	 0.456251663106043 
1840	 0.456650623933707 
1841	 0.45706670459313 
1842	 0.457489356951418 
1843	 0.457931221374125 
1844	 0.458400647898558 
1845	 0.458837511809233 
1846	 0.459302649847978 
1847	 0.45976711138225 
1848	 0.460211193475311 
1849	 0.460651713561247 
1850	 0.461078433116922 
1851	 0.461498423705765 
1852	 0.461894216460346 
1853	 0.462270169038432 
1854	 0.462609621463055 
1855	 0.462915475514446 
1856	 0.463198513826356 
1857	 0.463468787826268 
1858	 0.463724930960541 
1859	 0.463936935075592 
1860	 0.464137085038679 
1861	 0.464271033173105 
1862	 0.464367638516578 
1863	 0.46440065240862 
1864	 0.464371242588911 
1865	 0.464314790000607 
1866	 0.464192939770846 
1867	 0.463990454140268 
1868	 0.463731943741723 
1869	 0.463391758337268 
1870	 0.462990943257589 
1871	 0.462527827055928 
1872	 0.461998962632228 
1873	 0.461415259442314 
1874	 0.460763973546628 
1875	 0.460022118675714 
1876	 0.45915298629224 
1877	 0.4582266158182 
1878	 0.457151819095545 
1879	 0.455940358980194 
1880	 0.45469529462741 
1881	 0.453277873566623 
1882	 0.45170710268882 
1883	 0.450045389967537 
1884	 0.448235246449745 
1885	 0.446142106069866 
1886	 0.443972138302048 
1887	 0.441601239515778 
1888	 0.439013309190082 
1889	 0.436497045439313 
1890	 0.433801876083505 
1891	 0.431071650719882 
1892	 0.428343467825288 
1893	 0.425510860922682 
1894	 0.422528727674714 
1895	 0.41966319385104 
1896	 0.416724450836676 
1897	 0.413776509690329 
1898	 0.411101798724412 
1899	 0.408368174766619 
1900	 0.405723344261726 
1901	 0.403246270264929 
1902	 0.400646275999818 
1903	 0.398211313119636 
1904	 0.39587363479237 
1905	 0.393607611104432 
1906	 0.391408663018953 
1907	 0.38948619110541 
1908	 0.387586243195956 
1909	 0.385782692669077 
1910	 0.384123075221256 
1911	 0.382443454654667 
1912	 0.380915013197593 
1913	 0.379461148779679 
1914	 0.378053112535106 
1915	 0.376763038835943 
1916	 0.375605552947 
1917	 0.374451473887542 
1918	 0.373386892852401 
1919	 0.372408888701466 
1920	 0.371426599196949 
1921	 0.370523461748436 
1922	 0.369664064994556 
1923	 0.368852893771239 
1924	 0.368159166735998 
1925	 0.367517016758848 
1926	 0.36692046847418 
1927	 0.366389133530678 
1928	 0.365901518543541 
1929	 0.365453017762027 
1930	 0.365067592929275 
1931	 0.36473298611302 
1932	 0.364464774070544 
1933	 0.364265266861603 
1934	 0.364115195806236 
1935	 0.364029621616625 
1936	 0.364001306779888 
1937	 0.364025291708132 
1938	 0.364106001296436 
1939	 0.364234983493557 
1940	 0.364417012558253 
1941	 0.364659867710794 
1942	 0.364927258637281 
1943	 0.365216223242261 
1944	 0.365530228214109 
1945	 0.365879256660616 
1946	 0.366269489252752 
1947	 0.366665818406222 
1948	 0.367105893436137 
1949	 0.367566120419995 
1950	 0.368015857533321 
1951	 0.368473605326416 
1952	 0.368950047196794 
1953	 0.369432087700598 
1954	 0.369905252922208 
1955	 0.370430560069723 
1956	 0.370947157487868 
1957	 0.371474442434423 
1958	 0.372022990065051 
1959	 0.372533407491956 
1960	 0.373042420968236 
1961	 0.373549620116697 
1962	 0.37403734168825 
1963	 0.374536249631819 
1964	 0.375053002424057 
1965	 0.375546496510302 
1966	 0.376042192737546 
1967	 0.37651833771046 
1968	 0.376951173611607 
1969	 0.377381067045937 
1970	 0.37778954493265 
1971	 0.378201999016338 
1972	 0.378653780443541 
1973	 0.379093863469296 
1974	 0.379539495920117 
1975	 0.380010778458989 
1976	 0.380453778677967 
1977	 0.380882397449318 
1978	 0.381315353008803 
1979	 0.381739487957578 
1980	 0.382157996796852 
1981	 0.382605022192676 
1982	 0.383015010757068 
1983	 0.383432571938823 
1984	 0.383858461328341 
1985	 0.384238907301843 
1986	 0.384641582910272 
1987	 0.385029511305472 
1988	 0.385399426216824 
1989	 0.385774957815204 
1990	 0.386168600396766 
1991	 0.386521935754526 
1992	 0.38685556122515 
1993	 0.387193835656927 
1994	 0.387494033925375 
1995	 0.387779950668035 
1996	 0.388068792715726 
1997	 0.388353157458938 
1998	 0.388629996406032 
1999	 0.388898410394435 
2000	 0.389159370300789 
2001	 0.389431616712227 
2002	 0.389661593651493 
2003	 0.389875403657656 
2004	 0.39006060387153 
2005	 0.390208983000641 
2006	 0.390341778784641 
2007	 0.390448172968984 
2008	 0.390548718164863 
2009	 0.390627641470097 
2010	 0.39068699289546 
2011	 0.390720876456626 
2012	 0.390731831918708 
2013	 0.390686941040599 
2014	 0.390605901155298 
2015	 0.390467403343577 
2016	 0.390274047530696 
2017	 0.390042896356377 
2018	 0.389763514481972 
2019	 0.389446465973309 
2020	 0.389102073190977 
2021	 0.388683989755224 
2022	 0.388233987071413 
2023	 0.387722371749501 
2024	 0.387135349624049 
2025	 0.386529749622524 
2026	 0.38589436339456 
2027	 0.385191312181064 
2028	 0.384513499255554 
2029	 0.38381596337782 
2030	 0.38312571919348 
2031	 0.382431129302587 
2032	 0.381742643250956 
2033	 0.381022778418242 
2034	 0.380370274277918 
2035	 0.379737972569054 
2036	 0.379129208702833 
2037	 0.378598771720448 
2038	 0.378107018135938 
2039	 0.377666264400286 
2040	 0.37729173568285 
2041	 0.376916618352329 
2042	 0.376579424270389 
2043	 0.376268263947046 
2044	 0.37595528056207 
2045	 0.375700274204519 
2046	 0.375500213104772 
2047	 0.375329336321428 
2048	 0.375189505391356 
2049	 0.375097013061271 
2050	 0.375058042106542 
2051	 0.375028496746519 
2052	 0.375048135075263 
2053	 0.375121743025827 
2054	 0.375229921757373 
2055	 0.375380486550905 
2056	 0.375569979340348 
2057	 0.375793482534428 
2058	 0.376071002500186 
2059	 0.376394784437696 
2060	 0.376756325797217 
2061	 0.37720403064652 
2062	 0.37763139054379 
2063	 0.378091805984721 
2064	 0.378545187271069 
2065	 0.378995930367776 
2066	 0.379436786059914 
2067	 0.379944086963796 
2068	 0.380447421901068 
2069	 0.380943403691474 
2070	 0.381483796959009 
2071	 0.381955755388514 
2072	 0.382389467342627 
2073	 0.382814692040264 
2074	 0.383200861784565 
2075	 0.383604432212936 
2076	 0.384024007984971 
2077	 0.384391979611468 
2078	 0.384769040230088 
2079	 0.385086051180153 
2080	 0.385340818604343 
2081	 0.385572801765739 
2082	 0.38576706053862 
2083	 0.385927092178559 
2084	 0.386082750618087 
2085	 0.38620743144148 
2086	 0.386321977506127 
2087	 0.386446071946287 
2088	 0.386500957771523 
2089	 0.386499354901724 
2090	 0.38650570972497 
2091	 0.386473038459039 
2092	 0.386439055786424 
2093	 0.386406348696939 
2094	 0.386355406520616 
2095	 0.38629866789375 
2096	 0.38620292787204 
2097	 0.386091940460811 
2098	 0.385950667433496 
2099	 0.385769570601944 
2100	 0.385541192077315 
2101	 0.385302890343102 
2102	 0.385030931272243 
2103	 0.384764060856934 
2104	 0.384475729639227 
2105	 0.384186728259464 
2106	 0.38389790142928 
2107	 0.383589223147009 
2108	 0.383268441787781 
2109	 0.382931879042499 
2110	 0.382572481034911 
2111	 0.382218884854433 
2112	 0.381861255954387 
2113	 0.381488981913213 
2114	 0.381110103457099 
2115	 0.380720891468889 
2116	 0.380316011161215 
2117	 0.379907430353241 
2118	 0.379480376626468 
2119	 0.379039926759106 
2120	 0.378613392325182 
2121	 0.378160155111457 
2122	 0.37774665015343 
2123	 0.377371359549383 
2124	 0.376961547516948 
2125	 0.376544397192821 
2126	 0.376142582345111 
2127	 0.375742425045164 
2128	 0.375338116636744 
2129	 0.374959582424087 
2130	 0.37454705082664 
2131	 0.374106289670403 
2132	 0.373658964914023 
2133	 0.37319938432282 
2134	 0.372744617175328 
2135	 0.372232660045729 
2136	 0.371716742218421 
2137	 0.371172473633849 
2138	 0.370572466549221 
2139	 0.370016246339868 
2140	 0.369462789239418 
2141	 0.36891202940649 
2142	 0.368382400717637 
2143	 0.367829800596824 
2144	 0.367267264839132 
2145	 0.366704503037897 
2146	 0.366110376237908 
2147	 0.365557981996373 
2148	 0.365033332132067 
2149	 0.364494893073224 
2150	 0.364000486668129 
2151	 0.363461857464871 
2152	 0.362887717285326 
2153	 0.362315945594108 
2154	 0.361723821813078 
2155	 0.361092999300412 
2156	 0.360500975084117 
2157	 0.359911821861568 
2158	 0.35931974933723 
2159	 0.358763832161811 
2160	 0.35814526667624 
2161	 0.3574847532483 
2162	 0.356850830755022 
2163	 0.356161685355623 
2164	 0.35555210348008 
2165	 0.354997529994546 
2166	 0.354431745356157 
2167	 0.35387679954948 
2168	 0.353364022709931 
2169	 0.352859333389274 
2170	 0.352393852205031 
2171	 0.351976721951298 
2172	 0.35158485357223 
2173	 0.351232427246731 
2174	 0.35087175955467 
2175	 0.350570265699565 
2176	 0.350309043258903 
2177	 0.350033645462797 
2178	 0.349770094650104 
2179	 0.349532774237051 
2180	 0.349308869067253 
2181	 0.349084982059128 
2182	 0.348890321938785 
2183	 0.348685857128354 
2184	 0.348485181499258 
2185	 0.348266237719496 
2186	 0.348059223015466 
2187	 0.347822336917688 
2188	 0.347557962215039 
2189	 0.347277643299719 
2190	 0.347005400053905 
2191	 0.346678701119357 
2192	 0.346335253694932 
2193	 0.345926229915786 
2194	 0.345470060320612 
2195	 0.344958570066968 
2196	 0.344377178267106 
2197	 0.343751559773136 
2198	 0.343135335256651 
2199	 0.342445024472488 
2200	 0.341701232986713 
2201	 0.340951634705544 
2202	 0.340049676469205 
2203	 0.339014091876387 
2204	 0.337995229098746 
2205	 0.336861417553777 
2206	 0.33579044425181 
2207	 0.334734929369854 
2208	 0.333647145370282 
2209	 0.332532478827678 
2210	 0.33144804695628 
2211	 0.330307690221343 
2212	 0.329290683122721 
2213	 0.328285298720597 
2214	 0.327419003586243 
2215	 0.326674356122296 
2216	 0.325984812194519 
2217	 0.325413394874744 
2218	 0.324884069866166 
2219	 0.324457350453706 
2220	 0.32401945976141 
2221	 0.323632269316735 
2222	 0.323253607594106 
2223	 0.322899403606919 
2224	 0.322484761426799 
2225	 0.322035259269905 
2226	 0.321504483065117 
2227	 0.320835840376567 
2228	 0.320054937784119 
2229	 0.319165153357266 
2230	 0.318140012649033 
2231	 0.317054373447306 
2232	 0.315868928402616 
2233	 0.314587903140455 
2234	 0.313254182032539 
2235	 0.311752375217139 
2236	 0.310102956335701 
2237	 0.308368347085139 
2238	 0.306450908286273 
2239	 0.304541359526329 
2240	 0.302590078550439 
2241	 0.300525240384233 
2242	 0.298459400752145 
2243	 0.296188905439878 
2244	 0.293746636913896 
2245	 0.29122505073171 
2246	 0.288472633324087 
2247	 0.285753659356493 
2248	 0.282984031166534 
2249	 0.280158943666874 
2250	 0.277290725869513 
2251	 0.274453955051839 
2252	 0.271342966145375 
2253	 0.26830918250007 
2254	 0.265218988453652 
2255	 0.262037381971221 
2256	 0.259144234308779 
2257	 0.256230151400801 
2258	 0.253435354215314 
2259	 0.25077497322892 
2260	 0.248124949356387 
2261	 0.245457673532216 
2262	 0.243065284755254 
2263	 0.240718908810167 
2264	 0.238699781788557 
2265	 0.236982329612029 
2266	 0.2353476556123 
2267	 0.23396753594782 
2268	 0.232634500343729 
2269	 0.231398078247443 
2270	 0.230335565999269 
2271	 0.229427153161315 
2272	 0.228613120276333 
2273	 0.228009622705777 
2274	 0.227392899136743 
2275	 0.226877293299277 
2276	 0.226354056529736 
2277	 0.225897595954501 
2278	 0.225413771211096 
2279	 0.224923249282298 
2280	 0.224441358591934 
2281	 0.223981990156379 
2282	 0.223476596733852 
2283	 0.222964107509377 
2284	 0.222446136151771 
2285	 0.221827442746559 
2286	 0.221212579763562 
2287	 0.220529759203334 
2288	 0.219782618990329 
2289	 0.219071211320672 
2290	 0.218288406746316 
2291	 0.217508535635681 
2292	 0.216733015494784 
2293	 0.215869411780433 
2294	 0.215024755100808 
2295	 0.214243090527087 
2296	 0.213518595211798 
2297	 0.21296120679303 
2298	 0.212528125809334 
2299	 0.212235760032714 
2300	 0.212078160894762 
2301	 0.212064230929191 
2302	 0.212173627139035 
2303	 0.212481368623047 
2304	 0.212969980349747 
2305	 0.213609735778148 
2306	 0.214450997010026 
2307	 0.215419667754191 
2308	 0.216526188356659 
2309	 0.217808648466989 
2310	 0.219326657395205 
2311	 0.220868489944191 
2312	 0.222662370067852 
2313	 0.224303795784434 
2314	 0.226002534250243 
2315	 0.227574664378874 
2316	 0.229078682989415 
2317	 0.230460409090957 
2318	 0.231836215110329 
2319	 0.232923066299608 
2320	 0.233836209147112 
2321	 0.23455551617414 
2322	 0.234984911072252 
2323	 0.23532476988916 
2324	 0.235517861167596 
2325	 0.235549521426347 
2326	 0.235418258784596 
2327	 0.235131451921257 
2328	 0.234629643687487 
2329	 0.234035748953125 
2330	 0.233300115209917 
2331	 0.232437655009366 
2332	 0.231462027844504 
2333	 0.230348587549516 
2334	 0.229021368247876 
2335	 0.227608379047484 
2336	 0.226058259369886 
2337	 0.224413667885701 
2338	 0.222841577071744 
2339	 0.221162729597699 
2340	 0.219509699240456 
2341	 0.217924607261117 
2342	 0.216308857051557 
2343	 0.214855407776493 
2344	 0.213539246880987 
2345	 0.212376915628204 
2346	 0.211523281748483 
2347	 0.210919071727299 
2348	 0.210493218096884 
2349	 0.210354510724988 
2350	 0.21039618218255 
2351	 0.210636549468712 
2352	 0.211103156386178 
2353	 0.21169939519547 
2354	 0.212337578435595 
2355	 0.213021057263005 
2356	 0.213699153978708 
2357	 0.214349743123005 
2358	 0.215083713313797 
2359	 0.215727142010093 
2360	 0.216284153885816 
2361	 0.216854339685234 
2362	 0.217378727637082 
2363	 0.217875640584676 
2364	 0.218353503547292 
2365	 0.218783082409012 
2366	 0.219170240177931 
2367	 0.219473464845955 
2368	 0.219733903617423 
2369	 0.220053422875148 
2370	 0.220296646680015 
2371	 0.22049293790881 
2372	 0.220746443330105 
2373	 0.220903754013713 
2374	 0.2210082621992 
2375	 0.221118433389472 
2376	 0.221147375509758 
2377	 0.221158320810649 
2378	 0.221164147521405 
2379	 0.221173490800091 
2380	 0.221214438039967 
2381	 0.221216388240414 
2382	 0.221262245839062 
2383	 0.221367749110181 
2384	 0.221422306535034 
2385	 0.221462278703581 
2386	 0.221494741297824 
2387	 0.221518196467723 
2388	 0.221495875574356 
2389	 0.221476640063884 
2390	 0.221382488576884 
2391	 0.221181667569997 
2392	 0.221033308837981 
2393	 0.220846494724621 
2394	 0.220754023826084 
2395	 0.220750769626216 
2396	 0.220688609023521 
2397	 0.220608651515854 
2398	 0.220526384192618 
2399	 0.220409717690961 
2400	 0.220368867905758 
2401	 0.220348790232003 
2402	 0.220425087183918 
2403	 0.220570499711907 
2404	 0.220729747029392 
2405	 0.220962735396523 
2406	 0.221146839670893 
2407	 0.221292728170356 
2408	 0.22144403096161 
2409	 0.221568300395633 
2410	 0.221815963317331 
2411	 0.222017380510092 
2412	 0.222141545067272 
2413	 0.222288257646399 
2414	 0.222394565164213 
2415	 0.222498913588223 
2416	 0.222595519814781 
2417	 0.222683021135523 
2418	 0.222716249066735 
2419	 0.222716983828376 
2420	 0.222686843999246 
2421	 0.222632908513438 
2422	 0.222682813898159 
2423	 0.222799002696615 
2424	 0.222960157464154 
2425	 0.223190802055435 
2426	 0.223380200272533 
2427	 0.22350556248684 
2428	 0.223680936121313 
2429	 0.223841444122265 
2430	 0.224025697401965 
2431	 0.224235941728252 
2432	 0.22431547769514 
2433	 0.224492025711607 
2434	 0.224667589865588 
2435	 0.224705334393909 
2436	 0.22487285944652 
2437	 0.225033410431034 
2438	 0.225110550008541 
2439	 0.225173900662276 
2440	 0.225162462820617 
2441	 0.22514546386269 
2442	 0.225079727129945 
2443	 0.225063164202483 
2444	 0.22521860705929 
2445	 0.22529649163311 
2446	 0.225367434395702 
2447	 0.225472607083259 
2448	 0.225409623783012 
2449	 0.22535977144917 
2450	 0.22535625574596 
2451	 0.22532822556805 
2452	 0.225292738421409 
2453	 0.225244957131524 
2454	 0.225371251981792 
2455	 0.225470574250034 
2456	 0.225403383594278 
2457	 0.225441229237281 
2458	 0.225348985400137 
2459	 0.225161083609113 
2460	 0.225161289587932 
2461	 0.22508095580928 
2462	 0.224891318588966 
2463	 0.224713094385183 
2464	 0.224690325458312 
2465	 0.22480346211366 
2466	 0.224937439015902 
2467	 0.225087341762414 
2468	 0.225126358745384 
2469	 0.225229633648721 
2470	 0.225309375538266 
2471	 0.225392834171334 
2472	 0.22555950313583 
2473	 0.22559205454433 
2474	 0.225613803058293 
2475	 0.22568452916966 
2476	 0.225794368637633 
2477	 0.225911798712724 
2478	 0.22602959000211 
2479	 0.226061939550797 
2480	 0.226096341700736 
2481	 0.226132437132915 
2482	 0.226095400297486 
2483	 0.226250717791144 
2484	 0.226451498231512 
2485	 0.2267413124669 
2486	 0.226941613147049 
2487	 0.226950206950909 
2488	 0.226910330185838 
2489	 0.2271452173128 
2490	 0.227361034822587 
2491	 0.227540761496638 
2492	 0.227920334584573 
2493	 0.227988267354329 
2494	 0.227866902342446 
2495	 0.228015520808662 
2496	 0.228278962187958 
2497	 0.228700218960274 
2498	 0.229116660611647 
2499	 0.229380093468791 
2500	 0.229609318910811 
