Wavelength	spectrum00015.asd
350	 5.04906529496409E-02 
351	 4.88010700908769E-02 
352	 4.75340951491043E-02 
353	 4.73055073076836E-02 
354	 4.94276933855899E-02 
355	 4.81057791816451E-02 
356	 4.56555636130632E-02 
357	 0.044484932994383 
358	 4.10092359208433E-02 
359	 4.07906006294952E-02 
360	 4.28146297265815E-02 
361	 4.29555868587574E-02 
362	 4.23025558191457E-02 
363	 4.16961073256946E-02 
364	 4.13310913761988E-02 
365	 4.05634451353351E-02 
366	 4.06806382301388E-02 
367	 4.06402366842968E-02 
368	 3.97243899719619E-02 
369	 4.01962353438431E-02 
370	 4.00898844258612E-02 
371	 3.97568213694865E-02 
372	 4.06093287317038E-02 
373	 4.07366500815638E-02 
374	 4.08700607597314E-02 
375	 4.14679237891273E-02 
376	 4.22161454731308E-02 
377	 0.042116265652905 
378	 4.12421672537469E-02 
379	 4.02730001661506E-02 
380	 4.07338397265159E-02 
381	 4.11614124656078E-02 
382	 4.12723598671415E-02 
383	 0.041527166979674 
384	 4.17066291535233E-02 
385	 4.21502958619148E-02 
386	 4.26807092441771E-02 
387	 4.22720485287611E-02 
388	 0.041606932958287 
389	 4.12991498072239E-02 
390	 4.16743860744059E-02 
391	 4.22083676600272E-02 
392	 4.25212831142376E-02 
393	 4.27612118185607E-02 
394	 4.33371812975907E-02 
395	 4.34649241491101E-02 
396	 4.33905913618845E-02 
397	 4.34181644515852E-02 
398	 4.37389522914071E-02 
399	 4.37951079345609E-02 
400	 4.39220655788248E-02 
401	 4.44226457353795E-02 
402	 4.42702305523897E-02 
403	 4.45946812971373E-02 
404	 4.51883466134068E-02 
405	 4.49481632796291E-02 
406	 0.045540353294052 
407	 4.59482439382404E-02 
408	 4.57535916782562E-02 
409	 4.65102532371448E-02 
410	 4.66283351820618E-02 
411	 4.65239048795151E-02 
412	 4.70682474179265E-02 
413	 4.80169672081964E-02 
414	 4.82598637674098E-02 
415	 4.80569316773435E-02 
416	 4.88215291101837E-02 
417	 4.91570130537456E-02 
418	 4.95047906556859E-02 
419	 5.01880016357738E-02 
420	 5.04663460282559E-02 
421	 5.09710102857677E-02 
422	 5.16411140701497E-02 
423	 5.21728545924768E-02 
424	 5.27018618996518E-02 
425	 5.31449188115809E-02 
426	 5.35662678798111E-02 
427	 5.42061594709869E-02 
428	 5.48189266015744E-02 
429	 5.54304092077389E-02 
430	 5.60682926339078E-02 
431	 5.65348638592271E-02 
432	 5.73428841584138E-02 
433	 5.82543280444755E-02 
434	 5.87173099467429E-02 
435	 5.95276594258476E-02 
436	 6.02876939197469E-02 
437	 6.08398575388954E-02 
438	 6.15990319375705E-02 
439	 6.24971590169293E-02 
440	 6.33536669048954E-02 
441	 6.40510764068637E-02 
442	 6.49299908410836E-02 
443	 6.56574847104081E-02 
444	 6.62860369752527E-02 
445	 6.71544388645127E-02 
446	 6.77387455766504E-02 
447	 6.84388241557654E-02 
448	 6.94318714124719E-02 
449	 0.070046957874554 
450	 7.09323472286972E-02 
451	 7.19067411821877E-02 
452	 7.25726356940053E-02 
453	 7.32884256233315E-02 
454	 7.41160304809511E-02 
455	 7.49724938446374E-02 
456	 7.56499139340635E-02 
457	 7.64473027457223E-02 
458	 7.72247910182276E-02 
459	 7.78722027948349E-02 
460	 0.078669254777796 
461	 7.94536202239642E-02 
462	 8.01429430763633E-02 
463	 8.07425537813748E-02 
464	 8.15894784402825E-02 
465	 8.24129304876783E-02 
466	 0.083058346639434 
467	 8.36505310706169E-02 
468	 8.43701515341785E-02 
469	 8.51222417138122E-02 
470	 8.58052218783566E-02 
471	 8.67134247998986E-02 
472	 8.73700543123768E-02 
473	 8.78928489310351E-02 
474	 0.088830178964286 
475	 8.94584511874244E-02 
476	 8.99982415513744E-02 
477	 9.06904565252303E-02 
478	 0.091489095564374 
479	 9.22597892224406E-02 
480	 9.29587390809542E-02 
481	 9.36071671109359E-02 
482	 9.43170636021876E-02 
483	 9.51528933618216E-02 
484	 9.60494802025915E-02 
485	 9.68056174102753E-02 
486	 9.77003789336073E-02 
487	 0.0985416571852 
488	 9.91781876269764E-02 
489	 9.99084457463846E-02 
490	 0.100718100262891 
491	 0.101617197132575 
492	 0.102586796605705 
493	 0.103235988357572 
494	 0.10387577136379 
495	 0.104708956485149 
496	 0.105623053333237 
497	 0.106489569700267 
498	 0.107332061635817 
499	 0.108218432187735 
500	 0.109162641431481 
501	 0.110073111318837 
502	 0.110936164277637 
503	 0.111813974462021 
504	 0.112781185190863 
505	 0.113778953860817 
506	 0.11475213552838 
507	 0.115728877539412 
508	 0.116598520041054 
509	 0.117466867589018 
510	 0.118487206672428 
511	 0.119405377959807 
512	 0.120317929408216 
513	 0.121260332800648 
514	 0.122152810101026 
515	 0.123025724501584 
516	 0.123886726552322 
517	 0.12475212379263 
518	 0.125695848176005 
519	 0.126583712509295 
520	 0.127419384100365 
521	 0.128298136359832 
522	 0.129157111628189 
523	 0.130000856664598 
524	 0.130832201229744 
525	 0.131629023352202 
526	 0.132436808023605 
527	 0.133272405680188 
528	 0.134121361095158 
529	 0.13486697389181 
530	 0.135608860614808 
531	 0.136390690073635 
532	 0.137179582323041 
533	 0.137961244700192 
534	 0.138751427153584 
535	 0.1395495021588 
536	 0.140283073941753 
537	 0.14104572909883 
538	 0.141840062852889 
539	 0.142611345663818 
540	 0.143288247286544 
541	 0.14397247218805 
542	 0.144701426881129 
543	 0.145376700672317 
544	 0.146029381663897 
545	 0.146664699347082 
546	 0.147279318476854 
547	 0.147863761800508 
548	 0.148411110280724 
549	 0.148924761519371 
550	 0.149419031683428 
551	 0.149945413083152 
552	 0.150481711530482 
553	 0.151013096581645 
554	 0.151585604374484 
555	 0.152127383213381 
556	 0.152677467265019 
557	 0.153310203919673 
558	 0.153936646280734 
559	 0.154577653181828 
560	 0.155233322899594 
561	 0.155862163115725 
562	 0.156488252219764 
563	 0.157092856320188 
564	 0.157657130606667 
565	 0.158212930647549 
566	 0.158681937667974 
567	 0.159060333532064 
568	 0.159404974573368 
569	 0.15976247192643 
570	 0.160030084004044 
571	 0.160167358529108 
572	 0.160297541334606 
573	 0.160539978941868 
574	 0.160885318037434 
575	 0.161278221624246 
576	 0.161782128097749 
577	 0.16232717278993 
578	 0.162855956746472 
579	 0.163336224916278 
580	 0.163769997234118 
581	 0.164159926376421 
582	 0.164525761171772 
583	 0.16493204247452 
584	 0.16532504543409 
585	 0.165711019360449 
586	 0.166124014428493 
587	 0.166501139030365 
588	 0.166849854582575 
589	 0.16718384525261 
590	 0.167512173499978 
591	 0.167812901751436 
592	 0.168122085401711 
593	 0.168454341897278 
594	 0.168638159335619 
595	 0.168901781780092 
596	 0.169270624096429 
597	 0.169585017661643 
598	 0.169915960254327 
599	 0.170269174963913 
600	 0.170634344734619 
601	 0.170981590473586 
602	 0.171355898439246 
603	 0.171735379326342 
604	 0.172070725262856 
605	 0.172347887905329 
606	 0.172636172383658 
607	 0.172961884575945 
608	 0.173288864633672 
609	 0.173570767228501 
610	 0.17386399902424 
611	 0.174205204369191 
612	 0.17446814446884 
613	 0.174730049621144 
614	 0.175017863492396 
615	 0.175318632243867 
616	 0.175569595202264 
617	 0.175852658425988 
618	 0.176194462521614 
619	 0.176494907890537 
620	 0.176729819625117 
621	 0.176956624064205 
622	 0.177239114907712 
623	 0.177509989117652 
624	 0.177774198800035 
625	 0.178056386796573 
626	 0.178389140051321 
627	 0.178633424505288 
628	 0.178865576048339 
629	 0.179151071746688 
630	 0.17942579806695 
631	 0.17966901430616 
632	 0.179904067850427 
633	 0.180168118463903 
634	 0.180427852710099 
635	 0.180679837175665 
636	 0.180927416633239 
637	 0.181178334406139 
638	 0.18143536627716 
639	 0.181672298067273 
640	 0.181878738759284 
641	 0.182115235732147 
642	 0.182374057249636 
643	 0.182633110762063 
644	 0.182868146349931 
645	 0.183127134837289 
646	 0.183364602682042 
647	 0.183565442473699 
648	 0.183781781044639 
649	 0.184008438829182 
650	 0.18423947782879 
651	 0.184467930450125 
652	 0.184694888972615 
653	 0.184899688952158 
654	 0.185104533832675 
655	 0.185359115405745 
656	 0.185587688066066 
657	 0.185818615669129 
658	 0.186066210293717 
659	 0.186279518091442 
660	 0.186477109929037 
661	 0.186705799736391 
662	 0.186993006704779 
663	 0.187204441646222 
664	 0.187379982817162 
665	 0.187567072913104 
666	 0.187804313739335 
667	 0.188014070502243 
668	 0.188194860410347 
669	 0.188382841057823 
670	 0.188680847400168 
671	 0.188904724041821 
672	 0.189094137678604 
673	 0.189364689771815 
674	 0.189574438588245 
675	 0.189786854160388 
676	 0.190016926038551 
677	 0.190202550958249 
678	 0.190421640590044 
679	 0.190646317000191 
680	 0.190848870819348 
681	 0.191081967164882 
682	 0.191307445407412 
683	 0.191538576256066 
684	 0.191804695476323 
685	 0.192026942620215 
686	 0.192203107000069 
687	 0.192378585163535 
688	 0.192651851741503 
689	 0.192851238706991 
690	 0.193069296772037 
691	 0.193386933585938 
692	 0.193592125836779 
693	 0.1937986186594 
694	 0.194038328894997 
695	 0.194287392469112 
696	 0.194547819070919 
697	 0.194767944494828 
698	 0.194966472257715 
699	 0.195281605411225 
700	 0.195559013470851 
701	 0.195779588734254 
702	 0.195987040592484 
703	 0.196302333961209 
704	 0.196583140345351 
705	 0.196823167670345 
706	 0.197108387452616 
707	 0.197394897469942 
708	 0.197656650973688 
709	 0.19790842601969 
710	 0.198230532027559 
711	 0.198520602380869 
712	 0.198787261096216 
713	 0.199070457068931 
714	 0.199390898652342 
715	 0.199708782881108 
716	 0.200001854809304 
717	 0.200271052857688 
718	 0.200605920280519 
719	 0.200974272617343 
720	 0.201314165462852 
721	 0.201538002757725 
722	 0.201860252211339 
723	 0.202247049425632 
724	 0.202601156103507 
725	 0.202911307494331 
726	 0.203239709799921 
727	 0.203606924424946 
728	 0.20399091278448 
729	 0.204276905256503 
730	 0.20459184960172 
731	 0.204982603733037 
732	 0.205312550552701 
733	 0.205651264445376 
734	 0.206025034834628 
735	 0.20643081386535 
736	 0.20680179730862 
737	 0.207165619561562 
738	 0.207548273037276 
739	 0.207964681105726 
740	 0.208354428524248 
741	 0.20874174840061 
742	 0.209158354114453 
743	 0.209632310208023 
744	 0.210083090711822 
745	 0.210500885623135 
746	 0.210908886174422 
747	 0.211363165233697 
748	 0.211807960740221 
749	 0.21224689084483 
750	 0.212708326443358 
751	 0.213121653977004 
752	 0.213522628484003 
753	 0.213948356460735 
754	 0.214420654644833 
755	 0.214888293156471 
756	 0.215327175153778 
757	 0.215742680989388 
758	 0.216197980247837 
759	 0.216640738272081 
760	 0.217068039411251 
761	 0.217506680774013 
762	 0.218009467648248 
763	 0.218513700299083 
764	 0.218983630875776 
765	 0.21942840631124 
766	 0.219924075394836 
767	 0.220423618797484 
768	 0.220894026676388 
769	 0.221398705887903 
770	 0.221839303991324 
771	 0.222285123976995 
772	 0.222823454481022 
773	 0.223309752494791 
774	 0.223785040760516 
775	 0.224251432338966 
776	 0.224679804030062 
777	 0.225122263384733 
778	 0.225563380920869 
779	 0.226005677370231 
780	 0.226500084053334 
781	 0.226932278889609 
782	 0.227311104102078 
783	 0.227698147512946 
784	 0.228196169870467 
785	 0.228705592625191 
786	 0.229149716327226 
787	 0.229498793533015 
788	 0.229927506261139 
789	 0.230352177867066 
790	 0.230748519821325 
791	 0.231188417009012 
792	 0.231579561929698 
793	 0.231944162462578 
794	 0.232315666666014 
795	 0.232693883372822 
796	 0.233076099546456 
797	 0.233440600772574 
798	 0.233770602971098 
799	 0.234105989324936 
800	 0.234437597893187 
801	 0.234767772247451 
802	 0.235102261462439 
803	 0.235371849137846 
804	 0.235647691843916 
805	 0.235957762956871 
806	 0.236237493187929 
807	 0.236527436067175 
808	 0.236818249946012 
809	 0.237092942272229 
810	 0.23734603174234 
811	 0.23760830959822 
812	 0.237885140420658 
813	 0.238167022946559 
814	 0.238450387105865 
815	 0.238647849868726 
816	 0.23879919053642 
817	 0.239041887058308 
818	 0.239224857826206 
819	 0.239395829081561 
820	 0.239604604200125 
821	 0.239854870984927 
822	 0.240057455906576 
823	 0.240248361948225 
824	 0.240456983362305 
825	 0.240572487068054 
826	 0.24071940353291 
827	 0.240882783209076 
828	 0.241008225746642 
829	 0.241221549021257 
830	 0.241445617648752 
831	 0.241607060787226 
832	 0.241665123975914 
833	 0.241737257779568 
834	 0.24189544276632 
835	 0.242110213458408 
836	 0.24221763111364 
837	 0.24232346822671 
838	 0.242436478403179 
839	 0.242540734721708 
840	 0.24260912585695 
841	 0.242755527465116 
842	 0.242918116442694 
843	 0.2429963069739 
844	 0.243092355410705 
845	 0.243174455815204 
846	 0.243218517893228 
847	 0.243223021020252 
848	 0.243279801971351 
849	 0.243396207402509 
850	 0.243526117643636 
851	 0.24357960201632 
852	 0.243652111834823 
853	 0.243732021901107 
854	 0.243796601484894 
855	 0.243848159668144 
856	 0.243866321730277 
857	 0.243942643630037 
858	 0.244128018950247 
859	 0.244212732365711 
860	 0.244253894902882 
861	 0.244263154479715 
862	 0.244243805735232 
863	 0.244273299893875 
864	 0.244367052261128 
865	 0.24451087515385 
866	 0.244658079388819 
867	 0.244660086753237 
868	 0.244665974012785 
869	 0.244756249293912 
870	 0.244856700163774 
871	 0.244958515690616 
872	 0.245038304097485 
873	 0.245089759071524 
874	 0.245142425885199 
875	 0.245221251304934 
876	 0.245300058253856 
877	 0.245354840081487 
878	 0.245430837301386 
879	 0.245532825190238 
880	 0.245642162540693 
881	 0.245737653321419 
882	 0.245865356395773 
883	 0.245902857723372 
884	 0.245898538335092 
885	 0.246018788685655 
886	 0.246211802563957 
887	 0.246342726747574 
888	 0.246396291316285 
889	 0.246501536961439 
890	 0.246661178973198 
891	 0.246725529578837 
892	 0.246672820911307 
893	 0.246736715524939 
894	 0.246888981619711 
895	 0.247055734505627 
896	 0.24717983462749 
897	 0.247295065699359 
898	 0.247362931263258 
899	 0.247429091537372 
900	 0.247536481211963 
901	 0.247597805012453 
902	 0.24771312512983 
903	 0.247877996572783 
904	 0.248023411919861 
905	 0.248061327755044 
906	 0.248123108665839 
907	 0.24823391001623 
908	 0.248338434025943 
909	 0.248479142533946 
910	 0.24864336905564 
911	 0.248814589713537 
912	 0.24897943848378 
913	 0.249142053222327 
914	 0.249268768864092 
915	 0.249376630471109 
916	 0.249552674266016 
917	 0.249785749319902 
918	 0.249994451931165 
919	 0.250144935573101 
920	 0.250317547084038 
921	 0.250468884856433 
922	 0.250640087820135 
923	 0.250858776010181 
924	 0.251066839603711 
925	 0.251288308006094 
926	 0.251532883925569 
927	 0.251797175904911 
928	 0.252055773515779 
929	 0.252265378782428 
930	 0.252465857334203 
931	 0.252709955758982 
932	 0.252935750135078 
933	 0.253181665015842 
934	 0.253444120877649 
935	 0.25370459613286 
936	 0.254001922600677 
937	 0.254342733312132 
938	 0.25463691195774 
939	 0.254780043693456 
940	 0.25499638714919 
941	 0.255280127403608 
942	 0.255612418418778 
943	 0.255977976626052 
944	 0.256367466447825 
945	 0.256645286534669 
946	 0.256826488958901 
947	 0.257080764608339 
948	 0.257332421751267 
949	 0.257549469499468 
950	 0.257710885253738 
951	 0.257815113683369 
952	 0.258009422591465 
953	 0.258281992001931 
954	 0.258560137719503 
955	 0.258742800324126 
956	 0.25892899285732 
957	 0.259093374059112 
958	 0.259218574611747 
959	 0.259343484944707 
960	 0.25951614364731 
961	 0.259708369613076 
962	 0.259887256696077 
963	 0.260053196371481 
964	 0.260227774940777 
965	 0.260342436287553 
966	 0.260422534875292 
967	 0.260747988780938 
968	 0.260951407203693 
969	 0.261051082536404 
970	 0.261149097940873 
971	 0.261245796563745 
972	 0.261443723265028 
973	 0.261625758666214 
974	 0.261723643312819 
975	 0.262011381912525 
976	 0.262145962543006 
977	 0.262213696975879 
978	 0.262373234089877 
979	 0.262552518112629 
980	 0.262674162074312 
981	 0.262780075265317 
982	 0.262939278683203 
983	 0.263163939577367 
984	 0.26330436684423 
985	 0.263415574163435 
986	 0.263579116111119 
987	 0.263689080649887 
988	 0.263863065419065 
989	 0.264080197440368 
990	 0.264265692698519 
991	 0.264351761018012 
992	 0.264478549210473 
993	 0.264624143466783 
994	 0.264750253540662 
995	 0.264992705668345 
996	 0.26514720418263 
997	 0.265211751559949 
998	 0.265305421722746 
999	 0.265673946067281 
1000	 0.265847891836477 
1001	 0.273193296006642 
1002	 0.273374189074449 
1003	 0.273546457566107 
1004	 0.27367696706399 
1005	 0.273776581507769 
1006	 0.273893289511932 
1007	 0.273980378235751 
1008	 0.274102068105018 
1009	 0.274242017517985 
1010	 0.274371984026931 
1011	 0.274519088548693 
1012	 0.274656061941319 
1013	 0.274786970808436 
1014	 0.27491890785438 
1015	 0.275040738791969 
1016	 0.275166604717861 
1017	 0.275317427571 
1018	 0.275461022943714 
1019	 0.275633376650791 
1020	 0.275801155897688 
1021	 0.275945859789688 
1022	 0.276069784225921 
1023	 0.276214501613451 
1024	 0.276368264168029 
1025	 0.276488035554939 
1026	 0.276602224658318 
1027	 0.276715344432387 
1028	 0.276800873840702 
1029	 0.276891183238215 
1030	 0.277002649230905 
1031	 0.277105053556459 
1032	 0.277189215718166 
1033	 0.27727816767662 
1034	 0.277394272424436 
1035	 0.277477729120453 
1036	 0.277549376349521 
1037	 0.277628673319735 
1038	 0.277671460831455 
1039	 0.277647186925511 
1040	 0.277703291398986 
1041	 0.277792245277404 
1042	 0.277850376607797 
1043	 0.27793570530562 
1044	 0.277995772933454 
1045	 0.278033439208545 
1046	 0.278070012358228 
1047	 0.278135706723756 
1048	 0.278276040940471 
1049	 0.278378583639248 
1050	 0.278450671744607 
1051	 0.278552615762767 
1052	 0.278605301531478 
1053	 0.278701488391239 
1054	 0.278834969065767 
1055	 0.278965411577904 
1056	 0.279120663791844 
1057	 0.279257747455348 
1058	 0.279389135040788 
1059	 0.279496494191895 
1060	 0.279636618610028 
1061	 0.279779535988416 
1062	 0.279952651352248 
1063	 0.280157178075215 
1064	 0.280325977030411 
1065	 0.280495334119758 
1066	 0.280686957935662 
1067	 0.280878568520403 
1068	 0.28108948334349 
1069	 0.281308147218571 
1070	 0.281519976402665 
1071	 0.281728569751785 
1072	 0.281925298832823 
1073	 0.28212492602748 
1074	 0.282337098481732 
1075	 0.282531449168996 
1076	 0.282735880572962 
1077	 0.282964425639138 
1078	 0.283192096642271 
1079	 0.283432127115415 
1080	 0.283668394604341 
1081	 0.283878151045316 
1082	 0.28409473143575 
1083	 0.284329079474861 
1084	 0.284532837461547 
1085	 0.28473748748955 
1086	 0.284948738953227 
1087	 0.285157550810356 
1088	 0.285341350298771 
1089	 0.285538209407153 
1090	 0.285729943875194 
1091	 0.285923637938169 
1092	 0.286115022301171 
1093	 0.286314774501576 
1094	 0.286520836380516 
1095	 0.286679640914408 
1096	 0.286837171055385 
1097	 0.286990126291087 
1098	 0.287139487868101 
1099	 0.287313267180472 
1100	 0.287468343165014 
1101	 0.287623181297666 
1102	 0.287790981468161 
1103	 0.287948149605285 
1104	 0.288098616772404 
1105	 0.288253969300134 
1106	 0.288408623467179 
1107	 0.288528314554558 
1108	 0.28863224449534 
1109	 0.288743800935745 
1110	 0.288843428120835 
1111	 0.28896515183226 
1112	 0.289096996373151 
1113	 0.289219032218893 
1114	 0.289358247748611 
1115	 0.289462650718631 
1116	 0.289546708669196 
1117	 0.289639667943935 
1118	 0.289715036842138 
1119	 0.289769698347182 
1120	 0.289821896387621 
1121	 0.28986988465765 
1122	 0.289904734092226 
1123	 0.289942546434332 
1124	 0.289978212277933 
1125	 0.290030155972707 
1126	 0.290073195473181 
1127	 0.290089618789971 
1128	 0.290089690305624 
1129	 0.290073362927635 
1130	 0.290049154283381 
1131	 0.290010183782074 
1132	 0.289951919431667 
1133	 0.289887258717327 
1134	 0.289815425493288 
1135	 0.289731613201833 
1136	 0.289642710684604 
1137	 0.289545134168715 
1138	 0.289432374457113 
1139	 0.289309508160227 
1140	 0.28918101412995 
1141	 0.28903849499466 
1142	 0.288881483170399 
1143	 0.288738549309533 
1144	 0.288586579146615 
1145	 0.288434992157133 
1146	 0.288291424727968 
1147	 0.288133042336595 
1148	 0.287969185800101 
1149	 0.287802009819004 
1150	 0.287634324873468 
1151	 0.287488323042639 
1152	 0.287337337791185 
1153	 0.287208447575956 
1154	 0.287043295091469 
1155	 0.286860852077217 
1156	 0.286672445366109 
1157	 0.286458954737469 
1158	 0.286263293436826 
1159	 0.286077515888524 
1160	 0.285879460443984 
1161	 0.285669428797777 
1162	 0.285457146423987 
1163	 0.285259585404786 
1164	 0.285049276942334 
1165	 0.284846920973056 
1166	 0.284666342010144 
1167	 0.284462717842766 
1168	 0.284273926670612 
1169	 0.284083636276757 
1170	 0.28389586719372 
1171	 0.283706869690472 
1172	 0.283516478375144 
1173	 0.28333145180342 
1174	 0.283156785703247 
1175	 0.282978148160293 
1176	 0.282794993828509 
1177	 0.282617842969281 
1178	 0.282442813262914 
1179	 0.282271476172134 
1180	 0.282099049784676 
1181	 0.281908774771078 
1182	 0.281705700748796 
1183	 0.281511993637559 
1184	 0.281332754443126 
1185	 0.281190398925156 
1186	 0.281088905387709 
1187	 0.281028719564215 
1188	 0.2809858094253 
1189	 0.280974532141637 
1190	 0.280989596327993 
1191	 0.281031929999577 
1192	 0.281095310091369 
1193	 0.28119674080772 
1194	 0.281297327925293 
1195	 0.281410634751668 
1196	 0.281536384219139 
1197	 0.281667542371985 
1198	 0.28183027662459 
1199	 0.28199025756214 
1200	 0.282149658995307 
1201	 0.282322135138558 
1202	 0.282499577174555 
1203	 0.282707977185463 
1204	 0.28295033842473 
1205	 0.283207936066364 
1206	 0.283477683193151 
1207	 0.283803624625197 
1208	 0.284144799081784 
1209	 0.284549400627048 
1210	 0.285006641194692 
1211	 0.285506895587658 
1212	 0.286048615467642 
1213	 0.286654852742848 
1214	 0.287312014442054 
1215	 0.288030789242546 
1216	 0.288835826783481 
1217	 0.289641412339349 
1218	 0.290497332743062 
1219	 0.29136722893684 
1220	 0.292241181921169 
1221	 0.293187787825096 
1222	 0.294117566640059 
1223	 0.295048680358269 
1224	 0.295949934683131 
1225	 0.296840955311492 
1226	 0.297680566618714 
1227	 0.29848952358601 
1228	 0.299285767727393 
1229	 0.300053437856185 
1230	 0.300791829707245 
1231	 0.301505934867214 
1232	 0.302212348790361 
1233	 0.302893793164762 
1234	 0.303540775340054 
1235	 0.304177149070206 
1236	 0.304785864087776 
1237	 0.305349061486492 
1238	 0.30590222342556 
1239	 0.306444448602643 
1240	 0.306962852918318 
1241	 0.307474698746555 
1242	 0.307934632679327 
1243	 0.308411514418418 
1244	 0.308881695433944 
1245	 0.309349213718515 
1246	 0.309820416176775 
1247	 0.310261474753424 
1248	 0.310691138940592 
1249	 0.311107029082581 
1250	 0.311493546444837 
1251	 0.311882465824359 
1252	 0.312274690488859 
1253	 0.312644379697744 
1254	 0.313013087134941 
1255	 0.313347588409807 
1256	 0.313652683541234 
1257	 0.313948436170593 
1258	 0.314215806794662 
1259	 0.314475522941402 
1260	 0.314710647662516 
1261	 0.314959387785872 
1262	 0.315195140571693 
1263	 0.31544887865503 
1264	 0.315697795084832 
1265	 0.315960237354867 
1266	 0.316211424709982 
1267	 0.316461364754805 
1268	 0.316694567070617 
1269	 0.316923190833285 
1270	 0.317141458061724 
1271	 0.31733614068808 
1272	 0.31754456058553 
1273	 0.317747412381051 
1274	 0.317963903124285 
1275	 0.318187995327829 
1276	 0.318410801164273 
1277	 0.318630568287137 
1278	 0.318869634589573 
1279	 0.319094351541212 
1280	 0.319364627036537 
1281	 0.31968019372955 
1282	 0.319990623820898 
1283	 0.320333661426108 
1284	 0.32066516656561 
1285	 0.320993719169095 
1286	 0.321313997606483 
1287	 0.321643511346755 
1288	 0.321969019573717 
1289	 0.322314526179388 
1290	 0.322660889133848 
1291	 0.32303386520999 
1292	 0.323442438879906 
1293	 0.323817413907804 
1294	 0.324199219953939 
1295	 0.324565530573533 
1296	 0.32491008864908 
1297	 0.325255695077955 
1298	 0.32559483368468 
1299	 0.325938769538031 
1300	 0.3262906972589 
1301	 0.326615997510928 
1302	 0.326934292174932 
1303	 0.327245146201893 
1304	 0.327532811296239 
1305	 0.327816626980163 
1306	 0.328084424275609 
1307	 0.328370499537223 
1308	 0.328654720945636 
1309	 0.328948997990755 
1310	 0.32922306285906 
1311	 0.329516514433768 
1312	 0.329764632981601 
1313	 0.329972609038966 
1314	 0.330199200907228 
1315	 0.330422766111791 
1316	 0.330632462056428 
1317	 0.330843661477499 
1318	 0.331032465687333 
1319	 0.331200590085598 
1320	 0.33136531359892 
1321	 0.331524130789613 
1322	 0.331665368602367 
1323	 0.331799223050162 
1324	 0.33191321713698 
1325	 0.332000298550572 
1326	 0.332091336113339 
1327	 0.332190747804075 
1328	 0.332251619643147 
1329	 0.33229377211279 
1330	 0.332324485144742 
1331	 0.332322505407467 
1332	 0.332315146339975 
1333	 0.332310294372025 
1334	 0.332280164985363 
1335	 0.332248864313511 
1336	 0.332211805240689 
1337	 0.332137009415369 
1338	 0.332057769801874 
1339	 0.331930876675801 
1340	 0.331761780511484 
1341	 0.331577743972545 
1342	 0.331367748179995 
1343	 0.33113859292032 
1344	 0.330887078940064 
1345	 0.330612164128778 
1346	 0.330314842708214 
1347	 0.33000094330088 
1348	 0.329659158063795 
1349	 0.329311438071758 
1350	 0.328938220742082 
1351	 0.328574320904135 
1352	 0.328205215251355 
1353	 0.327832242945468 
1354	 0.327454517962282 
1355	 0.327083958151014 
1356	 0.326716222204646 
1357	 0.326339679017682 
1358	 0.325963171055318 
1359	 0.325586661507865 
1360	 0.325211789974751 
1361	 0.324816131452246 
1362	 0.324430098253404 
1363	 0.324059141402345 
1364	 0.323658934405329 
1365	 0.323253410729845 
1366	 0.322822293173187 
1367	 0.322375909633497 
1368	 0.321906272334713 
1369	 0.321418028503589 
1370	 0.320908574843016 
1371	 0.320380675427021 
1372	 0.3198320891851 
1373	 0.319262092730335 
1374	 0.318673346442831 
1375	 0.31805583828864 
1376	 0.31743106195623 
1377	 0.316798953240721 
1378	 0.316129535136068 
1379	 0.315432991669833 
1380	 0.314726281456467 
1381	 0.314002112308795 
1382	 0.313244178933919 
1383	 0.312471234105147 
1384	 0.311670864735106 
1385	 0.310823947196245 
1386	 0.309978352594526 
1387	 0.309105276753261 
1388	 0.308257593824493 
1389	 0.307386955207567 
1390	 0.306559646272566 
1391	 0.305777594937873 
1392	 0.304971011297888 
1393	 0.304242766848747 
1394	 0.303536896731913 
1395	 0.302836445872424 
1396	 0.302192138600191 
1397	 0.301472045799843 
1398	 0.300767382711272 
1399	 0.29994470307345 
1400	 0.299074828755483 
1401	 0.298107095556834 
1402	 0.297070978909634 
1403	 0.295915836015367 
1404	 0.294653672805673 
1405	 0.293351754216499 
1406	 0.291914370666144 
1407	 0.290516577336037 
1408	 0.289025397709074 
1409	 0.28766168319811 
1410	 0.286254990514101 
1411	 0.285044847436207 
1412	 0.283919452771979 
1413	 0.282977829778903 
1414	 0.282201872544745 
1415	 0.281528722135124 
1416	 0.281041228794839 
1417	 0.28059237230698 
1418	 0.280284015895284 
1419	 0.279959308525335 
1420	 0.279696573251107 
1421	 0.27943830009991 
1422	 0.279181143392599 
1423	 0.278948823160003 
1424	 0.278737334659773 
1425	 0.278552745771326 
1426	 0.278388459007725 
1427	 0.278239961217706 
1428	 0.278125515758927 
1429	 0.278030340037632 
1430	 0.277962255108278 
1431	 0.277919451915032 
1432	 0.27789550371313 
1433	 0.277891353579178 
1434	 0.277922119052114 
1435	 0.27797024905651 
1436	 0.278062064921255 
1437	 0.278194644228605 
1438	 0.278351185172778 
1439	 0.278550283090459 
1440	 0.278748897805746 
1441	 0.278974072844405 
1442	 0.279202701678581 
1443	 0.279436130628873 
1444	 0.279687963758355 
1445	 0.279950531421909 
1446	 0.280235034223588 
1447	 0.280539761972667 
1448	 0.280853010198379 
1449	 0.281192470556396 
1450	 0.281529388353663 
1451	 0.281879905361948 
1452	 0.282221388058223 
1453	 0.282570281748617 
1454	 0.282903976756859 
1455	 0.28322634155447 
1456	 0.283545034080949 
1457	 0.283857546366385 
1458	 0.284164765994251 
1459	 0.284451997477753 
1460	 0.284759973968839 
1461	 0.285079552108559 
1462	 0.285389188537049 
1463	 0.285705849900258 
1464	 0.286024173785347 
1465	 0.286322391588455 
1466	 0.286643739380394 
1467	 0.286970341054552 
1468	 0.287306252159409 
1469	 0.287673561576757 
1470	 0.2880254918176 
1471	 0.288387149564323 
1472	 0.288772750103667 
1473	 0.289122521499901 
1474	 0.289465027370962 
1475	 0.289780913681765 
1476	 0.290077362235328 
1477	 0.290358439623752 
1478	 0.290614432578675 
1479	 0.290865519783306 
1480	 0.291098837127665 
1481	 0.291335509485715 
1482	 0.29156625321847 
1483	 0.291789235035971 
1484	 0.292009029380672 
1485	 0.292223274086144 
1486	 0.292427482188214 
1487	 0.292626957392942 
1488	 0.292821623324829 
1489	 0.293014334432912 
1490	 0.293194064077856 
1491	 0.293384609987293 
1492	 0.293568617354681 
1493	 0.293777953844323 
1494	 0.29399300559419 
1495	 0.294229916510787 
1496	 0.29449504497943 
1497	 0.294760466092652 
1498	 0.295054212722961 
1499	 0.295324728037583 
1500	 0.29558427422411 
1501	 0.295854029801661 
1502	 0.296109126232267 
1503	 0.296380530937816 
1504	 0.296663568734141 
1505	 0.296957657554295 
1506	 0.29726718110889 
1507	 0.297573828599096 
1508	 0.297895183077214 
1509	 0.298208881182903 
1510	 0.298515353052072 
1511	 0.298821787152872 
1512	 0.299132622969662 
1513	 0.29943580578767 
1514	 0.299733702579485 
1515	 0.300029715271216 
1516	 0.300302698806996 
1517	 0.300601592596282 
1518	 0.300930951363805 
1519	 0.301235158187654 
1520	 0.30152961466757 
1521	 0.301846619041266 
1522	 0.302125883053381 
1523	 0.3024161882247 
1524	 0.302693201656031 
1525	 0.302970557804779 
1526	 0.303254380455425 
1527	 0.303522543907088 
1528	 0.30381658736493 
1529	 0.304128060276825 
1530	 0.304449155485568 
1531	 0.304779870741857 
1532	 0.305115323064666 
1533	 0.305472884206239 
1534	 0.305809769570962 
1535	 0.306154347197919 
1536	 0.306455941052586 
1537	 0.30672901226823 
1538	 0.307016782058911 
1539	 0.307280718242986 
1540	 0.307557221152787 
1541	 0.30784648011316 
1542	 0.308135153188378 
1543	 0.308424606607314 
1544	 0.308695599274053 
1545	 0.308986594969588 
1546	 0.309222970862461 
1547	 0.309423495270152 
1548	 0.30960601048687 
1549	 0.309754235327492 
1550	 0.309901789795072 
1551	 0.310024416535116 
1552	 0.310152446005525 
1553	 0.310273345018558 
1554	 0.310395953396953 
1555	 0.310519314337516 
1556	 0.310632508650185 
1557	 0.310735525747845 
1558	 0.3108492322129 
1559	 0.310949951167167 
1560	 0.311075544405017 
1561	 0.311215477852962 
1562	 0.31136746317691 
1563	 0.311537717524543 
1564	 0.31170743673831 
1565	 0.311883146574733 
1566	 0.312072074159821 
1567	 0.312265391329249 
1568	 0.312472539472802 
1569	 0.312705949211404 
1570	 0.312926160127975 
1571	 0.313151888915414 
1572	 0.313369333410494 
1573	 0.313581617854117 
1574	 0.313790029002568 
1575	 0.313993832400475 
1576	 0.314195408539714 
1577	 0.314382171598941 
1578	 0.314587583621274 
1579	 0.31480280690596 
1580	 0.31501507680096 
1581	 0.315246636244231 
1582	 0.315457018413151 
1583	 0.315652141583716 
1584	 0.315849107366119 
1585	 0.316033121992481 
1586	 0.316226907690798 
1587	 0.316431647747576 
1588	 0.316622137518902 
1589	 0.316797843432557 
1590	 0.316992812693547 
1591	 0.317195099928524 
1592	 0.317389794424826 
1593	 0.317599326909777 
1594	 0.317796937136048 
1595	 0.317976620454042 
1596	 0.318159371711079 
1597	 0.318338169952635 
1598	 0.318526984225194 
1599	 0.318727177937859 
1600	 0.318911286283589 
1601	 0.319098462797197 
1602	 0.319275052339462 
1603	 0.319430656110806 
1604	 0.319588513754063 
1605	 0.319755132340931 
1606	 0.319902945860155 
1607	 0.320037823574794 
1608	 0.320167045657988 
1609	 0.32027749684668 
1610	 0.320393765560851 
1611	 0.320513309891745 
1612	 0.32062122689787 
1613	 0.320732074066868 
1614	 0.320824526609466 
1615	 0.320899918759914 
1616	 0.320969775787698 
1617	 0.321036171410262 
1618	 0.321079531451898 
1619	 0.321098712417461 
1620	 0.321122837893128 
1621	 0.321129594802158 
1622	 0.321139359746805 
1623	 0.321167857447499 
1624	 0.3211653784589 
1625	 0.321138121744498 
1626	 0.321114304147504 
1627	 0.321062712067881 
1628	 0.321033177350961 
1629	 0.321021774920618 
1630	 0.321001476000668 
1631	 0.320997888277883 
1632	 0.320969087766102 
1633	 0.320916554706686 
1634	 0.320870801484836 
1635	 0.320803237486066 
1636	 0.320757208895345 
1637	 0.320735876132684 
1638	 0.320698685343686 
1639	 0.320675159684502 
1640	 0.32062694404404 
1641	 0.320559231987182 
1642	 0.320482370797368 
1643	 0.320406565415723 
1644	 0.320288902844874 
1645	 0.320142571855748 
1646	 0.319987425418477 
1647	 0.319798104338563 
1648	 0.319599317210896 
1649	 0.319401770832087 
1650	 0.31916977096841 
1651	 0.318915078204466 
1652	 0.318636200790204 
1653	 0.318354907525341 
1654	 0.318005963971046 
1655	 0.317625517143348 
1656	 0.317170053416447 
1657	 0.316654159450681 
1658	 0.31606862062166 
1659	 0.315410474823695 
1660	 0.314706963008508 
1661	 0.313942695697201 
1662	 0.313114579034378 
1663	 0.312238407272386 
1664	 0.311272916797806 
1665	 0.310248803550417 
1666	 0.309109398521882 
1667	 0.307869991144761 
1668	 0.306570417486013 
1669	 0.305180285408923 
1670	 0.30370475157481 
1671	 0.302141860910761 
1672	 0.30050815563092 
1673	 0.298776694050331 
1674	 0.296984437076847 
1675	 0.295129974225698 
1676	 0.293242244484341 
1677	 0.2912781320202 
1678	 0.289284409175482 
1679	 0.287225239239569 
1680	 0.285157212483547 
1681	 0.283039019006207 
1682	 0.280922584281157 
1683	 0.278784745639108 
1684	 0.276713306818935 
1685	 0.274644252728291 
1686	 0.272603113472701 
1687	 0.270596627857677 
1688	 0.26860468488043 
1689	 0.266619856353719 
1690	 0.26466505663743 
1691	 0.262748578907673 
1692	 0.260895346301077 
1693	 0.25907487244155 
1694	 0.257286848272257 
1695	 0.255561095844705 
1696	 0.253816986389651 
1697	 0.252089328464865 
1698	 0.250342235181558 
1699	 0.248597873743089 
1700	 0.246912411395556 
1701	 0.245212034064189 
1702	 0.243600008675762 
1703	 0.242036089464682 
1704	 0.240540219339943 
1705	 0.239088551097091 
1706	 0.237696056680506 
1707	 0.236454238336485 
1708	 0.235254486540153 
1709	 0.234142458965629 
1710	 0.233136135712229 
1711	 0.232129368110641 
1712	 0.231182454670521 
1713	 0.230264373134838 
1714	 0.229324392438551 
1715	 0.228476184613555 
1716	 0.227669596890197 
1717	 0.226888997579899 
1718	 0.226181446349099 
1719	 0.225528064882083 
1720	 0.224949533463943 
1721	 0.224446025633809 
1722	 0.224033247437376 
1723	 0.223752408734029 
1724	 0.223603312164482 
1725	 0.223614042686054 
1726	 0.223834332294641 
1727	 0.224224494399172 
1728	 0.224774720734958 
1729	 0.225536393680793 
1730	 0.226462847990524 
1731	 0.227470877710254 
1732	 0.228614792755633 
1733	 0.229776393627781 
1734	 0.230943447590356 
1735	 0.232152012181675 
1736	 0.233276308802233 
1737	 0.234301692382797 
1738	 0.23518536650154 
1739	 0.235937287785578 
1740	 0.236557958974567 
1741	 0.237061447657793 
1742	 0.237423182428162 
1743	 0.237718505166679 
1744	 0.237874216311589 
1745	 0.237995480757039 
1746	 0.238027630750136 
1747	 0.238042653046906 
1748	 0.237973747914387 
1749	 0.237954912944664 
1750	 0.237926243861628 
1751	 0.237919408722843 
1752	 0.237912483974672 
1753	 0.23796849298118 
1754	 0.238015559686315 
1755	 0.238201321971588 
1756	 0.238458229773859 
1757	 0.23882520627124 
1758	 0.239307409586558 
1759	 0.239849907557042 
1760	 0.24054224354215 
1761	 0.241365582871247 
1762	 0.242253962322695 
1763	 0.243316454288066 
1764	 0.24446565551947 
1765	 0.245692115154879 
1766	 0.247059848318501 
1767	 0.248366330707841 
1768	 0.249722961390488 
1769	 0.251133952194177 
1770	 0.252405273091488 
1771	 0.253689186453999 
1772	 0.25488924239969 
1773	 0.25594160634991 
1774	 0.257015264886419 
1775	 0.258004024772458 
1776	 0.258941019247553 
1777	 0.259831574953381 
1778	 0.260572915541633 
1779	 0.261258549383748 
1780	 0.261881442238265 
1781	 0.262441572404951 
1782	 0.263001357479875 
1783	 0.263501919067667 
1784	 0.26392748868028 
1785	 0.264240251959259 
1786	 0.264541356099193 
1787	 0.264780477056649 
1788	 0.265024687047626 
1789	 0.265254050855163 
1790	 0.26546278384206 
1791	 0.265650620591498 
1792	 0.26583928903025 
1793	 0.266012292177693 
1794	 0.266187349650305 
1795	 0.266322970385024 
1796	 0.266464063351469 
1797	 0.266597728624076 
1798	 0.266712893039718 
1799	 0.266896172362008 
1800	 0.26707023428226 
1801	 0.263619645055707 
1802	 0.263784837917632 
1803	 0.263967691185602 
1804	 0.264147914620828 
1805	 0.264368591280738 
1806	 0.264562065675318 
1807	 0.26475211625248 
1808	 0.264946474575416 
1809	 0.265140024350384 
1810	 0.265327347155132 
1811	 0.265514545051466 
1812	 0.265709715183192 
1813	 0.265904620198215 
1814	 0.266096323587918 
1815	 0.266289920866366 
1816	 0.266500394358109 
1817	 0.266723379510878 
1818	 0.266952731988115 
1819	 0.26718608694375 
1820	 0.267445733530762 
1821	 0.267690851243804 
1822	 0.267925898455786 
1823	 0.268178646985155 
1824	 0.268408382108174 
1825	 0.268638978054059 
1826	 0.268868216152946 
1827	 0.269079569379859 
1828	 0.269308195094053 
1829	 0.269549883629406 
1830	 0.269778346187473 
1831	 0.269990678613835 
1832	 0.270240858111417 
1833	 0.270489091973151 
1834	 0.270732203656147 
1835	 0.270985960120075 
1836	 0.271215714655922 
1837	 0.271439738658312 
1838	 0.271635445268911 
1839	 0.271861732762991 
1840	 0.272099030962989 
1841	 0.27232981462192 
1842	 0.272565207845568 
1843	 0.27280039652044 
1844	 0.273048337536615 
1845	 0.273279940999721 
1846	 0.273498999679877 
1847	 0.273697694583163 
1848	 0.273872891075458 
1849	 0.274007666409213 
1850	 0.274148532839354 
1851	 0.274287773469525 
1852	 0.274411182635768 
1853	 0.274487443512032 
1854	 0.274526838225567 
1855	 0.274533575561668 
1856	 0.274503681452295 
1857	 0.274433039534875 
1858	 0.274355930451897 
1859	 0.274246560035651 
1860	 0.274095814108396 
1861	 0.273915704316301 
1862	 0.273719008282349 
1863	 0.273492337725093 
1864	 0.273203110778621 
1865	 0.272913266379718 
1866	 0.272587178129212 
1867	 0.272175635423499 
1868	 0.271730722210137 
1869	 0.271214253533578 
1870	 0.270633715726744 
1871	 0.26998417903887 
1872	 0.26930417084286 
1873	 0.268568451484958 
1874	 0.26781005678591 
1875	 0.266996023074055 
1876	 0.266064179487085 
1877	 0.265103646226655 
1878	 0.26402261710692 
1879	 0.26284955970796 
1880	 0.261677415119029 
1881	 0.260359473777271 
1882	 0.258930248454651 
1883	 0.257417911608045 
1884	 0.255770545989476 
1885	 0.253888748964188 
1886	 0.25194658132364 
1887	 0.249812295600892 
1888	 0.247467868497875 
1889	 0.245192187915854 
1890	 0.242762989331336 
1891	 0.240297062001734 
1892	 0.237833063294772 
1893	 0.235276154610986 
1894	 0.232584778421408 
1895	 0.229993173037585 
1896	 0.227339501112514 
1897	 0.224683704080902 
1898	 0.22227173784202 
1899	 0.219790043811914 
1900	 0.217387343868806 
1901	 0.215133275336963 
1902	 0.212770640298506 
1903	 0.210564414552364 
1904	 0.208452237061766 
1905	 0.206405870858404 
1906	 0.204430183535283 
1907	 0.202719309138893 
1908	 0.201057300211788 
1909	 0.199486294963848 
1910	 0.198072774544883 
1911	 0.196663909849265 
1912	 0.195366145927906 
1913	 0.1941484032415 
1914	 0.192983182823335 
1915	 0.191926154012891 
1916	 0.190986045016361 
1917	 0.190065170299027 
1918	 0.189233926425305 
1919	 0.188485848747255 
1920	 0.187735370719579 
1921	 0.187078572127904 
1922	 0.186444326004155 
1923	 0.185829364057539 
1924	 0.185323913275944 
1925	 0.184837958517395 
1926	 0.184387167789299 
1927	 0.183992589767703 
1928	 0.183627748626595 
1929	 0.183282718829988 
1930	 0.182985324333821 
1931	 0.18274211764163 
1932	 0.182547245983992 
1933	 0.182419747707907 
1934	 0.182330686584144 
1935	 0.182265014268302 
1936	 0.182252396682285 
1937	 0.182275641581087 
1938	 0.182323645068258 
1939	 0.182416792356857 
1940	 0.18255622399171 
1941	 0.182745058652135 
1942	 0.182953281053101 
1943	 0.183190013510168 
1944	 0.183449082006311 
1945	 0.183744100168944 
1946	 0.184068162356277 
1947	 0.184399028773367 
1948	 0.184778176495075 
1949	 0.185177287699704 
1950	 0.185572847986506 
1951	 0.185981344050553 
1952	 0.186405727108661 
1953	 0.186843357359482 
1954	 0.187269080198307 
1955	 0.187725176953492 
1956	 0.188177121479134 
1957	 0.188629577123335 
1958	 0.189086243355023 
1959	 0.189525302321168 
1960	 0.189966492584245 
1961	 0.190414771341989 
1962	 0.190855293809659 
1963	 0.191314158606963 
1964	 0.191794456470904 
1965	 0.192258439592047 
1966	 0.192721316798038 
1967	 0.193199410641736 
1968	 0.19364868262695 
1969	 0.194102873539046 
1970	 0.194558247387675 
1971	 0.195006944919252 
1972	 0.195481196209141 
1973	 0.195945096486352 
1974	 0.196401845215479 
1975	 0.196873649842924 
1976	 0.197315166064755 
1977	 0.197731125166929 
1978	 0.198149121300466 
1979	 0.198554402083738 
1980	 0.198954236732823 
1981	 0.19936572704864 
1982	 0.199769481128635 
1983	 0.200194836774464 
1984	 0.200614791569636 
1985	 0.200991974068308 
1986	 0.201378470574061 
1987	 0.201758932506859 
1988	 0.202123228856355 
1989	 0.202483460780739 
1990	 0.2028478344987 
1991	 0.203198319134957 
1992	 0.203537897883072 
1993	 0.203873533953438 
1994	 0.204171362561291 
1995	 0.20447689298607 
1996	 0.204765898338025 
1997	 0.205028231235405 
1998	 0.205299104710681 
1999	 0.205578426229327 
2000	 0.20583676426254 
2001	 0.206088314768333 
2002	 0.206319133935168 
2003	 0.206545063500786 
2004	 0.206746298326586 
2005	 0.206912227707143 
2006	 0.207081241189393 
2007	 0.207248504648895 
2008	 0.207383607881211 
2009	 0.207520385722977 
2010	 0.207646279579284 
2011	 0.207718177088909 
2012	 0.20775593441701 
2013	 0.207762924232552 
2014	 0.207727076657967 
2015	 0.207667224271216 
2016	 0.207583893389395 
2017	 0.207466481429747 
2018	 0.207319523035981 
2019	 0.207129925853378 
2020	 0.206911740319403 
2021	 0.206643786628231 
2022	 0.206332918244241 
2023	 0.205990929112065 
2024	 0.205586161470775 
2025	 0.205155365403351 
2026	 0.204693452124784 
2027	 0.204164129604386 
2028	 0.203661312490707 
2029	 0.203141608290583 
2030	 0.202620362020951 
2031	 0.20209695348114 
2032	 0.201575967690399 
2033	 0.201010347704583 
2034	 0.200513734711686 
2035	 0.20003988971863 
2036	 0.199589931628694 
2037	 0.199203444300102 
2038	 0.198860979329358 
2039	 0.198561162509267 
2040	 0.19830285928288 
2041	 0.198088090851121 
2042	 0.197929052604909 
2043	 0.197797256088065 
2044	 0.197700364852251 
2045	 0.197642103368423 
2046	 0.197640911499834 
2047	 0.197638038812939 
2048	 0.197646905561534 
2049	 0.197705035820415 
2050	 0.197793550466549 
2051	 0.197908843328894 
2052	 0.198045506242301 
2053	 0.198216206792837 
2054	 0.19838906736211 
2055	 0.198561036762843 
2056	 0.19875399387515 
2057	 0.198979083102402 
2058	 0.199196421525876 
2059	 0.199404848301842 
2060	 0.199647309928328 
2061	 0.19992620041732 
2062	 0.2001869180549 
2063	 0.200463302937033 
2064	 0.200732734389529 
2065	 0.200994784432201 
2066	 0.201244036574599 
2067	 0.201526319710888 
2068	 0.20178075776692 
2069	 0.202006682623968 
2070	 0.2022158971375 
2071	 0.20240656541392 
2072	 0.202546832295999 
2073	 0.202725560933683 
2074	 0.202914549620571 
2075	 0.203091843938105 
2076	 0.203291119983997 
2077	 0.203452427170201 
2078	 0.203585704739835 
2079	 0.203715870712865 
2080	 0.203818870050326 
2081	 0.203930344210432 
2082	 0.204046650386075 
2083	 0.204148525053082 
2084	 0.204254653172002 
2085	 0.20435443822115 
2086	 0.204434039768884 
2087	 0.204508237607845 
2088	 0.204553597811933 
2089	 0.204568909306791 
2090	 0.204586627156074 
2091	 0.204578855423892 
2092	 0.204581657991929 
2093	 0.204590529962341 
2094	 0.204586875050245 
2095	 0.204588706352964 
2096	 0.204567704125906 
2097	 0.204533603345834 
2098	 0.204486423787446 
2099	 0.204423706319263 
2100	 0.204316076471429 
2101	 0.204202801886223 
2102	 0.204064024350509 
2103	 0.20392540292314 
2104	 0.203771450158866 
2105	 0.20361270196347 
2106	 0.203454820132746 
2107	 0.20326666408651 
2108	 0.203061015108621 
2109	 0.202841619233243 
2110	 0.202581177496236 
2111	 0.202347357899848 
2112	 0.202125967300457 
2113	 0.201883397868008 
2114	 0.201647452190748 
2115	 0.201391890910074 
2116	 0.201114228747587 
2117	 0.200822896493512 
2118	 0.20052797936072 
2119	 0.200220324753281 
2120	 0.199928986670641 
2121	 0.19961842357434 
2122	 0.199351014536363 
2123	 0.199102113587336 
2124	 0.198873681109001 
2125	 0.198689421329377 
2126	 0.19847969250969 
2127	 0.198293254663961 
2128	 0.198076384626523 
2129	 0.197822879227124 
2130	 0.19759046530267 
2131	 0.197363642537044 
2132	 0.197123494513498 
2133	 0.196893302236814 
2134	 0.196651930264853 
2135	 0.196367248587244 
2136	 0.196085776213878 
2137	 0.195797893183539 
2138	 0.195482977001435 
2139	 0.195207346971337 
2140	 0.194944722204327 
2141	 0.194683248630984 
2142	 0.194435145267642 
2143	 0.194195933166059 
2144	 0.193963417401931 
2145	 0.19373434852528 
2146	 0.193516358668021 
2147	 0.193305631671367 
2148	 0.193094991791982 
2149	 0.192892602602822 
2150	 0.192709070512058 
2151	 0.192522123116197 
2152	 0.192328641407988 
2153	 0.192154829780121 
2154	 0.191971355598217 
2155	 0.191785603853703 
2156	 0.191609843836476 
2157	 0.191449668016649 
2158	 0.191244624160258 
2159	 0.191034805385532 
2160	 0.190808467150593 
2161	 0.190535719031444 
2162	 0.190291840074327 
2163	 0.190039781777117 
2164	 0.189818928228048 
2165	 0.189600532203366 
2166	 0.189415489536836 
2167	 0.189280892505943 
2168	 0.189126551426664 
2169	 0.188965371192752 
2170	 0.188835547039992 
2171	 0.188698487112603 
2172	 0.188603663891547 
2173	 0.188548855449895 
2174	 0.188519175926243 
2175	 0.188491916632896 
2176	 0.188498850664535 
2177	 0.188532152825619 
2178	 0.188589616761485 
2179	 0.188661742844222 
2180	 0.188776474475869 
2181	 0.18887183222278 
2182	 0.188968897619007 
2183	 0.189079524537739 
2184	 0.189185945661658 
2185	 0.189323239552283 
2186	 0.189483117013748 
2187	 0.189647884377763 
2188	 0.189854057526565 
2189	 0.190025358220348 
2190	 0.190191456830328 
2191	 0.190346240274827 
2192	 0.190468677366728 
2193	 0.190610570441312 
2194	 0.190777160396106 
2195	 0.190911088348551 
2196	 0.191033068921304 
2197	 0.191153302648651 
2198	 0.191246443105636 
2199	 0.191334583484992 
2200	 0.19140536327269 
2201	 0.191469171540724 
2202	 0.191525547054829 
2203	 0.191573709261659 
2204	 0.191578676824589 
2205	 0.191564994429344 
2206	 0.191547042130248 
2207	 0.19147761452612 
2208	 0.19143963830094 
2209	 0.191439920726671 
2210	 0.191384945616991 
2211	 0.191318759793584 
2212	 0.191217297584657 
2213	 0.191077235158282 
2214	 0.190921542909268 
2215	 0.19073000399041 
2216	 0.190533910568954 
2217	 0.1903422814938 
2218	 0.190102881106382 
2219	 0.189859620144033 
2220	 0.189553022242064 
2221	 0.189188391818844 
2222	 0.188774447385781 
2223	 0.188355641538663 
2224	 0.187901069185652 
2225	 0.187438101578825 
2226	 0.186913714350462 
2227	 0.186273218915523 
2228	 0.18554715542408 
2229	 0.184757726228198 
2230	 0.18384299117081 
2231	 0.182935223997237 
2232	 0.182016617837735 
2233	 0.180972592498754 
2234	 0.179894371468692 
2235	 0.17866923582779 
2236	 0.177296268866182 
2237	 0.175877872389274 
2238	 0.174319294245592 
2239	 0.172766775712557 
2240	 0.171187651015056 
2241	 0.169523570554826 
2242	 0.167857155253762 
2243	 0.166039371304352 
2244	 0.164064965020753 
2245	 0.162084903662682 
2246	 0.159938120979175 
2247	 0.157866580489857 
2248	 0.155826157107866 
2249	 0.153743972667092 
2250	 0.151650386084509 
2251	 0.149600069408238 
2252	 0.147374471252595 
2253	 0.145234737584512 
2254	 0.14309236974829 
2255	 0.140944389655254 
2256	 0.139008999468744 
2257	 0.137098370000888 
2258	 0.135271159193099 
2259	 0.133571998353077 
2260	 0.131835300400169 
2261	 0.1301020618195 
2262	 0.128489133769745 
2263	 0.126875411551604 
2264	 0.125445585521653 
2265	 0.124185205499412 
2266	 0.12293277252328 
2267	 0.121824169213671 
2268	 0.120667469790765 
2269	 0.119532389564438 
2270	 0.118430789582047 
2271	 0.11731256278428 
2272	 0.116273643560012 
2273	 0.115324184700037 
2274	 0.114339859807728 
2275	 0.113431635141942 
2276	 0.112451572665414 
2277	 0.111434189760311 
2278	 0.11039948912789 
2279	 0.109317627489267 
2280	 0.108233452090261 
2281	 0.107132318358042 
2282	 0.106021824607087 
2283	 0.104905074635826 
2284	 0.103772460827882 
2285	 0.10259260701271 
2286	 0.101460425053726 
2287	 0.100296687160806 
2288	 9.91010140938035E-02 
2289	 9.79210994464784E-02 
2290	 9.66807791122626E-02 
2291	 9.54838530701956E-02 
2292	 9.42852059999456E-02 
2293	 9.30749583822113E-02 
2294	 9.19441012610711E-02 
2295	 9.08135829323597E-02 
2296	 0.089770162238844 
2297	 8.88755382228796E-02 
2298	 8.81034015929113E-02 
2299	 8.74239473121901E-02 
2300	 8.68610582899221E-02 
2301	 8.64356217262246E-02 
2302	 8.60995975114649E-02 
2303	 8.59651257416163E-02 
2304	 0.086011979046021 
2305	 8.61865217373212E-02 
2306	 8.65358134561099E-02 
2307	 8.70077617538368E-02 
2308	 8.76262963190286E-02 
2309	 8.83850658559297E-02 
2310	 8.93388938012664E-02 
2311	 9.03264505427594E-02 
2312	 9.15196807700735E-02 
2313	 9.26214880027853E-02 
2314	 9.37913615518118E-02 
2315	 9.48757082358628E-02 
2316	 0.095933323000256 
2317	 9.69074755177298E-02 
2318	 9.78580659616545E-02 
2319	 9.86635599446069E-02 
2320	 9.94027819725563E-02 
2321	 9.99870807675732E-02 
2322	 0.10041339454909 
2323	 0.100747639986079 
2324	 0.100894540833043 
2325	 0.101024258914623 
2326	 0.101094882049322 
2327	 0.101059887919992 
2328	 0.100951336034061 
2329	 0.100763653121931 
2330	 0.100475249041384 
2331	 0.100079182577337 
2332	 0.099607833516215 
2333	 9.90350147151891E-02 
2334	 9.83836364655936E-02 
2335	 9.76921127460112E-02 
2336	 9.69560619040777E-02 
2337	 9.61964566653605E-02 
2338	 9.54200279116579E-02 
2339	 9.46046332576144E-02 
2340	 9.38353357834081E-02 
2341	 9.31601539717198E-02 
2342	 9.25076749488516E-02 
2343	 9.19136277773215E-02 
2344	 9.14401553239282E-02 
2345	 9.10888848025638E-02 
2346	 0.090954419186522 
2347	 9.10611514867914E-02 
2348	 9.13003306140533E-02 
2349	 9.17524812979532E-02 
2350	 9.23312578486185E-02 
2351	 9.30154579076182E-02 
2352	 9.39065986575982E-02 
2353	 0.094840520325541 
2354	 9.56763139523112E-02 
2355	 9.64741845021416E-02 
2356	 9.71706418379705E-02 
2357	 9.77855024243502E-02 
2358	 9.84112268902465E-02 
2359	 9.89551794855718E-02 
2360	 9.93981099939144E-02 
2361	 9.97049270846897E-02 
2362	 9.99432622321657E-02 
2363	 0.10012615931356 
2364	 0.100219605571978 
2365	 0.100315032700658 
2366	 0.100447220305343 
2367	 0.100593727286251 
2368	 0.100698429867102 
2369	 0.100723148950071 
2370	 0.100675516060497 
2371	 0.100624797660694 
2372	 0.10065771637562 
2373	 0.100757964394877 
2374	 0.100891461879496 
2375	 0.100994912260082 
2376	 0.101025630421396 
2377	 0.101042969402653 
2378	 0.101023159941912 
2379	 0.101026865678042 
2380	 0.101088384195532 
2381	 0.101105042607341 
2382	 0.101140892607588 
2383	 0.101182728954186 
2384	 0.101242162756183 
2385	 0.101334180322783 
2386	 0.101411897231833 
2387	 0.101500231928242 
2388	 0.101550437325506 
2389	 0.101588696301436 
2390	 0.101568258931029 
2391	 0.101479632916099 
2392	 0.101470287585586 
2393	 0.101444311263175 
2394	 0.10144672554556 
2395	 0.101524207061994 
2396	 0.101559696056902 
2397	 0.101547482087966 
2398	 0.101562842198957 
2399	 0.101616071299265 
2400	 0.101703044870747 
2401	 0.101803858621232 
2402	 0.101894863783452 
2403	 0.101949985995723 
2404	 0.101901728453434 
2405	 0.10190526990152 
2406	 0.101982047018153 
2407	 0.102018030801361 
2408	 0.102032871620108 
2409	 0.102082285939604 
2410	 0.102136799913857 
2411	 0.102154787626008 
2412	 0.102113942101354 
2413	 0.102119005818631 
2414	 0.102181277756849 
2415	 0.102171912831257 
2416	 0.102209197965606 
2417	 0.102218988250412 
2418	 0.102094429450057 
2419	 0.102016247114585 
2420	 0.101987347716099 
2421	 0.102048570393562 
2422	 0.10212496350842 
2423	 0.102152950059418 
2424	 0.102157948831514 
2425	 0.10208285138758 
2426	 0.102009480022144 
2427	 0.101967847094391 
2428	 0.101896453072061 
2429	 0.101809485398659 
2430	 0.101769970950888 
2431	 0.101759886417941 
2432	 0.101805309748522 
2433	 0.101865631212232 
2434	 0.101868867826809 
2435	 0.101778484095123 
2436	 0.101623322899386 
2437	 0.101528137502587 
2438	 0.101393288732294 
2439	 0.101268818151064 
2440	 0.10113510552506 
2441	 0.10081671505326 
2442	 0.10058133223154 
2443	 0.100427357412601 
2444	 0.100250219866511 
2445	 0.100077375220813 
2446	 9.97887613421536E-02 
2447	 9.94363423433017E-02 
2448	 9.90103899012167E-02 
2449	 9.86179195406352E-02 
2450	 9.82728441313329E-02 
2451	 0.097898127658848 
2452	 9.77002380189812E-02 
2453	 9.75618810269015E-02 
2454	 0.097325766405963 
2455	 9.71806461925463E-02 
2456	 9.70211834484308E-02 
2457	 9.67510974731656E-02 
2458	 9.65585831927115E-02 
2459	 9.64044327440947E-02 
2460	 9.61647240482193E-02 
2461	 9.58329167755276E-02 
2462	 9.54473124095044E-02 
2463	 9.51837496118087E-02 
2464	 9.50373104352291E-02 
2465	 9.49520338628601E-02 
2466	 9.50429535218928E-02 
2467	 9.49399059954948E-02 
2468	 9.46349440702345E-02 
2469	 9.44138144801814E-02 
2470	 9.42140990926548E-02 
2471	 9.41859843463048E-02 
2472	 9.41914623892418E-02 
2473	 9.40906322781175E-02 
2474	 9.39845061524205E-02 
2475	 9.39172795973978E-02 
2476	 9.37677352392381E-02 
2477	 9.36662850128059E-02 
2478	 9.38082338223076E-02 
2479	 9.37648217159086E-02 
2480	 9.38166079895507E-02 
2481	 9.38335855518241E-02 
2482	 9.37165325883469E-02 
2483	 9.37115489557641E-02 
2484	 9.36073831920651E-02 
2485	 9.35419489319993E-02 
2486	 0.093492552421578 
2487	 9.34794159043246E-02 
2488	 9.36665326393001E-02 
2489	 9.37227561361373E-02 
2490	 9.39806652562733E-02 
2491	 0.09440754797984 
2492	 9.44696444425896E-02 
2493	 9.44286712049539E-02 
2494	 9.42319489888542E-02 
2495	 9.39568472355501E-02 
2496	 9.39413074452489E-02 
2497	 9.41338724086085E-02 
2498	 9.44686365290528E-02 
2499	 9.46014456332096E-02 
2500	 9.45384643263052E-02 
