Wavelength	spectrum00014.asd
350	 6.18993898132602E-02 
351	 5.79091339455111E-02 
352	 5.54567664596625E-02 
353	 5.70057427055693E-02 
354	 5.60623719545846E-02 
355	 5.63288495445495E-02 
356	 5.69010556948914E-02 
357	 5.64610266755923E-02 
358	 0.055243486256998 
359	 5.46592462551194E-02 
360	 5.46402495147451E-02 
361	 5.44578296296147E-02 
362	 5.51414196639928E-02 
363	 5.52737037278071E-02 
364	 5.45740708589376E-02 
365	 5.44747199310229E-02 
366	 5.55448553237792E-02 
367	 5.60064479461211E-02 
368	 5.48822937325759E-02 
369	 5.56794359271334E-02 
370	 5.62075476574126E-02 
371	 5.64456757374819E-02 
372	 5.73798443029912E-02 
373	 0.056883929674996 
374	 5.74590647882734E-02 
375	 0.059331146500759 
376	 5.88425317000657E-02 
377	 5.95896644569985E-02 
378	 0.060125559836742 
379	 5.89533868056668E-02 
380	 5.88122577073356E-02 
381	 6.01108255254884E-02 
382	 6.15914591805857E-02 
383	 6.13931133484034E-02 
384	 6.21914926891553E-02 
385	 6.27966766440199E-02 
386	 6.26700471629125E-02 
387	 6.29068302610421E-02 
388	 6.30934464551003E-02 
389	 6.39233278529451E-02 
390	 6.54965826232372E-02 
391	 6.47084849672571E-02 
392	 6.46294810089937E-02 
393	 6.55781367883718E-02 
394	 6.60182159566321E-02 
395	 6.63667504814624E-02 
396	 6.70227669048016E-02 
397	 6.77330025919442E-02 
398	 6.70894971130024E-02 
399	 6.72209673013517E-02 
400	 6.78495287324369E-02 
401	 6.81396527519784E-02 
402	 0.068079247357186 
403	 6.87220592985944E-02 
404	 6.95407765963899E-02 
405	 6.90295649857414E-02 
406	 6.93979469709208E-02 
407	 6.97890865523768E-02 
408	 6.97630154197309E-02 
409	 7.06640336578981E-02 
410	 7.08341231440852E-02 
411	 7.06309320754743E-02 
412	 0.07095321122124 
413	 7.18919823009963E-02 
414	 7.22390933668374E-02 
415	 7.20598853874444E-02 
416	 7.25415563696531E-02 
417	 7.27523246850469E-02 
418	 7.29352752107706E-02 
419	 7.33119438291424E-02 
420	 7.35490027470095E-02 
421	 7.40754321155206E-02 
422	 7.46604964057233E-02 
423	 7.49011752111506E-02 
424	 7.51511281216642E-02 
425	 7.55616015146943E-02 
426	 7.60765767400721E-02 
427	 7.64327814882309E-02 
428	 7.69031127365837E-02 
429	 7.74130638210508E-02 
430	 7.78847304936687E-02 
431	 0.078494562585288 
432	 7.90095093529705E-02 
433	 7.94090572210281E-02 
434	 7.98235961112063E-02 
435	 8.05178102008128E-02 
436	 8.12641024350944E-02 
437	 8.18879216926439E-02 
438	 8.23782068855543E-02 
439	 8.29151069373329E-02 
440	 8.35638295326352E-02 
441	 8.42851811073641E-02 
442	 8.47826238923195E-02 
443	 8.53905073672543E-02 
444	 8.61103304248563E-02 
445	 8.66792298148681E-02 
446	 8.72703641583018E-02 
447	 8.78500875839106E-02 
448	 8.83964950457589E-02 
449	 8.89641977988547E-02 
450	 8.97418421628826E-02 
451	 9.04256127618313E-02 
452	 9.06763019699396E-02 
453	 9.11954669328385E-02 
454	 9.17775136037559E-02 
455	 9.23250815933247E-02 
456	 9.29315514572356E-02 
457	 9.34037078947158E-02 
458	 0.09377105383072 
459	 9.41439436369708E-02 
460	 9.47245251235275E-02 
461	 0.095172016167273 
462	 9.54988877672394E-02 
463	 9.58990620803579E-02 
464	 9.62119269827506E-02 
465	 9.66360113466737E-02 
466	 9.71433976730302E-02 
467	 9.72985294426712E-02 
468	 9.74749576087183E-02 
469	 0.097726123457743 
470	 9.80249772242935E-02 
471	 9.84402203421963E-02 
472	 9.87629259191271E-02 
473	 9.89680003267152E-02 
474	 9.91865994145364E-02 
475	 0.099461552870065 
476	 9.97166206320693E-02 
477	 0.099940339094454 
478	 0.100341268137268 
479	 0.100539068947103 
480	 0.100707949539115 
481	 0.101148494839039 
482	 0.101461963870623 
483	 0.101728224836668 
484	 0.102026594168266 
485	 0.102392501830317 
486	 0.102825339890916 
487	 0.103242467364227 
488	 0.103581496323905 
489	 0.10389015375488 
490	 0.104245432209275 
491	 0.104664290986552 
492	 0.105114170115447 
493	 0.105492156553973 
494	 0.105852841204244 
495	 0.106248811270256 
496	 0.106691379099701 
497	 0.107205419410208 
498	 0.107774324175433 
499	 0.108370418446805 
500	 0.109001152824945 
501	 0.109609408026261 
502	 0.110189773511531 
503	 0.110787047897751 
504	 0.111479683716317 
505	 0.11212205466384 
506	 0.112681635486125 
507	 0.113522686231459 
508	 0.114211898162951 
509	 0.114797205356852 
510	 0.115510688824367 
511	 0.11621050889607 
512	 0.116997803772862 
513	 0.117842506450169 
514	 0.118527745786506 
515	 0.119156617583583 
516	 0.119841841229592 
517	 0.120630340687945 
518	 0.121323391570905 
519	 0.122084683993051 
520	 0.122888366010572 
521	 0.123586563944032 
522	 0.124297920126826 
523	 0.124982689408763 
524	 0.125636618115201 
525	 0.12637962589954 
526	 0.127055318919972 
527	 0.127696795025897 
528	 0.128380442060371 
529	 0.129007523086126 
530	 0.129649344256947 
531	 0.130341591788362 
532	 0.131066573810244 
533	 0.131630771509228 
534	 0.132165615597299 
535	 0.132788157723251 
536	 0.133347527889356 
537	 0.133967273088298 
538	 0.134599070509742 
539	 0.135117395047634 
540	 0.135630937341916 
541	 0.136151195458342 
542	 0.136663084104183 
543	 0.137123602361354 
544	 0.13762406225363 
545	 0.138095587380566 
546	 0.138467697887383 
547	 0.138899504820551 
548	 0.13931410206903 
549	 0.13969681659764 
550	 0.140093643338831 
551	 0.140449746679158 
552	 0.140812210837689 
553	 0.141203568073582 
554	 0.141538340774211 
555	 0.141826454936262 
556	 0.142125648275235 
557	 0.142495261766583 
558	 0.142812490808122 
559	 0.143104598528739 
560	 0.143381236936942 
561	 0.143607357391027 
562	 0.143823162879443 
563	 0.14404567703287 
564	 0.144268545339699 
565	 0.144423648039315 
566	 0.144582214129389 
567	 0.144747265022514 
568	 0.144873225789712 
569	 0.145018587092431 
570	 0.145179896315279 
571	 0.145335535990805 
572	 0.145439916715053 
573	 0.145587111347306 
574	 0.145762526841209 
575	 0.14591321853744 
576	 0.14604729808819 
577	 0.146136001691873 
578	 0.146193994007744 
579	 0.146285169789786 
580	 0.146381461175625 
581	 0.146469366653294 
582	 0.146540981305034 
583	 0.146592851282129 
584	 0.146667976837514 
585	 0.146761254661051 
586	 0.146838905385664 
587	 0.146895229018441 
588	 0.146986452797499 
589	 0.147103038991094 
590	 0.147114731916825 
591	 0.147153691873471 
592	 0.147231415359809 
593	 0.147312644493534 
594	 0.147331889929824 
595	 0.147365742911546 
596	 0.147430464218493 
597	 0.147484569783569 
598	 0.147517966903834 
599	 0.147562651236668 
600	 0.147637221636765 
601	 0.147712037804586 
602	 0.147764010939282 
603	 0.147799322907901 
604	 0.147841087518546 
605	 0.147917491183175 
606	 0.147983290489857 
607	 0.148026478428745 
608	 0.1480834350136 
609	 0.148129489324442 
610	 0.148196545130078 
611	 0.148296937542635 
612	 0.148331136759058 
613	 0.148376173636364 
614	 0.1484407073412 
615	 0.148489758955171 
616	 0.148536912042835 
617	 0.148585730443779 
618	 0.148641071431426 
619	 0.148712029201944 
620	 0.148797821346315 
621	 0.148880874043036 
622	 0.148942475562532 
623	 0.14898343540181 
624	 0.149053396813148 
625	 0.149152983889214 
626	 0.149236021861798 
627	 0.149300187370664 
628	 0.149387574919897 
629	 0.149502807570888 
630	 0.14952964135432 
631	 0.149579773143901 
632	 0.149666800188713 
633	 0.149757463145413 
634	 0.149826767310953 
635	 0.149901140886214 
636	 0.149989383128025 
637	 0.150072303944357 
638	 0.150185379819258 
639	 0.150260635885602 
640	 0.150266527962301 
641	 0.150371699362718 
642	 0.150473919189779 
643	 0.15054985052211 
644	 0.150628215953103 
645	 0.150729293294469 
646	 0.150814411337913 
647	 0.150877034445807 
648	 0.150975041371189 
649	 0.151088641589726 
650	 0.151167134038722 
651	 0.15119121211552 
652	 0.151316581888537 
653	 0.151431830810738 
654	 0.151510147096721 
655	 0.151598569070079 
656	 0.151675033055253 
657	 0.151758249549422 
658	 0.151854154332342 
659	 0.151925762384184 
660	 0.152034722582984 
661	 0.152160599894789 
662	 0.152260178058352 
663	 0.152354698747449 
664	 0.15242404128676 
665	 0.152491470130326 
666	 0.152620724511572 
667	 0.152744483813982 
668	 0.152838686942908 
669	 0.152909852652391 
670	 0.153017204730083 
671	 0.153133713962386 
672	 0.153235858477492 
673	 0.153315147378326 
674	 0.153458755145908 
675	 0.153580484477482 
676	 0.153663966667644 
677	 0.153792695628169 
678	 0.153907543220427 
679	 0.15400967071735 
680	 0.154117704683867 
681	 0.154261366551442 
682	 0.154404869192421 
683	 0.154533387894202 
684	 0.154647293028962 
685	 0.154760680745232 
686	 0.154881130257934 
687	 0.155006140003628 
688	 0.155120199348776 
689	 0.155272260307293 
690	 0.155436392129324 
691	 0.155584299196355 
692	 0.155761379306621 
693	 0.1558765918065 
694	 0.155971258432898 
695	 0.156155558294278 
696	 0.156333378545954 
697	 0.156490993407903 
698	 0.156646799335137 
699	 0.156854173874272 
700	 0.15704196524767 
701	 0.157214350193376 
702	 0.157395512582026 
703	 0.157593926072586 
704	 0.157806016068754 
705	 0.158010821023792 
706	 0.158185614370459 
707	 0.158411313455596 
708	 0.158642982636122 
709	 0.158856571169025 
710	 0.15909144514465 
711	 0.15932754636631 
712	 0.159553491760629 
713	 0.159772645968947 
714	 0.160036600434984 
715	 0.160298102228636 
716	 0.160544442051838 
717	 0.160791218029341 
718	 0.161055665646412 
719	 0.161349960556063 
720	 0.161653397710797 
721	 0.161888231107519 
722	 0.162214533756866 
723	 0.16255568052309 
724	 0.162814792535605 
725	 0.163119714545073 
726	 0.16345384498068 
727	 0.163800182359068 
728	 0.164142355435316 
729	 0.164459917816265 
730	 0.164767777383624 
731	 0.165096697456511 
732	 0.165495603189994 
733	 0.165893096644413 
734	 0.166280501976925 
735	 0.166662782048426 
736	 0.167013685430238 
737	 0.167387368183559 
738	 0.16779372625423 
739	 0.168210897889461 
740	 0.168639925697029 
741	 0.169046663894383 
742	 0.169447040808894 
743	 0.169937545752722 
744	 0.17037580387723 
745	 0.170799601176894 
746	 0.171266736950236 
747	 0.171728482057387 
748	 0.172171076226073 
749	 0.172611323751096 
750	 0.173082631045682 
751	 0.173595189942637 
752	 0.174086931076684 
753	 0.174564032273859 
754	 0.17512603172384 
755	 0.175605832919692 
756	 0.17608087142341 
757	 0.176625388261537 
758	 0.177130516077871 
759	 0.177626503333652 
760	 0.178138146460798 
761	 0.178681645697011 
762	 0.179227685925643 
763	 0.179793310757714 
764	 0.180352798002618 
765	 0.180841919046809 
766	 0.181387485791124 
767	 0.181936485907695 
768	 0.182453991750032 
769	 0.183032761159229 
770	 0.183594807370659 
771	 0.18413268697674 
772	 0.18466784943325 
773	 0.185228608693411 
774	 0.185771378734408 
775	 0.186289398551184 
776	 0.186808859455513 
777	 0.187325059046583 
778	 0.187842254506673 
779	 0.188371863490776 
780	 0.188937035476412 
781	 0.189433098005192 
782	 0.189877328454568 
783	 0.190340802585188 
784	 0.190946828308288 
785	 0.191501650419232 
786	 0.191965697224029 
787	 0.192402760199934 
788	 0.192881743003835 
789	 0.193353276732739 
790	 0.193781166351924 
791	 0.194164828917199 
792	 0.194608585625351 
793	 0.195056945086993 
794	 0.195467753260785 
795	 0.19592227386354 
796	 0.196335827809694 
797	 0.196719906500256 
798	 0.197107446029589 
799	 0.197445049570153 
800	 0.197793154385294 
801	 0.198164766135785 
802	 0.198527243695402 
803	 0.198827185209309 
804	 0.19909767593875 
805	 0.199376973769209 
806	 0.199689134744945 
807	 0.200013652280382 
808	 0.200309340594872 
809	 0.200555976279288 
810	 0.200804604905428 
811	 0.201062681602708 
812	 0.201299056584257 
813	 0.201486992269841 
814	 0.201735897442821 
815	 0.201959342127266 
816	 0.202125716753934 
817	 0.202264725183716 
818	 0.202383850733333 
819	 0.202522259889097 
820	 0.202688518402653 
821	 0.202837096215521 
822	 0.202959555579837 
823	 0.203068934062266 
824	 0.203175243018622 
825	 0.20325355872015 
826	 0.203338590589781 
827	 0.203411518771561 
828	 0.203449905400839 
829	 0.203562044873315 
830	 0.203661209638923 
831	 0.203701211198333 
832	 0.203690760240468 
833	 0.203691072822952 
834	 0.203721297223604 
835	 0.203762885939529 
836	 0.20375417989049 
837	 0.203778926824623 
838	 0.203816596769975 
839	 0.203835264115655 
840	 0.203846896746859 
841	 0.203874339364379 
842	 0.203885516141699 
843	 0.203843783185291 
844	 0.203808080377457 
845	 0.203763498748014 
846	 0.203727399984942 
847	 0.203731038715456 
848	 0.203700210593234 
849	 0.203661932168329 
850	 0.203638359973213 
851	 0.203627474217552 
852	 0.203565950868004 
853	 0.203495425572461 
854	 0.203474596379349 
855	 0.203555097817367 
856	 0.203558119781375 
857	 0.203505754491541 
858	 0.203468778100768 
859	 0.203431343104451 
860	 0.203366607583906 
861	 0.203303940600768 
862	 0.203296073801063 
863	 0.203355577104237 
864	 0.203331587428445 
865	 0.203252647116856 
866	 0.203283569721926 
867	 0.203210756431168 
868	 0.203153834973664 
869	 0.203171003127632 
870	 0.203175337484437 
871	 0.203179453625095 
872	 0.203170919884544 
873	 0.203141014931982 
874	 0.203090647911884 
875	 0.203118202883902 
876	 0.203172870043228 
877	 0.203183594302822 
878	 0.203193188883335 
879	 0.203226909427122 
880	 0.203271741008143 
881	 0.203302066768673 
882	 0.203342497685521 
883	 0.203375554688916 
884	 0.203407619316716 
885	 0.203462387830617 
886	 0.203533610564188 
887	 0.203615969380121 
888	 0.203683326187422 
889	 0.203696458911092 
890	 0.203781866746798 
891	 0.203898302956755 
892	 0.203986027813029 
893	 0.204011667935522 
894	 0.204141528407114 
895	 0.204294464073021 
896	 0.204381019088969 
897	 0.204461729572904 
898	 0.204578862503904 
899	 0.20470617629058 
900	 0.204808038685584 
901	 0.204913863917005 
902	 0.205068886217866 
903	 0.205281643227463 
904	 0.205512463294244 
905	 0.205595883467143 
906	 0.205722467784544 
907	 0.205935878556547 
908	 0.206152952134757 
909	 0.206328833381918 
910	 0.206531075238452 
911	 0.206759682897342 
912	 0.206941952706176 
913	 0.207120027773265 
914	 0.207333492200221 
915	 0.20757905605598 
916	 0.207798846130099 
917	 0.207996899295319 
918	 0.208237149971137 
919	 0.208527086211084 
920	 0.208751956341485 
921	 0.208972579465349 
922	 0.209212457052034 
923	 0.20947830331171 
924	 0.209758209804084 
925	 0.210058604205623 
926	 0.210327175303257 
927	 0.210543867492843 
928	 0.210858634851718 
929	 0.211128585070512 
930	 0.211356859915318 
931	 0.211603282563412 
932	 0.211867469887652 
933	 0.212186396983148 
934	 0.212508123290028 
935	 0.212770296906701 
936	 0.213127568785975 
937	 0.21350912374331 
938	 0.213845486938839 
939	 0.214107527294042 
940	 0.214444550566489 
941	 0.214762783425027 
942	 0.215065852236433 
943	 0.215443002275244 
944	 0.215814288536404 
945	 0.21611458264969 
946	 0.216368305113629 
947	 0.216678708459993 
948	 0.216984802658433 
949	 0.217236980094879 
950	 0.217446700198943 
951	 0.217696342376728 
952	 0.218002303599361 
953	 0.218315919722005 
954	 0.218620594275491 
955	 0.218963898889877 
956	 0.21928835321584 
957	 0.219568572790257 
958	 0.21981896760898 
959	 0.220104057712277 
960	 0.220366295934909 
961	 0.22064794528409 
962	 0.220981598769793 
963	 0.221336335271325 
964	 0.221628560924654 
965	 0.221848237251132 
966	 0.222044555707771 
967	 0.222335296458524 
968	 0.222657388413697 
969	 0.2229759368195 
970	 0.223268545160053 
971	 0.223528290999226 
972	 0.223752361182373 
973	 0.224036310488615 
974	 0.224396328266978 
975	 0.224541698506626 
976	 0.224887034290706 
977	 0.225302091757361 
978	 0.225566022626611 
979	 0.225754424939908 
980	 0.226002126254103 
981	 0.226270243358447 
982	 0.226488889921687 
983	 0.226709218278777 
984	 0.226943868317565 
985	 0.227221552292774 
986	 0.227536561380858 
987	 0.227769392324487 
988	 0.227974559175229 
989	 0.228208855709406 
990	 0.228495292459939 
991	 0.228754813003134 
992	 0.228935358477943 
993	 0.229087831894091 
994	 0.229289275959192 
995	 0.229558170785034 
996	 0.229792951865228 
997	 0.229965341408841 
998	 0.230114716355082 
999	 0.230380727349706 
1000	 0.230687117284643 
1001	 0.230826585606987 
1002	 0.23104075446724 
1003	 0.231254632294633 
1004	 0.231446702452744 
1005	 0.231668028030721 
1006	 0.231842638515363 
1007	 0.231958916177186 
1008	 0.232113343627338 
1009	 0.232278497546072 
1010	 0.232431564614142 
1011	 0.232595123872114 
1012	 0.232739311161454 
1013	 0.232860948350324 
1014	 0.232996124995316 
1015	 0.233119695101217 
1016	 0.233250907350792 
1017	 0.233443428985265 
1018	 0.233600965842522 
1019	 0.233760903693922 
1020	 0.233951687447056 
1021	 0.234102432880903 
1022	 0.23420569989046 
1023	 0.234356055892167 
1024	 0.234522101276057 
1025	 0.234680890661635 
1026	 0.234860266457785 
1027	 0.235020622340447 
1028	 0.235176696726083 
1029	 0.235305377657889 
1030	 0.235418389832698 
1031	 0.235585094566072 
1032	 0.235781566928405 
1033	 0.235977837624527 
1034	 0.236186830179929 
1035	 0.236387612702619 
1036	 0.236567384311885 
1037	 0.236721990226335 
1038	 0.23687006429476 
1039	 0.236994685933575 
1040	 0.237137560730503 
1041	 0.23726204943454 
1042	 0.237411782409308 
1043	 0.237575783280948 
1044	 0.237779690754358 
1045	 0.237953664374189 
1046	 0.238110939028354 
1047	 0.238245404974818 
1048	 0.238361841076509 
1049	 0.238486042206631 
1050	 0.238616495192043 
1051	 0.238789569236815 
1052	 0.238954934047507 
1053	 0.239105714769429 
1054	 0.239260966908757 
1055	 0.239409782407056 
1056	 0.23953058183394 
1057	 0.239664935745008 
1058	 0.239798358899262 
1059	 0.239952107203237 
1060	 0.240117864059598 
1061	 0.240302603101641 
1062	 0.240507364881988 
1063	 0.240697429399846 
1064	 0.24083122798788 
1065	 0.240977501455244 
1066	 0.24115844314812 
1067	 0.241312330475178 
1068	 0.241476129878557 
1069	 0.241643313988173 
1070	 0.241809544278672 
1071	 0.241959100494565 
1072	 0.242118764580533 
1073	 0.242288053568029 
1074	 0.242471941975414 
1075	 0.242630470298467 
1076	 0.242790920805001 
1077	 0.242998619836576 
1078	 0.243182745980819 
1079	 0.24337886378152 
1080	 0.243620781770977 
1081	 0.243813819476153 
1082	 0.244001410331292 
1083	 0.244246058274453 
1084	 0.244459034876199 
1085	 0.244629921265671 
1086	 0.244828170706623 
1087	 0.245040214939397 
1088	 0.245242963744237 
1089	 0.245456672166219 
1090	 0.245702784340111 
1091	 0.245950627117258 
1092	 0.246170078990075 
1093	 0.246376599475377 
1094	 0.246608927506524 
1095	 0.24684312493336 
1096	 0.247083721374912 
1097	 0.247338593655299 
1098	 0.247584863281586 
1099	 0.247822086949279 
1100	 0.248050085794919 
1101	 0.248269909281834 
1102	 0.248527331208592 
1103	 0.248802909393652 
1104	 0.249111314701934 
1105	 0.249411436436595 
1106	 0.249706721055759 
1107	 0.249965999909999 
1108	 0.25021456139592 
1109	 0.250480383239796 
1110	 0.250751752639033 
1111	 0.251049510888445 
1112	 0.251339079494498 
1113	 0.251638886798813 
1114	 0.25196461291394 
1115	 0.25227932365004 
1116	 0.252594850819036 
1117	 0.252881313992261 
1118	 0.253171825584796 
1119	 0.25344813459525 
1120	 0.253741590988084 
1121	 0.254025155899526 
1122	 0.25435494122464 
1123	 0.25469874401623 
1124	 0.254997084791311 
1125	 0.255333902395109 
1126	 0.255643743145855 
1127	 0.255939802001523 
1128	 0.256292617509058 
1129	 0.256598803485535 
1130	 0.256902829563972 
1131	 0.257218467002423 
1132	 0.257479766023045 
1133	 0.257761496792639 
1134	 0.258065385994107 
1135	 0.258357203172038 
1136	 0.258653204397992 
1137	 0.258937688608329 
1138	 0.259208883280816 
1139	 0.259484231437384 
1140	 0.259755918228392 
1141	 0.260020339741415 
1142	 0.260297131226887 
1143	 0.260584081465011 
1144	 0.260849676872471 
1145	 0.26112208679717 
1146	 0.261385003502009 
1147	 0.261635508579725 
1148	 0.261907233638766 
1149	 0.262166781738616 
1150	 0.262434216256158 
1151	 0.262695552333417 
1152	 0.262951479733001 
1153	 0.263194851140898 
1154	 0.263460064328726 
1155	 0.263734605882705 
1156	 0.264000185246019 
1157	 0.264270805428018 
1158	 0.264534037177389 
1159	 0.264790331349677 
1160	 0.265041974491685 
1161	 0.265288609662976 
1162	 0.265561571186997 
1163	 0.265823928353273 
1164	 0.266102037680745 
1165	 0.266394351926346 
1166	 0.266666314570895 
1167	 0.26695170609188 
1168	 0.267232814388243 
1169	 0.267530952728811 
1170	 0.267856945628124 
1171	 0.268157900717822 
1172	 0.268446565688407 
1173	 0.26875824966706 
1174	 0.269067714720862 
1175	 0.269378726730832 
1176	 0.269703244916952 
1177	 0.27003281963004 
1178	 0.270357222253344 
1179	 0.270696735412289 
1180	 0.271031892738146 
1181	 0.271380429612854 
1182	 0.271726498310191 
1183	 0.272045546863563 
1184	 0.272384814969074 
1185	 0.272726410711749 
1186	 0.273089675474246 
1187	 0.273459023827929 
1188	 0.273853905978528 
1189	 0.274277319675498 
1190	 0.274702106691608 
1191	 0.275147736275904 
1192	 0.275576439620552 
1193	 0.275991992364885 
1194	 0.276436702910439 
1195	 0.276887363757645 
1196	 0.277350935529778 
1197	 0.277826867602708 
1198	 0.278335877003661 
1199	 0.2788647169325 
1200	 0.27935857119003 
1201	 0.279881677787211 
1202	 0.280413681739233 
1203	 0.280920011643745 
1204	 0.281478538261751 
1205	 0.282043465819942 
1206	 0.282614449380082 
1207	 0.283233157983351 
1208	 0.283888085721812 
1209	 0.28454223444587 
1210	 0.285224698478351 
1211	 0.285925597800594 
1212	 0.286622939848943 
1213	 0.287369905299899 
1214	 0.288156129111166 
1215	 0.288969576562003 
1216	 0.289828648452031 
1217	 0.29067989687923 
1218	 0.291551100219254 
1219	 0.292436142395993 
1220	 0.293311501926551 
1221	 0.294244768919374 
1222	 0.295167190399481 
1223	 0.29610762219498 
1224	 0.297047936647609 
1225	 0.297996936035573 
1226	 0.298918298766936 
1227	 0.299845544988766 
1228	 0.300749495757659 
1229	 0.301628763808171 
1230	 0.302508972526158 
1231	 0.303384887183416 
1232	 0.304252315228727 
1233	 0.305106545915166 
1234	 0.305945487146461 
1235	 0.306774350261965 
1236	 0.307597052878333 
1237	 0.308407648530765 
1238	 0.309213059789321 
1239	 0.310003430766093 
1240	 0.310804376047499 
1241	 0.311616733957696 
1242	 0.312375783252516 
1243	 0.313144818400945 
1244	 0.3139065530754 
1245	 0.314671743759076 
1246	 0.315431300660591 
1247	 0.316186556722241 
1248	 0.316950302733981 
1249	 0.317701126949345 
1250	 0.31843062616897 
1251	 0.319166706866505 
1252	 0.319907261872717 
1253	 0.320642102001822 
1254	 0.321382069881801 
1255	 0.322109510011463 
1256	 0.322821143693182 
1257	 0.323546574906513 
1258	 0.324277145613826 
1259	 0.324992973163189 
1260	 0.325709655170333 
1261	 0.326427077757603 
1262	 0.327109536587999 
1263	 0.327838857938175 
1264	 0.328552207952019 
1265	 0.329277573816098 
1266	 0.329993204200865 
1267	 0.330708414487606 
1268	 0.331407922158397 
1269	 0.33209937585851 
1270	 0.332789765177896 
1271	 0.333466081814199 
1272	 0.334148953298183 
1273	 0.334842396598227 
1274	 0.335515786382479 
1275	 0.336170045299041 
1276	 0.336831271913625 
1277	 0.337475982542859 
1278	 0.338136321666293 
1279	 0.338808464282413 
1280	 0.339477288844921 
1281	 0.340146750971457 
1282	 0.340818208977856 
1283	 0.341481486043921 
1284	 0.342154713480657 
1285	 0.342833017628126 
1286	 0.343516592634135 
1287	 0.344198539629556 
1288	 0.344886960010213 
1289	 0.345569136978242 
1290	 0.346242877064277 
1291	 0.346929192408928 
1292	 0.347626642755636 
1293	 0.348302728964779 
1294	 0.348976894974805 
1295	 0.349643028985998 
1296	 0.35029393054513 
1297	 0.350941138846514 
1298	 0.351582823398609 
1299	 0.352224530021507 
1300	 0.35285296576635 
1301	 0.35348739308447 
1302	 0.354120432829943 
1303	 0.354762747593495 
1304	 0.355414915581818 
1305	 0.356057340026469 
1306	 0.356688658887476 
1307	 0.357340127627628 
1308	 0.357978242646909 
1309	 0.358653647858557 
1310	 0.359314612611236 
1311	 0.359998112781273 
1312	 0.360658018367089 
1313	 0.361301955171816 
1314	 0.361954633005001 
1315	 0.362608321938426 
1316	 0.363258191801245 
1317	 0.363909573976442 
1318	 0.364552711710103 
1319	 0.36518295642572 
1320	 0.365828163789963 
1321	 0.366486520852202 
1322	 0.36712037269308 
1323	 0.367752782155934 
1324	 0.368376769384092 
1325	 0.368982595481913 
1326	 0.369584236860399 
1327	 0.370185054871888 
1328	 0.370778847118027 
1329	 0.371368746900515 
1330	 0.371938102545999 
1331	 0.372497422398418 
1332	 0.373048367176653 
1333	 0.373572173656989 
1334	 0.374105546619646 
1335	 0.374621371537432 
1336	 0.37513596480078 
1337	 0.375630266251568 
1338	 0.376110260204155 
1339	 0.376573263635594 
1340	 0.377024235013397 
1341	 0.377458748560096 
1342	 0.377882017782714 
1343	 0.378279170657077 
1344	 0.378651842471463 
1345	 0.379023731175597 
1346	 0.379386971732857 
1347	 0.379720936451512 
1348	 0.380038252360241 
1349	 0.380350152010009 
1350	 0.380632591147069 
1351	 0.380919248581297 
1352	 0.381205168894833 
1353	 0.381491699095734 
1354	 0.381771035778865 
1355	 0.382046608821876 
1356	 0.382320776648277 
1357	 0.382601268887707 
1358	 0.382889449931409 
1359	 0.383161616514156 
1360	 0.383442130187779 
1361	 0.38369897630194 
1362	 0.383959615776696 
1363	 0.384187826326115 
1364	 0.384409554523886 
1365	 0.384627844623905 
1366	 0.384824186876687 
1367	 0.385006200869033 
1368	 0.385154744172155 
1369	 0.385288590956965 
1370	 0.385391785825168 
1371	 0.385461652439658 
1372	 0.385508408624185 
1373	 0.385553807596933 
1374	 0.385531340354907 
1375	 0.385480912091978 
1376	 0.385359414661535 
1377	 0.385207493339131 
1378	 0.384946208942681 
1379	 0.384640944373082 
1380	 0.384196348318448 
1381	 0.383678111830937 
1382	 0.38299288931731 
1383	 0.382205774162595 
1384	 0.381231653704012 
1385	 0.380086210915788 
1386	 0.378811027683224 
1387	 0.377273402039628 
1388	 0.375792075823786 
1389	 0.374132188617042 
1390	 0.372609028940035 
1391	 0.371131709630877 
1392	 0.369667198677119 
1393	 0.368438422976666 
1394	 0.367294554143175 
1395	 0.366277319838503 
1396	 0.3654604140819 
1397	 0.364587813749557 
1398	 0.363824615062154 
1399	 0.362931599906113 
1400	 0.362059266195596 
1401	 0.361053264018943 
1402	 0.359969376025369 
1403	 0.358794910502701 
1404	 0.35751558125421 
1405	 0.356225696411364 
1406	 0.354811136854155 
1407	 0.353481853427606 
1408	 0.35208143682113 
1409	 0.350850838437425 
1410	 0.349620846965369 
1411	 0.348616104659992 
1412	 0.347733169777891 
1413	 0.347053876135969 
1414	 0.346569956583231 
1415	 0.346215138949694 
1416	 0.346073706283458 
1417	 0.345991686255704 
1418	 0.346069654483794 
1419	 0.346168512434688 
1420	 0.346362852405257 
1421	 0.346574073411165 
1422	 0.346830478581437 
1423	 0.347109922915068 
1424	 0.347415805388943 
1425	 0.347762000072066 
1426	 0.348127668794486 
1427	 0.348527809279385 
1428	 0.348972534764568 
1429	 0.349410934718916 
1430	 0.349872190453918 
1431	 0.350354006501296 
1432	 0.350849416431207 
1433	 0.351352499874246 
1434	 0.351894637061878 
1435	 0.35245838927506 
1436	 0.353054366221018 
1437	 0.353695468313332 
1438	 0.354320127538509 
1439	 0.354958576919391 
1440	 0.355610560062187 
1441	 0.356271236240454 
1442	 0.356936520555442 
1443	 0.357622098285953 
1444	 0.358307097265623 
1445	 0.358991908653607 
1446	 0.359673412276181 
1447	 0.360374806537266 
1448	 0.361050739999819 
1449	 0.36172348085737 
1450	 0.362370950018747 
1451	 0.362996172733123 
1452	 0.363616452572961 
1453	 0.364220930389267 
1454	 0.364806244838502 
1455	 0.365382634311263 
1456	 0.365943625998208 
1457	 0.366478001926513 
1458	 0.367012446141382 
1459	 0.367532593604935 
1460	 0.368057857680644 
1461	 0.368573396721298 
1462	 0.369095077372236 
1463	 0.369603267277298 
1464	 0.370144765109012 
1465	 0.370697706777516 
1466	 0.371286762916502 
1467	 0.371846546541095 
1468	 0.372431473118393 
1469	 0.373032800676525 
1470	 0.373581454938638 
1471	 0.374152955427992 
1472	 0.374755885650099 
1473	 0.375305018426876 
1474	 0.375830436090439 
1475	 0.376333464543755 
1476	 0.376819653950938 
1477	 0.377272106100107 
1478	 0.377696011204602 
1479	 0.378089337161097 
1480	 0.378442804716863 
1481	 0.378797585292531 
1482	 0.37912814906366 
1483	 0.37945331836321 
1484	 0.379767747092839 
1485	 0.380079136723862 
1486	 0.380371046187116 
1487	 0.380672520720851 
1488	 0.380963728350037 
1489	 0.38128461087221 
1490	 0.381603246854855 
1491	 0.381960744197125 
1492	 0.382337979167676 
1493	 0.382758745201872 
1494	 0.383207132592351 
1495	 0.383694444234034 
1496	 0.384233930346071 
1497	 0.384786290727177 
1498	 0.385376718257975 
1499	 0.385973601299877 
1500	 0.386576303379225 
1501	 0.38721853998929 
1502	 0.387890143546115 
1503	 0.388572565479908 
1504	 0.389277880042928 
1505	 0.390013289900327 
1506	 0.390779176773601 
1507	 0.391545727174146 
1508	 0.392340268238239 
1509	 0.393141312581111 
1510	 0.393940806224771 
1511	 0.394748834369374 
1512	 0.395584120271451 
1513	 0.3964105885572 
1514	 0.39723785767097 
1515	 0.39806181092998 
1516	 0.398864859994608 
1517	 0.399698417797979 
1518	 0.400556508329384 
1519	 0.401398397828712 
1520	 0.402251122612806 
1521	 0.403104652183726 
1522	 0.403932908450838 
1523	 0.404811568409271 
1524	 0.405669673908579 
1525	 0.406547332941421 
1526	 0.40741239722904 
1527	 0.408259980809783 
1528	 0.409129524316988 
1529	 0.4100062937214 
1530	 0.410901609917443 
1531	 0.411813538664232 
1532	 0.412719303757204 
1533	 0.413637347572861 
1534	 0.414556675856087 
1535	 0.415483918897151 
1536	 0.416378857429646 
1537	 0.41727359867214 
1538	 0.418152658162997 
1539	 0.41900317399179 
1540	 0.419851057041967 
1541	 0.420702775794551 
1542	 0.421532776388449 
1543	 0.422352183254045 
1544	 0.423128177948024 
1545	 0.42389139620427 
1546	 0.42461186258359 
1547	 0.42529021614376 
1548	 0.425934420701658 
1549	 0.426538624942421 
1550	 0.427136118214692 
1551	 0.427694289445177 
1552	 0.428246283569112 
1553	 0.4287896582257 
1554	 0.42932107737437 
1555	 0.429823230707866 
1556	 0.430333702451532 
1557	 0.430831387453094 
1558	 0.431354559756132 
1559	 0.431879608994164 
1560	 0.432418562273024 
1561	 0.432979230545628 
1562	 0.433544576343347 
1563	 0.434114714662501 
1564	 0.434693454106019 
1565	 0.435270174467034 
1566	 0.435887226142229 
1567	 0.436529544650762 
1568	 0.437175908198726 
1569	 0.437859731853799 
1570	 0.438533977510161 
1571	 0.439209614832961 
1572	 0.43987828180027 
1573	 0.440547807091044 
1574	 0.441223279678074 
1575	 0.441907640587887 
1576	 0.442565439649017 
1577	 0.443209221717876 
1578	 0.443867307594725 
1579	 0.444505257468219 
1580	 0.44515574233741 
1581	 0.445835720330229 
1582	 0.446498740481828 
1583	 0.447150555394966 
1584	 0.447801174160078 
1585	 0.448441874610412 
1586	 0.449099192999738 
1587	 0.449773243125174 
1588	 0.450420490650952 
1589	 0.45105150253641 
1590	 0.451706320958539 
1591	 0.452346869182142 
1592	 0.4530065788806 
1593	 0.45370564573579 
1594	 0.454391676606744 
1595	 0.4550724906985 
1596	 0.455750979313157 
1597	 0.456430343020018 
1598	 0.457111772834513 
1599	 0.457800178569536 
1600	 0.458473205060146 
1601	 0.459142437136632 
1602	 0.459807351998873 
1603	 0.460465065000498 
1604	 0.461102183212455 
1605	 0.461730068479706 
1606	 0.462351948426633 
1607	 0.462944838152903 
1608	 0.46355216845729 
1609	 0.464164131739118 
1610	 0.464777582620894 
1611	 0.465402204355808 
1612	 0.466006413033958 
1613	 0.4666108748273 
1614	 0.467199307824823 
1615	 0.467770675400315 
1616	 0.468332882492914 
1617	 0.468895760165453 
1618	 0.469425101486607 
1619	 0.469919188017121 
1620	 0.470414128334942 
1621	 0.470877863004065 
1622	 0.471357146086261 
1623	 0.471861731119374 
1624	 0.472334562430246 
1625	 0.472776054715847 
1626	 0.473242033548508 
1627	 0.473699651216346 
1628	 0.474159205917241 
1629	 0.474664029346396 
1630	 0.475120558476525 
1631	 0.475550132792047 
1632	 0.475964852650056 
1633	 0.476338189479134 
1634	 0.476725807001711 
1635	 0.477101739359936 
1636	 0.477482956009576 
1637	 0.477882374796816 
1638	 0.478261296438272 
1639	 0.478651581253039 
1640	 0.478998192308782 
1641	 0.479304301798055 
1642	 0.479612235748322 
1643	 0.479901969713611 
1644	 0.480170065919045 
1645	 0.480441504236227 
1646	 0.480675111299049 
1647	 0.480880736904621 
1648	 0.481047944690903 
1649	 0.48117285348024 
1650	 0.481287071117713 
1651	 0.48136888892621 
1652	 0.481431525890156 
1653	 0.481512974544506 
1654	 0.481512640824386 
1655	 0.481463329499307 
1656	 0.481359894811734 
1657	 0.481204951285639 
1658	 0.480976957826126 
1659	 0.480703917024653 
1660	 0.480344982782509 
1661	 0.479914146506079 
1662	 0.479389596530538 
1663	 0.478782640583111 
1664	 0.478079882810878 
1665	 0.477272971035972 
1666	 0.476388028662296 
1667	 0.475426700202582 
1668	 0.474370458358458 
1669	 0.473233612810137 
1670	 0.471985026324116 
1671	 0.470604998645996 
1672	 0.469168437751882 
1673	 0.467636062333773 
1674	 0.466035939693619 
1675	 0.464356480577491 
1676	 0.462657074373825 
1677	 0.46086770872781 
1678	 0.459085657737849 
1679	 0.457250305726351 
1680	 0.455442883728319 
1681	 0.453620681323392 
1682	 0.451819224727953 
1683	 0.450011066328422 
1684	 0.448315197700842 
1685	 0.446646167542059 
1686	 0.445054724885501 
1687	 0.44355746755297 
1688	 0.442087126748757 
1689	 0.440661131372867 
1690	 0.439284712472003 
1691	 0.437986606392175 
1692	 0.436727209450018 
1693	 0.435525247192468 
1694	 0.434315602785904 
1695	 0.433151235952694 
1696	 0.431947605052289 
1697	 0.43074659719114 
1698	 0.429495990087725 
1699	 0.428218425502609 
1700	 0.426971956826327 
1701	 0.425685636650715 
1702	 0.424456975895864 
1703	 0.423248361885216 
1704	 0.422090956123379 
1705	 0.420960332599528 
1706	 0.419830621068628 
1707	 0.418820126474168 
1708	 0.417781294447221 
1709	 0.416768808718519 
1710	 0.415806334395612 
1711	 0.414774403784295 
1712	 0.413738145881458 
1713	 0.412668482483171 
1714	 0.411563815281655 
1715	 0.410499496136355 
1716	 0.409381747692785 
1717	 0.408291811553276 
1718	 0.407238777589684 
1719	 0.406184935499496 
1720	 0.405263343759249 
1721	 0.404428981531932 
1722	 0.4036810999635 
1723	 0.403105881239019 
1724	 0.402619668852732 
1725	 0.402284971341313 
1726	 0.402204260088113 
1727	 0.402292960130372 
1728	 0.402585615522326 
1729	 0.403146233026854 
1730	 0.403903188395404 
1731	 0.404759794003089 
1732	 0.405791186571287 
1733	 0.406869523521021 
1734	 0.407952633294544 
1735	 0.409098789010054 
1736	 0.410182895169413 
1737	 0.411231142836567 
1738	 0.412189065027448 
1739	 0.413076380139166 
1740	 0.413916612023472 
1741	 0.414672549724325 
1742	 0.415356862505334 
1743	 0.415967664830363 
1744	 0.416486281061426 
1745	 0.416962361945261 
1746	 0.417335677658695 
1747	 0.417725460555691 
1748	 0.418074857434215 
1749	 0.418426572325229 
1750	 0.418766912170377 
1751	 0.419110914345354 
1752	 0.419424447181279 
1753	 0.419804691330059 
1754	 0.420202109003081 
1755	 0.420642771368793 
1756	 0.421109992502671 
1757	 0.421625753585717 
1758	 0.422245431517992 
1759	 0.42293486977532 
1760	 0.423732899941248 
1761	 0.424649827516383 
1762	 0.425580216625107 
1763	 0.426622347072099 
1764	 0.427734791905995 
1765	 0.428900316523877 
1766	 0.43021213254672 
1767	 0.431530462030765 
1768	 0.432877212272789 
1769	 0.434223753727709 
1770	 0.435460308075406 
1771	 0.436695472842368 
1772	 0.437858666875677 
1773	 0.438937960940981 
1774	 0.439993725273352 
1775	 0.440922633007089 
1776	 0.441813937373757 
1777	 0.442664566558228 
1778	 0.443409267588954 
1779	 0.444129290821268 
1780	 0.444780344691674 
1781	 0.445358698503093 
1782	 0.445948047962013 
1783	 0.446484822003557 
1784	 0.446957737563095 
1785	 0.447354831624512 
1786	 0.44771728499333 
1787	 0.448016722010391 
1788	 0.448333164240592 
1789	 0.448629916274903 
1790	 0.448938183297122 
1791	 0.449248499597079 
1792	 0.449538104957455 
1793	 0.449797535978775 
1794	 0.450085435664677 
1795	 0.450374942683388 
1796	 0.45069106556658 
1797	 0.45104393114236 
1798	 0.451353399646627 
1799	 0.451695999251748 
1800	 0.452076484549373 
1801	 0.448250695367024 
1802	 0.448578212208334 
1803	 0.44891908206225 
1804	 0.449252949095926 
1805	 0.449626659034038 
1806	 0.449989315305176 
1807	 0.450355718327685 
1808	 0.45074064997773 
1809	 0.451152323639331 
1810	 0.451530559927932 
1811	 0.45192156911438 
1812	 0.452295230377061 
1813	 0.452625784683571 
1814	 0.452990850827984 
1815	 0.45335209665855 
1816	 0.453726683732861 
1817	 0.454115015383135 
1818	 0.454520234730885 
1819	 0.454914984911213 
1820	 0.455306988966219 
1821	 0.455720554860884 
1822	 0.45614485147816 
1823	 0.45658177139676 
1824	 0.4569886658938 
1825	 0.457418660036541 
1826	 0.457815421397599 
1827	 0.458170554886297 
1828	 0.45853948069671 
1829	 0.458902075231316 
1830	 0.45926848737101 
1831	 0.459620187610494 
1832	 0.460005508868781 
1833	 0.460382943617068 
1834	 0.460757404773437 
1835	 0.461123634956579 
1836	 0.461469701327525 
1837	 0.461805098718541 
1838	 0.462121685967166 
1839	 0.462444610406643 
1840	 0.462772891708313 
1841	 0.463071722758376 
1842	 0.463353885316745 
1843	 0.463641388182653 
1844	 0.463920932452049 
1845	 0.464149468326329 
1846	 0.464371397651069 
1847	 0.464569510879358 
1848	 0.464713561218071 
1849	 0.464823151614326 
1850	 0.464873719183775 
1851	 0.464891846493675 
1852	 0.464839568459792 
1853	 0.464694602200143 
1854	 0.464516196961786 
1855	 0.464282663885432 
1856	 0.464005838674499 
1857	 0.463685810138536 
1858	 0.463265761405206 
1859	 0.462785606816865 
1860	 0.462245436396929 
1861	 0.461592462959177 
1862	 0.460846540991721 
1863	 0.46007742450903 
1864	 0.459150113580381 
1865	 0.458169971711219 
1866	 0.457104525389868 
1867	 0.455826520223378 
1868	 0.454502655018952 
1869	 0.453011320597797 
1870	 0.451381067672177 
1871	 0.449660824856786 
1872	 0.447798711131069 
1873	 0.445790926761123 
1874	 0.443671413903173 
1875	 0.441431861881705 
1876	 0.438846354934731 
1877	 0.436188593452588 
1878	 0.433244440173971 
1879	 0.42996916380297 
1880	 0.426699794643119 
1881	 0.423088577382743 
1882	 0.41916381011056 
1883	 0.415081168722012 
1884	 0.410758306066914 
1885	 0.405845509174502 
1886	 0.400842497746328 
1887	 0.395411074288507 
1888	 0.38953755972287 
1889	 0.383864270575507 
1890	 0.377772688072011 
1891	 0.37159676639309 
1892	 0.365392990864929 
1893	 0.35888945168242 
1894	 0.352000483084687 
1895	 0.345301747457811 
1896	 0.3384438947437 
1897	 0.331511948229821 
1898	 0.32519028991525 
1899	 0.31878913132766 
1900	 0.312584425580411 
1901	 0.306773924309083 
1902	 0.30080196328047 
1903	 0.295295721991729 
1904	 0.290111723393193 
1905	 0.285168109133443 
1906	 0.280558319677313 
1907	 0.276638607101814 
1908	 0.272879501892839 
1909	 0.269464700209807 
1910	 0.266472811749896 
1911	 0.263535579743053 
1912	 0.260950157692178 
1913	 0.258635794222264 
1914	 0.256518915191032 
1915	 0.254662749627364 
1916	 0.253136171824874 
1917	 0.251715222553166 
1918	 0.250428103761862 
1919	 0.249312407707665 
1920	 0.248270737251228 
1921	 0.2473372737428 
1922	 0.246520098292121 
1923	 0.245786533700656 
1924	 0.245161405901973 
1925	 0.244602506084179 
1926	 0.244103698497119 
1927	 0.243691215321093 
1928	 0.243311135223678 
1929	 0.242971772067474 
1930	 0.24271506074721 
1931	 0.242514231446025 
1932	 0.242371312745101 
1933	 0.242315628257352 
1934	 0.242303655727222 
1935	 0.242334236672994 
1936	 0.242447358555767 
1937	 0.242621336168971 
1938	 0.242850749568038 
1939	 0.243150804685164 
1940	 0.243527682522284 
1941	 0.243958940821563 
1942	 0.244429670750946 
1943	 0.244960341004032 
1944	 0.245499256328128 
1945	 0.246088232472073 
1946	 0.246771351504192 
1947	 0.247464209234112 
1948	 0.248241858171217 
1949	 0.249091001475153 
1950	 0.249930100924228 
1951	 0.250786871051651 
1952	 0.251687677685362 
1953	 0.252612031944329 
1954	 0.253553727726876 
1955	 0.254577506918052 
1956	 0.255570036422718 
1957	 0.256610197358293 
1958	 0.257683672427231 
1959	 0.258687786383273 
1960	 0.259752856264136 
1961	 0.260815322879756 
1962	 0.26185126610576 
1963	 0.262936885754244 
1964	 0.264072630096981 
1965	 0.265182775768436 
1966	 0.266314329912704 
1967	 0.267448128285813 
1968	 0.2685125732521 
1969	 0.269633503934362 
1970	 0.270722831040897 
1971	 0.271804641742704 
1972	 0.272970360240961 
1973	 0.274090655987578 
1974	 0.275231896553111 
1975	 0.27642255817953 
1976	 0.277562067830611 
1977	 0.27865769756538 
1978	 0.279799600457281 
1979	 0.280929441583224 
1980	 0.282078681811196 
1981	 0.283325315417809 
1982	 0.28453370089581 
1983	 0.285762568726391 
1984	 0.287012652518916 
1985	 0.288157481599251 
1986	 0.289331547124459 
1987	 0.290501940486791 
1988	 0.291625941936105 
1989	 0.292805198924489 
1990	 0.294049381250671 
1991	 0.29522896773633 
1992	 0.296411353318963 
1993	 0.297592817928967 
1994	 0.298655265746194 
1995	 0.299741975049632 
1996	 0.300812351501409 
1997	 0.301854926265457 
1998	 0.302926346693594 
1999	 0.304028457110499 
2000	 0.305071784780295 
2001	 0.306142190326977 
2002	 0.307116431691098 
2003	 0.308029344743159 
2004	 0.308913027861541 
2005	 0.309720447220237 
2006	 0.310523163673335 
2007	 0.311326714562331 
2008	 0.312054923584056 
2009	 0.312752125304858 
2010	 0.313412697793233 
2011	 0.313946172720011 
2012	 0.314433057305112 
2013	 0.314859139788589 
2014	 0.315216804186173 
2015	 0.315500021230893 
2016	 0.315739051849464 
2017	 0.315881454201339 
2018	 0.31593408759678 
2019	 0.315912648901657 
2020	 0.315811957054909 
2021	 0.315634396627108 
2022	 0.315388486634834 
2023	 0.315035961329239 
2024	 0.31458193915284 
2025	 0.31406302308024 
2026	 0.313477030042296 
2027	 0.312765053431977 
2028	 0.312078067719703 
2029	 0.311328837696628 
2030	 0.310595506663185 
2031	 0.309838347383203 
2032	 0.309099609522501 
2033	 0.308315688955509 
2034	 0.307618968712307 
2035	 0.306935936860942 
2036	 0.306307661685867 
2037	 0.305791595350844 
2038	 0.305351555958059 
2039	 0.305031513883684 
2040	 0.304822712065747 
2041	 0.304696419099611 
2042	 0.304669232427899 
2043	 0.304740003177517 
2044	 0.304912890668532 
2045	 0.305160683470448 
2046	 0.305538471643114 
2047	 0.305948916751315 
2048	 0.306407912080121 
2049	 0.306949373667453 
2050	 0.307583322681513 
2051	 0.30824401970083 
2052	 0.308984367257575 
2053	 0.309797691933192 
2054	 0.310610020026821 
2055	 0.311448852816663 
2056	 0.312337357185745 
2057	 0.313245811592521 
2058	 0.314222265379896 
2059	 0.31528316881455 
2060	 0.316322271599212 
2061	 0.31742947689119 
2062	 0.318494338620834 
2063	 0.319545131627588 
2064	 0.320596273416219 
2065	 0.321640017492907 
2066	 0.322657038568712 
2067	 0.323762594064241 
2068	 0.324807493555667 
2069	 0.325829044350708 
2070	 0.32688082659641 
2071	 0.327838843650094 
2072	 0.328714098970009 
2073	 0.329593717703342 
2074	 0.330439880068324 
2075	 0.331264668078621 
2076	 0.332077738733467 
2077	 0.33283247216622 
2078	 0.333569609015413 
2079	 0.334238346969758 
2080	 0.334829673513822 
2081	 0.335407696082724 
2082	 0.335952238886258 
2083	 0.336435050513681 
2084	 0.336914760503403 
2085	 0.337342996274284 
2086	 0.337745230275982 
2087	 0.33811682334239 
2088	 0.338440727659887 
2089	 0.338725179714603 
2090	 0.338977819575609 
2091	 0.339179193746443 
2092	 0.339361194726154 
2093	 0.3395044651917 
2094	 0.339636870414717 
2095	 0.33975057131503 
2096	 0.339831096698255 
2097	 0.339884217486211 
2098	 0.339929416925021 
2099	 0.339918227186938 
2100	 0.339880837854056 
2101	 0.339835761828164 
2102	 0.339774386782546 
2103	 0.339682946605748 
2104	 0.339568663761467 
2105	 0.339436326416772 
2106	 0.339257752747923 
2107	 0.339097652725496 
2108	 0.338956737886254 
2109	 0.338770391395219 
2110	 0.338571636409244 
2111	 0.338346605595145 
2112	 0.338068127084269 
2113	 0.33779363529917 
2114	 0.337515196220323 
2115	 0.337218129322735 
2116	 0.336916465898569 
2117	 0.336591355360956 
2118	 0.336232699492777 
2119	 0.335850264886801 
2120	 0.335452075097481 
2121	 0.335013109701403 
2122	 0.334581305253542 
2123	 0.334146402452839 
2124	 0.333679373207388 
2125	 0.333214538055321 
2126	 0.332697536702781 
2127	 0.33215564790162 
2128	 0.331566829313029 
2129	 0.330923413660934 
2130	 0.330254869556481 
2131	 0.329569692459572 
2132	 0.328816126220811 
2133	 0.328016174501976 
2134	 0.327182836960955 
2135	 0.326232778926524 
2136	 0.32527380789758 
2137	 0.324282668371719 
2138	 0.323220058002737 
2139	 0.322201071405691 
2140	 0.321185178195133 
2141	 0.320142493200693 
2142	 0.319121406177621 
2143	 0.318033718499039 
2144	 0.316895302850419 
2145	 0.315758094628781 
2146	 0.314549363453738 
2147	 0.313401570705904 
2148	 0.31228083699021 
2149	 0.311148817364332 
2150	 0.31007395088061 
2151	 0.308938071498678 
2152	 0.307751488695752 
2153	 0.306578867844924 
2154	 0.30536473752362 
2155	 0.304145674564708 
2156	 0.302988716827746 
2157	 0.301857136808939 
2158	 0.300737407252603 
2159	 0.299666344469794 
2160	 0.298573434565636 
2161	 0.297447531481582 
2162	 0.296415708194516 
2163	 0.295377831256664 
2164	 0.294460911563797 
2165	 0.293642874153285 
2166	 0.292861126710852 
2167	 0.292160848172958 
2168	 0.291499538100569 
2169	 0.290850287544779 
2170	 0.290319424067718 
2171	 0.289860257575768 
2172	 0.289487958671629 
2173	 0.28923784853558 
2174	 0.289039230263896 
2175	 0.288870166566531 
2176	 0.288777863801405 
2177	 0.288724266739306 
2178	 0.288704498521501 
2179	 0.288767920307425 
2180	 0.288918697014014 
2181	 0.289074031039585 
2182	 0.289286670275899 
2183	 0.28952238061876 
2184	 0.289759537450452 
2185	 0.290085093898479 
2186	 0.290491103050935 
2187	 0.290901760176643 
2188	 0.291396925577935 
2189	 0.291852709502801 
2190	 0.292306992061411 
2191	 0.29276901791399 
2192	 0.293228099020316 
2193	 0.293692494495047 
2194	 0.294211880995206 
2195	 0.294655494582533 
2196	 0.295056598429804 
2197	 0.295451164589194 
2198	 0.295804750372017 
2199	 0.296141059708843 
2200	 0.296491269146461 
2201	 0.296870967269768 
2202	 0.297182082261449 
2203	 0.29746223235386 
2204	 0.297723354314041 
2205	 0.297940046329196 
2206	 0.298164653165902 
2207	 0.298362598670873 
2208	 0.298592506996732 
2209	 0.29883011113063 
2210	 0.299059834132222 
2211	 0.299320251792626 
2212	 0.29954113105153 
2213	 0.299743445834461 
2214	 0.299922558707599 
2215	 0.300098816074114 
2216	 0.300222117644125 
2217	 0.300312655127519 
2218	 0.30036550953122 
2219	 0.300389724230876 
2220	 0.300353037538855 
2221	 0.300274918627337 
2222	 0.300141990845238 
2223	 0.299952967915052 
2224	 0.299699902281151 
2225	 0.299371011753422 
2226	 0.298972062078423 
2227	 0.298436403037911 
2228	 0.297793054003332 
2229	 0.297042676417396 
2230	 0.296152944163981 
2231	 0.295205760631881 
2232	 0.294172030702151 
2233	 0.293032690432776 
2234	 0.291822913425207 
2235	 0.290471016113702 
2236	 0.28897619627675 
2237	 0.287418178366499 
2238	 0.285708261472055 
2239	 0.283984993424043 
2240	 0.282210254760324 
2241	 0.280349404760232 
2242	 0.27845008540539 
2243	 0.276435857504019 
2244	 0.274294704699365 
2245	 0.272130831058085 
2246	 0.269801861840903 
2247	 0.267552039463545 
2248	 0.265312293906035 
2249	 0.263050711425773 
2250	 0.26077657453642 
2251	 0.258587650576505 
2252	 0.256246401363436 
2253	 0.254014764308923 
2254	 0.25181188498576 
2255	 0.249661535306757 
2256	 0.247758761206781 
2257	 0.24587930675529 
2258	 0.244105400674746 
2259	 0.242476224050222 
2260	 0.240868969986636 
2261	 0.23928507645786 
2262	 0.237876134330359 
2263	 0.236575095945227 
2264	 0.23536527114589 
2265	 0.234328448034509 
2266	 0.233267913064091 
2267	 0.232306627024273 
2268	 0.231299465343819 
2269	 0.230323848343097 
2270	 0.229319515122107 
2271	 0.228261394154953 
2272	 0.22726317923511 
2273	 0.226308725941932 
2274	 0.225310605994284 
2275	 0.224378302196094 
2276	 0.223338957438838 
2277	 0.222181252418028 
2278	 0.221078103985814 
2279	 0.219893661249637 
2280	 0.218801067765925 
2281	 0.217793754021039 
2282	 0.216766449622829 
2283	 0.215762796096028 
2284	 0.21479457950525 
2285	 0.213744929959681 
2286	 0.212779851523379 
2287	 0.21184307106091 
2288	 0.210898678647668 
2289	 0.210064713918308 
2290	 0.209253538497798 
2291	 0.20847703029284 
2292	 0.207777078119319 
2293	 0.207110700129889 
2294	 0.206486572303808 
2295	 0.205932498556737 
2296	 0.20548512927928 
2297	 0.205099096133333 
2298	 0.204796605417117 
2299	 0.204565274153487 
2300	 0.20440642643895 
2301	 0.204317037004076 
2302	 0.204320379888675 
2303	 0.204383541489977 
2304	 0.204524308276687 
2305	 0.204713340369821 
2306	 0.204978252028192 
2307	 0.20528001688244 
2308	 0.20562337433919 
2309	 0.206050295263506 
2310	 0.206552964355626 
2311	 0.207089038074984 
2312	 0.207754612937309 
2313	 0.208344528081289 
2314	 0.208925639598802 
2315	 0.20953236854091 
2316	 0.210114940053813 
2317	 0.210721165053016 
2318	 0.211446969559934 
2319	 0.212006086048229 
2320	 0.212509656212774 
2321	 0.212933521167945 
2322	 0.213218633522754 
2323	 0.21349974217329 
2324	 0.213747359840314 
2325	 0.213935005693778 
2326	 0.214072484208674 
2327	 0.214157619595476 
2328	 0.214202836668593 
2329	 0.214156879191785 
2330	 0.214049609676147 
2331	 0.213835768121308 
2332	 0.213570129359231 
2333	 0.213258854393809 
2334	 0.212873475207017 
2335	 0.212435264918305 
2336	 0.211903028002151 
2337	 0.211327599278439 
2338	 0.210779022829741 
2339	 0.210182107605185 
2340	 0.209568282248598 
2341	 0.208964606505385 
2342	 0.208382340096454 
2343	 0.207885128490117 
2344	 0.207510778347334 
2345	 0.207252737678928 
2346	 0.207066924022536 
2347	 0.207011901683823 
2348	 0.207069221712369 
2349	 0.207257774406192 
2350	 0.207571439640189 
2351	 0.20800560158532 
2352	 0.208548004328383 
2353	 0.209118497947464 
2354	 0.209712813678421 
2355	 0.210271565865439 
2356	 0.210729663486888 
2357	 0.21117914458599 
2358	 0.211613799171251 
2359	 0.211994210546598 
2360	 0.212329055303549 
2361	 0.212533063447389 
2362	 0.212724477998386 
2363	 0.212876253135369 
2364	 0.212954326362392 
2365	 0.213084803840242 
2366	 0.213158374937465 
2367	 0.213180443053497 
2368	 0.213226611893239 
2369	 0.213238100574519 
2370	 0.213222065265301 
2371	 0.213220918422433 
2372	 0.213230949877833 
2373	 0.213269144931246 
2374	 0.213254644189464 
2375	 0.213157105848937 
2376	 0.213070794756602 
2377	 0.21293396714159 
2378	 0.212792266003868 
2379	 0.212746795968071 
2380	 0.212765190680008 
2381	 0.212705392508373 
2382	 0.212618624030675 
2383	 0.212545517223876 
2384	 0.212467880398219 
2385	 0.212299463305085 
2386	 0.212204500015351 
2387	 0.212172419218518 
2388	 0.212073430093343 
2389	 0.211945291101638 
2390	 0.2118110580015 
2391	 0.211688333599744 
2392	 0.211575572370118 
2393	 0.211442107639691 
2394	 0.211317820756969 
2395	 0.211178791299745 
2396	 0.211064627373659 
2397	 0.21095645409236 
2398	 0.210828260873334 
2399	 0.21076791032628 
2400	 0.210618119525751 
2401	 0.210356027244583 
2402	 0.210220607528614 
2403	 0.210061625438247 
2404	 0.209872823538395 
2405	 0.20982655886746 
2406	 0.209722491731022 
2407	 0.20949859457009 
2408	 0.209280718930551 
2409	 0.208961498770351 
2410	 0.208692006975636 
2411	 0.208524345007097 
2412	 0.208305320830656 
2413	 0.208094322316879 
2414	 0.207912865313395 
2415	 0.207652631154561 
2416	 0.20744877903568 
2417	 0.207204389864736 
2418	 0.206816889298544 
2419	 0.206488646482384 
2420	 0.206129653786988 
2421	 0.205836902184115 
2422	 0.205558573105362 
2423	 0.205123182927746 
2424	 0.20470867485174 
2425	 0.204179837244096 
2426	 0.203637411316183 
2427	 0.203170333489161 
2428	 0.202480667581802 
2429	 0.201860340448129 
2430	 0.201306598923998 
2431	 0.200632899172382 
2432	 0.200049358065604 
2433	 0.199403890548527 
2434	 0.198711119570053 
2435	 0.198091040533731 
2436	 0.197512870106212 
2437	 0.196884180557508 
2438	 0.196132360171793 
2439	 0.195364771896504 
2440	 0.194500462209911 
2441	 0.193704236916765 
2442	 0.193101531540796 
2443	 0.192347484150739 
2444	 0.191584270792381 
2445	 0.190856787012769 
2446	 0.189967272717955 
2447	 0.189149187050759 
2448	 0.188413829634764 
2449	 0.187677529652318 
2450	 0.186884556655797 
2451	 0.186026294728369 
2452	 0.18521917760432 
2453	 0.184460690913238 
2454	 0.183863567750438 
2455	 0.183366989332706 
2456	 0.182783645074755 
2457	 0.182076416533845 
2458	 0.181273031792086 
2459	 0.180566389419863 
2460	 0.179942985735378 
2461	 0.179280129899956 
2462	 0.178707560194 
2463	 0.178206467398253 
2464	 0.177668126470358 
2465	 0.177221939424736 
2466	 0.176750844776724 
2467	 0.176079920767524 
2468	 0.175473164326004 
2469	 0.175039277496891 
2470	 0.174697234651391 
2471	 0.17438133172447 
2472	 0.173999388554324 
2473	 0.173610816604477 
2474	 0.173188666435271 
2475	 0.17290971856349 
2476	 0.172676696823906 
2477	 0.172295296553934 
2478	 0.172078230653329 
2479	 0.171903597634051 
2480	 0.171905040480805 
2481	 0.171795738972006 
2482	 0.171637493123453 
2483	 0.171342707665061 
2484	 0.170978321787923 
2485	 0.170610299073455 
2486	 0.170419952343076 
2487	 0.170258608928561 
2488	 0.169984961106012 
2489	 0.169788575450944 
2490	 0.169499342712916 
2491	 0.169087176961057 
2492	 0.168853267693933 
2493	 0.168750334939261 
2494	 0.168693453159621 
2495	 0.168557445326831 
2496	 0.1683190272262 
2497	 0.16812111022996 
2498	 0.167717009962962 
2499	 0.167412662007909 
2500	 0.167336890820046 
