Wavelength	spectrum00023.asd
350	 0.041991196276116 
351	 4.08754090162663E-02 
352	 4.12392077999654E-02 
353	 4.23006533883716E-02 
354	 4.14588168589214E-02 
355	 4.19934858299897E-02 
356	 4.29322210162536E-02 
357	 4.26731619292743E-02 
358	 4.02821240279612E-02 
359	 0.040056887654027 
360	 4.11277195185967E-02 
361	 4.03485641400835E-02 
362	 3.99787488587632E-02 
363	 4.03151023258727E-02 
364	 4.06480048553117E-02 
365	 3.92130955516797E-02 
366	 3.97223135749389E-02 
367	 4.08660747381916E-02 
368	 4.08866990708357E-02 
369	 4.07198916016939E-02 
370	 4.09650860090343E-02 
371	 4.17262020959441E-02 
372	 0.042589954439821 
373	 0.041569642766535 
374	 0.041014383453786 
375	 4.18270573025919E-02 
376	 4.22463916372267E-02 
377	 4.10881523990513E-02 
378	 4.03261819929108E-02 
379	 4.14262082133123E-02 
380	 4.09499787517074E-02 
381	 4.14965085488252E-02 
382	 4.21420559891106E-02 
383	 4.03988239249697E-02 
384	 4.06356729745398E-02 
385	 4.20417110409606E-02 
386	 4.30198345247781E-02 
387	 4.17635784115952E-02 
388	 4.09930605637379E-02 
389	 4.13718963240062E-02 
390	 4.23980682756076E-02 
391	 4.17793870954424E-02 
392	 4.13471953453623E-02 
393	 4.16402022963738E-02 
394	 4.21953766006365E-02 
395	 4.23726661615454E-02 
396	 4.27850402562338E-02 
397	 4.34208601864501E-02 
398	 4.29564575313105E-02 
399	 4.22705975337608E-02 
400	 4.18804014474911E-02 
401	 4.19810885505913E-02 
402	 4.18573269399746E-02 
403	 4.25219669621812E-02 
404	 4.33828103544413E-02 
405	 4.28184103404021E-02 
406	 4.25240228885806E-02 
407	 4.24448540646549E-02 
408	 4.24638327298288E-02 
409	 4.29604741405588E-02 
410	 4.29619110111502E-02 
411	 4.26663596092461E-02 
412	 4.26154458585757E-02 
413	 4.29397933403718E-02 
414	 4.28720832621207E-02 
415	 0.042539875496545 
416	 0.042846874134919 
417	 4.29680539642169E-02 
418	 4.30161669318565E-02 
419	 0.04309760349928 
420	 4.28667065998816E-02 
421	 4.27980183244352E-02 
422	 4.30206466768698E-02 
423	 4.34079372394919E-02 
424	 0.043271573220433 
425	 4.32515464900095E-02 
426	 4.34610202304687E-02 
427	 4.33043129795851E-02 
428	 4.32683769043968E-02 
429	 4.33266353555429E-02 
430	 4.33478055745026E-02 
431	 4.32110729718847E-02 
432	 4.33362296233615E-02 
433	 4.35826520447877E-02 
434	 4.35403988101717E-02 
435	 4.34846996311036E-02 
436	 0.043588650900205 
437	 4.37808778167521E-02 
438	 4.36204295195115E-02 
439	 0.043684039921965 
440	 0.043816075051311 
441	 4.37625358001213E-02 
442	 4.38178979241149E-02 
443	 4.38404648123501E-02 
444	 4.38171743074728E-02 
445	 4.38488360370474E-02 
446	 4.40166933294303E-02 
447	 0.044025518569553 
448	 4.38061036923775E-02 
449	 4.39112229601981E-02 
450	 4.41027653029406E-02 
451	 4.42313759480531E-02 
452	 4.42063525475982E-02 
453	 4.41227973334191E-02 
454	 4.42314452422455E-02 
455	 4.44277839880282E-02 
456	 4.42246009029618E-02 
457	 4.42106782411326E-02 
458	 4.42312258974921E-02 
459	 4.41346407215682E-02 
460	 4.43120968088846E-02 
461	 4.44137835561427E-02 
462	 4.43244537055656E-02 
463	 4.41224360038498E-02 
464	 4.42741875778052E-02 
465	 4.44704063040211E-02 
466	 4.44797230614074E-02 
467	 4.43227735819339E-02 
468	 4.43311087538589E-02 
469	 4.44291789970542E-02 
470	 0.044462288664112 
471	 4.45368917650676E-02 
472	 4.45408025914625E-02 
473	 4.44936531672506E-02 
474	 4.45174073973217E-02 
475	 4.45432126283539E-02 
476	 4.45761999568439E-02 
477	 4.46128312955455E-02 
478	 4.45981212066054E-02 
479	 4.46299949772248E-02 
480	 4.46928249524979E-02 
481	 4.47358410497347E-02 
482	 4.48110894119563E-02 
483	 4.48220296883165E-02 
484	 4.47776566140953E-02 
485	 4.48151828371332E-02 
486	 4.49266915161648E-02 
487	 4.49241574143953E-02 
488	 4.47568717556874E-02 
489	 4.49397635611776E-02 
490	 4.50082493902258E-02 
491	 4.49679235621866E-02 
492	 4.50749463362998E-02 
493	 4.50769469199962E-02 
494	 4.50909571287094E-02 
495	 4.51609091046437E-02 
496	 4.51343217984456E-02 
497	 0.045147545779441 
498	 4.51760437475832E-02 
499	 4.51778871116129E-02 
500	 4.52753124560365E-02 
501	 4.53484282087232E-02 
502	 4.53589238096128E-02 
503	 4.53513674122762E-02 
504	 4.53692750101047E-02 
505	 4.53325489434379E-02 
506	 4.52540854161574E-02 
507	 4.54525072447618E-02 
508	 4.55213078922258E-02 
509	 4.54856595476076E-02 
510	 4.55393050646917E-02 
511	 4.55647267311069E-02 
512	 4.55934786014227E-02 
513	 4.56500013874403E-02 
514	 4.57363614087167E-02 
515	 4.57208578380197E-02 
516	 4.56927675373064E-02 
517	 4.57454503036168E-02 
518	 4.57721877856359E-02 
519	 4.57799576619133E-02 
520	 4.57748991449519E-02 
521	 4.57672313834382E-02 
522	 4.58321495583439E-02 
523	 4.58971612588457E-02 
524	 4.59134168613575E-02 
525	 4.59159735607704E-02 
526	 4.59386402485743E-02 
527	 0.045989804784805 
528	 4.60581371800406E-02 
529	 4.61032167963698E-02 
530	 4.60989793049858E-02 
531	 4.60857581642287E-02 
532	 4.61666121531026E-02 
533	 4.61855439566765E-02 
534	 4.61920718008077E-02 
535	 4.62352721352015E-02 
536	 4.62177601291995E-02 
537	 4.62650091756638E-02 
538	 4.63499782493341E-02 
539	 0.046368140521166 
540	 4.63578980497277E-02 
541	 4.63694604832287E-02 
542	 4.64076204258984E-02 
543	 4.63989299882027E-02 
544	 4.64459851505132E-02 
545	 0.046501010146433 
546	 4.65030246641327E-02 
547	 4.65584599301738E-02 
548	 4.65841604484928E-02 
549	 4.65799350534195E-02 
550	 4.66216241484477E-02 
551	 4.66412715102739E-02 
552	 4.66717721580062E-02 
553	 4.67304731854202E-02 
554	 4.67473102229209E-02 
555	 4.67694646573953E-02 
556	 4.68021382536025E-02 
557	 4.68348081657091E-02 
558	 0.046895567200341 
559	 4.69502475310065E-02 
560	 4.69894242928167E-02 
561	 4.70464341556244E-02 
562	 4.70536850947443E-02 
563	 4.70663502863188E-02 
564	 4.71327742239429E-02 
565	 4.71408221346536E-02 
566	 4.71479419375894E-02 
567	 4.71701895832078E-02 
568	 4.71910454110252E-02 
569	 4.72309830545302E-02 
570	 0.047256670077171 
571	 0.047259570618342 
572	 4.73018789260134E-02 
573	 4.73455034410587E-02 
574	 4.73756002730682E-02 
575	 4.73920198145298E-02 
576	 4.74316970095643E-02 
577	 4.74560588659959E-02 
578	 4.74627268625185E-02 
579	 4.74949205007642E-02 
580	 4.75114560061628E-02 
581	 4.75203049961581E-02 
582	 4.75415701887202E-02 
583	 4.75990867949416E-02 
584	 4.76487997141371E-02 
585	 4.76786872892596E-02 
586	 4.76987113232267E-02 
587	 4.77188928194619E-02 
588	 4.77447683262573E-02 
589	 4.77781849001207E-02 
590	 4.78174672726162E-02 
591	 4.78484005976409E-02 
592	 0.047880531625772 
593	 4.79179536941902E-02 
594	 4.79023080332521E-02 
595	 4.79065966450766E-02 
596	 4.79334884541239E-02 
597	 4.79254202543544E-02 
598	 0.047966772921444 
599	 4.80129686716057E-02 
600	 0.048026553878302 
601	 4.80403270361646E-02 
602	 0.048076337490469 
603	 0.048112218278766 
604	 4.81158979631653E-02 
605	 4.81425576178838E-02 
606	 4.81751939069567E-02 
607	 4.82110021250501E-02 
608	 0.04827215828463 
609	 4.82643010040601E-02 
610	 4.82474513072863E-02 
611	 4.82880351030336E-02 
612	 4.83429216640046E-02 
613	 4.83519439099975E-02 
614	 4.83382549622061E-02 
615	 4.83712771915143E-02 
616	 4.83774527964248E-02 
617	 4.84027937127681E-02 
618	 4.84609793151513E-02 
619	 4.84822555051583E-02 
620	 4.84904308556185E-02 
621	 4.84972871954979E-02 
622	 4.85113611991532E-02 
623	 4.85369367225471E-02 
624	 0.048559682924231 
625	 4.85755341116708E-02 
626	 4.85914787690449E-02 
627	 4.86229049745522E-02 
628	 4.86389650967778E-02 
629	 4.86294478427572E-02 
630	 4.86585247542058E-02 
631	 4.86792856633911E-02 
632	 4.86926684406601E-02 
633	 4.87185082040744E-02 
634	 4.87540288484846E-02 
635	 4.87731174965562E-02 
636	 4.87828038771622E-02 
637	 4.88324559473115E-02 
638	 4.88207692419422E-02 
639	 4.88088198684002E-02 
640	 4.88564328983758E-02 
641	 4.88822861921786E-02 
642	 4.89156089558575E-02 
643	 4.89537810895509E-02 
644	 4.89755866288616E-02 
645	 4.89768724378694E-02 
646	 4.89929025969401E-02 
647	 4.90290668150888E-02 
648	 0.049032584717971 
649	 4.90779345587269E-02 
650	 4.91220088322029E-02 
651	 4.91137173557922E-02 
652	 4.91295340426584E-02 
653	 4.91444721955705E-02 
654	 4.91569891407388E-02 
655	 4.91849666913225E-02 
656	 4.92113041484101E-02 
657	 0.049241630722132 
658	 4.92721667804386E-02 
659	 4.92661735782464E-02 
660	 4.93005521235156E-02 
661	 4.93520042483139E-02 
662	 4.93710179962434E-02 
663	 4.93939870528472E-02 
664	 4.94097484487901E-02 
665	 0.049414225602852 
666	 4.94140050075281E-02 
667	 4.94402379006983E-02 
668	 4.94739168233927E-02 
669	 4.94966660907837E-02 
670	 4.95194551923991E-02 
671	 4.95479556357864E-02 
672	 4.95689871788363E-02 
673	 4.95702199702207E-02 
674	 4.96088670508523E-02 
675	 4.96427580961006E-02 
676	 0.049656069336256 
677	 0.049674715493707 
678	 4.96915833555296E-02 
679	 0.049717761134239 
680	 4.97530320792325E-02 
681	 4.97492119345166E-02 
682	 4.97657102847144E-02 
683	 4.98018453473204E-02 
684	 4.98233115115545E-02 
685	 4.98193120975666E-02 
686	 4.98252980828828E-02 
687	 4.98573394779798E-02 
688	 4.98980705161644E-02 
689	 4.99098806802767E-02 
690	 4.99145756929887E-02 
691	 4.99385115178122E-02 
692	 4.99626327770798E-02 
693	 4.99799676765586E-02 
694	 4.99910461990933E-02 
695	 5.00022413088471E-02 
696	 5.00235992682133E-02 
697	 5.00408339851369E-02 
698	 5.00538304240673E-02 
699	 5.00899693266481E-02 
700	 5.01072922902648E-02 
701	 5.01232625382244E-02 
702	 0.050156435490848 
703	 5.01588024118741E-02 
704	 5.01775737252829E-02 
705	 5.02045787364911E-02 
706	 5.01994144127511E-02 
707	 5.02231157189985E-02 
708	 5.02474500795243E-02 
709	 5.02551129441999E-02 
710	 0.050265895484687 
711	 5.02946208250448E-02 
712	 5.03129605770453E-02 
713	 5.03010469205592E-02 
714	 5.03286710495322E-02 
715	 5.03525580578523E-02 
716	 5.03581741430252E-02 
717	 0.050357781103528 
718	 5.03957988527304E-02 
719	 5.04214361977634E-02 
720	 0.050414100299465 
721	 5.04258193146803E-02 
722	 5.04446340547232E-02 
723	 5.04671505645797E-02 
724	 0.05048909328738 
725	 5.04980193509548E-02 
726	 5.05041131732219E-02 
727	 0.05052392388607 
728	 5.05685199018032E-02 
729	 5.05494535568625E-02 
730	 5.05437665142007E-02 
731	 5.05819628789297E-02 
732	 0.050581542357768 
733	 5.06060299359747E-02 
734	 5.06328015878392E-02 
735	 5.06306136399834E-02 
736	 5.06297035310615E-02 
737	 5.06395244963026E-02 
738	 5.06521691904714E-02 
739	 5.06525668422846E-02 
740	 5.06748410493559E-02 
741	 5.07023225380283E-02 
742	 5.07178548778831E-02 
743	 5.07132409386463E-02 
744	 5.07136304640888E-02 
745	 5.07294353353746E-02 
746	 5.07554909125756E-02 
747	 5.07507066241909E-02 
748	 0.050756803421614 
749	 5.07782102771364E-02 
750	 0.050795847057411 
751	 5.07961913541729E-02 
752	 5.07970624454335E-02 
753	 5.08078512229375E-02 
754	 5.08223258874205E-02 
755	 5.08345817872202E-02 
756	 5.08331016726266E-02 
757	 5.08174036025495E-02 
758	 5.08180683326069E-02 
759	 0.050834152435576 
760	 5.08479906811587E-02 
761	 5.08426905977641E-02 
762	 5.08660409757843E-02 
763	 5.08735367656513E-02 
764	 5.08628347601698E-02 
765	 5.08809453479419E-02 
766	 5.08933345073761E-02 
767	 5.08917729832385E-02 
768	 5.08805361392739E-02 
769	 0.050878944453926 
770	 0.050893140664503 
771	 0.050903015171471 
772	 5.08904253741927E-02 
773	 5.09003027878207E-02 
774	 5.09123911465329E-02 
775	 5.09112135699216E-02 
776	 5.08920156621301E-02 
777	 5.08945586847781E-02 
778	 5.09097984169456E-02 
779	 5.09215686656907E-02 
780	 5.09150905697051E-02 
781	 5.09168967430875E-02 
782	 0.05092365836425 
783	 5.09269363517571E-02 
784	 5.09335271629432E-02 
785	 5.09382978453175E-02 
786	 5.09424109697773E-02 
787	 5.09479915741313E-02 
788	 5.09341460089453E-02 
789	 5.09308135001757E-02 
790	 5.09402037316668E-02 
791	 5.09280506098216E-02 
792	 5.09221910350114E-02 
793	 5.09259433537478E-02 
794	 5.09314623882214E-02 
795	 5.09142094035138E-02 
796	 5.09170886510516E-02 
797	 5.09279237469948E-02 
798	 5.09198568352155E-02 
799	 5.09039927103074E-02 
800	 5.08931645696636E-02 
801	 5.08947559892421E-02 
802	 0.050906604396335 
803	 5.08817381767514E-02 
804	 5.08623316124269E-02 
805	 5.08713835925987E-02 
806	 5.08847119934173E-02 
807	 5.08968028151645E-02 
808	 5.08895064158027E-02 
809	 5.08603325980752E-02 
810	 5.08550540071693E-02 
811	 5.08696791380519E-02 
812	 5.08737479756628E-02 
813	 5.08427430123965E-02 
814	 0.050861719546025 
815	 5.08642569914516E-02 
816	 5.08389774806468E-02 
817	 0.050830649944387 
818	 5.08463955836328E-02 
819	 5.08415949836657E-02 
820	 5.08088879022769E-02 
821	 5.08137267851594E-02 
822	 5.08241689181838E-02 
823	 0.050832723592778 
824	 0.050834794296106 
825	 0.050815803949086 
826	 5.07962403654658E-02 
827	 5.07841166863789E-02 
828	 5.07820608016048E-02 
829	 5.08015935527137E-02 
830	 0.050819232609522 
831	 5.08156541548878E-02 
832	 5.07833306469634E-02 
833	 5.07694703529629E-02 
834	 5.07724008647641E-02 
835	 5.07788304717636E-02 
836	 5.07710901389435E-02 
837	 5.07658136987842E-02 
838	 5.07426968002409E-02 
839	 5.07029101898784E-02 
840	 0.050736423297038 
841	 5.07331763019654E-02 
842	 5.07130015798465E-02 
843	 5.07254247342499E-02 
844	 5.06805514244213E-02 
845	 5.06536464123389E-02 
846	 5.06560377841004E-02 
847	 5.06489689760972E-02 
848	 5.06487312292642E-02 
849	 5.06295081205064E-02 
850	 5.05909894092724E-02 
851	 5.05691163019626E-02 
852	 5.05765605531881E-02 
853	 5.05972059985805E-02 
854	 5.06094996800576E-02 
855	 5.05968956307349E-02 
856	 5.05661070907287E-02 
857	 5.05483383746932E-02 
858	 5.05622257847026E-02 
859	 5.05547606555206E-02 
860	 5.05442229567942E-02 
861	 5.05434419862397E-02 
862	 5.05544694120133E-02 
863	 0.050537741603613 
864	 5.05162391363597E-02 
865	 5.05057457195702E-02 
866	 5.05070091186972E-02 
867	 5.04771329615446E-02 
868	 5.04548649960174E-02 
869	 5.04501156123043E-02 
870	 5.04198485545315E-02 
871	 5.04133959871983E-02 
872	 5.04158379451275E-02 
873	 5.04101315679365E-02 
874	 5.04067981822324E-02 
875	 5.04011434803965E-02 
876	 5.03958322248354E-02 
877	 5.03954434108371E-02 
878	 5.04050959908617E-02 
879	 5.04007396152112E-02 
880	 5.03785514986962E-02 
881	 5.03508936742838E-02 
882	 5.03524134886462E-02 
883	 5.03373602866098E-02 
884	 5.03112067423724E-02 
885	 5.03153025174717E-02 
886	 5.03147795831145E-02 
887	 5.02987611559154E-02 
888	 5.02790551599768E-02 
889	 5.02853985703737E-02 
890	 5.02582529720835E-02 
891	 5.02357852718694E-02 
892	 5.02380780244335E-02 
893	 5.02247538443061E-02 
894	 5.02126679734339E-02 
895	 5.02081076214575E-02 
896	 5.02097598327661E-02 
897	 5.02043241952166E-02 
898	 5.01885920405781E-02 
899	 5.01551689287989E-02 
900	 5.01094605143756E-02 
901	 5.01040233440477E-02 
902	 5.00982845329187E-02 
903	 5.00979775297317E-02 
904	 5.01166449675762E-02 
905	 5.00756860322756E-02 
906	 5.00435175867553E-02 
907	 5.00406114254577E-02 
908	 5.00414207801123E-02 
909	 5.00065979201777E-02 
910	 4.99873784942064E-02 
911	 4.99896475618519E-02 
912	 4.99703554063729E-02 
913	 4.99906241698196E-02 
914	 4.99821018521033E-02 
915	 4.99387388732182E-02 
916	 4.99582751523255E-02 
917	 4.99624287611454E-02 
918	 0.049934736803009 
919	 4.99039923316618E-02 
920	 4.99551505238165E-02 
921	 4.99288803176495E-02 
922	 4.98671148801128E-02 
923	 4.98412284277936E-02 
924	 4.98489802030871E-02 
925	 4.99142954649691E-02 
926	 4.99328091800713E-02 
927	 4.98442503526428E-02 
928	 4.98722437903833E-02 
929	 4.98943666504836E-02 
930	 0.049877946399073 
931	 4.98392802919539E-02 
932	 4.98227955910492E-02 
933	 4.98127407675883E-02 
934	 4.98238584754407E-02 
935	 4.98612064308036E-02 
936	 4.97812257767243E-02 
937	 4.97804376362561E-02 
938	 4.98259441824777E-02 
939	 4.97566471869074E-02 
940	 4.97876055662547E-02 
941	 4.97929474482687E-02 
942	 4.97592731599017E-02 
943	 4.97810993881288E-02 
944	 4.97894043930344E-02 
945	 4.97708276296687E-02 
946	 4.97491367613117E-02 
947	 4.97696039898234E-02 
948	 4.97567581080677E-02 
949	 4.96993417108679E-02 
950	 4.96470174851935E-02 
951	 4.96946986851001E-02 
952	 0.049681315614751 
953	 4.96697066865513E-02 
954	 4.96910270587534E-02 
955	 4.96725486535543E-02 
956	 4.96276522063758E-02 
957	 4.95780400242093E-02 
958	 4.95585437976403E-02 
959	 4.96150480307539E-02 
960	 4.95605888208743E-02 
961	 4.95328857935631E-02 
962	 4.96199309974044E-02 
963	 4.96588230981278E-02 
964	 4.96018386267521E-02 
965	 4.95261791947504E-02 
966	 4.95207381784547E-02 
967	 4.96138674582088E-02 
968	 4.95729522455967E-02 
969	 4.94856124807687E-02 
970	 4.94724070772861E-02 
971	 0.049480377480155 
972	 4.94792082345483E-02 
973	 4.94687377172757E-02 
974	 4.94611205258995E-02 
975	 4.94700680900511E-02 
976	 4.94418912262043E-02 
977	 4.94471983525779E-02 
978	 4.95072373784086E-02 
979	 4.93620030218379E-02 
980	 4.93586457857031E-02 
981	 4.93914626220296E-02 
982	 4.93085136859999E-02 
983	 4.93351975788048E-02 
984	 4.93556390418964E-02 
985	 4.93875042671612E-02 
986	 4.94565977565118E-02 
987	 4.94721626084445E-02 
988	 4.93877965321833E-02 
989	 4.93619827895588E-02 
990	 0.049482557052498 
991	 4.93450598379775E-02 
992	 0.04927854182679 
993	 4.93074315649131E-02 
994	 4.93526356403814E-02 
995	 0.049408314011824 
996	 4.94478543207279E-02 
997	 4.93698241285717E-02 
998	 4.91884484542594E-02 
999	 4.93603777913406E-02 
1000	 4.94387193246269E-02 
1001	 5.00270822033381E-02 
1002	 4.99860913708525E-02 
1003	 4.99660122873683E-02 
1004	 4.99524720168213E-02 
1005	 4.99271968620329E-02 
1006	 4.99191522801767E-02 
1007	 4.99346784678316E-02 
1008	 4.99443384795894E-02 
1009	 4.99625152057354E-02 
1010	 4.99645909983243E-02 
1011	 0.049957739969806 
1012	 4.99554726123417E-02 
1013	 4.99475938246696E-02 
1014	 4.99337054217467E-02 
1015	 4.99057749793634E-02 
1016	 4.99257581249691E-02 
1017	 4.99100884620263E-02 
1018	 4.98916345587917E-02 
1019	 4.99348227674251E-02 
1020	 4.99503743272791E-02 
1021	 4.99489549062355E-02 
1022	 4.99506374294895E-02 
1023	 4.99377164822048E-02 
1024	 4.98792391669727E-02 
1025	 4.98604663678484E-02 
1026	 4.98657759152805E-02 
1027	 4.98511905380766E-02 
1028	 4.98391388340228E-02 
1029	 4.98248140528042E-02 
1030	 0.04979480026819 
1031	 4.97789189084105E-02 
1032	 4.97653976645481E-02 
1033	 4.97524204312848E-02 
1034	 4.97371311919865E-02 
1035	 4.97322543677216E-02 
1036	 4.97248916852613E-02 
1037	 4.97289000356631E-02 
1038	 0.049704033175917 
1039	 4.96522009545665E-02 
1040	 4.96306264612582E-02 
1041	 4.96096261410095E-02 
1042	 4.95945232644716E-02 
1043	 0.049602841000377 
1044	 4.96033053075885E-02 
1045	 4.95945002514488E-02 
1046	 4.95714371371308E-02 
1047	 4.95479361465031E-02 
1048	 4.95466927811725E-02 
1049	 4.95398561040752E-02 
1050	 4.95194809173414E-02 
1051	 4.95286009614219E-02 
1052	 4.95465705792678E-02 
1053	 4.95485460980658E-02 
1054	 4.95475470685992E-02 
1055	 4.95436240209103E-02 
1056	 0.049527707703975 
1057	 4.95164468127425E-02 
1058	 4.94958067461362E-02 
1059	 4.94958360920583E-02 
1060	 4.95171490226276E-02 
1061	 4.95232945036497E-02 
1062	 4.95277181486206E-02 
1063	 4.95353466786465E-02 
1064	 4.95451561891441E-02 
1065	 4.95529783332533E-02 
1066	 4.95546764417065E-02 
1067	 4.95680627128746E-02 
1068	 0.049569183541138 
1069	 4.95478937776867E-02 
1070	 4.95432031550073E-02 
1071	 0.049547048378945 
1072	 4.95557197212636E-02 
1073	 0.049551842050829 
1074	 4.95552061545321E-02 
1075	 4.95763119746108E-02 
1076	 4.95955482598685E-02 
1077	 4.96032668873171E-02 
1078	 4.96198962574698E-02 
1079	 4.96359293209184E-02 
1080	 4.96249814713394E-02 
1081	 0.049629109467079 
1082	 4.96447629307206E-02 
1083	 4.96248218532481E-02 
1084	 4.96074876999415E-02 
1085	 4.96018884489352E-02 
1086	 4.96042423280235E-02 
1087	 4.96114025433628E-02 
1088	 4.96271784969534E-02 
1089	 4.96391044233733E-02 
1090	 4.96490034853713E-02 
1091	 4.96255867211344E-02 
1092	 4.96095582062996E-02 
1093	 4.96295145933721E-02 
1094	 4.96261046857506E-02 
1095	 4.96006522990265E-02 
1096	 4.95947449797949E-02 
1097	 0.049575528471702 
1098	 0.049554824378856 
1099	 4.95710698852633E-02 
1100	 4.95662600358551E-02 
1101	 4.95512879314404E-02 
1102	 4.95580957986628E-02 
1103	 4.95544380341585E-02 
1104	 4.95470975054413E-02 
1105	 4.95438414171041E-02 
1106	 4.95465869951581E-02 
1107	 4.95354778441156E-02 
1108	 4.95244751703751E-02 
1109	 4.95334852993558E-02 
1110	 4.95419530291355E-02 
1111	 4.95395536212757E-02 
1112	 4.95363540705212E-02 
1113	 0.049535593042534 
1114	 4.95283696198136E-02 
1115	 0.049508172941314 
1116	 4.94928873404551E-02 
1117	 4.94793883938094E-02 
1118	 4.94615697712703E-02 
1119	 0.049431581627034 
1120	 4.94208585170269E-02 
1121	 4.94194061725131E-02 
1122	 4.94161584746966E-02 
1123	 4.94069899966139E-02 
1124	 4.94089524214274E-02 
1125	 4.93931849850652E-02 
1126	 4.93647381792153E-02 
1127	 4.93438292328971E-02 
1128	 4.93252990013656E-02 
1129	 4.93036745636062E-02 
1130	 4.92753727219502E-02 
1131	 4.92584774071095E-02 
1132	 4.92538124748082E-02 
1133	 0.049250726828284 
1134	 4.92426545003918E-02 
1135	 4.92307893748052E-02 
1136	 4.92105217457591E-02 
1137	 0.04919516434298 
1138	 4.91847889706545E-02 
1139	 4.91714629607191E-02 
1140	 4.91623613825752E-02 
1141	 0.049134142356944 
1142	 4.91271898665845E-02 
1143	 4.91064860134951E-02 
1144	 4.90733074155001E-02 
1145	 4.90679977980229E-02 
1146	 4.90504759896272E-02 
1147	 4.90261750317408E-02 
1148	 4.90158311576515E-02 
1149	 4.89949219124565E-02 
1150	 4.89812100285725E-02 
1151	 4.89782652272649E-02 
1152	 4.89635924897996E-02 
1153	 4.89476536352941E-02 
1154	 4.89406777590335E-02 
1155	 4.89292894824452E-02 
1156	 4.89141529357457E-02 
1157	 4.89102880383544E-02 
1158	 4.89001910997996E-02 
1159	 4.88780664187186E-02 
1160	 4.88597792600094E-02 
1161	 0.048856231218281 
1162	 4.88487930394254E-02 
1163	 4.88351453880672E-02 
1164	 4.88110725996536E-02 
1165	 4.87855307505228E-02 
1166	 4.87703479795582E-02 
1167	 0.048754636669955 
1168	 4.87529537555781E-02 
1169	 4.87496753219214E-02 
1170	 4.87534770317874E-02 
1171	 4.87426186991337E-02 
1172	 0.048722614147325 
1173	 4.87144387930066E-02 
1174	 4.86988482704653E-02 
1175	 4.86976209240559E-02 
1176	 0.048728795667221 
1177	 4.87283181332867E-02 
1178	 0.048715993765728 
1179	 4.86987513509544E-02 
1180	 0.048672557494415 
1181	 4.86482234685324E-02 
1182	 4.86475818144897E-02 
1183	 4.86515497466234E-02 
1184	 4.86514985904184E-02 
1185	 4.86452405530581E-02 
1186	 4.86318965349127E-02 
1187	 4.86015862485523E-02 
1188	 4.85910679591421E-02 
1189	 4.85861481265957E-02 
1190	 4.85816831877933E-02 
1191	 0.048591516832438 
1192	 4.85864097802955E-02 
1193	 4.85682993799864E-02 
1194	 4.85586497234768E-02 
1195	 4.85497347244424E-02 
1196	 4.85424890953814E-02 
1197	 4.85426272111442E-02 
1198	 4.85305582775987E-02 
1199	 4.85339601654093E-02 
1200	 4.85328838103426E-02 
1201	 4.85260570960963E-02 
1202	 0.048534891432775 
1203	 4.85320430411044E-02 
1204	 4.85305966034647E-02 
1205	 4.85315884922802E-02 
1206	 0.048540222874761 
1207	 4.85382981535177E-02 
1208	 4.85328416160506E-02 
1209	 4.85248456563345E-02 
1210	 4.85035409183705E-02 
1211	 4.85017810974673E-02 
1212	 0.048510445810573 
1213	 4.85128956041271E-02 
1214	 4.85215574899483E-02 
1215	 4.85323093867903E-02 
1216	 4.85447699255481E-02 
1217	 4.85491469615426E-02 
1218	 4.85526266024621E-02 
1219	 4.85589997899665E-02 
1220	 4.85551462414698E-02 
1221	 4.85547767638358E-02 
1222	 4.85718047850499E-02 
1223	 4.85828016017528E-02 
1224	 4.85910344629739E-02 
1225	 4.85969225819565E-02 
1226	 4.86036531328969E-02 
1227	 4.86078668543464E-02 
1228	 4.86127176973667E-02 
1229	 4.86198561250847E-02 
1230	 4.86241495276493E-02 
1231	 4.86264549143859E-02 
1232	 4.86280712593301E-02 
1233	 4.86268159263808E-02 
1234	 4.86271789599157E-02 
1235	 4.86238022228967E-02 
1236	 0.048625977814062 
1237	 4.86348190250286E-02 
1238	 4.86409153489157E-02 
1239	 4.86501812314662E-02 
1240	 0.048660255380055 
1241	 4.86468465952134E-02 
1242	 4.86363884039699E-02 
1243	 4.86359147419027E-02 
1244	 4.86309787820458E-02 
1245	 4.86308619472742E-02 
1246	 4.86474202196586E-02 
1247	 0.048650731652624 
1248	 4.86451299023174E-02 
1249	 4.86447508898397E-02 
1250	 4.86475076065546E-02 
1251	 4.86452442153342E-02 
1252	 4.86401475963687E-02 
1253	 4.86335857052828E-02 
1254	 4.86225046358663E-02 
1255	 4.86144878141004E-02 
1256	 4.86049176623206E-02 
1257	 4.85984099592059E-02 
1258	 4.85976468537841E-02 
1259	 4.85935205932939E-02 
1260	 4.85866337255485E-02 
1261	 4.85830939637529E-02 
1262	 4.85874636271377E-02 
1263	 4.85776650351826E-02 
1264	 4.85698287299228E-02 
1265	 4.85661767758274E-02 
1266	 4.85496962404608E-02 
1267	 4.85144839291167E-02 
1268	 4.85054999966104E-02 
1269	 4.85022580489211E-02 
1270	 4.84995562339664E-02 
1271	 4.85133015187089E-02 
1272	 4.85167095195852E-02 
1273	 4.85171451069462E-02 
1274	 4.85119556362413E-02 
1275	 4.84991580239161E-02 
1276	 4.84967481900099E-02 
1277	 4.84898946517365E-02 
1278	 4.84892611490859E-02 
1279	 4.85003554142007E-02 
1280	 4.85106928220512E-02 
1281	 4.85281515432419E-02 
1282	 4.85348433774401E-02 
1283	 4.85279565906747E-02 
1284	 4.85374020804198E-02 
1285	 4.85511348055295E-02 
1286	 4.85621425157387E-02 
1287	 0.048577190360247 
1288	 0.048611266008116 
1289	 4.86242968137769E-02 
1290	 4.86239542723754E-02 
1291	 0.048627948740716 
1292	 4.86258174571014E-02 
1293	 4.86337191954564E-02 
1294	 4.86424258110624E-02 
1295	 4.86551025762956E-02 
1296	 4.86797773860385E-02 
1297	 4.86942575409792E-02 
1298	 4.87095090608518E-02 
1299	 4.87158838292976E-02 
1300	 4.87084692764101E-02 
1301	 4.87123375556331E-02 
1302	 4.87192336544747E-02 
1303	 4.87212225656409E-02 
1304	 4.87277930207395E-02 
1305	 4.87315164140137E-02 
1306	 4.87198913834755E-02 
1307	 4.87220434361297E-02 
1308	 4.87331930200232E-02 
1309	 4.87483983212107E-02 
1310	 4.87576736922382E-02 
1311	 4.87724211073134E-02 
1312	 4.87787561916193E-02 
1313	 4.87792391652904E-02 
1314	 4.87772314438982E-02 
1315	 4.87725873511811E-02 
1316	 4.87673638884584E-02 
1317	 4.87541407737984E-02 
1318	 0.048749648003777 
1319	 4.87461388497644E-02 
1320	 4.87495764955252E-02 
1321	 4.87689638967942E-02 
1322	 4.87667423317555E-02 
1323	 4.87564951083817E-02 
1324	 4.87504467909425E-02 
1325	 4.87283787696838E-02 
1326	 4.87191882835776E-02 
1327	 0.048730218168875 
1328	 4.87244534276152E-02 
1329	 0.048705855600607 
1330	 4.86968776593872E-02 
1331	 4.86892945576866E-02 
1332	 4.86773334852974E-02 
1333	 4.86679483298953E-02 
1334	 4.86606643393395E-02 
1335	 4.86486513709884E-02 
1336	 4.86262592469948E-02 
1337	 4.86174707116187E-02 
1338	 4.86174526466677E-02 
1339	 0.048608313829424 
1340	 4.85983300997096E-02 
1341	 4.85894309748585E-02 
1342	 4.85811754295721E-02 
1343	 4.85647971447525E-02 
1344	 4.85480550885665E-02 
1345	 4.85273332305215E-02 
1346	 4.84902317222395E-02 
1347	 4.84706873201419E-02 
1348	 4.84582535784223E-02 
1349	 4.84471150935075E-02 
1350	 4.84514715596007E-02 
1351	 4.84392802654532E-02 
1352	 4.84142468345493E-02 
1353	 0.048400746078724 
1354	 4.83878682066778E-02 
1355	 4.83715174028936E-02 
1356	 4.83638741231252E-02 
1357	 4.83497098345736E-02 
1358	 4.83212256265548E-02 
1359	 4.83018067208534E-02 
1360	 0.048289289996194 
1361	 0.048271714935151 
1362	 4.82653936666063E-02 
1363	 4.82523210000856E-02 
1364	 4.82405592703898E-02 
1365	 4.82300275216574E-02 
1366	 4.82158109368598E-02 
1367	 4.81963691804321E-02 
1368	 4.81856355589913E-02 
1369	 4.81775301985436E-02 
1370	 4.81666878709786E-02 
1371	 4.81625293300395E-02 
1372	 4.81492792518013E-02 
1373	 4.81304001642139E-02 
1374	 4.81094688126054E-02 
1375	 4.80790238493996E-02 
1376	 4.80613026666219E-02 
1377	 4.80469434810101E-02 
1378	 4.80320625850397E-02 
1379	 4.80298057697911E-02 
1380	 4.80150517518591E-02 
1381	 4.79865366320799E-02 
1382	 4.79684275594545E-02 
1383	 4.79510443751219E-02 
1384	 4.79363533600455E-02 
1385	 4.79299759460949E-02 
1386	 4.79190114447564E-02 
1387	 4.79096131563129E-02 
1388	 4.78944095384644E-02 
1389	 4.78674127235384E-02 
1390	 4.78525679168568E-02 
1391	 4.78438124242268E-02 
1392	 4.78294370925719E-02 
1393	 4.78302272598012E-02 
1394	 4.78262128942543E-02 
1395	 4.78142136459127E-02 
1396	 4.77973866442626E-02 
1397	 4.77762070989146E-02 
1398	 4.77453981317744E-02 
1399	 4.77232047086355E-02 
1400	 0.047695803683501 
1401	 4.76805412542375E-02 
1402	 4.76780073871832E-02 
1403	 4.76651450800289E-02 
1404	 4.76577368444192E-02 
1405	 4.76388099747884E-02 
1406	 4.76064770132639E-02 
1407	 0.04758321118048 
1408	 4.75549022995587E-02 
1409	 4.75375200518798E-02 
1410	 4.75275984129135E-02 
1411	 4.75183925775009E-02 
1412	 4.75193593275362E-02 
1413	 4.75121519809931E-02 
1414	 4.75002031466256E-02 
1415	 4.74929965055331E-02 
1416	 4.74855532687958E-02 
1417	 4.74771670319436E-02 
1418	 4.74709768927328E-02 
1419	 4.74657729816897E-02 
1420	 4.74543130885581E-02 
1421	 4.74516887160185E-02 
1422	 4.74641619076065E-02 
1423	 4.74647827078554E-02 
1424	 0.047466580356304 
1425	 4.74596922128397E-02 
1426	 4.74478974964452E-02 
1427	 4.74333278483984E-02 
1428	 4.74272449178387E-02 
1429	 4.74285873844494E-02 
1430	 4.74263511489256E-02 
1431	 4.74254324303177E-02 
1432	 4.74267940122421E-02 
1433	 4.74293966208854E-02 
1434	 4.74293971008036E-02 
1435	 4.74328880192336E-02 
1436	 4.74308203574179E-02 
1437	 4.74221639105676E-02 
1438	 0.047419764118832 
1439	 4.74159926908421E-02 
1440	 4.74192069274448E-02 
1441	 4.74293929501901E-02 
1442	 0.047433794832783 
1443	 4.74433826023959E-02 
1444	 0.047444042275318 
1445	 4.74382520495239E-02 
1446	 4.74322362352076E-02 
1447	 4.74183777828397E-02 
1448	 4.74123390746709E-02 
1449	 4.74049123415878E-02 
1450	 4.74048341534173E-02 
1451	 4.74158323518274E-02 
1452	 4.74200055498695E-02 
1453	 4.74276902453287E-02 
1454	 4.74296493031534E-02 
1455	 4.74215246671009E-02 
1456	 4.74214955844365E-02 
1457	 4.74264896792286E-02 
1458	 4.74261719563899E-02 
1459	 4.74269346336887E-02 
1460	 0.04742684409361 
1461	 4.74164401569324E-02 
1462	 4.74152939289474E-02 
1463	 4.74268671328327E-02 
1464	 4.74302142205923E-02 
1465	 4.74327011188645E-02 
1466	 4.74353684008838E-02 
1467	 4.74352745639877E-02 
1468	 4.74240901502054E-02 
1469	 4.74152010482706E-02 
1470	 4.74116269430317E-02 
1471	 4.74136213278324E-02 
1472	 4.74177609123568E-02 
1473	 4.74232662864778E-02 
1474	 4.74402683193682E-02 
1475	 4.74418649438297E-02 
1476	 4.74330367771445E-02 
1477	 4.74353919663986E-02 
1478	 4.74385713515846E-02 
1479	 4.74383237251246E-02 
1480	 4.74434022560899E-02 
1481	 4.74426581093268E-02 
1482	 4.74369213115187E-02 
1483	 4.74265618365046E-02 
1484	 4.74094005729419E-02 
1485	 4.74041257222622E-02 
1486	 0.04739248640994 
1487	 4.73951128787742E-02 
1488	 4.74205554632201E-02 
1489	 0.047428210840903 
1490	 0.047431619785966 
1491	 0.047436371624271 
1492	 4.74351038168748E-02 
1493	 4.74368033097658E-02 
1494	 0.047441458158448 
1495	 4.74453471341148E-02 
1496	 0.047449102642165 
1497	 0.047451355315574 
1498	 4.74565617293353E-02 
1499	 4.74558826713343E-02 
1500	 4.74439389100723E-02 
1501	 0.047443735709277 
1502	 4.74480426407964E-02 
1503	 4.74505381973154E-02 
1504	 0.047463309674617 
1505	 4.74675294622757E-02 
1506	 4.74662357168922E-02 
1507	 4.74617392245652E-02 
1508	 4.74465352720851E-02 
1509	 4.74426614375872E-02 
1510	 4.74385957007334E-02 
1511	 4.74397552373888E-02 
1512	 4.74603668520829E-02 
1513	 4.74655789037084E-02 
1514	 4.74604030301197E-02 
1515	 0.047460142406662 
1516	 0.047448812184862 
1517	 4.74480779507212E-02 
1518	 4.74602136505629E-02 
1519	 0.047468839826763 
1520	 4.74860723326382E-02 
1521	 4.74957855445965E-02 
1522	 4.74870857990043E-02 
1523	 0.047478701008937 
1524	 4.74772451735837E-02 
1525	 0.047470790623347 
1526	 4.74665919798338E-02 
1527	 4.74697467433453E-02 
1528	 4.74746607097363E-02 
1529	 4.74728065821991E-02 
1530	 4.74827925710563E-02 
1531	 4.75131823659686E-02 
1532	 0.047514627259617 
1533	 4.75031753618367E-02 
1534	 4.75011201310197E-02 
1535	 4.74885040331556E-02 
1536	 0.047486357204941 
1537	 4.74949103393263E-02 
1538	 4.74984981058621E-02 
1539	 4.74980407154997E-02 
1540	 4.75043719000445E-02 
1541	 4.75193887961798E-02 
1542	 4.75237741715095E-02 
1543	 4.75277079246869E-02 
1544	 4.75256693986488E-02 
1545	 4.75092548774134E-02 
1546	 4.75115016008464E-02 
1547	 4.75216371648293E-02 
1548	 4.75264121606854E-02 
1549	 4.75406214092191E-02 
1550	 0.047545439083953 
1551	 0.047540321307286 
1552	 4.75402215084796E-02 
1553	 4.75400894527727E-02 
1554	 4.75425982512373E-02 
1555	 4.75472262765237E-02 
1556	 4.75488703469547E-02 
1557	 0.047554537175971 
1558	 4.75526073691076E-02 
1559	 4.75425679951922E-02 
1560	 4.75370705906142E-02 
1561	 4.75283259545623E-02 
1562	 0.047524554898752 
1563	 4.75245832589955E-02 
1564	 4.75244956411051E-02 
1565	 0.047527754291737 
1566	 4.75282432883088E-02 
1567	 4.75285436032719E-02 
1568	 4.75279134382601E-02 
1569	 4.75255621451016E-02 
1570	 4.75234873601305E-02 
1571	 4.75187213736183E-02 
1572	 4.75189558008976E-02 
1573	 4.75220631235639E-02 
1574	 4.75243337050075E-02 
1575	 4.75282004511291E-02 
1576	 4.75342584510164E-02 
1577	 4.75452607375943E-02 
1578	 4.75472494056737E-02 
1579	 4.75509747497549E-02 
1580	 4.75464270066183E-02 
1581	 4.75248585252349E-02 
1582	 4.75152825309419E-02 
1583	 4.75052058413763E-02 
1584	 4.75017872800838E-02 
1585	 4.75091297605506E-02 
1586	 4.75115510831586E-02 
1587	 4.75147793497957E-02 
1588	 0.047518306858619 
1589	 4.75223115647711E-02 
1590	 4.75233802406185E-02 
1591	 4.75226871960041E-02 
1592	 4.75245012537266E-02 
1593	 4.75206734674658E-02 
1594	 4.75253754260439E-02 
1595	 4.75457435553944E-02 
1596	 4.75504257994058E-02 
1597	 4.75495638425883E-02 
1598	 4.75494413444398E-02 
1599	 4.75393209890355E-02 
1600	 4.75317831488802E-02 
1601	 4.75235963838825E-02 
1602	 4.75228442965641E-02 
1603	 4.75260447296355E-02 
1604	 4.75264588280658E-02 
1605	 4.75319730644099E-02 
1606	 4.75365632943932E-02 
1607	 4.75418992421657E-02 
1608	 4.75394737173535E-02 
1609	 4.75281074380612E-02 
1610	 4.75297554499621E-02 
1611	 4.75338446601372E-02 
1612	 4.75332674831173E-02 
1613	 4.75419293811499E-02 
1614	 4.75480249136914E-02 
1615	 4.75479502275481E-02 
1616	 4.75450676313963E-02 
1617	 4.75405865297042E-02 
1618	 4.75406209097543E-02 
1619	 0.047538690831671 
1620	 4.75347504355504E-02 
1621	 4.75312386459271E-02 
1622	 0.047534504998724 
1623	 4.75376325923222E-02 
1624	 4.75421628670157E-02 
1625	 0.047565296236852 
1626	 4.75697115042178E-02 
1627	 4.75612183838157E-02 
1628	 4.75506367910802E-02 
1629	 4.75107650784137E-02 
1630	 0.047507094812636 
1631	 4.75353108203405E-02 
1632	 4.75390987781636E-02 
1633	 4.75515573474489E-02 
1634	 4.75600829583053E-02 
1635	 4.75498027081211E-02 
1636	 4.75405268790267E-02 
1637	 4.75370426548403E-02 
1638	 4.75323185323035E-02 
1639	 4.75153027364725E-02 
1640	 4.75053735086212E-02 
1641	 4.75079415301749E-02 
1642	 4.75025384267603E-02 
1643	 0.047484735412552 
1644	 4.74815528682473E-02 
1645	 4.74865600872265E-02 
1646	 4.74884714968153E-02 
1647	 4.75053334084238E-02 
1648	 4.75070196458003E-02 
1649	 4.74934041752955E-02 
1650	 4.74874416517141E-02 
1651	 4.74786682931003E-02 
1652	 4.74698816225744E-02 
1653	 4.74590700777418E-02 
1654	 4.74587473576743E-02 
1655	 4.74709262439938E-02 
1656	 4.74677597106293E-02 
1657	 4.74657467416358E-02 
1658	 4.74571902453117E-02 
1659	 4.74233977719481E-02 
1660	 4.74126289405618E-02 
1661	 4.74222308476302E-02 
1662	 4.74163658390547E-02 
1663	 4.74157175452731E-02 
1664	 4.74081797902022E-02 
1665	 4.73760015634587E-02 
1666	 0.047365536521628 
1667	 4.73722448808088E-02 
1668	 4.73628600803735E-02 
1669	 4.73600244973906E-02 
1670	 0.047350277334163 
1671	 4.73197802634685E-02 
1672	 4.73068660538101E-02 
1673	 4.73033084307512E-02 
1674	 4.72920277739099E-02 
1675	 4.72907838931328E-02 
1676	 4.72742531781325E-02 
1677	 4.72438514569002E-02 
1678	 4.72196211371467E-02 
1679	 4.71879033792167E-02 
1680	 4.71626614880179E-02 
1681	 4.71394727801155E-02 
1682	 4.71227185569855E-02 
1683	 4.71115670563909E-02 
1684	 4.70991205349717E-02 
1685	 0.047100680112924 
1686	 4.70827286107804E-02 
1687	 4.70422506084164E-02 
1688	 4.70275685055543E-02 
1689	 0.047020487452684 
1690	 4.70014722984456E-02 
1691	 4.70003042963366E-02 
1692	 4.69790582504119E-02 
1693	 4.69287230227196E-02 
1694	 4.69009847848557E-02 
1695	 4.68837619252318E-02 
1696	 4.68548385474022E-02 
1697	 4.68247996169435E-02 
1698	 4.67931184748172E-02 
1699	 4.67490218313818E-02 
1700	 4.67272185219876E-02 
1701	 4.67202694488852E-02 
1702	 4.67023119864358E-02 
1703	 4.66838014196855E-02 
1704	 4.66772350922635E-02 
1705	 4.66784799572992E-02 
1706	 4.66601770641277E-02 
1707	 4.66513405963843E-02 
1708	 4.66346122286302E-02 
1709	 4.66075599683051E-02 
1710	 4.66057691846235E-02 
1711	 4.66002649264672E-02 
1712	 4.65811440759753E-02 
1713	 4.65609280513835E-02 
1714	 4.65414061194427E-02 
1715	 4.65284261041817E-02 
1716	 4.65091518721604E-02 
1717	 4.64840810297481E-02 
1718	 4.64657002199125E-02 
1719	 4.64477121812955E-02 
1720	 4.64390991789029E-02 
1721	 4.64478418098199E-02 
1722	 4.64508726153912E-02 
1723	 4.64512457852574E-02 
1724	 4.64614780440104E-02 
1725	 4.64650750548006E-02 
1726	 4.64523028212603E-02 
1727	 4.64472758175209E-02 
1728	 4.64578918493974E-02 
1729	 4.64585573049597E-02 
1730	 4.64745574693679E-02 
1731	 4.65047036355808E-02 
1732	 4.65103131177804E-02 
1733	 4.65307049226123E-02 
1734	 4.65584595599552E-02 
1735	 4.65581075578885E-02 
1736	 4.65698150697589E-02 
1737	 4.65764418444915E-02 
1738	 4.65644790351454E-02 
1739	 4.65721952966108E-02 
1740	 4.65786648791556E-02 
1741	 4.65809381824731E-02 
1742	 4.65994719318143E-02 
1743	 0.046605113141879 
1744	 4.66039416215822E-02 
1745	 4.65927403666569E-02 
1746	 4.65687856450669E-02 
1747	 4.65557219364339E-02 
1748	 0.046525897151502 
1749	 0.046517586769102 
1750	 4.65346653090566E-02 
1751	 4.65397567717178E-02 
1752	 4.65523562733937E-02 
1753	 4.65579923751493E-02 
1754	 4.65585596757693E-02 
1755	 4.65476282858273E-02 
1756	 4.65208905707146E-02 
1757	 4.65217147860469E-02 
1758	 4.65248295576349E-02 
1759	 4.65488671367795E-02 
1760	 4.65679841722918E-02 
1761	 4.65709590842265E-02 
1762	 4.65870613427484E-02 
1763	 4.66145210390569E-02 
1764	 4.66344048776411E-02 
1765	 4.66362600621676E-02 
1766	 4.66372657391397E-02 
1767	 4.66447294289335E-02 
1768	 4.66492473209145E-02 
1769	 4.66676014690667E-02 
1770	 4.66899604750835E-02 
1771	 0.046692713716596 
1772	 4.66948557628325E-02 
1773	 4.67170366268196E-02 
1774	 4.67400077352331E-02 
1775	 4.67559341258098E-02 
1776	 0.04676768641297 
1777	 4.67650656760514E-02 
1778	 4.67493573955181E-02 
1779	 4.67302788521742E-02 
1780	 4.67347028074665E-02 
1781	 4.67400321400926E-02 
1782	 4.67449651893825E-02 
1783	 4.67733845957598E-02 
1784	 4.67891643433232E-02 
1785	 4.68106190011397E-02 
1786	 4.68246162339251E-02 
1787	 4.68295183096095E-02 
1788	 4.68217094838365E-02 
1789	 4.67937391410661E-02 
1790	 4.67874701711196E-02 
1791	 4.67864710010219E-02 
1792	 4.67861527437598E-02 
1793	 4.67975280666558E-02 
1794	 4.68025743263017E-02 
1795	 4.68099431441635E-02 
1796	 4.68180419133566E-02 
1797	 4.68352100510108E-02 
1798	 4.68426931910923E-02 
1799	 0.046837266841551 
1800	 4.68507055964818E-02 
1801	 0.047096395433404 
1802	 4.71046598692864E-02 
1803	 4.71141544066435E-02 
1804	 4.71268920018094E-02 
1805	 4.71352928074456E-02 
1806	 4.71431003536011E-02 
1807	 4.71590694417582E-02 
1808	 0.047166244938253 
1809	 4.71596596706964E-02 
1810	 4.71653591337731E-02 
1811	 0.047173835445333 
1812	 4.71830493642653E-02 
1813	 4.71945982409205E-02 
1814	 0.047218409616422 
1815	 0.047222424330447 
1816	 4.72252857186738E-02 
1817	 4.72266752505213E-02 
1818	 4.72103607610585E-02 
1819	 4.72147275688234E-02 
1820	 4.72292899049885E-02 
1821	 4.72437402169023E-02 
1822	 0.047268237885208 
1823	 0.04729841784508 
1824	 4.73060737797457E-02 
1825	 4.73027340064503E-02 
1826	 4.73059816414296E-02 
1827	 4.72993416443539E-02 
1828	 0.047299601974126 
1829	 4.73047239691046E-02 
1830	 4.73114637879095E-02 
1831	 4.73174636719128E-02 
1832	 4.73270290190217E-02 
1833	 4.73355700700594E-02 
1834	 4.73614887307477E-02 
1835	 4.73897533817464E-02 
1836	 4.73933395398163E-02 
1837	 4.73996460653453E-02 
1838	 4.74046180212053E-02 
1839	 0.047402685629933 
1840	 4.73845669498025E-02 
1841	 4.73866072423803E-02 
1842	 4.73991260117137E-02 
1843	 4.73998841726106E-02 
1844	 4.74037257179231E-02 
1845	 4.74069621504749E-02 
1846	 4.74093690004086E-02 
1847	 4.74168519081753E-02 
1848	 4.74235732507772E-02 
1849	 4.74423076271475E-02 
1850	 4.74508506615051E-02 
1851	 4.74527075151792E-02 
1852	 4.74524783931177E-02 
1853	 4.74576270934482E-02 
1854	 4.74638036772748E-02 
1855	 4.74742421563434E-02 
1856	 4.74797791894918E-02 
1857	 4.74832654263048E-02 
1858	 4.74833912915154E-02 
1859	 4.74825452047369E-02 
1860	 4.74757422466389E-02 
1861	 4.74770193839101E-02 
1862	 4.74782874737615E-02 
1863	 4.74826886426346E-02 
1864	 4.75043400983922E-02 
1865	 4.75183798250781E-02 
1866	 4.75272399305092E-02 
1867	 4.75412649918903E-02 
1868	 4.75345844673536E-02 
1869	 4.75271874976013E-02 
1870	 4.75205734143231E-02 
1871	 4.75041602300493E-02 
1872	 4.74944247385178E-02 
1873	 4.74865972728962E-02 
1874	 0.047486306752871 
1875	 4.74882464609603E-02 
1876	 4.75033720169389E-02 
1877	 0.047516948485261 
1878	 4.75105408798834E-02 
1879	 4.74888548391018E-02 
1880	 4.74635287304145E-02 
1881	 4.74387083440094E-02 
1882	 4.74027608377809E-02 
1883	 4.73835321703501E-02 
1884	 4.73759479095816E-02 
1885	 4.73575551310268E-02 
1886	 4.73478128268946E-02 
1887	 4.73327675467836E-02 
1888	 0.047307019321976 
1889	 4.72895504287148E-02 
1890	 4.72689665416781E-02 
1891	 4.72420680200482E-02 
1892	 4.72094744848038E-02 
1893	 4.71791598509856E-02 
1894	 4.71463775670165E-02 
1895	 4.71204357298105E-02 
1896	 4.70882160978502E-02 
1897	 4.70592541501028E-02 
1898	 4.70369223407335E-02 
1899	 4.70119078930846E-02 
1900	 4.69892922260478E-02 
1901	 4.69631197135367E-02 
1902	 4.69437352665247E-02 
1903	 4.69275839328074E-02 
1904	 4.69046692109873E-02 
1905	 4.68802536609246E-02 
1906	 4.68617980383195E-02 
1907	 4.68404440246163E-02 
1908	 4.68123848623442E-02 
1909	 4.67868502737717E-02 
1910	 4.67724766247021E-02 
1911	 0.04675442937293 
1912	 4.67304951919865E-02 
1913	 0.046712425531449 
1914	 4.66986413782702E-02 
1915	 4.66839786828994E-02 
1916	 4.66684916174373E-02 
1917	 4.66508176993042E-02 
1918	 4.66416933239413E-02 
1919	 4.66385337349762E-02 
1920	 0.046635412304568 
1921	 0.046635148644677 
1922	 4.66287367796337E-02 
1923	 4.66201407729941E-02 
1924	 4.66052786786614E-02 
1925	 4.65965290000343E-02 
1926	 4.65953090425512E-02 
1927	 4.65992675679288E-02 
1928	 4.66040667915847E-02 
1929	 4.66181779066427E-02 
1930	 4.66314064127901E-02 
1931	 4.66261631338847E-02 
1932	 4.66270246634646E-02 
1933	 4.66237716062033E-02 
1934	 4.66080634279364E-02 
1935	 4.65999015728403E-02 
1936	 4.66039431662091E-02 
1937	 4.66079136216522E-02 
1938	 4.66142614327307E-02 
1939	 4.66244248649047E-02 
1940	 4.66455882868706E-02 
1941	 4.66488076154037E-02 
1942	 4.66600969124189E-02 
1943	 4.66631243851763E-02 
1944	 4.66644434564903E-02 
1945	 4.66796372984668E-02 
1946	 4.66892333856939E-02 
1947	 4.67098464499641E-02 
1948	 4.67372179711632E-02 
1949	 4.67587112021556E-02 
1950	 4.67717182499319E-02 
1951	 4.67729893296334E-02 
1952	 0.046781189098956 
1953	 4.67800755085886E-02 
1954	 4.67940542728336E-02 
1955	 4.68185557112133E-02 
1956	 4.68408260279979E-02 
1957	 0.046848417455426 
1958	 4.68501595057836E-02 
1959	 4.68644405881199E-02 
1960	 4.68856077838929E-02 
1961	 4.69012456965452E-02 
1962	 0.04692775114965 
1963	 4.69458517846867E-02 
1964	 4.69542236848369E-02 
1965	 4.69612833410479E-02 
1966	 0.046963685167184 
1967	 4.69762059653505E-02 
1968	 4.69931186542281E-02 
1969	 4.70120396373876E-02 
1970	 4.70443020341295E-02 
1971	 4.70669850366865E-02 
1972	 4.70703171205767E-02 
1973	 4.70780214739904E-02 
1974	 4.70964649848266E-02 
1975	 4.71264865568031E-02 
1976	 0.047145290557798 
1977	 4.71745243547421E-02 
1978	 4.71888654791126E-02 
1979	 4.71797948149219E-02 
1980	 4.71840628710998E-02 
1981	 0.047213590678693 
1982	 4.72282565823263E-02 
1983	 4.72616790738934E-02 
1984	 4.72960645154801E-02 
1985	 4.73117403354938E-02 
1986	 4.73332763474571E-02 
1987	 4.73496467252503E-02 
1988	 4.73594661541328E-02 
1989	 4.73750072845523E-02 
1990	 4.73882010289467E-02 
1991	 4.74048468198013E-02 
1992	 4.74307844445417E-02 
1993	 4.74483921826207E-02 
1994	 4.74507721508794E-02 
1995	 4.74668647156035E-02 
1996	 4.74830432695521E-02 
1997	 4.75020616460385E-02 
1998	 4.75296415094615E-02 
1999	 4.75771827586765E-02 
2000	 4.76060357555622E-02 
2001	 0.04763163786252 
2002	 4.76512291095087E-02 
2003	 4.76647187169014E-02 
2004	 4.76759618472349E-02 
2005	 4.76709434084377E-02 
2006	 4.76863791588353E-02 
2007	 4.77151495946961E-02 
2008	 4.77323792057133E-02 
2009	 0.047758971431315 
2010	 4.77841365972073E-02 
2011	 4.77955834249458E-02 
2012	 4.78137328689723E-02 
2013	 4.78314228991482E-02 
2014	 4.78531647946538E-02 
2015	 4.78700940857777E-02 
2016	 4.78837227532478E-02 
2017	 4.79000500431217E-02 
2018	 4.79164789239288E-02 
2019	 4.79321088685723E-02 
2020	 4.79531250552969E-02 
2021	 4.79655058632164E-02 
2022	 4.79653075087161E-02 
2023	 4.79810828544773E-02 
2024	 4.79996838852578E-02 
2025	 0.048016013910464 
2026	 4.80330591355138E-02 
2027	 4.80545641927355E-02 
2028	 4.80746651245071E-02 
2029	 4.80952389567499E-02 
2030	 4.81113163732545E-02 
2031	 4.81284394179438E-02 
2032	 4.81442457380438E-02 
2033	 4.81502102209063E-02 
2034	 0.048160922790318 
2035	 4.81801076088769E-02 
2036	 0.048192539012259 
2037	 4.81929658965781E-02 
2038	 4.82048756230269E-02 
2039	 4.82069022797215E-02 
2040	 4.81920297947962E-02 
2041	 4.82011108420533E-02 
2042	 4.82200938796788E-02 
2043	 4.82375828882277E-02 
2044	 0.048265115838882 
2045	 4.82937721344578E-02 
2046	 4.83238507034348E-02 
2047	 4.83510111772328E-02 
2048	 4.83890046348857E-02 
2049	 4.84159721666383E-02 
2050	 4.84348994656389E-02 
2051	 4.84491263163518E-02 
2052	 4.84650849210853E-02 
2053	 0.048476612441872 
2054	 4.84870583241903E-02 
2055	 4.84931815285372E-02 
2056	 4.85037298725433E-02 
2057	 4.85136800023897E-02 
2058	 4.85273725730754E-02 
2059	 4.85416624236476E-02 
2060	 4.85634501804381E-02 
2061	 4.85998745511481E-02 
2062	 4.86166540893942E-02 
2063	 4.86235565525228E-02 
2064	 4.86398624147774E-02 
2065	 4.86490221316929E-02 
2066	 0.048658941538943 
2067	 4.86792694685571E-02 
2068	 4.86978066349597E-02 
2069	 4.87238875833535E-02 
2070	 4.87545964695875E-02 
2071	 0.048772279712951 
2072	 4.87958732016471E-02 
2073	 4.88108575945985E-02 
2074	 4.88027885112802E-02 
2075	 4.88141016471668E-02 
2076	 4.88374861726256E-02 
2077	 4.88531050004864E-02 
2078	 4.88630520894089E-02 
2079	 4.88842412563285E-02 
2080	 4.89193681859299E-02 
2081	 4.89420940394758E-02 
2082	 4.89759686419354E-02 
2083	 4.89866128889982E-02 
2084	 0.04899304381129 
2085	 4.89916801330164E-02 
2086	 4.90061947433342E-02 
2087	 4.90337317220636E-02 
2088	 4.90524918652423E-02 
2089	 0.049075650051261 
2090	 4.90937080997218E-02 
2091	 4.91038524834399E-02 
2092	 4.91182453535425E-02 
2093	 0.04913484944547 
2094	 4.91492492529861E-02 
2095	 4.91664451204365E-02 
2096	 0.049179171864152 
2097	 4.91981176908034E-02 
2098	 0.049194362354623 
2099	 4.91942767152052E-02 
2100	 0.049194129700852 
2101	 0.049208673185944 
2102	 4.92342978205689E-02 
2103	 0.049252981924003 
2104	 4.92812232611101E-02 
2105	 4.92985584187758E-02 
2106	 4.92998420541512E-02 
2107	 0.049318390498344 
2108	 4.93517924280041E-02 
2109	 4.93694556089795E-02 
2110	 4.93809781776711E-02 
2111	 4.93996509880649E-02 
2112	 4.94142833171432E-02 
2113	 4.94276233395335E-02 
2114	 4.94468734925449E-02 
2115	 4.94676161829611E-02 
2116	 0.049483221618714 
2117	 4.95044679186754E-02 
2118	 4.95132226034404E-02 
2119	 4.95192780705195E-02 
2120	 4.95308650822206E-02 
2121	 0.049527134892707 
2122	 4.95432917850743E-02 
2123	 4.95875771178831E-02 
2124	 4.96056241454996E-02 
2125	 4.96118478645206E-02 
2126	 4.96292321817714E-02 
2127	 4.96425745927654E-02 
2128	 4.96549510360689E-02 
2129	 4.96777653998843E-02 
2130	 4.96906675906356E-02 
2131	 4.96967714714542E-02 
2132	 4.96991540321358E-02 
2133	 4.96991946521592E-02 
2134	 4.96916938529066E-02 
2135	 4.96903918480899E-02 
2136	 4.96866706133703E-02 
2137	 4.96850222494247E-02 
2138	 4.96894968754653E-02 
2139	 4.96931536415425E-02 
2140	 4.96990710882631E-02 
2141	 4.96920263842513E-02 
2142	 4.96838911069059E-02 
2143	 4.96697888758678E-02 
2144	 4.96398547397659E-02 
2145	 4.96179237326667E-02 
2146	 4.95960014423129E-02 
2147	 4.95779033010443E-02 
2148	 4.95603448010322E-02 
2149	 4.95450204934173E-02 
2150	 4.95438415149458E-02 
2151	 0.04952685171475 
2152	 4.94989092745058E-02 
2153	 4.94756342235239E-02 
2154	 4.94406842256895E-02 
2155	 4.94028411242445E-02 
2156	 0.049371877554068 
2157	 4.93423736922878E-02 
2158	 4.93156595231132E-02 
2159	 4.92931314439392E-02 
2160	 4.92690344977325E-02 
2161	 4.92561179943539E-02 
2162	 4.92246563846726E-02 
2163	 4.91792870428346E-02 
2164	 4.91417648847282E-02 
2165	 4.90977836283391E-02 
2166	 4.90549110536288E-02 
2167	 4.90140541314239E-02 
2168	 4.89775005049019E-02 
2169	 4.89380305588284E-02 
2170	 4.89016983815328E-02 
2171	 4.88707340696562E-02 
2172	 4.88440255694042E-02 
2173	 4.88157076218376E-02 
2174	 4.88001587762757E-02 
2175	 0.04877594525432 
2176	 0.048747188907303 
2177	 4.87180089985148E-02 
2178	 4.86746875974376E-02 
2179	 4.86504880699635E-02 
2180	 4.86425670067012E-02 
2181	 0.048616794311874 
2182	 4.85866153204593E-02 
2183	 4.85645715635613E-02 
2184	 4.85314274993217E-02 
2185	 4.85131135194794E-02 
2186	 0.048513156670498 
2187	 4.85056252695164E-02 
2188	 4.85095153993675E-02 
2189	 4.84916246885399E-02 
2190	 4.84613688371047E-02 
2191	 4.84321224788486E-02 
2192	 4.83707533699914E-02 
2193	 4.83438818198172E-02 
2194	 4.83463066561343E-02 
2195	 4.83345332130065E-02 
2196	 4.83342794369252E-02 
2197	 4.83308586403158E-02 
2198	 4.82962135380219E-02 
2199	 4.82881077329385E-02 
2200	 4.82746014423509E-02 
2201	 4.82617938234125E-02 
2202	 4.82506864369858E-02 
2203	 4.82434031472406E-02 
2204	 4.82348190623442E-02 
2205	 4.82279464598265E-02 
2206	 4.82237483549849E-02 
2207	 4.82187300940792E-02 
2208	 4.82168165031142E-02 
2209	 4.82211834147414E-02 
2210	 4.82198722200832E-02 
2211	 0.048222534181694 
2212	 0.048216908950563 
2213	 0.048196625786525 
2214	 4.81895548712576E-02 
2215	 4.81833676586857E-02 
2216	 4.81796191291901E-02 
2217	 4.81814606504803E-02 
2218	 0.048191318524078 
2219	 4.82217099694293E-02 
2220	 4.82268530043088E-02 
2221	 4.82257249510124E-02 
2222	 4.82171647940637E-02 
2223	 4.82113936721095E-02 
2224	 4.81882479126087E-02 
2225	 4.81918217140779E-02 
2226	 4.82076074198688E-02 
2227	 4.82072600312187E-02 
2228	 4.81970266891416E-02 
2229	 4.81983619091936E-02 
2230	 4.82014679969809E-02 
2231	 0.048196816445967 
2232	 4.81907483704294E-02 
2233	 4.81886135745489E-02 
2234	 4.81794041147058E-02 
2235	 0.048180945112296 
2236	 4.82004088549264E-02 
2237	 4.82012609330661E-02 
2238	 4.82034300294784E-02 
2239	 4.81913022983823E-02 
2240	 4.81609664080079E-02 
2241	 4.81332183170348E-02 
2242	 4.80956158341106E-02 
2243	 4.80597759479091E-02 
2244	 4.80147637843835E-02 
2245	 4.79875739237238E-02 
2246	 4.79706679078079E-02 
2247	 4.79513322077556E-02 
2248	 4.79473204889744E-02 
2249	 4.79330727038112E-02 
2250	 4.79045692520047E-02 
2251	 4.78875732413338E-02 
2252	 0.047868095394147 
2253	 4.78683443176717E-02 
2254	 4.78627401398069E-02 
2255	 4.78293921519008E-02 
2256	 4.78052951201635E-02 
2257	 4.77498902572861E-02 
2258	 4.77067867796705E-02 
2259	 4.76533699138471E-02 
2260	 4.76364568114001E-02 
2261	 4.76312374344751E-02 
2262	 4.76362370505745E-02 
2263	 4.76768543035304E-02 
2264	 4.76915612007883E-02 
2265	 4.77076553351134E-02 
2266	 4.76958897489828E-02 
2267	 4.76640793168789E-02 
2268	 4.76398935129763E-02 
2269	 0.047591630291166 
2270	 4.75642317764936E-02 
2271	 4.75504508451792E-02 
2272	 4.75382444032269E-02 
2273	 4.75339923393496E-02 
2274	 4.75225564435506E-02 
2275	 4.75081133379683E-02 
2276	 4.75073278082485E-02 
2277	 4.75065695741228E-02 
2278	 0.04750963058312 
2279	 4.75378416149098E-02 
2280	 4.75428370099959E-02 
2281	 4.75392918998321E-02 
2282	 4.75315884368969E-02 
2283	 4.75109610716435E-02 
2284	 4.74850157403725E-02 
2285	 4.74712968630018E-02 
2286	 0.047458428024756 
2287	 4.74842953597739E-02 
2288	 4.74967429006958E-02 
2289	 4.74787960187028E-02 
2290	 0.047443326161522 
2291	 4.74060702615108E-02 
2292	 4.74104058411684E-02 
2293	 4.74207001426127E-02 
2294	 4.74247969147525E-02 
2295	 4.74485374959613E-02 
2296	 4.74451584926099E-02 
2297	 0.047423781210414 
2298	 4.74036329418066E-02 
2299	 4.73885644547068E-02 
2300	 4.73174603323894E-02 
2301	 4.73183457477045E-02 
2302	 4.73828220028756E-02 
2303	 4.74029541393126E-02 
2304	 4.74319566617955E-02 
2305	 4.74574442278585E-02 
2306	 0.047467987040113 
2307	 0.047479502508985 
2308	 4.74901324366276E-02 
2309	 4.75039132001389E-02 
2310	 4.75013455263323E-02 
2311	 4.75309733812489E-02 
2312	 4.75889616590021E-02 
2313	 4.76405626012595E-02 
2314	 4.77006646517993E-02 
2315	 4.77604540181309E-02 
2316	 4.78274853745314E-02 
2317	 4.78882951119942E-02 
2318	 4.79615662781027E-02 
2319	 4.80122430519349E-02 
2320	 0.048045257103034 
2321	 4.80692182231592E-02 
2322	 4.80712353414498E-02 
2323	 4.80823286884771E-02 
2324	 4.80902075784425E-02 
2325	 4.81033977811849E-02 
2326	 4.81257144227135E-02 
2327	 4.81402574751967E-02 
2328	 4.81499714957039E-02 
2329	 4.81534333426139E-02 
2330	 4.81420126413521E-02 
2331	 4.81420086125387E-02 
2332	 4.81706866044381E-02 
2333	 4.82069659225463E-02 
2334	 0.048238013297694 
2335	 4.82752558906175E-02 
2336	 4.82856647484373E-02 
2337	 4.82971275636399E-02 
2338	 4.83230646267779E-02 
2339	 4.83237301272235E-02 
2340	 4.83110298025907E-02 
2341	 4.82934204246856E-02 
2342	 4.82583588481917E-02 
2343	 4.82785279693061E-02 
2344	 4.83239986100682E-02 
2345	 4.83410522581992E-02 
2346	 4.83671754980236E-02 
2347	 4.83663464009775E-02 
2348	 4.83623412417357E-02 
2349	 4.83518442163962E-02 
2350	 4.83470722549982E-02 
2351	 0.048376633806804 
2352	 0.048402905850258 
2353	 4.84400821279153E-02 
2354	 4.84738916923865E-02 
2355	 4.85021450761568E-02 
2356	 0.048541590580605 
2357	 0.048582177297224 
2358	 4.86181526769504E-02 
2359	 4.86128031394157E-02 
2360	 4.85851125166316E-02 
2361	 4.86055655980364E-02 
2362	 4.86459094948001E-02 
2363	 4.87191200603573E-02 
2364	 0.048802418934807 
2365	 0.048808481056771 
2366	 4.87965505424301E-02 
2367	 4.87979114339724E-02 
2368	 4.87968631049197E-02 
2369	 4.88126038612899E-02 
2370	 4.88181144615317E-02 
2371	 0.048833719439315 
2372	 4.88680216334763E-02 
2373	 4.88647289748965E-02 
2374	 0.04888455726796 
2375	 4.89103599548232E-02 
2376	 4.89034948450436E-02 
2377	 4.89330293967494E-02 
2378	 4.89396093162014E-02 
2379	 4.89242378808454E-02 
2380	 0.048930673605905 
2381	 4.89466656787962E-02 
2382	 4.89553493976897E-02 
2383	 4.89882951282432E-02 
2384	 4.89982437630245E-02 
2385	 4.89675017422635E-02 
2386	 0.048947239499081 
2387	 0.048935789953112 
2388	 4.89193658645432E-02 
2389	 4.88977081149124E-02 
2390	 4.89371979430179E-02 
2391	 4.90022899149845E-02 
2392	 0.049033380397289 
2393	 0.049114585762554 
2394	 0.04912322258723 
2395	 4.90519051865005E-02 
2396	 4.90266939185461E-02 
2397	 4.89860235931995E-02 
2398	 4.89840775436498E-02 
2399	 4.90193634262247E-02 
2400	 4.90329201811331E-02 
2401	 4.90471604965225E-02 
2402	 4.90139980039491E-02 
2403	 0.049035304311533 
2404	 0.049007857745433 
2405	 4.90619732573989E-02 
2406	 4.91403658018468E-02 
2407	 4.91476199080478E-02 
2408	 4.91216758824119E-02 
2409	 4.91317979204098E-02 
2410	 4.91254073658251E-02 
2411	 4.90894615376127E-02 
2412	 4.91074382921037E-02 
2413	 4.90645954716826E-02 
2414	 4.90090240393256E-02 
2415	 4.89856737221118E-02 
2416	 4.89507212393359E-02 
2417	 4.89814606114638E-02 
2418	 4.90413101448571E-02 
2419	 4.90804510632403E-02 
2420	 0.04910701722455 
2421	 4.90659424483344E-02 
2422	 4.90312115049208E-02 
2423	 4.90674154010506E-02 
2424	 4.90875101694953E-02 
2425	 0.049106828103121 
2426	 4.91104713566027E-02 
2427	 4.90030589104429E-02 
2428	 4.88233084533037E-02 
2429	 4.87267140906024E-02 
2430	 4.87597747771105E-02 
2431	 4.88026147431118E-02 
2432	 4.88345286817689E-02 
2433	 4.88817877209682E-02 
2434	 4.88533677143724E-02 
2435	 4.87722917424667E-02 
2436	 4.88343254302577E-02 
2437	 4.89381359171583E-02 
2438	 4.89918777883107E-02 
2439	 4.90246499048647E-02 
2440	 4.89386353726957E-02 
2441	 4.89548264755572E-02 
2442	 0.04895961241587 
2443	 4.88362564059767E-02 
2444	 4.89003197696671E-02 
2445	 4.89303579500986E-02 
2446	 4.88997220338575E-02 
2447	 4.90131709604029E-02 
2448	 4.89836479220781E-02 
2449	 4.88597689616152E-02 
2450	 4.88176796216546E-02 
2451	 4.87369331592634E-02 
2452	 4.87735208999535E-02 
2453	 4.88509680304726E-02 
2454	 0.048746379324538 
2455	 4.87131284933212E-02 
2456	 4.87752061905203E-02 
2457	 4.87795988128455E-02 
2458	 4.89173028841091E-02 
2459	 4.90689227823471E-02 
2460	 4.89681687064739E-02 
2461	 4.89230729838284E-02 
2462	 4.89591991904228E-02 
2463	 4.89000056942353E-02 
2464	 4.89455985101293E-02 
2465	 4.89706004859581E-02 
2466	 4.88509660771135E-02 
2467	 4.87514431234581E-02 
2468	 4.87202697644788E-02 
2469	 4.88021802433518E-02 
2470	 0.048808125308228 
2471	 4.87189138294273E-02 
2472	 4.87210030528831E-02 
2473	 4.86413439504156E-02 
2474	 4.87332581558901E-02 
2475	 4.90917433056708E-02 
2476	 4.92418524956544E-02 
2477	 4.92208647386731E-02 
2478	 4.91244221053815E-02 
2479	 4.89669538588553E-02 
2480	 4.90273709340486E-02 
2481	 0.048987313328598 
2482	 4.88963855609107E-02 
2483	 4.88928971764941E-02 
2484	 4.89032823224392E-02 
2485	 4.90319122706322E-02 
2486	 4.89655124686532E-02 
2487	 4.88644581653701E-02 
2488	 4.88941719290848E-02 
2489	 4.88318611487022E-02 
2490	 0.048884366398981 
2491	 4.88681794839463E-02 
2492	 4.87279344423283E-02 
2493	 4.86704003383142E-02 
2494	 4.87083487677814E-02 
2495	 4.87551312933377E-02 
2496	 4.86702347022887E-02 
2497	 0.048716100002405 
2498	 4.87043508259971E-02 
2499	 4.87032453256903E-02 
2500	 4.90275668313784E-02 
