Wavelength	spectrum00010.asd
350	 4.17595916992007E-02 
351	 4.10820525012963E-02 
352	 4.00633204433138E-02 
353	 3.96070384439085E-02 
354	 4.26933241514597E-02 
355	 0.043072977061852 
356	 4.21748056431187E-02 
357	 0.042020258274294 
358	 4.06861991917579E-02 
359	 4.02646675489323E-02 
360	 4.06260546417845E-02 
361	 4.06163623912993E-02 
362	 4.12339699660928E-02 
363	 4.11122551648657E-02 
364	 4.02914104024874E-02 
365	 4.08619481166561E-02 
366	 4.17570755835195E-02 
367	 0.042088479503804 
368	 0.041701699261536 
369	 4.26315828475265E-02 
370	 4.36164893134421E-02 
371	 0.04359004841844 
372	 4.22249637258994E-02 
373	 4.42258182514697E-02 
374	 4.56178713991183E-02 
375	 4.50871625027043E-02 
376	 4.64259490478111E-02 
377	 4.69136070859652E-02 
378	 0.046908543084873 
379	 4.72440593106846E-02 
380	 4.74703869276735E-02 
381	 4.84076918653507E-02 
382	 4.93010938162785E-02 
383	 0.048828557499814 
384	 4.99448256900428E-02 
385	 5.11533359855637E-02 
386	 5.15414997717897E-02 
387	 5.18351057169232E-02 
388	 5.26298934830444E-02 
389	 5.38157441626408E-02 
390	 5.49369095129575E-02 
391	 5.51254730471471E-02 
392	 5.57486714239211E-02 
393	 5.70470161625599E-02 
394	 0.058426528554879 
395	 5.93678639813479E-02 
396	 6.03542143774613E-02 
397	 6.15545273411628E-02 
398	 6.23969455407744E-02 
399	 6.30887722025997E-02 
400	 6.40240181119137E-02 
401	 0.065373906152562 
402	 6.61360887488874E-02 
403	 6.73221968774424E-02 
404	 6.87532975523639E-02 
405	 6.94470686002197E-02 
406	 7.07251558992872E-02 
407	 7.21242872844536E-02 
408	 7.32738102196238E-02 
409	 7.44871409977438E-02 
410	 7.56525171460064E-02 
411	 7.67858603165434E-02 
412	 7.79811957452986E-02 
413	 7.96103057981433E-02 
414	 8.06619752693294E-02 
415	 8.14317394996284E-02 
416	 8.33070944916928E-02 
417	 0.084254240182776 
418	 8.52680628406559E-02 
419	 8.69753570353277E-02 
420	 8.78809946676629E-02 
421	 8.87779371570531E-02 
422	 8.99998570813351E-02 
423	 9.15471491511066E-02 
424	 9.25818704464817E-02 
425	 0.093584975801834 
426	 9.47660371837244E-02 
427	 9.59011402618543E-02 
428	 0.097121781450611 
429	 9.83945917705759E-02 
430	 9.96080484877748E-02 
431	 0.100500088211408 
432	 0.101591210548861 
433	 0.102818368633266 
434	 0.103858052608867 
435	 0.105350214108912 
436	 0.106595816226394 
437	 0.107431582396174 
438	 0.108743843503477 
439	 0.110031439287639 
440	 0.111267015349148 
441	 0.112525909354468 
442	 0.113749680468847 
443	 0.115012627689539 
444	 0.116303277986529 
445	 0.117544188797945 
446	 0.118703046350698 
447	 0.119973078043411 
448	 0.121418357807744 
449	 0.122736262391117 
450	 0.124144078949105 
451	 0.125550224803931 
452	 0.126807360011738 
453	 0.128161403836136 
454	 0.129606690067189 
455	 0.131075198999873 
456	 0.132461638577185 
457	 0.133914234285003 
458	 0.135341696718012 
459	 0.136712983840167 
460	 0.138346689098236 
461	 0.139933183821499 
462	 0.141420294693896 
463	 0.142905314677209 
464	 0.144390210356602 
465	 0.145878101928349 
466	 0.147364906773867 
467	 0.14883690410758 
468	 0.150363252692641 
469	 0.151920803999675 
470	 0.153496254082754 
471	 0.155254988713848 
472	 0.156896214940433 
473	 0.158377938937392 
474	 0.159879819992588 
475	 0.161484484776414 
476	 0.163028717679594 
477	 0.16448356635635 
478	 0.166258606713473 
479	 0.167702486317897 
480	 0.169078547466908 
481	 0.170865789088518 
482	 0.172440545180123 
483	 0.173926151209416 
484	 0.17544145153178 
485	 0.177030164661227 
486	 0.178670766318813 
487	 0.180208948970914 
488	 0.181577059502511 
489	 0.183054607591841 
490	 0.184550469936899 
491	 0.186061253881426 
492	 0.187625220395209 
493	 0.189177239397637 
494	 0.190602421270274 
495	 0.191921596661075 
496	 0.193380226599725 
497	 0.194846814165548 
498	 0.196298689987348 
499	 0.1977327461622 
500	 0.199110090510751 
501	 0.200417352449299 
502	 0.201704303612262 
503	 0.203068791592142 
504	 0.204474118347708 
505	 0.205795573595265 
506	 0.207007433529853 
507	 0.208359680517196 
508	 0.209667955784753 
509	 0.210917736481735 
510	 0.212168205878549 
511	 0.213438279441273 
512	 0.214678791979896 
513	 0.215875804334376 
514	 0.217073125522205 
515	 0.218233034413339 
516	 0.21935312577653 
517	 0.220439488736424 
518	 0.221490314712081 
519	 0.222545383247777 
520	 0.223593641624267 
521	 0.224592955541803 
522	 0.225600499884919 
523	 0.226541256277929 
524	 0.227414935199146 
525	 0.228418980858839 
526	 0.229325629193904 
527	 0.230117925246262 
528	 0.230861403301521 
529	 0.231609387177499 
530	 0.232343109001249 
531	 0.23307461351898 
532	 0.23384864358518 
533	 0.23449383836706 
534	 0.235037774919657 
535	 0.235552754213291 
536	 0.236105993611279 
537	 0.236590405561122 
538	 0.237010840812685 
539	 0.237417923289953 
540	 0.237640935041054 
541	 0.237853951574285 
542	 0.238120037955978 
543	 0.238261026322563 
544	 0.238370224110499 
545	 0.238439393151482 
546	 0.238434110246608 
547	 0.238338260901474 
548	 0.238190373839094 
549	 0.237985571976089 
550	 0.237683988381807 
551	 0.237395691985308 
552	 0.237070053283963 
553	 0.236657314797707 
554	 0.236197260998161 
555	 0.235628225127452 
556	 0.234967336189405 
557	 0.234268394513412 
558	 0.233530445199473 
559	 0.232763776839336 
560	 0.231961713150943 
561	 0.231094393006212 
562	 0.230134233811154 
563	 0.229165401016634 
564	 0.228248028347444 
565	 0.227246339609703 
566	 0.226100024471695 
567	 0.224838047378233 
568	 0.223551951369365 
569	 0.222189823992225 
570	 0.220797654075176 
571	 0.219413947012127 
572	 0.218029480492259 
573	 0.216697982447853 
574	 0.215409895626358 
575	 0.21412438927959 
576	 0.212814780515473 
577	 0.211419247366871 
578	 0.209901207972313 
579	 0.208260004258045 
580	 0.206606777159756 
581	 0.204964319772807 
582	 0.203322852227571 
583	 0.201661411764224 
584	 0.199994733668755 
585	 0.198337886206536 
586	 0.196692873154944 
587	 0.194971371907266 
588	 0.193200224600315 
589	 0.191413948710212 
590	 0.189638075628988 
591	 0.187775141867941 
592	 0.185889782161899 
593	 0.184069377567982 
594	 0.182263449193365 
595	 0.180420331408895 
596	 0.178552123154247 
597	 0.17672750558572 
598	 0.174846325796437 
599	 0.172984709801218 
600	 0.171179336580739 
601	 0.169303463523141 
602	 0.167495015905326 
603	 0.165718118017753 
604	 0.163885839621735 
605	 0.162099992601195 
606	 0.160326655108264 
607	 0.158559742944116 
608	 0.156845180905338 
609	 0.155129900920925 
610	 0.153422534210998 
611	 0.151739658286397 
612	 0.150089957451596 
613	 0.148441669868886 
614	 0.146804373038518 
615	 0.145208489435541 
616	 0.143615935963443 
617	 0.142054048103978 
618	 0.140541914113786 
619	 0.139070399301548 
620	 0.137571466719112 
621	 0.136071901679982 
622	 0.134619840672731 
623	 0.133184302489006 
624	 0.131809364856509 
625	 0.130472649988825 
626	 0.129093117867458 
627	 0.127776565834566 
628	 0.126501832561554 
629	 0.125231983366059 
630	 0.123950631915565 
631	 0.122712050472541 
632	 0.12152333746513 
633	 0.120370457375571 
634	 0.119257629281409 
635	 0.118122872500761 
636	 0.116977061746886 
637	 0.115928819399839 
638	 0.11487874088397 
639	 0.113818122738146 
640	 0.112769738477479 
641	 0.111779916128366 
642	 0.110813224420509 
643	 0.109860792677922 
644	 0.108929572644643 
645	 0.108033622351454 
646	 0.107143347205414 
647	 0.106252988151416 
648	 0.105400758837862 
649	 0.104595722927017 
650	 0.103789584777296 
651	 0.102946281592208 
652	 0.102158194093594 
653	 0.101390484996448 
654	 0.100647761285119 
655	 9.99607918924489E-02 
656	 9.92080281861701E-02 
657	 9.84742010758975E-02 
658	 9.78141203986105E-02 
659	 9.71432668494966E-02 
660	 9.65165307597149E-02 
661	 9.59117261598438E-02 
662	 9.52882672699455E-02 
663	 9.46692248486376E-02 
664	 9.40423248983659E-02 
665	 9.34256235757176E-02 
666	 9.28671678708663E-02 
667	 9.23302907970889E-02 
668	 9.18003803750342E-02 
669	 0.09126921345398 
670	 9.07279861889109E-02 
671	 9.02023707021025E-02 
672	 8.96964627653727E-02 
673	 0.089206616141187 
674	 8.87613840798559E-02 
675	 8.82963610308889E-02 
676	 8.78056080601859E-02 
677	 8.73607544713712E-02 
678	 8.69013363067545E-02 
679	 8.64455248874785E-02 
680	 8.60175863308886E-02 
681	 8.56039365457751E-02 
682	 8.51984487881941E-02 
683	 8.48100806756902E-02 
684	 8.44451262694483E-02 
685	 8.40164139329498E-02 
686	 8.36052474676376E-02 
687	 8.32455426342571E-02 
688	 8.28806028690619E-02 
689	 0.082495147803316 
690	 8.21198460964576E-02 
691	 0.081783982384981 
692	 8.14681868691394E-02 
693	 8.11319471904881E-02 
694	 8.07864680619376E-02 
695	 8.04695424708018E-02 
696	 8.01247014022874E-02 
697	 7.97627736467931E-02 
698	 7.94190478016492E-02 
699	 7.91540165589183E-02 
700	 7.88684605141877E-02 
701	 7.85547835100388E-02 
702	 7.82388550019512E-02 
703	 7.79612949825952E-02 
704	 7.76797523420424E-02 
705	 7.73886210158892E-02 
706	 7.71074641619898E-02 
707	 0.076825215029479 
708	 7.65461661887079E-02 
709	 7.62779092911762E-02 
710	 7.60312737480381E-02 
711	 0.075781394440711 
712	 7.55329270561812E-02 
713	 7.52933093752417E-02 
714	 7.50424310322735E-02 
715	 0.074795054716089 
716	 7.45470742136046E-02 
717	 7.42867142480223E-02 
718	 7.40724539658037E-02 
719	 7.38614693779096E-02 
720	 7.36274335056437E-02 
721	 7.33947334403824E-02 
722	 7.31869748693013E-02 
723	 0.072972746186786 
724	 7.27290388121946E-02 
725	 7.25375863004378E-02 
726	 7.23393794086202E-02 
727	 7.21324872120353E-02 
728	 7.19531165153368E-02 
729	 0.071766642188076 
730	 0.071568483306293 
731	 7.13677605282683E-02 
732	 7.11882371305167E-02 
733	 7.10166418467763E-02 
734	 7.08531540827482E-02 
735	 7.06917189375363E-02 
736	 7.04871566274152E-02 
737	 7.03100504388133E-02 
738	 7.01603954287378E-02 
739	 6.99961917414997E-02 
740	 6.98709371732789E-02 
741	 6.97366694198926E-02 
742	 0.069576771729228 
743	 6.94381810999954E-02 
744	 6.92952899277313E-02 
745	 6.91648091983519E-02 
746	 6.90557488182141E-02 
747	 6.89179505934234E-02 
748	 6.87699911381683E-02 
749	 6.86276772074251E-02 
750	 6.85026231473534E-02 
751	 6.83886305576343E-02 
752	 6.82697666278894E-02 
753	 6.81463266795972E-02 
754	 6.80401657156556E-02 
755	 6.79433661809142E-02 
756	 6.78345553313273E-02 
757	 6.77077520617046E-02 
758	 6.76113380698432E-02 
759	 0.067503798613229 
760	 6.73908879951935E-02 
761	 6.72989314530841E-02 
762	 6.72320537664002E-02 
763	 0.067153565992704 
764	 0.06705598626327 
765	 6.69652315453835E-02 
766	 6.68659825675182E-02 
767	 6.67775014108825E-02 
768	 6.67119676836922E-02 
769	 6.66536576444584E-02 
770	 0.066585226343175 
771	 6.65161509581107E-02 
772	 6.64608350053004E-02 
773	 6.63987528149071E-02 
774	 6.63498062751225E-02 
775	 6.63037914066805E-02 
776	 6.62303232914952E-02 
777	 6.61768523622874E-02 
778	 6.61364297711977E-02 
779	 6.60917922247585E-02 
780	 6.60224476931925E-02 
781	 6.59708228054658E-02 
782	 6.59193515407387E-02 
783	 6.58555802549383E-02 
784	 6.58507412662193E-02 
785	 0.065838014784995 
786	 6.58067644403515E-02 
787	 6.57767376598348E-02 
788	 6.57215602803955E-02 
789	 6.56740333548605E-02 
790	 6.56480387909402E-02 
791	 6.56282829654713E-02 
792	 6.56091400115776E-02 
793	 6.55850068314409E-02 
794	 6.55587341704818E-02 
795	 6.55539049778654E-02 
796	 6.55341824302492E-02 
797	 6.55046664723944E-02 
798	 6.54829113824138E-02 
799	 6.54646983004879E-02 
800	 6.54345518144031E-02 
801	 6.54047299247588E-02 
802	 6.54031838455731E-02 
803	 6.53854652997584E-02 
804	 6.53542473089313E-02 
805	 6.53298891776158E-02 
806	 6.53475988805421E-02 
807	 6.53495234801096E-02 
808	 0.065334748067911 
809	 6.53185458044836E-02 
810	 6.53162570580589E-02 
811	 6.53147983716704E-02 
812	 6.53093135754968E-02 
813	 6.53049010323333E-02 
814	 6.53379931422175E-02 
815	 6.53749136980081E-02 
816	 6.53884147395193E-02 
817	 6.53685830891392E-02 
818	 6.53837257548994E-02 
819	 6.53890957967426E-02 
820	 6.53775370857745E-02 
821	 0.065431341767707 
822	 6.54512036789166E-02 
823	 6.54781562751056E-02 
824	 6.55501053782777E-02 
825	 6.55757377302984E-02 
826	 6.56021860571794E-02 
827	 6.56307461889957E-02 
828	 6.56534014938265E-02 
829	 6.57338324109607E-02 
830	 6.58115839447627E-02 
831	 6.58528309628407E-02 
832	 0.065862745868735 
833	 6.59192889300161E-02 
834	 6.59672426060587E-02 
835	 6.59957404876163E-02 
836	 6.60911762057155E-02 
837	 6.61763788684084E-02 
838	 6.62380896669051E-02 
839	 6.62886435282955E-02 
840	 6.63630826068208E-02 
841	 6.64410871206062E-02 
842	 6.65213837142723E-02 
843	 6.66075500501851E-02 
844	 6.66895656775414E-02 
845	 6.67687115250867E-02 
846	 0.066848851379642 
847	 6.69363283304919E-02 
848	 6.70454563966039E-02 
849	 6.71547030315573E-02 
850	 6.72456787513858E-02 
851	 6.73129525590626E-02 
852	 6.74380419865161E-02 
853	 6.75722804480406E-02 
854	 6.76821372417381E-02 
855	 6.78293429730459E-02 
856	 6.79350797170707E-02 
857	 0.068027738433532 
858	 6.81572099075689E-02 
859	 6.83192887105668E-02 
860	 6.84829148262931E-02 
861	 6.86397946166786E-02 
862	 6.87957717041158E-02 
863	 6.89537012095604E-02 
864	 6.91300917387193E-02 
865	 6.93118639718274E-02 
866	 6.94669944630857E-02 
867	 6.96420475787363E-02 
868	 6.98296297597043E-02 
869	 7.00175155842973E-02 
870	 7.01988285182583E-02 
871	 7.04084103570422E-02 
872	 7.06172234824807E-02 
873	 7.08074999528627E-02 
874	 7.10166467108379E-02 
875	 7.12479305033866E-02 
876	 7.14868244872595E-02 
877	 7.17188229712267E-02 
878	 7.19513069718412E-02 
879	 7.22087317035113E-02 
880	 7.24770418042754E-02 
881	 7.27281875497297E-02 
882	 7.29717757218136E-02 
883	 7.32375679488622E-02 
884	 7.35116648722165E-02 
885	 7.37590413586256E-02 
886	 7.40700320439147E-02 
887	 7.43730213353081E-02 
888	 7.46569721613415E-02 
889	 7.49938609454574E-02 
890	 7.52985339343109E-02 
891	 7.55903826629048E-02 
892	 7.58929792023735E-02 
893	 0.076203011816065 
894	 7.65487242398246E-02 
895	 7.68950368665415E-02 
896	 7.72183052962846E-02 
897	 7.75663806279429E-02 
898	 0.077941764126503 
899	 7.82815679993501E-02 
900	 7.85549531148218E-02 
901	 7.89336626538906E-02 
902	 7.93116014015072E-02 
903	 0.079696267453721 
904	 0.080126151343919 
905	 0.080476083689686 
906	 0.08083875196555 
907	 8.12436073042584E-02 
908	 8.16566795463266E-02 
909	 8.20072579851707E-02 
910	 8.24185721961814E-02 
911	 8.28853368817515E-02 
912	 8.32730431661313E-02 
913	 8.37404271481906E-02 
914	 8.42095533393002E-02 
915	 8.46379330940558E-02 
916	 8.50800685406928E-02 
917	 8.55300615460116E-02 
918	 8.59850281695567E-02 
919	 8.64608390385019E-02 
920	 8.70085283489142E-02 
921	 8.74518629612368E-02 
922	 8.78850814454187E-02 
923	 8.84002335572949E-02 
924	 8.88911833375422E-02 
925	 8.94209571360274E-02 
926	 8.99350615137051E-02 
927	 9.03993709105619E-02 
928	 9.09760301677071E-02 
929	 0.091516649930724 
930	 9.20078000365741E-02 
931	 9.25039023104924E-02 
932	 9.30726527261859E-02 
933	 9.36067182602013E-02 
934	 9.41512396350651E-02 
935	 9.47893041015114E-02 
936	 0.095315971013248 
937	 9.58875885796038E-02 
938	 9.64817686742332E-02 
939	 9.69750353493051E-02 
940	 9.75357059967974E-02 
941	 9.81541141873862E-02 
942	 9.87740914841955E-02 
943	 9.93355799355663E-02 
944	 9.99730441723274E-02 
945	 0.100571976687268 
946	 0.101125062068186 
947	 0.101752709100834 
948	 0.102358032810255 
949	 0.102978989083055 
950	 0.103585249127107 
951	 0.104063576527436 
952	 0.104694161861504 
953	 0.10536539082079 
954	 0.105972608004342 
955	 0.106538663454832 
956	 0.107168862920253 
957	 0.107812584053446 
958	 0.108427385206284 
959	 0.109046414413972 
960	 0.109601037810676 
961	 0.110169561489675 
962	 0.110813187980858 
963	 0.111489254272588 
964	 0.11208002877211 
965	 0.11263814372844 
966	 0.113232196874848 
967	 0.113851053653315 
968	 0.114473422951128 
969	 0.115060835680966 
970	 0.11561970200372 
971	 0.11627248525387 
972	 0.116922723431618 
973	 0.117516161195101 
974	 0.118065806238131 
975	 0.118725138295053 
976	 0.11936143737875 
977	 0.120021775212617 
978	 0.120733876993375 
979	 0.121288018695647 
980	 0.12188307490911 
981	 0.122517798091545 
982	 0.123126679371978 
983	 0.123663779659157 
984	 0.12435817004258 
985	 0.125032203336739 
986	 0.125528590079956 
987	 0.126256707290117 
988	 0.126993933499212 
989	 0.127617603720903 
990	 0.128122345696742 
991	 0.128757478108907 
992	 0.129275874475564 
993	 0.129819656605277 
994	 0.1305520019409 
995	 0.131217236873257 
996	 0.131855467990615 
997	 0.132416129918512 
998	 0.13291625156447 
999	 0.133681110433972 
1000	 0.134289234286061 
1001	 0.137174948460699 
1002	 0.137842371955776 
1003	 0.138495915735137 
1004	 0.139096051865722 
1005	 0.139666951074224 
1006	 0.140254558515458 
1007	 0.140812676581033 
1008	 0.141382589617323 
1009	 0.141956567593084 
1010	 0.142533280826882 
1011	 0.14310532578212 
1012	 0.143681999797535 
1013	 0.144286517800841 
1014	 0.144862835666309 
1015	 0.145426111280178 
1016	 0.145961885928922 
1017	 0.146539563430849 
1018	 0.14709078517646 
1019	 0.147637209508125 
1020	 0.148181215105229 
1021	 0.148682203092766 
1022	 0.149113564182063 
1023	 0.149621513168178 
1024	 0.150152628500407 
1025	 0.150651975777504 
1026	 0.151176652909979 
1027	 0.15166999236319 
1028	 0.152128916289862 
1029	 0.152592826862318 
1030	 0.153047577490225 
1031	 0.153500871933358 
1032	 0.153923096817639 
1033	 0.154354979039129 
1034	 0.154829566577003 
1035	 0.1552398794989 
1036	 0.155652897631006 
1037	 0.156073450478487 
1038	 0.156474427046202 
1039	 0.156847207287673 
1040	 0.157234792615672 
1041	 0.157595146514045 
1042	 0.157984060244058 
1043	 0.158383979884484 
1044	 0.15880734113828 
1045	 0.159218092964125 
1046	 0.159620086378271 
1047	 0.159961138839561 
1048	 0.160287252709024 
1049	 0.160611295055366 
1050	 0.160949119663695 
1051	 0.161348604634999 
1052	 0.161715932286637 
1053	 0.162062224702426 
1054	 0.162405434388319 
1055	 0.162744135957655 
1056	 0.163053466779212 
1057	 0.163373116018257 
1058	 0.163695547146163 
1059	 0.164026653322895 
1060	 0.164357258598506 
1061	 0.164659799828151 
1062	 0.165010526689971 
1063	 0.16537422467207 
1064	 0.165681198611951 
1065	 0.165978663576125 
1066	 0.166265499438022 
1067	 0.16652754737552 
1068	 0.166808459906064 
1069	 0.167105019503893 
1070	 0.167387331722223 
1071	 0.167665387441099 
1072	 0.167937988209018 
1073	 0.168205784589363 
1074	 0.168451139071842 
1075	 0.168687870877749 
1076	 0.168918233102841 
1077	 0.169150482129556 
1078	 0.169407425793555 
1079	 0.169667998243792 
1080	 0.169903807126497 
1081	 0.170100909554489 
1082	 0.170266439720281 
1083	 0.170445091814906 
1084	 0.170658781392024 
1085	 0.1708710416446 
1086	 0.171058743548596 
1087	 0.171254242599021 
1088	 0.171407167517648 
1089	 0.171507956795271 
1090	 0.171638322945195 
1091	 0.171789974811751 
1092	 0.171934012043623 
1093	 0.172096063311835 
1094	 0.172259165396563 
1095	 0.172394253054078 
1096	 0.17252362026763 
1097	 0.172674834711331 
1098	 0.172804401673937 
1099	 0.172906377593042 
1100	 0.173025627296427 
1101	 0.173143440417718 
1102	 0.17325731243834 
1103	 0.173351964421244 
1104	 0.173444150613937 
1105	 0.173516115580157 
1106	 0.173589108690649 
1107	 0.173636260736725 
1108	 0.173701593557699 
1109	 0.173796959488607 
1110	 0.1738598807235 
1111	 0.173927665200824 
1112	 0.174000167152771 
1113	 0.174054477113646 
1114	 0.174099603176183 
1115	 0.174151431940881 
1116	 0.174214256159333 
1117	 0.174248319290427 
1118	 0.17428268150397 
1119	 0.174324923731281 
1120	 0.174347774539041 
1121	 0.174345064440023 
1122	 0.174367847025751 
1123	 0.174382853359372 
1124	 0.174373700429017 
1125	 0.174374974562622 
1126	 0.174360908492841 
1127	 0.174355524247368 
1128	 0.174363602522732 
1129	 0.174343812865006 
1130	 0.174313674281373 
1131	 0.174272448822313 
1132	 0.174216323542123 
1133	 0.174179138875005 
1134	 0.174153689998843 
1135	 0.174105344696836 
1136	 0.174044557124459 
1137	 0.173982651013387 
1138	 0.173902695702359 
1139	 0.173830500731829 
1140	 0.173760821525793 
1141	 0.173698663722685 
1142	 0.173613882184035 
1143	 0.173523274242489 
1144	 0.17344516882436 
1145	 0.173356495367085 
1146	 0.173286895589844 
1147	 0.173225571117177 
1148	 0.173140846421243 
1149	 0.173050683400351 
1150	 0.172960476239231 
1151	 0.172875919491274 
1152	 0.172789816624736 
1153	 0.172706630926924 
1154	 0.172627534269589 
1155	 0.172558168225956 
1156	 0.172463338517849 
1157	 0.172362905040896 
1158	 0.17226142259203 
1159	 0.172134394499626 
1160	 0.172022353803705 
1161	 0.171944124872955 
1162	 0.171855550000242 
1163	 0.171759265658561 
1164	 0.171658399081089 
1165	 0.17155457640181 
1166	 0.171440169154389 
1167	 0.171333096937907 
1168	 0.171255120813027 
1169	 0.171165474556588 
1170	 0.171070533548477 
1171	 0.170981797999452 
1172	 0.170893391868177 
1173	 0.17081170867429 
1174	 0.170738218436342 
1175	 0.170666703906475 
1176	 0.1706051383144 
1177	 0.170533557257615 
1178	 0.170454827088456 
1179	 0.170379696178406 
1180	 0.170308643855469 
1181	 0.170242607842761 
1182	 0.170190164710812 
1183	 0.170142881630748 
1184	 0.170095485549724 
1185	 0.17007153358877 
1186	 0.170046178070072 
1187	 0.170013113319503 
1188	 0.17002048195729 
1189	 0.170053197245188 
1190	 0.17008341813652 
1191	 0.17013398815071 
1192	 0.170194473131154 
1193	 0.170249193735727 
1194	 0.170327238121172 
1195	 0.17045259902478 
1196	 0.170550881408594 
1197	 0.170639786364296 
1198	 0.170734127279647 
1199	 0.170839250946816 
1200	 0.170939312447554 
1201	 0.171066349871173 
1202	 0.171216316547688 
1203	 0.171362231907119 
1204	 0.171520431932129 
1205	 0.171685199165173 
1206	 0.171853274488571 
1207	 0.172046033422738 
1208	 0.172246642576148 
1209	 0.172470513577904 
1210	 0.172711550207308 
1211	 0.172979689732084 
1212	 0.173272606259831 
1213	 0.173585286191009 
1214	 0.173914766402599 
1215	 0.174280057089506 
1216	 0.174675736338978 
1217	 0.175079063130869 
1218	 0.175510735800306 
1219	 0.175968443266575 
1220	 0.176414804255491 
1221	 0.176888128957119 
1222	 0.177340760876381 
1223	 0.177807641592285 
1224	 0.178271177621432 
1225	 0.178730852994382 
1226	 0.179182481540124 
1227	 0.179647226524976 
1228	 0.180082609585687 
1229	 0.180490425521195 
1230	 0.18091463669453 
1231	 0.181342071410583 
1232	 0.181751496589052 
1233	 0.182169623511124 
1234	 0.182553819445104 
1235	 0.182887993376492 
1236	 0.183252448730148 
1237	 0.183628171659506 
1238	 0.183982206003856 
1239	 0.184327662501303 
1240	 0.184690492977802 
1241	 0.18502592012415 
1242	 0.185346106767892 
1243	 0.185672686064616 
1244	 0.186004595817981 
1245	 0.186329984084557 
1246	 0.186645226182075 
1247	 0.186966672450429 
1248	 0.187304508863326 
1249	 0.187615546895853 
1250	 0.187908284869033 
1251	 0.188208158574739 
1252	 0.188497300180994 
1253	 0.188787428661952 
1254	 0.189088976533056 
1255	 0.189376269932895 
1256	 0.189650602446395 
1257	 0.189928214331904 
1258	 0.190201486163985 
1259	 0.190472640698947 
1260	 0.190740614024558 
1261	 0.19101061530619 
1262	 0.191269816833858 
1263	 0.191548845561805 
1264	 0.191821645793057 
1265	 0.192099534786906 
1266	 0.192372008864309 
1267	 0.192646394391384 
1268	 0.192910020628629 
1269	 0.19315388242507 
1270	 0.193431513754543 
1271	 0.193716549906824 
1272	 0.194006642382279 
1273	 0.194321611185845 
1274	 0.194627918347409 
1275	 0.194924538291403 
1276	 0.195231860049409 
1277	 0.195547954924172 
1278	 0.195865517969113 
1279	 0.196176379779694 
1280	 0.196506185536303 
1281	 0.196846686908536 
1282	 0.19719413630699 
1283	 0.197559439720015 
1284	 0.197921088948559 
1285	 0.198284378979829 
1286	 0.198646604487767 
1287	 0.199020439576461 
1288	 0.199401843588751 
1289	 0.199776338299805 
1290	 0.200153056311049 
1291	 0.200534897305154 
1292	 0.200905547216602 
1293	 0.201297766374902 
1294	 0.201715921961361 
1295	 0.202111061719427 
1296	 0.202507900948545 
1297	 0.202895228854068 
1298	 0.203263031325921 
1299	 0.203642014905874 
1300	 0.204024985813941 
1301	 0.204403522062605 
1302	 0.204774272465828 
1303	 0.205157266880009 
1304	 0.205553466871363 
1305	 0.205934477397892 
1306	 0.206318514273963 
1307	 0.206695691159463 
1308	 0.207053943579785 
1309	 0.207414738209286 
1310	 0.207780524946145 
1311	 0.208148925856581 
1312	 0.208520020680683 
1313	 0.208894421494245 
1314	 0.209266320885175 
1315	 0.209639172115379 
1316	 0.210012658340479 
1317	 0.210390321870729 
1318	 0.210755929843131 
1319	 0.211116866478158 
1320	 0.211478808951373 
1321	 0.211834373734379 
1322	 0.212186883478623 
1323	 0.21253942916007 
1324	 0.212890637210283 
1325	 0.213241033802997 
1326	 0.213581519915286 
1327	 0.213918560035248 
1328	 0.21425327203197 
1329	 0.214573551495515 
1330	 0.214898594535767 
1331	 0.215232992542765 
1332	 0.215556754829941 
1333	 0.215864504842427 
1334	 0.216193946171929 
1335	 0.21649652225061 
1336	 0.216789671953709 
1337	 0.217075352601262 
1338	 0.217350060988672 
1339	 0.21761955280306 
1340	 0.217884124962203 
1341	 0.21813764424166 
1342	 0.218387441003256 
1343	 0.218617765210877 
1344	 0.218834010271743 
1345	 0.219043432252744 
1346	 0.21924427236507 
1347	 0.219425722652767 
1348	 0.219592512966818 
1349	 0.219754480331397 
1350	 0.219893176131918 
1351	 0.220041125145689 
1352	 0.22018666751886 
1353	 0.220338255728928 
1354	 0.22048858429504 
1355	 0.220644017016313 
1356	 0.220809910889519 
1357	 0.220971268291207 
1358	 0.221133856529005 
1359	 0.221295675221656 
1360	 0.221454285034205 
1361	 0.221614122565082 
1362	 0.221783577740729 
1363	 0.221942412424124 
1364	 0.222104827631731 
1365	 0.222279621991464 
1366	 0.22241737089175 
1367	 0.222545307816385 
1368	 0.222653691261874 
1369	 0.222727152784487 
1370	 0.222819410580063 
1371	 0.222915587268857 
1372	 0.222991725659712 
1373	 0.223061297404152 
1374	 0.223127338644889 
1375	 0.223175738492006 
1376	 0.22322919874584 
1377	 0.223294139806126 
1378	 0.223338573605281 
1379	 0.223370001811269 
1380	 0.223398279362379 
1381	 0.223413529382025 
1382	 0.223430997131823 
1383	 0.223435392584222 
1384	 0.223456691953242 
1385	 0.223479369201484 
1386	 0.223512783019564 
1387	 0.223551276307405 
1388	 0.223609693498904 
1389	 0.223677060819685 
1390	 0.223761935835568 
1391	 0.223874081200396 
1392	 0.223992059875073 
1393	 0.224118816400011 
1394	 0.224243697219064 
1395	 0.224345900129244 
1396	 0.224451459545233 
1397	 0.224508024225762 
1398	 0.22455191267646 
1399	 0.224530238736193 
1400	 0.224468367720472 
1401	 0.224361526296683 
1402	 0.224205028010645 
1403	 0.224007027221468 
1404	 0.223765826565013 
1405	 0.223490873787675 
1406	 0.223150237984902 
1407	 0.222827034468476 
1408	 0.22244569350246 
1409	 0.222135920101831 
1410	 0.221816077167749 
1411	 0.221582072011645 
1412	 0.221388936925887 
1413	 0.221275679030388 
1414	 0.221232251301958 
1415	 0.221243179745704 
1416	 0.221348301091157 
1417	 0.221459905838228 
1418	 0.221632070135411 
1419	 0.221801108220675 
1420	 0.22199810379138 
1421	 0.222186375735856 
1422	 0.222371787253345 
1423	 0.222570817737 
1424	 0.222764911282857 
1425	 0.222984939197478 
1426	 0.223196705451571 
1427	 0.223438685738485 
1428	 0.223716286457417 
1429	 0.223972135457775 
1430	 0.224256773318829 
1431	 0.224570266824539 
1432	 0.224883664167989 
1433	 0.225192294279095 
1434	 0.225539872930021 
1435	 0.225910081645034 
1436	 0.226299679487683 
1437	 0.22671768894658 
1438	 0.227137098836492 
1439	 0.22757758619439 
1440	 0.228015224144651 
1441	 0.228453781390913 
1442	 0.228911843137519 
1443	 0.229371546880499 
1444	 0.229863751094878 
1445	 0.230393081385246 
1446	 0.230904001045305 
1447	 0.231431683838881 
1448	 0.231949937612116 
1449	 0.232453577167976 
1450	 0.232972391192418 
1451	 0.233500120610867 
1452	 0.234029295468472 
1453	 0.234563671519666 
1454	 0.235094893106857 
1455	 0.235629769612231 
1456	 0.236164158798531 
1457	 0.236698432488607 
1458	 0.237233779903984 
1459	 0.237765157150916 
1460	 0.238305358191455 
1461	 0.238857398672039 
1462	 0.239396293979616 
1463	 0.239919825603372 
1464	 0.240466742699529 
1465	 0.241013503198562 
1466	 0.241578222631767 
1467	 0.242133998556575 
1468	 0.24270965945944 
1469	 0.243271622245108 
1470	 0.243811098967291 
1471	 0.244371161661002 
1472	 0.244945758647292 
1473	 0.245506587077043 
1474	 0.246072315731447 
1475	 0.246614035666514 
1476	 0.247148553026248 
1477	 0.247668751544203 
1478	 0.248163030784901 
1479	 0.248665869758029 
1480	 0.249165713753499 
1481	 0.24965761469381 
1482	 0.250149342959323 
1483	 0.250630755366524 
1484	 0.251098943558126 
1485	 0.251571220299679 
1486	 0.252044842683663 
1487	 0.252501134376851 
1488	 0.25294632809981 
1489	 0.253395666588082 
1490	 0.253825912386864 
1491	 0.25427739078954 
1492	 0.254737027953078 
1493	 0.25520918496388 
1494	 0.255683974001288 
1495	 0.256180036476639 
1496	 0.256696760482596 
1497	 0.257219417549438 
1498	 0.257776526964472 
1499	 0.258304939991457 
1500	 0.258817085086463 
1501	 0.259344783080738 
1502	 0.259866752539936 
1503	 0.260389521655319 
1504	 0.260917399748261 
1505	 0.261457546926132 
1506	 0.262002100899688 
1507	 0.262545459122497 
1508	 0.263103642038481 
1509	 0.263660302032994 
1510	 0.264217389845959 
1511	 0.264759723376205 
1512	 0.265291689737736 
1513	 0.265836009452646 
1514	 0.266376488332235 
1515	 0.266915281548472 
1516	 0.267465946966408 
1517	 0.268014331042406 
1518	 0.268548679822486 
1519	 0.269088884676136 
1520	 0.269635007222033 
1521	 0.270185631032143 
1522	 0.270723532037195 
1523	 0.271298244760376 
1524	 0.271863216134588 
1525	 0.272438315558222 
1526	 0.273009025241677 
1527	 0.273581850905053 
1528	 0.274149960036573 
1529	 0.274712214334948 
1530	 0.275292746019292 
1531	 0.275875572291956 
1532	 0.276471239568786 
1533	 0.277077456967248 
1534	 0.277702403305718 
1535	 0.278344738428714 
1536	 0.278974957312503 
1537	 0.279627394309006 
1538	 0.280249871462542 
1539	 0.280848734791921 
1540	 0.281460223299725 
1541	 0.282062617197203 
1542	 0.282683239569466 
1543	 0.283320504126474 
1544	 0.283934732430495 
1545	 0.284555325470674 
1546	 0.285154707833769 
1547	 0.285733064008571 
1548	 0.286308655208822 
1549	 0.286883154172371 
1550	 0.287435577956587 
1551	 0.287960880404699 
1552	 0.288501558012203 
1553	 0.289026405769821 
1554	 0.289574365619638 
1555	 0.290141684515417 
1556	 0.290701844313514 
1557	 0.2912677537524 
1558	 0.291833091544122 
1559	 0.292398930058114 
1560	 0.292963232244094 
1561	 0.293523441132062 
1562	 0.294096395801659 
1563	 0.29467695758104 
1564	 0.2952515529171 
1565	 0.29583026526863 
1566	 0.29641305471979 
1567	 0.296991716127379 
1568	 0.297574395393049 
1569	 0.298169019414845 
1570	 0.298758328495736 
1571	 0.29935382588764 
1572	 0.299926845997804 
1573	 0.300478659887883 
1574	 0.301051113732154 
1575	 0.301620536518268 
1576	 0.302187470184406 
1577	 0.30276657129108 
1578	 0.303346049191596 
1579	 0.303907526257544 
1580	 0.30448741640236 
1581	 0.305103996480107 
1582	 0.305686308782031 
1583	 0.306245528913777 
1584	 0.3068221417234 
1585	 0.307392207658748 
1586	 0.307964429133675 
1587	 0.308554326796962 
1588	 0.309131029937943 
1589	 0.309678624075332 
1590	 0.310259104237678 
1591	 0.310853198570614 
1592	 0.31145633716604 
1593	 0.312087253657519 
1594	 0.312708855480144 
1595	 0.313342641077308 
1596	 0.313953854574179 
1597	 0.314547410297678 
1598	 0.315149335641434 
1599	 0.315739057317016 
1600	 0.316336377387227 
1601	 0.31694931993695 
1602	 0.317551563891208 
1603	 0.318149351698582 
1604	 0.31873850270404 
1605	 0.319325255517214 
1606	 0.319902848297031 
1607	 0.320468472943704 
1608	 0.321034068693761 
1609	 0.321590002913852 
1610	 0.322149109050514 
1611	 0.322723222092078 
1612	 0.3232656379106 
1613	 0.323799044946868 
1614	 0.32431472012379 
1615	 0.324804293546739 
1616	 0.32528327666188 
1617	 0.32574403359048 
1618	 0.32620363097942 
1619	 0.32664898750435 
1620	 0.327087145255936 
1621	 0.327519111274593 
1622	 0.327948910376966 
1623	 0.328377236716357 
1624	 0.328790766656121 
1625	 0.329193231865864 
1626	 0.329597631137377 
1627	 0.329988900264369 
1628	 0.330376135003854 
1629	 0.330766473581686 
1630	 0.331153028567715 
1631	 0.331538676126396 
1632	 0.331906232656676 
1633	 0.332252354205801 
1634	 0.332617723399082 
1635	 0.332965224577704 
1636	 0.333336650665365 
1637	 0.333750562616083 
1638	 0.334140373903104 
1639	 0.334536264498533 
1640	 0.334912069479934 
1641	 0.335277852599265 
1642	 0.335622394263766 
1643	 0.335957989549989 
1644	 0.336258351385298 
1645	 0.336521365282174 
1646	 0.336782114507682 
1647	 0.337036656184928 
1648	 0.33724923859036 
1649	 0.337444040721586 
1650	 0.337608742626716 
1651	 0.3377345570763 
1652	 0.337826692125435 
1653	 0.337903875777472 
1654	 0.337930135646306 
1655	 0.337917476252867 
1656	 0.337847576304566 
1657	 0.337747613148924 
1658	 0.337568675444326 
1659	 0.337334237493453 
1660	 0.337010469130642 
1661	 0.336596038675292 
1662	 0.33613059490748 
1663	 0.335594997253934 
1664	 0.334978167962213 
1665	 0.334322357921424 
1666	 0.333539554397321 
1667	 0.332644467478073 
1668	 0.331677847966521 
1669	 0.330632161277653 
1670	 0.329462829901883 
1671	 0.328171502417702 
1672	 0.326812698251769 
1673	 0.325339491213536 
1674	 0.323796952397077 
1675	 0.322180200811067 
1676	 0.320530091360784 
1677	 0.318774928967188 
1678	 0.317024585283625 
1679	 0.315226062061514 
1680	 0.313428150771136 
1681	 0.311613552999078 
1682	 0.309778422128296 
1683	 0.307940382868641 
1684	 0.306108575240696 
1685	 0.30424239023114 
1686	 0.302394672373678 
1687	 0.300520118951099 
1688	 0.298713971377741 
1689	 0.296933081841837 
1690	 0.29517918498498 
1691	 0.293487840329837 
1692	 0.291840271330153 
1693	 0.290207844533928 
1694	 0.288634079063083 
1695	 0.287128127407619 
1696	 0.285614702182819 
1697	 0.284133003720575 
1698	 0.282632637099163 
1699	 0.281142258127541 
1700	 0.279701649895226 
1701	 0.278249414389809 
1702	 0.276889358222293 
1703	 0.275566585864414 
1704	 0.274334551617944 
1705	 0.273170907747837 
1706	 0.272033933724677 
1707	 0.271062386751394 
1708	 0.270129225508657 
1709	 0.269252241625311 
1710	 0.268476334282023 
1711	 0.26771313106196 
1712	 0.266992624012416 
1713	 0.266291312650147 
1714	 0.265590334444111 
1715	 0.264962496680266 
1716	 0.264376795676187 
1717	 0.263831193564239 
1718	 0.263344552237574 
1719	 0.262907246472079 
1720	 0.262535272833451 
1721	 0.26222181476081 
1722	 0.26200258993788 
1723	 0.261923145873465 
1724	 0.261948959899991 
1725	 0.262108834727508 
1726	 0.2624783892257 
1727	 0.26302009911512 
1728	 0.263705507363662 
1729	 0.264620545858962 
1730	 0.265717321095836 
1731	 0.266863349139101 
1732	 0.268165371928114 
1733	 0.269499607736795 
1734	 0.270820407983059 
1735	 0.272188995389016 
1736	 0.273452123966858 
1737	 0.27464628995519 
1738	 0.275722615308864 
1739	 0.276657247997338 
1740	 0.277484896645611 
1741	 0.278195516839736 
1742	 0.278761186849844 
1743	 0.279259683702464 
1744	 0.279629711192592 
1745	 0.27995819240478 
1746	 0.280195980016749 
1747	 0.280394908577244 
1748	 0.28049991979801 
1749	 0.280654142423345 
1750	 0.28075461171901 
1751	 0.280933958273182 
1752	 0.281152075680886 
1753	 0.281426571582105 
1754	 0.281729287088173 
1755	 0.282113142995138 
1756	 0.282533123119295 
1757	 0.283060849339544 
1758	 0.28373766355303 
1759	 0.28451674946308 
1760	 0.285441529055299 
1761	 0.286520516518535 
1762	 0.287648302373993 
1763	 0.28889961455154 
1764	 0.29024024446486 
1765	 0.29165911585878 
1766	 0.293235901641086 
1767	 0.294821735675264 
1768	 0.296494742289517 
1769	 0.29821233600298 
1770	 0.299774691885926 
1771	 0.301343291626848 
1772	 0.302851613353852 
1773	 0.304241568440023 
1774	 0.305644275111147 
1775	 0.306959272754543 
1776	 0.308220871491193 
1777	 0.309406400070564 
1778	 0.310434694752536 
1779	 0.311427323048206 
1780	 0.312332053330849 
1781	 0.313150588965185 
1782	 0.313985862737974 
1783	 0.314710886356213 
1784	 0.315362481246772 
1785	 0.315962236458412 
1786	 0.316504595397612 
1787	 0.316997616791957 
1788	 0.317477059952844 
1789	 0.31790020491927 
1790	 0.318319304452602 
1791	 0.31872955346077 
1792	 0.319113543564585 
1793	 0.31944492881292 
1794	 0.319805680020682 
1795	 0.32015804948541 
1796	 0.320513089200081 
1797	 0.320880125339109 
1798	 0.321208660565423 
1799	 0.321551278709676 
1800	 0.32191386331839 
1801	 0.320865276214275 
1802	 0.321225242218148 
1803	 0.321569724915895 
1804	 0.321889181907347 
1805	 0.322231987430182 
1806	 0.322560535493355 
1807	 0.32287742862979 
1808	 0.323190542813973 
1809	 0.323509014042716 
1810	 0.32381520384343 
1811	 0.324090729799619 
1812	 0.324401270303602 
1813	 0.324727835330149 
1814	 0.325054927043457 
1815	 0.325390395845749 
1816	 0.325736438732823 
1817	 0.326082410526543 
1818	 0.326417961159011 
1819	 0.326773123313193 
1820	 0.327148384727195 
1821	 0.327515571372552 
1822	 0.327884692543485 
1823	 0.328273669635902 
1824	 0.328614742388645 
1825	 0.328974920721198 
1826	 0.329326177049069 
1827	 0.32965231425756 
1828	 0.329994490268099 
1829	 0.330348815423076 
1830	 0.330699089960016 
1831	 0.331039198933928 
1832	 0.331407772694628 
1833	 0.331784802363689 
1834	 0.332138384265171 
1835	 0.332467672227809 
1836	 0.332795370982474 
1837	 0.333120938357342 
1838	 0.333420486011572 
1839	 0.333741456319527 
1840	 0.334070918788305 
1841	 0.33440582713396 
1842	 0.334740793213984 
1843	 0.335086274261394 
1844	 0.335456710681667 
1845	 0.33580649466477 
1846	 0.336142933436717 
1847	 0.336478014210182 
1848	 0.336796312100441 
1849	 0.337091640640299 
1850	 0.33739302307918 
1851	 0.337699444450341 
1852	 0.337983416397103 
1853	 0.338251661441196 
1854	 0.338494090468308 
1855	 0.338705358201163 
1856	 0.338883634471781 
1857	 0.339040311964296 
1858	 0.339163946808355 
1859	 0.339255463335874 
1860	 0.339329252360659 
1861	 0.339348579132898 
1862	 0.339330789628047 
1863	 0.339270451650068 
1864	 0.339165417002733 
1865	 0.339022723332799 
1866	 0.338803972366535 
1867	 0.338519352956573 
1868	 0.33818765710947 
1869	 0.33777997421455 
1870	 0.337312671909694 
1871	 0.336801562084877 
1872	 0.336222614489739 
1873	 0.335580356654192 
1874	 0.334876369095162 
1875	 0.334108783168493 
1876	 0.333227691107514 
1877	 0.33229810544427 
1878	 0.331224975315307 
1879	 0.330018790461391 
1880	 0.328795740529319 
1881	 0.327427524603323 
1882	 0.325925239056666 
1883	 0.324347489464913 
1884	 0.322647603825223 
1885	 0.320674159312118 
1886	 0.318619690424671 
1887	 0.316382012534148 
1888	 0.31391633302829 
1889	 0.311537818531861 
1890	 0.309016966066427 
1891	 0.306452634261734 
1892	 0.303923191297216 
1893	 0.30130361301269 
1894	 0.298562674423312 
1895	 0.295910822218806 
1896	 0.293213107273266 
1897	 0.290525828589666 
1898	 0.288074403555404 
1899	 0.285589564114801 
1900	 0.283203238639828 
1901	 0.280939509993966 
1902	 0.278570658970936 
1903	 0.276359029956517 
1904	 0.274228355028715 
1905	 0.272150628687328 
1906	 0.27014567954094 
1907	 0.268387599578011 
1908	 0.266640334030923 
1909	 0.264975584397846 
1910	 0.263444719623622 
1911	 0.261897770818426 
1912	 0.260472180694022 
1913	 0.25910580792099 
1914	 0.257769587769115 
1915	 0.256538707143441 
1916	 0.255420173189574 
1917	 0.254300600130275 
1918	 0.253268278026825 
1919	 0.252321571327237 
1920	 0.25134379015739 
1921	 0.250444975705143 
1922	 0.249581124962839 
1923	 0.248737945280105 
1924	 0.248022274454991 
1925	 0.247351699098587 
1926	 0.246720974207907 
1927	 0.246162155549219 
1928	 0.245625831564722 
1929	 0.24511205644298 
1930	 0.244652902446513 
1931	 0.244250287838751 
1932	 0.243898986771734 
1933	 0.243633839463203 
1934	 0.243428137629495 
1935	 0.243273553639643 
1936	 0.243188946984861 
1937	 0.243145870143509 
1938	 0.24315377408156 
1939	 0.24320398053099 
1940	 0.243306375935756 
1941	 0.243452273300398 
1942	 0.243624204718348 
1943	 0.243843672492154 
1944	 0.244091423711268 
1945	 0.244364121218635 
1946	 0.244687917760759 
1947	 0.245023895626896 
1948	 0.245402164824979 
1949	 0.245815765899705 
1950	 0.246231696182314 
1951	 0.246673338679047 
1952	 0.247122394721653 
1953	 0.247575636782894 
1954	 0.24804827786257 
1955	 0.248558444975044 
1956	 0.2490467928827 
1957	 0.249565970587327 
1958	 0.250093399548126 
1959	 0.250588097257573 
1960	 0.251101825699902 
1961	 0.25161643988524 
1962	 0.252128609036009 
1963	 0.252646625080585 
1964	 0.253175897552206 
1965	 0.253697025914688 
1966	 0.254228932863814 
1967	 0.25474104938762 
1968	 0.255229241257285 
1969	 0.255730104927502 
1970	 0.256191625357081 
1971	 0.256648872834535 
1972	 0.257140914948999 
1973	 0.257619792846718 
1974	 0.258101529807972 
1975	 0.258617756951955 
1976	 0.259085722497837 
1977	 0.259521003688452 
1978	 0.259965907776974 
1979	 0.26039274221889 
1980	 0.260819470886338 
1981	 0.261274280658061 
1982	 0.261693434561486 
1983	 0.262123758168966 
1984	 0.262544220120049 
1985	 0.262909151463167 
1986	 0.263300006542991 
1987	 0.263681274996513 
1988	 0.264040487174051 
1989	 0.264411171903202 
1990	 0.264809981550446 
1991	 0.265163195484068 
1992	 0.265497177205611 
1993	 0.265828680016162 
1994	 0.266107137002228 
1995	 0.266387553056965 
1996	 0.266673813588103 
1997	 0.266928602074947 
1998	 0.267187501020256 
1999	 0.267455832705973 
2000	 0.267697106979799 
2001	 0.26792128206988 
2002	 0.268135125348687 
2003	 0.268341231524301 
2004	 0.268519975633202 
2005	 0.268682114316767 
2006	 0.26882682010617 
2007	 0.268958314810239 
2008	 0.269053958296773 
2009	 0.269131993480761 
2010	 0.269180076555841 
2011	 0.269189443315646 
2012	 0.269176622693814 
2013	 0.269130171038552 
2014	 0.269071387434395 
2015	 0.268943329333158 
2016	 0.268766710603669 
2017	 0.268554811972511 
2018	 0.268282352906551 
2019	 0.26798475999289 
2020	 0.267667626110646 
2021	 0.26729095431704 
2022	 0.26687731487446 
2023	 0.266427557746445 
2024	 0.265900932751708 
2025	 0.265352880233184 
2026	 0.264773237196264 
2027	 0.264119362935817 
2028	 0.26349737457421 
2029	 0.262857035276283 
2030	 0.262231879640833 
2031	 0.261617489366648 
2032	 0.260999259813438 
2033	 0.260337672632333 
2034	 0.259755432265534 
2035	 0.259193635499958 
2036	 0.258657490458944 
2037	 0.258214881513417 
2038	 0.257837607468904 
2039	 0.257523506873861 
2040	 0.257280536477317 
2041	 0.257076783433041 
2042	 0.25695367786514 
2043	 0.256839697427222 
2044	 0.256752839375889 
2045	 0.256711267787359 
2046	 0.256711812644684 
2047	 0.256745119614531 
2048	 0.256822499528753 
2049	 0.256929530915406 
2050	 0.257083157737964 
2051	 0.257249127041767 
2052	 0.257429526453633 
2053	 0.25764359809851 
2054	 0.257872292077828 
2055	 0.25812138776476 
2056	 0.258377139165205 
2057	 0.258658219325027 
2058	 0.258939529468616 
2059	 0.259222653012045 
2060	 0.259517014582172 
2061	 0.259841473164008 
2062	 0.260144770641664 
2063	 0.260448091137206 
2064	 0.260744885806314 
2065	 0.261027132969366 
2066	 0.261304766968161 
2067	 0.26162703349989 
2068	 0.261923374557313 
2069	 0.262208421909115 
2070	 0.262506392814205 
2071	 0.262773085357756 
2072	 0.263001224369061 
2073	 0.263241756066696 
2074	 0.263487822673487 
2075	 0.263708285486283 
2076	 0.263915688005731 
2077	 0.264110174181413 
2078	 0.26428628546994 
2079	 0.264454294747784 
2080	 0.264616912791143 
2081	 0.264761600703422 
2082	 0.264903389867594 
2083	 0.26500065616958 
2084	 0.26510531946411 
2085	 0.265182162616874 
2086	 0.26525224357567 
2087	 0.265317725679059 
2088	 0.265356979294648 
2089	 0.265369467518109 
2090	 0.265379873161665 
2091	 0.265371160835309 
2092	 0.26535766260071 
2093	 0.26534981162316 
2094	 0.265313499595894 
2095	 0.265261080323505 
2096	 0.265187989643666 
2097	 0.265100616992615 
2098	 0.264974708112159 
2099	 0.264841756089668 
2100	 0.264706611892925 
2101	 0.264548222920066 
2102	 0.26437920252633 
2103	 0.264183367044549 
2104	 0.263953591101273 
2105	 0.263732707477821 
2106	 0.26349889515453 
2107	 0.263255319006798 
2108	 0.26303106979927 
2109	 0.262754036322181 
2110	 0.262424996205963 
2111	 0.262113615905241 
2112	 0.261767096532021 
2113	 0.261438701948673 
2114	 0.261140940166739 
2115	 0.260817256996431 
2116	 0.260486117945969 
2117	 0.260145190294504 
2118	 0.259791929992346 
2119	 0.259407419303386 
2120	 0.25906845585039 
2121	 0.258726741405193 
2122	 0.258422022985999 
2123	 0.258158315202018 
2124	 0.25788058351138 
2125	 0.257616433309113 
2126	 0.257352284974461 
2127	 0.257098917877793 
2128	 0.256838012363274 
2129	 0.256583834239791 
2130	 0.256316648680473 
2131	 0.256052485261248 
2132	 0.255759784411038 
2133	 0.255453987807868 
2134	 0.255136172248584 
2135	 0.254767166197791 
2136	 0.254390659119355 
2137	 0.254008740380523 
2138	 0.253596194127818 
2139	 0.253210118257517 
2140	 0.252828797890587 
2141	 0.252448801873311 
2142	 0.252084701580669 
2143	 0.25170125287177 
2144	 0.251296519720919 
2145	 0.250922759165386 
2146	 0.250541419219564 
2147	 0.250186855825557 
2148	 0.249870946114163 
2149	 0.249546239229288 
2150	 0.249233501878487 
2151	 0.248918087219518 
2152	 0.248599772824272 
2153	 0.24829716869058 
2154	 0.247977470977733 
2155	 0.247643430878446 
2156	 0.24731044210402 
2157	 0.246972177038001 
2158	 0.246612582984785 
2159	 0.246247566315106 
2160	 0.245867893801358 
2161	 0.245454360377268 
2162	 0.245069058160718 
2163	 0.244675662930034 
2164	 0.244309934183672 
2165	 0.243962636933926 
2166	 0.243620667948354 
2167	 0.243296723888263 
2168	 0.242976535859371 
2169	 0.24263088766165 
2170	 0.242351052656166 
2171	 0.242093305072114 
2172	 0.241881638885707 
2173	 0.241738135344322 
2174	 0.241608489487487 
2175	 0.241491149954837 
2176	 0.241385522712341 
2177	 0.241291043360776 
2178	 0.241199825925991 
2179	 0.241141515112453 
2180	 0.241119951213615 
2181	 0.241072395726801 
2182	 0.241027587713526 
2183	 0.24100005984706 
2184	 0.240968907457564 
2185	 0.240948075794124 
2186	 0.240961375869019 
2187	 0.240949029509503 
2188	 0.240938611893945 
2189	 0.240898521208806 
2190	 0.24084856533182 
2191	 0.240781061566899 
2192	 0.24070731067068 
2193	 0.240578251175444 
2194	 0.240427918922742 
2195	 0.240234014678422 
2196	 0.239971679635716 
2197	 0.23969304703091 
2198	 0.239421594890448 
2199	 0.239103839047001 
2200	 0.238754208987692 
2201	 0.238401525970731 
2202	 0.237949897760296 
2203	 0.237424133999765 
2204	 0.236882602283444 
2205	 0.236257132009632 
2206	 0.235659364625727 
2207	 0.235054588380697 
2208	 0.234424210762825 
2209	 0.233778952523422 
2210	 0.233121953193499 
2211	 0.232415939315216 
2212	 0.231760675563629 
2213	 0.231083067783979 
2214	 0.230476770006969 
2215	 0.229923014600802 
2216	 0.229390602644684 
2217	 0.2289203974765 
2218	 0.228448444709058 
2219	 0.228019977270181 
2220	 0.227565312166797 
2221	 0.227124117578997 
2222	 0.226655753595526 
2223	 0.226174276437512 
2224	 0.225624424248655 
2225	 0.225037382029711 
2226	 0.224387807246593 
2227	 0.223630013313597 
2228	 0.222801208919984 
2229	 0.221862492587141 
2230	 0.220802938975092 
2231	 0.2196862219485 
2232	 0.218487040934201 
2233	 0.217186172780904 
2234	 0.215823012862459 
2235	 0.214319919981913 
2236	 0.212691378483722 
2237	 0.210977008546309 
2238	 0.209101304786931 
2239	 0.207215383135552 
2240	 0.205270532915757 
2241	 0.203229656373152 
2242	 0.201194440039348 
2243	 0.198957544922167 
2244	 0.196538114509048 
2245	 0.194079324056548 
2246	 0.191388617123301 
2247	 0.188774383296832 
2248	 0.186164596826601 
2249	 0.183513709143016 
2250	 0.180849543087122 
2251	 0.17821980917624 
2252	 0.175384482160002 
2253	 0.172622865406681 
2254	 0.169808806367819 
2255	 0.166995714446615 
2256	 0.164467544747984 
2257	 0.161934408281999 
2258	 0.159543425693556 
2259	 0.157337471573099 
2260	 0.155104549227907 
2261	 0.152862205241839 
2262	 0.150855289544713 
2263	 0.148898973052601 
2264	 0.147200156058509 
2265	 0.145762607022379 
2266	 0.144378039751354 
2267	 0.143200124357246 
2268	 0.142030249151328 
2269	 0.140941935526085 
2270	 0.139943186392089 
2271	 0.13900324064539 
2272	 0.138166415586865 
2273	 0.137497634449873 
2274	 0.136792373536602 
2275	 0.136179725064645 
2276	 0.135524096973256 
2277	 0.134861677466767 
2278	 0.134194350893111 
2279	 0.133525127237953 
2280	 0.132837691932853 
2281	 0.132147084008837 
2282	 0.131428868058839 
2283	 0.130687938955262 
2284	 0.129940573472983 
2285	 0.129155236878504 
2286	 0.128358400201404 
2287	 0.12750686863014 
2288	 0.126657806393725 
2289	 0.125843035205838 
2290	 0.124963655817914 
2291	 0.124095995270295 
2292	 0.123269533815478 
2293	 0.122400697262145 
2294	 0.12155911817423 
2295	 0.120780173764764 
2296	 0.120023075161612 
2297	 0.1193947849395 
2298	 0.118842227771865 
2299	 0.118405199373843 
2300	 0.118074386159002 
2301	 0.117872052098029 
2302	 0.117751094542115 
2303	 0.117825953115048 
2304	 0.118077992704636 
2305	 0.11843254546636 
2306	 0.118952655490011 
2307	 0.119583497085682 
2308	 0.120314061881286 
2309	 0.121226484094965 
2310	 0.122361127672605 
2311	 0.123503941832439 
2312	 0.124880754445687 
2313	 0.126113809449861 
2314	 0.127356576820074 
2315	 0.128528971606813 
2316	 0.129661887767356 
2317	 0.130701002684886 
2318	 0.131736416362865 
2319	 0.132581604977159 
2320	 0.133295457397443 
2321	 0.133889079581717 
2322	 0.134308828125513 
2323	 0.134646026528679 
2324	 0.134876535613475 
2325	 0.134996280630756 
2326	 0.134995254989611 
2327	 0.134897473538859 
2328	 0.134661685039896 
2329	 0.134352055411355 
2330	 0.133953937294032 
2331	 0.1334236445368 
2332	 0.132817626622722 
2333	 0.132127862031151 
2334	 0.131320004084136 
2335	 0.130408183831253 
2336	 0.129370778676351 
2337	 0.128325205792779 
2338	 0.127317994222204 
2339	 0.126261108274012 
2340	 0.125265582931901 
2341	 0.124318647866667 
2342	 0.123364022744642 
2343	 0.122507024859532 
2344	 0.121761516856589 
2345	 0.121131109020509 
2346	 0.120652072747163 
2347	 0.120375761908852 
2348	 0.120278233353077 
2349	 0.120385942528447 
2350	 0.1206545909013 
2351	 0.121062190298335 
2352	 0.121580135324365 
2353	 0.122189521328987 
2354	 0.122822912965053 
2355	 0.123456556425971 
2356	 0.124099477979728 
2357	 0.124691339561097 
2358	 0.125289810653454 
2359	 0.125811855717716 
2360	 0.12623099616483 
2361	 0.126633528653679 
2362	 0.126994255920727 
2363	 0.127283221337161 
2364	 0.127564914078931 
2365	 0.127834635878854 
2366	 0.128016568029557 
2367	 0.128184413291447 
2368	 0.128319667940273 
2369	 0.12837985887524 
2370	 0.128478628718554 
2371	 0.128578930970124 
2372	 0.128637142246153 
2373	 0.128751168791385 
2374	 0.128891139744164 
2375	 0.128971880744475 
2376	 0.129056982818375 
2377	 0.129117411263817 
2378	 0.129115784855366 
2379	 0.129112238663068 
2380	 0.129119346014955 
2381	 0.129111819415657 
2382	 0.129129921595618 
2383	 0.129173503301792 
2384	 0.129192188464312 
2385	 0.129229987331841 
2386	 0.129211771710541 
2387	 0.129118052871194 
2388	 0.129062669201791 
2389	 0.129025319872666 
2390	 0.128963978907891 
2391	 0.128904785688253 
2392	 0.128812295204148 
2393	 0.128648154922647 
2394	 0.128554012269178 
2395	 0.128490975283157 
2396	 0.128449381380316 
2397	 0.128457045168473 
2398	 0.128449872101368 
2399	 0.128416298267912 
2400	 0.128411319263468 
2401	 0.128439469004157 
2402	 0.128354544568774 
2403	 0.128414433035067 
2404	 0.128516291496321 
2405	 0.128604930491179 
2406	 0.12872950478442 
2407	 0.128812975441008 
2408	 0.128926015095655 
2409	 0.129040158973607 
2410	 0.129131339743196 
2411	 0.129272628677741 
2412	 0.129388464149723 
2413	 0.129457770061047 
2414	 0.129563371867622 
2415	 0.129635992425496 
2416	 0.129734188309991 
2417	 0.129878682597899 
2418	 0.129902469798317 
2419	 0.12994181222077 
2420	 0.129982396330105 
2421	 0.129943385394541 
2422	 0.129941309576881 
2423	 0.129998202051735 
2424	 0.130023573021165 
2425	 0.12999998428152 
2426	 0.130086027918052 
2427	 0.130149430106598 
2428	 0.130188360463683 
2429	 0.130302280243427 
2430	 0.130365153576603 
2431	 0.130448731799431 
2432	 0.130534922765592 
2433	 0.130540496436212 
2434	 0.130529287504514 
2435	 0.130518026306156 
2436	 0.130410745033732 
2437	 0.130267444661054 
2438	 0.130199052792991 
2439	 0.13010994899443 
2440	 0.130091122873581 
2441	 0.130132230377618 
2442	 0.130087623741796 
2443	 0.129961923869481 
2444	 0.129862445686441 
2445	 0.129841859549409 
2446	 0.129743039647159 
2447	 0.129707920285017 
2448	 0.129686047652368 
2449	 0.129515425921436 
2450	 0.129469161043585 
2451	 0.129500506716785 
2452	 0.129353824129677 
2453	 0.129269196351406 
2454	 0.129285233160001 
2455	 0.129085601448021 
2456	 0.128998589450624 
2457	 0.129079318146285 
2458	 0.128961319247018 
2459	 0.128924884783295 
2460	 0.128967501204184 
2461	 0.12879331207349 
2462	 0.128703675477038 
2463	 0.128674752462092 
2464	 0.128487666520821 
2465	 0.128370641049079 
2466	 0.128248628201687 
2467	 0.128176489790432 
2468	 0.128225604454006 
2469	 0.128250627380752 
2470	 0.128345670982441 
2471	 0.128292635872075 
2472	 0.128221396962552 
2473	 0.12834313400821 
2474	 0.128434266760516 
2475	 0.128596088411105 
2476	 0.128771392926041 
2477	 0.128863247475174 
2478	 0.128862234739463 
2479	 0.128670364015588 
2480	 0.128681108069065 
2481	 0.128610471224616 
2482	 0.12846346232948 
2483	 0.128464332105834 
2484	 0.128340619842258 
2485	 0.128669235279309 
2486	 0.129014300697685 
2487	 0.128986772305129 
2488	 0.129074698703595 
2489	 0.129133443852101 
2490	 0.1290071848231 
2491	 0.129060741317193 
2492	 0.129178640517188 
2493	 0.129156433124838 
2494	 0.129244887816792 
2495	 0.129538181648171 
2496	 0.129743175515125 
2497	 0.129894596865471 
2498	 0.130100700008303 
2499	 0.130115688464041 
2500	 0.130373271812403 
