Wavelength	spectrum00025.asd
350	 3.41956388131817E-02 
351	 3.80812792405481E-02 
352	 3.97553755725475E-02 
353	 3.71872898201548E-02 
354	 3.70122732299764E-02 
355	 3.81075346422984E-02 
356	 3.84000646169656E-02 
357	 3.67210484068407E-02 
358	 3.49122866577663E-02 
359	 3.57112945986897E-02 
360	 3.74946814101332E-02 
361	 0.036955133650898 
362	 3.71984465908451E-02 
363	 3.66468024427832E-02 
364	 3.51943051927863E-02 
365	 0.035149276700973 
366	 3.67969012574692E-02 
367	 3.80790029578468E-02 
368	 3.74418210913784E-02 
369	 3.66720386017404E-02 
370	 0.037070041069159 
371	 3.79803402694628E-02 
372	 3.78146708176299E-02 
373	 3.76920109118578E-02 
374	 3.79709130680351E-02 
375	 3.85824174944326E-02 
376	 3.90132096854619E-02 
377	 3.83479798916947E-02 
378	 3.78708820114308E-02 
379	 3.85732012479261E-02 
380	 3.83009211906322E-02 
381	 3.85655642890718E-02 
382	 3.88195060424091E-02 
383	 3.76584890345405E-02 
384	 3.83330141456603E-02 
385	 3.89123173947692E-02 
386	 3.83469579704069E-02 
387	 3.77854098099227E-02 
388	 3.77928022779035E-02 
389	 3.81368739127802E-02 
390	 3.83980816025439E-02 
391	 3.85409131001534E-02 
392	 3.86346814340371E-02 
393	 0.038768125923594 
394	 3.90082125137591E-02 
395	 3.90981412066512E-02 
396	 3.91188875100853E-02 
397	 3.93336751160188E-02 
398	 4.03143481821285E-02 
399	 4.03725632594416E-02 
400	 3.99906428731873E-02 
401	 3.99829140779588E-02 
402	 3.95057555397444E-02 
403	 0.039712966485076 
404	 4.02427130375042E-02 
405	 3.97346919518686E-02 
406	 3.98871372220291E-02 
407	 4.01814790448782E-02 
408	 4.02098004651573E-02 
409	 4.04472828965976E-02 
410	 4.03610603669744E-02 
411	 4.02116458610204E-02 
412	 4.03565427325883E-02 
413	 4.02658467582109E-02 
414	 4.00979713908345E-02 
415	 0.040107462254761 
416	 4.05568816861549E-02 
417	 4.07644778449732E-02 
418	 4.07940674367282E-02 
419	 0.040775411278011 
420	 4.06183087097927E-02 
421	 0.040521342773466 
422	 4.06734730483181E-02 
423	 4.11336558999311E-02 
424	 4.13025909721675E-02 
425	 4.11854253939566E-02 
426	 4.09525567544533E-02 
427	 4.08859569265199E-02 
428	 4.09785696262642E-02 
429	 4.11372644242669E-02 
430	 4.12521636335993E-02 
431	 4.12311711922681E-02 
432	 0.041286625711305 
433	 4.13872782794819E-02 
434	 4.13925683035905E-02 
435	 4.15471881925816E-02 
436	 0.041723458575205 
437	 4.17532634368195E-02 
438	 4.14432809764296E-02 
439	 4.14760101106164E-02 
440	 4.16809966054795E-02 
441	 4.17123631974481E-02 
442	 4.16439248573748E-02 
443	 0.041768945257753 
444	 4.19394102367162E-02 
445	 4.17081520962643E-02 
446	 4.17863557972053E-02 
447	 0.041885589576628 
448	 4.18175143608744E-02 
449	 4.19887006407952E-02 
450	 0.042155155878388 
451	 4.21807680936558E-02 
452	 4.20297897607209E-02 
453	 0.041995102511432 
454	 4.20817009526776E-02 
455	 4.21743309479497E-02 
456	 0.04206239389825 
457	 4.21347184206376E-02 
458	 4.22494879981694E-02 
459	 4.22590678181146E-02 
460	 0.042389929854044 
461	 4.23844201124966E-02 
462	 4.23030425007505E-02 
463	 4.23644998405436E-02 
464	 4.24590191799484E-02 
465	 4.25952723179832E-02 
466	 4.26816224195304E-02 
467	 4.24398056351267E-02 
468	 4.24410236118287E-02 
469	 4.25600970379408E-02 
470	 4.25499198323508E-02 
471	 4.26157230412718E-02 
472	 4.25765550155469E-02 
473	 4.24976753830587E-02 
474	 4.26246143975267E-02 
475	 0.042705714469474 
476	 4.27890465236341E-02 
477	 4.28835970422441E-02 
478	 4.27805315098268E-02 
479	 4.27737520783678E-02 
480	 4.28575502267208E-02 
481	 0.042905613116553 
482	 4.28578229403428E-02 
483	 4.28575538247929E-02 
484	 0.042938949970351 
485	 4.29947349992383E-02 
486	 4.29979486381534E-02 
487	 4.30062447483517E-02 
488	 4.30563407737983E-02 
489	 4.30447401391341E-02 
490	 4.30591919532756E-02 
491	 4.31468047156982E-02 
492	 0.043303610331675 
493	 4.33147112159711E-02 
494	 4.32919340422853E-02 
495	 4.33211685082701E-02 
496	 4.33778681124675E-02 
497	 4.34206711642095E-02 
498	 4.34574757391267E-02 
499	 4.35021581212693E-02 
500	 4.35177871424135E-02 
501	 4.34944528590083E-02 
502	 4.34707411035115E-02 
503	 4.35201476884446E-02 
504	 4.35806006076401E-02 
505	 4.36037113182171E-02 
506	 4.35915634831609E-02 
507	 4.36682521024591E-02 
508	 4.36677603534365E-02 
509	 4.36475689120123E-02 
510	 4.37353506436301E-02 
511	 4.37894885127167E-02 
512	 4.38362811335845E-02 
513	 4.38884281232154E-02 
514	 4.39229308566203E-02 
515	 4.39018876582252E-02 
516	 4.38933369494783E-02 
517	 4.39428178673481E-02 
518	 4.39072865031335E-02 
519	 4.39366636506033E-02 
520	 4.40198494734151E-02 
521	 4.40404436292159E-02 
522	 4.40961957215791E-02 
523	 4.41206843246494E-02 
524	 0.044091125268671 
525	 4.41137419038686E-02 
526	 4.41407781266232E-02 
527	 4.41773456750826E-02 
528	 4.42350935558992E-02 
529	 0.044271588155327 
530	 4.42715772013602E-02 
531	 4.42718005910191E-02 
532	 4.43564033985638E-02 
533	 4.43619174420075E-02 
534	 4.43654113389463E-02 
535	 4.44304054158831E-02 
536	 0.044419721724948 
537	 4.44201445326405E-02 
538	 4.44558741371008E-02 
539	 4.45087182481854E-02 
540	 4.45241219792939E-02 
541	 4.45345249279537E-02 
542	 4.45559575310004E-02 
543	 4.45574603327838E-02 
544	 4.46141600201862E-02 
545	 4.46582352707931E-02 
546	 4.46257319787837E-02 
547	 4.46791567892844E-02 
548	 4.47456168150645E-02 
549	 4.47863831884618E-02 
550	 4.48033911438413E-02 
551	 4.48066118619522E-02 
552	 4.48527227347217E-02 
553	 4.49459968465882E-02 
554	 4.49365210280405E-02 
555	 4.49354794900858E-02 
556	 4.49673560774806E-02 
557	 4.50119031440018E-02 
558	 4.50384455089939E-02 
559	 0.045078614144818 
560	 4.51273449650025E-02 
561	 4.51211745448284E-02 
562	 4.50922207234674E-02 
563	 0.045081192046568 
564	 4.51192593204488E-02 
565	 4.51991826193709E-02 
566	 4.52428074307319E-02 
567	 4.52438376407291E-02 
568	 4.52539524446561E-02 
569	 4.52995067372231E-02 
570	 4.53425258252187E-02 
571	 4.53738570733337E-02 
572	 4.54769525944073E-02 
573	 4.55472686695905E-02 
574	 4.55538203990672E-02 
575	 4.55155433305471E-02 
576	 4.55533746139914E-02 
577	 4.55623717418691E-02 
578	 4.55317345207657E-02 
579	 4.55729470736332E-02 
580	 4.56354805024952E-02 
581	 4.56683787770107E-02 
582	 0.045654916421326 
583	 4.56823890148921E-02 
584	 0.045733893819928 
585	 4.57738439113979E-02 
586	 4.57697830567199E-02 
587	 4.58400396703449E-02 
588	 4.58781531225639E-02 
589	 4.58549811425676E-02 
590	 0.045912338579802 
591	 4.59313040659731E-02 
592	 4.59391366467866E-02 
593	 4.59832635141598E-02 
594	 4.59962158928498E-02 
595	 4.60083431249386E-02 
596	 4.60244319238338E-02 
597	 4.60257087945118E-02 
598	 4.60358394054874E-02 
599	 4.60561488164973E-02 
600	 4.60800878385802E-02 
601	 4.60901114256218E-02 
602	 4.61223502783677E-02 
603	 4.61593353252475E-02 
604	 4.61665768099226E-02 
605	 4.61687251687518E-02 
606	 4.61795889038878E-02 
607	 4.62047171003555E-02 
608	 4.62405899650393E-02 
609	 4.62456534469598E-02 
610	 4.62529301679342E-02 
611	 4.62937163114803E-02 
612	 4.63283963473204E-02 
613	 4.63543802697239E-02 
614	 4.63719526381033E-02 
615	 4.63838086534522E-02 
616	 4.63892125088942E-02 
617	 4.63949851940835E-02 
618	 4.64108613356854E-02 
619	 4.64526899205768E-02 
620	 4.64761349635647E-02 
621	 4.64885250201751E-02 
622	 0.046508777771298 
623	 4.65173405508671E-02 
624	 4.65253966740062E-02 
625	 4.65401472700097E-02 
626	 4.65630283842478E-02 
627	 4.65824530782438E-02 
628	 4.65999203718354E-02 
629	 4.66161617411015E-02 
630	 4.66206870728751E-02 
631	 0.046640945494591 
632	 0.046668963948956 
633	 4.66857124605713E-02 
634	 4.67228652867949E-02 
635	 4.67347509600486E-02 
636	 4.67248507005891E-02 
637	 4.67638728704007E-02 
638	 4.67822738733803E-02 
639	 4.67849184634909E-02 
640	 4.67921704752068E-02 
641	 4.68137035459493E-02 
642	 4.68196846455481E-02 
643	 4.68227492099132E-02 
644	 4.68573132703199E-02 
645	 4.68962057019294E-02 
646	 4.69184167732071E-02 
647	 4.69179966944455E-02 
648	 4.69101068825872E-02 
649	 4.69243920687818E-02 
650	 0.046939810300714 
651	 4.69347550550029E-02 
652	 4.69608116462625E-02 
653	 4.69892994436226E-02 
654	 4.70049686651433E-02 
655	 4.70086413848175E-02 
656	 4.70394833126806E-02 
657	 0.047062863377404 
658	 4.70613241617059E-02 
659	 0.047077700705853 
660	 4.71142606801882E-02 
661	 0.047138141003481 
662	 4.71257546033262E-02 
663	 4.71912760489008E-02 
664	 4.72224697952139E-02 
665	 4.72007984429882E-02 
666	 4.72132773573661E-02 
667	 4.72358492996719E-02 
668	 4.72603638339701E-02 
669	 4.72794309135653E-02 
670	 4.72801947127387E-02 
671	 4.72971588399859E-02 
672	 4.73226163513646E-02 
673	 4.73352478539297E-02 
674	 4.73698480953354E-02 
675	 4.73948753858332E-02 
676	 0.047403583716155 
677	 4.74249004397502E-02 
678	 0.047424176962061 
679	 4.74233277792458E-02 
680	 4.74457425109748E-02 
681	 4.74820160606854E-02 
682	 4.74974896027804E-02 
683	 4.75019108243235E-02 
684	 0.047524379447629 
685	 4.75267819279265E-02 
686	 4.75285238455053E-02 
687	 4.75408067186503E-02 
688	 4.75550463011787E-02 
689	 4.75697893498115E-02 
690	 4.75781099672667E-02 
691	 4.75807328473686E-02 
692	 4.76087769061198E-02 
693	 4.76296134680181E-02 
694	 4.76517224387463E-02 
695	 4.76992439436656E-02 
696	 4.76783645159213E-02 
697	 4.76589853597277E-02 
698	 0.04767784034023 
699	 4.76881889733105E-02 
700	 4.77144088653881E-02 
701	 4.77354805787528E-02 
702	 4.77302325717164E-02 
703	 4.77197514020783E-02 
704	 4.77396104901556E-02 
705	 4.77729637593377E-02 
706	 4.77737745224176E-02 
707	 0.047804692158351 
708	 4.78195176110579E-02 
709	 4.78020667013933E-02 
710	 4.78076045360552E-02 
711	 0.04784133731039 
712	 4.78668450079598E-02 
713	 4.78557791394444E-02 
714	 4.78693186180481E-02 
715	 4.78822312007664E-02 
716	 4.78790748347864E-02 
717	 0.047860649848113 
718	 0.047909207116272 
719	 4.79415265149311E-02 
720	 4.79223403582855E-02 
721	 4.79356660229028E-02 
722	 4.79464122718795E-02 
723	 4.79496062662586E-02 
724	 4.79536415596865E-02 
725	 4.79891479938988E-02 
726	 4.80129746226177E-02 
727	 4.80202701274349E-02 
728	 4.80334193265181E-02 
729	 4.80392889106443E-02 
730	 4.80446422271863E-02 
731	 4.80539215214627E-02 
732	 4.80638086228375E-02 
733	 4.80763512411093E-02 
734	 4.80859430330601E-02 
735	 4.80891163120689E-02 
736	 0.048098042254205 
737	 4.81094867616163E-02 
738	 4.81186646627643E-02 
739	 0.048121135502897 
740	 0.048122819446736 
741	 4.81335153475608E-02 
742	 4.81445266247977E-02 
743	 4.81190664385896E-02 
744	 4.81264185275468E-02 
745	 4.81548390765189E-02 
746	 4.81768851836753E-02 
747	 4.81972998218306E-02 
748	 4.81872514753304E-02 
749	 4.81678968562795E-02 
750	 4.81816988872555E-02 
751	 4.81896692501159E-02 
752	 4.81922356556118E-02 
753	 4.81993045454218E-02 
754	 4.82268997788184E-02 
755	 4.82253517059851E-02 
756	 4.82261132440533E-02 
757	 4.82488320590391E-02 
758	 4.82183678904277E-02 
759	 4.82114162478145E-02 
760	 4.82258073568783E-02 
761	 4.82268971149338E-02 
762	 4.82364126317643E-02 
763	 4.82451727345625E-02 
764	 4.82506950115797E-02 
765	 4.82592253772137E-02 
766	 4.82561470006575E-02 
767	 4.82572056588685E-02 
768	 4.82688330353131E-02 
769	 4.82615180586998E-02 
770	 4.82609629053276E-02 
771	 4.82676936618817E-02 
772	 4.82729559689672E-02 
773	 4.82713296363104E-02 
774	 0.048270283901083 
775	 4.82691803772077E-02 
776	 4.82613111585332E-02 
777	 0.048254353605677 
778	 4.82579925972578E-02 
779	 4.82692841362285E-02 
780	 4.82640549144249E-02 
781	 4.82692629962788E-02 
782	 4.82748753562476E-02 
783	 4.82693832809275E-02 
784	 4.82747487434106E-02 
785	 0.048278634732002 
786	 4.82772025690285E-02 
787	 4.82725114723896E-02 
788	 4.82684640324059E-02 
789	 4.82686861523004E-02 
790	 4.82750101096129E-02 
791	 4.82865268214144E-02 
792	 4.82808683001636E-02 
793	 4.82615654357725E-02 
794	 4.82414509105187E-02 
795	 4.82414244573192E-02 
796	 4.82357856081576E-02 
797	 4.82378345319841E-02 
798	 0.048259403178863 
799	 4.82325616872655E-02 
800	 0.048216394532695 
801	 4.82267117427636E-02 
802	 4.82398367453989E-02 
803	 4.82416965135463E-02 
804	 4.82384331444681E-02 
805	 4.82339205711436E-02 
806	 4.82234804667797E-02 
807	 4.82358568699526E-02 
808	 4.82436810189259E-02 
809	 4.82265777170047E-02 
810	 4.82273476433735E-02 
811	 4.82359453542528E-02 
812	 4.82397909963495E-02 
813	 0.048231958084802 
814	 4.82507807119344E-02 
815	 4.82386477126092E-02 
816	 4.82081887637451E-02 
817	 0.048229444003462 
818	 4.82204567883553E-02 
819	 4.82064754051287E-02 
820	 4.82049725745134E-02 
821	 4.81940640168642E-02 
822	 4.81796081713837E-02 
823	 4.81719284209565E-02 
824	 4.81777026799993E-02 
825	 4.81890440236152E-02 
826	 4.82003614134201E-02 
827	 4.82015916740078E-02 
828	 4.81893562254698E-02 
829	 0.04820666094399 
830	 4.82057545494909E-02 
831	 4.81769323271465E-02 
832	 4.81505138955316E-02 
833	 4.81533773570727E-02 
834	 4.81655963278444E-02 
835	 4.81682003154838E-02 
836	 4.81567475616609E-02 
837	 4.81471572055733E-02 
838	 4.81299211745472E-02 
839	 0.048105594368091 
840	 4.81238035281715E-02 
841	 4.81225034231059E-02 
842	 4.81054684722717E-02 
843	 4.80968416649329E-02 
844	 4.80719343745687E-02 
845	 4.80663836552281E-02 
846	 4.80787176967153E-02 
847	 4.80812271213586E-02 
848	 4.80974259296594E-02 
849	 4.80633056877407E-02 
850	 4.80011499230793E-02 
851	 0.048042204123947 
852	 4.80612167410495E-02 
853	 4.80615548981913E-02 
854	 4.80603413332318E-02 
855	 4.80465041256082E-02 
856	 4.80181728455367E-02 
857	 4.80003750617477E-02 
858	 4.80097258282333E-02 
859	 4.80023233486679E-02 
860	 4.79963740330391E-02 
861	 4.79988782974877E-02 
862	 4.80058918705542E-02 
863	 4.79870137694642E-02 
864	 4.79829701701336E-02 
865	 0.047996036562933 
866	 4.79913497059075E-02 
867	 4.79501719715773E-02 
868	 0.047948486918245 
869	 0.047990718966488 
870	 4.79709178027386E-02 
871	 0.047953693613323 
872	 4.79493172190918E-02 
873	 4.79500143669158E-02 
874	 4.79320208267296E-02 
875	 4.79450883506967E-02 
876	 4.79610717613382E-02 
877	 4.79472027761914E-02 
878	 4.79501476918774E-02 
879	 4.79221849683956E-02 
880	 4.78950420964103E-02 
881	 4.79184306104726E-02 
882	 4.79185976164362E-02 
883	 4.78921474570072E-02 
884	 4.78652101033539E-02 
885	 4.78767643031813E-02 
886	 4.79046904331287E-02 
887	 4.79070744794742E-02 
888	 4.78730369837179E-02 
889	 4.78325828717645E-02 
890	 4.78418633257091E-02 
891	 4.78466561717347E-02 
892	 4.78188213515455E-02 
893	 4.78099664506421E-02 
894	 0.047813178896213 
895	 4.78241490560636E-02 
896	 4.78331173181374E-02 
897	 0.047817784762167 
898	 0.047803974930583 
899	 4.77870450382091E-02 
900	 4.77596208073102E-02 
901	 4.77409871793961E-02 
902	 4.77617147156966E-02 
903	 4.77940701213314E-02 
904	 4.77864489384768E-02 
905	 4.77291944671947E-02 
906	 4.77148144264848E-02 
907	 4.77534039345209E-02 
908	 4.77846705009317E-02 
909	 4.77518275411805E-02 
910	 4.77078073485797E-02 
911	 4.76886847220473E-02 
912	 4.76974335678067E-02 
913	 4.77346007459901E-02 
914	 4.77181056923975E-02 
915	 4.76566390619748E-02 
916	 4.76874360033116E-02 
917	 4.76946715722947E-02 
918	 4.76831034352594E-02 
919	 4.76762127909426E-02 
920	 4.76861460395209E-02 
921	 0.047629134839425 
922	 4.75898249166422E-02 
923	 4.76332614883081E-02 
924	 0.04766416596677 
925	 4.76643813086356E-02 
926	 4.76499288508586E-02 
927	 4.76430265838199E-02 
928	 4.76333971303442E-02 
929	 4.76149875196763E-02 
930	 0.047614913876412 
931	 4.76514707933355E-02 
932	 4.76439891035957E-02 
933	 4.76717648048326E-02 
934	 4.76963393366567E-02 
935	 4.76372028449704E-02 
936	 4.75549765429442E-02 
937	 4.75750188760313E-02 
938	 4.76323752105883E-02 
939	 4.75709003239746E-02 
940	 4.75873239593308E-02 
941	 4.75959431552455E-02 
942	 4.75803080608562E-02 
943	 4.75965529572587E-02 
944	 4.76104730635186E-02 
945	 4.75880612305163E-02 
946	 4.75494930307523E-02 
947	 4.75616877400401E-02 
948	 4.75746247663129E-02 
949	 0.047537800099283 
950	 4.74893462366614E-02 
951	 4.75544484144779E-02 
952	 4.74793207386508E-02 
953	 4.74336737607295E-02 
954	 4.75080549451385E-02 
955	 4.75633025943728E-02 
956	 4.75387830592587E-02 
957	 4.75130506645821E-02 
958	 4.75227784599933E-02 
959	 4.74790801523056E-02 
960	 4.74695171615036E-02 
961	 4.74566660099511E-02 
962	 0.047435855557903 
963	 4.75218196490809E-02 
964	 0.047511953149208 
965	 4.74837893542842E-02 
966	 4.75165299973876E-02 
967	 4.75204284523185E-02 
968	 4.74946077404935E-02 
969	 4.74558180223951E-02 
970	 0.0474221428461 
971	 4.73908482172271E-02 
972	 4.74300307535438E-02 
973	 4.74429010641128E-02 
974	 4.73721541313831E-02 
975	 4.74135517438314E-02 
976	 4.74322571580433E-02 
977	 4.74711428001187E-02 
978	 4.75457138364127E-02 
979	 4.74144076267125E-02 
980	 4.73300589897491E-02 
981	 4.73341587057528E-02 
982	 4.73696747917225E-02 
983	 4.73215387716343E-02 
984	 4.73475976587689E-02 
985	 4.74151216266661E-02 
986	 4.74312509995422E-02 
987	 4.73449419112319E-02 
988	 4.73289345500682E-02 
989	 4.73571146269931E-02 
990	 4.73495775733702E-02 
991	 4.73206179690123E-02 
992	 0.047335307108942 
993	 4.73315182978531E-02 
994	 4.72770164616471E-02 
995	 4.74106326700955E-02 
996	 4.74466652650113E-02 
997	 4.73898553549462E-02 
998	 4.73409462652161E-02 
999	 4.73085478242069E-02 
1000	 4.74143094075674E-02 
1001	 4.76157320351943E-02 
1002	 4.76253472746812E-02 
1003	 4.76180625162499E-02 
1004	 4.76142917821922E-02 
1005	 4.76356943897916E-02 
1006	 4.76381779828584E-02 
1007	 4.76247529881817E-02 
1008	 4.76133138357819E-02 
1009	 0.047595877995828 
1010	 4.75949361095122E-02 
1011	 4.76032705544701E-02 
1012	 4.75967516651599E-02 
1013	 4.75936713746841E-02 
1014	 4.75922903037291E-02 
1015	 0.047573782383483 
1016	 4.75703723338656E-02 
1017	 4.75724166510679E-02 
1018	 0.047558305995054 
1019	 4.75566253296158E-02 
1020	 4.75544609683897E-02 
1021	 4.75572181527633E-02 
1022	 4.75775486440511E-02 
1023	 4.75885244600509E-02 
1024	 4.75955888306674E-02 
1025	 4.75951935962858E-02 
1026	 4.75959341224168E-02 
1027	 4.75897554723339E-02 
1028	 4.75870924765535E-02 
1029	 4.75519119109706E-02 
1030	 4.75089282791206E-02 
1031	 4.74896183260268E-02 
1032	 4.74645526869319E-02 
1033	 4.74809715425313E-02 
1034	 4.75117022551682E-02 
1035	 4.75058909645968E-02 
1036	 4.74967120413634E-02 
1037	 4.74656073344928E-02 
1038	 4.74517947514954E-02 
1039	 0.047431327910856 
1040	 4.74286204825819E-02 
1041	 4.74447047481218E-02 
1042	 4.74483291072437E-02 
1043	 0.04745115260459 
1044	 4.74619702271387E-02 
1045	 0.047470746259372 
1046	 4.74697316256157E-02 
1047	 4.74460387645972E-02 
1048	 4.74279750808422E-02 
1049	 4.74144021265225E-02 
1050	 4.74004356995241E-02 
1051	 4.74065184013583E-02 
1052	 4.74044944186442E-02 
1053	 4.74090704830616E-02 
1054	 4.74271634937373E-02 
1055	 0.047422927491514 
1056	 4.73979995060425E-02 
1057	 4.73878326139742E-02 
1058	 4.73729672967752E-02 
1059	 4.73599988184482E-02 
1060	 4.73284131349811E-02 
1061	 4.73583012818605E-02 
1062	 0.047399092220288 
1063	 4.73717705007599E-02 
1064	 4.73751198811095E-02 
1065	 4.73960005788853E-02 
1066	 0.047368014083381 
1067	 4.73639010965306E-02 
1068	 4.73636462373223E-02 
1069	 4.73447682880257E-02 
1070	 4.73469238854561E-02 
1071	 4.73607448552244E-02 
1072	 4.73777332402946E-02 
1073	 4.73907674358083E-02 
1074	 4.73752156622625E-02 
1075	 4.73622315782607E-02 
1076	 4.73612156460435E-02 
1077	 4.73435246950367E-02 
1078	 4.73503235973748E-02 
1079	 4.73767190218693E-02 
1080	 4.73924118035904E-02 
1081	 4.74099983636344E-02 
1082	 4.74341345530606E-02 
1083	 4.74270514474884E-02 
1084	 4.74093948989086E-02 
1085	 4.74172123379736E-02 
1086	 0.047415469298689 
1087	 4.74185421192504E-02 
1088	 4.74199822996558E-02 
1089	 4.74075596003175E-02 
1090	 4.73860744272895E-02 
1091	 4.73811052276677E-02 
1092	 0.047390040359816 
1093	 4.74017672518941E-02 
1094	 0.047399482910682 
1095	 0.047390660080249 
1096	 4.73871059108332E-02 
1097	 4.73836102065061E-02 
1098	 4.73781818518919E-02 
1099	 4.73819915641225E-02 
1100	 4.73931465732245E-02 
1101	 0.04738630748934 
1102	 4.73761974709346E-02 
1103	 4.73727618942492E-02 
1104	 4.73698956200776E-02 
1105	 4.73493400090314E-02 
1106	 4.73432023055039E-02 
1107	 4.73432879889977E-02 
1108	 4.73297990866687E-02 
1109	 0.047323179052118 
1110	 4.73079933241464E-02 
1111	 4.72974518918454E-02 
1112	 4.72996393904535E-02 
1113	 4.72988136857211E-02 
1114	 4.72971094394471E-02 
1115	 4.72932019416794E-02 
1116	 4.72903139301434E-02 
1117	 4.72843305154694E-02 
1118	 4.72832993808919E-02 
1119	 4.72971067283633E-02 
1120	 4.72971591507195E-02 
1121	 4.72888781589241E-02 
1122	 4.72882285098774E-02 
1123	 4.72832929932223E-02 
1124	 4.72814177020083E-02 
1125	 0.047285581995817 
1126	 4.72623450053002E-02 
1127	 0.047246510029974 
1128	 4.72523471899791E-02 
1129	 4.72417794221386E-02 
1130	 4.72301899258538E-02 
1131	 4.72280875679521E-02 
1132	 4.72202160750818E-02 
1133	 4.72111915433521E-02 
1134	 4.72108380232995E-02 
1135	 4.72105201140857E-02 
1136	 0.047206694160811 
1137	 4.72017231384799E-02 
1138	 4.72025418808743E-02 
1139	 4.71982667416804E-02 
1140	 4.71870689158034E-02 
1141	 4.71813255186364E-02 
1142	 4.71812356411328E-02 
1143	 4.71781289102837E-02 
1144	 4.71802083508098E-02 
1145	 4.71700967900205E-02 
1146	 0.047143196406515 
1147	 4.71307581687654E-02 
1148	 4.71210992178863E-02 
1149	 4.71168217898746E-02 
1150	 4.71188233063326E-02 
1151	 4.71137797527181E-02 
1152	 4.71053576599446E-02 
1153	 4.70844490605842E-02 
1154	 4.70779578927216E-02 
1155	 4.70786901055452E-02 
1156	 4.70731006217079E-02 
1157	 0.047070334444509 
1158	 4.70688088750223E-02 
1159	 0.04705889731089 
1160	 4.70633971251709E-02 
1161	 4.70616180814133E-02 
1162	 4.70620334258383E-02 
1163	 4.70654211338383E-02 
1164	 4.70541215239127E-02 
1165	 4.70448549880889E-02 
1166	 4.70408892400621E-02 
1167	 4.70361408847555E-02 
1168	 0.047031293647462 
1169	 4.70341020905256E-02 
1170	 4.70588316125869E-02 
1171	 4.70566759203683E-02 
1172	 4.70396563202015E-02 
1173	 4.70329542698288E-02 
1174	 4.70106871131689E-02 
1175	 4.70041919515965E-02 
1176	 4.70231426706741E-02 
1177	 4.70216017515617E-02 
1178	 4.70062435635258E-02 
1179	 4.70052693617796E-02 
1180	 4.70012845345237E-02 
1181	 4.70016974743732E-02 
1182	 4.70305449585827E-02 
1183	 4.70398246068166E-02 
1184	 4.70349271697704E-02 
1185	 4.70378907058139E-02 
1186	 4.70321178758969E-02 
1187	 4.70108062564756E-02 
1188	 4.70063948552038E-02 
1189	 4.70048998190897E-02 
1190	 4.70044967499953E-02 
1191	 4.70118979477686E-02 
1192	 4.70183643307587E-02 
1193	 4.70310978449114E-02 
1194	 4.70358661629703E-02 
1195	 4.70366044077086E-02 
1196	 4.70341987728358E-02 
1197	 4.70242467025723E-02 
1198	 0.047015805761134 
1199	 4.70107312857567E-02 
1200	 4.70211909060476E-02 
1201	 4.70236432689696E-02 
1202	 4.70232226452423E-02 
1203	 4.70175257432779E-02 
1204	 0.046995909911902 
1205	 0.046991300968478 
1206	 4.69928460645477E-02 
1207	 4.69921585183266E-02 
1208	 4.69981188180915E-02 
1209	 4.70011155258475E-02 
1210	 4.70010524286888E-02 
1211	 4.69994058378001E-02 
1212	 4.70000849482874E-02 
1213	 4.69992376486829E-02 
1214	 4.69925008360336E-02 
1215	 4.69891182181572E-02 
1216	 4.69942286316976E-02 
1217	 4.69875880260423E-02 
1218	 0.046970099802641 
1219	 4.69572899476644E-02 
1220	 4.69533066878779E-02 
1221	 4.69586613167967E-02 
1222	 4.69720293306354E-02 
1223	 4.69853759302268E-02 
1224	 4.69872363883595E-02 
1225	 4.69742976733699E-02 
1226	 4.69697445677311E-02 
1227	 4.69646896505563E-02 
1228	 4.69614722034041E-02 
1229	 4.69566511184865E-02 
1230	 4.69573635407049E-02 
1231	 4.69623387316961E-02 
1232	 4.69668187586188E-02 
1233	 4.69794895670107E-02 
1234	 4.69837113433068E-02 
1235	 4.69824770308242E-02 
1236	 4.69806874065833E-02 
1237	 4.69723911611577E-02 
1238	 4.69683139355498E-02 
1239	 4.69653803275591E-02 
1240	 0.046963242840491 
1241	 4.69667515300378E-02 
1242	 4.69729406211515E-02 
1243	 0.04697332378941 
1244	 4.69761610514388E-02 
1245	 0.046972321443272 
1246	 4.69551085806092E-02 
1247	 4.69561206870876E-02 
1248	 4.69670017362329E-02 
1249	 4.69682307822499E-02 
1250	 4.69738838056906E-02 
1251	 0.046977144828948 
1252	 4.69730804126499E-02 
1253	 4.69691165775679E-02 
1254	 4.69726642863913E-02 
1255	 4.69675300355307E-02 
1256	 4.69461275430424E-02 
1257	 4.69384885990603E-02 
1258	 4.69314097217916E-02 
1259	 4.69301922897908E-02 
1260	 4.69495472397329E-02 
1261	 4.69529507752465E-02 
1262	 4.69476654512908E-02 
1263	 4.69481519957822E-02 
1264	 0.046938815928604 
1265	 4.69099459402847E-02 
1266	 0.046908409332201 
1267	 4.69202917432268E-02 
1268	 4.69216106629226E-02 
1269	 4.69338000930753E-02 
1270	 4.69332320943912E-02 
1271	 4.69196466585561E-02 
1272	 4.69103922401555E-02 
1273	 0.046893106869579 
1274	 4.68927630645722E-02 
1275	 4.69042663321491E-02 
1276	 4.69050534809389E-02 
1277	 4.69129436030963E-02 
1278	 0.04691747990647 
1279	 4.69067940775627E-02 
1280	 4.69062638208872E-02 
1281	 4.69155775993736E-02 
1282	 4.69228685800631E-02 
1283	 4.69362225968477E-02 
1284	 4.69414401730733E-02 
1285	 0.046943288871652 
1286	 4.69416508277929E-02 
1287	 4.69448474437838E-02 
1288	 4.69416464719187E-02 
1289	 0.046948655177678 
1290	 0.046968820761406 
1291	 4.69736677053861E-02 
1292	 4.69702588959658E-02 
1293	 4.69772667027961E-02 
1294	 4.69847301731211E-02 
1295	 4.69896546263328E-02 
1296	 4.69992181496481E-02 
1297	 4.70088202844271E-02 
1298	 4.70131893607144E-02 
1299	 4.70200776788345E-02 
1300	 4.70332168014127E-02 
1301	 4.70440262657664E-02 
1302	 0.047052605147367 
1303	 4.70599039898401E-02 
1304	 4.70708905345145E-02 
1305	 4.70765638359745E-02 
1306	 4.70745937949799E-02 
1307	 4.70755879322769E-02 
1308	 4.70717411758075E-02 
1309	 4.70755395522439E-02 
1310	 4.70788671158461E-02 
1311	 0.047085444565072 
1312	 4.70886204965934E-02 
1313	 0.047091388375611 
1314	 4.70963949759856E-02 
1315	 4.71025781446802E-02 
1316	 4.71048494975458E-02 
1317	 4.71056896341842E-02 
1318	 4.71099924219228E-02 
1319	 4.71190054099431E-02 
1320	 4.71139420141602E-02 
1321	 4.71017473958732E-02 
1322	 4.70971086096428E-02 
1323	 4.70842773457336E-02 
1324	 4.70756185239827E-02 
1325	 4.70779686536295E-02 
1326	 4.70753869453606E-02 
1327	 4.70644873971341E-02 
1328	 4.70591763150149E-02 
1329	 4.70601374283954E-02 
1330	 4.70585753436423E-02 
1331	 4.70581193472766E-02 
1332	 4.70548270124859E-02 
1333	 4.70498383472841E-02 
1334	 4.70430394116415E-02 
1335	 4.70400888848427E-02 
1336	 4.70393260303134E-02 
1337	 4.70305838939615E-02 
1338	 4.70174695811357E-02 
1339	 4.70157242494018E-02 
1340	 4.70113687024958E-02 
1341	 4.70108531075501E-02 
1342	 4.70267361948789E-02 
1343	 4.70255905368343E-02 
1344	 4.70132269902732E-02 
1345	 4.70070630565417E-02 
1346	 4.69975123478827E-02 
1347	 0.046991715697634 
1348	 4.69865195462937E-02 
1349	 4.69859455797439E-02 
1350	 4.69896579955463E-02 
1351	 4.69921241824095E-02 
1352	 0.047007310871535 
1353	 4.70029721752421E-02 
1354	 4.69832809320686E-02 
1355	 4.69714141431005E-02 
1356	 4.69443033580204E-02 
1357	 4.69322083373636E-02 
1358	 4.69374664418017E-02 
1359	 4.69367001665345E-02 
1360	 4.69355534970203E-02 
1361	 4.69401962811259E-02 
1362	 0.046949676501632 
1363	 4.69411561906608E-02 
1364	 4.69364673116724E-02 
1365	 4.69346494514603E-02 
1366	 4.69217266132468E-02 
1367	 0.046895413918074 
1368	 4.68844148210666E-02 
1369	 4.68705831670422E-02 
1370	 4.68675335811386E-02 
1371	 4.68781190014116E-02 
1372	 4.68818445380958E-02 
1373	 4.68863407728445E-02 
1374	 4.68923479274442E-02 
1375	 4.69072712493071E-02 
1376	 4.69033530712011E-02 
1377	 4.68899594094731E-02 
1378	 4.68799860445555E-02 
1379	 4.68524226296993E-02 
1380	 4.68406274407975E-02 
1381	 4.68430596635242E-02 
1382	 4.68394504769317E-02 
1383	 4.68383575470404E-02 
1384	 4.68352537113191E-02 
1385	 4.68272280470696E-02 
1386	 4.68241139146314E-02 
1387	 4.68256202841669E-02 
1388	 4.68227061219179E-02 
1389	 4.68188947351374E-02 
1390	 4.68179122078515E-02 
1391	 4.68187442516192E-02 
1392	 4.68149929001088E-02 
1393	 4.68084716492081E-02 
1394	 4.67983849937923E-02 
1395	 4.67924305755513E-02 
1396	 4.67805509641742E-02 
1397	 0.046774998322739 
1398	 4.67767124924516E-02 
1399	 4.67756416883244E-02 
1400	 4.67733135396074E-02 
1401	 4.67702754278682E-02 
1402	 4.67664823272703E-02 
1403	 4.67696135239406E-02 
1404	 0.046776438451347 
1405	 4.67777661968698E-02 
1406	 0.046786328855679 
1407	 4.67841375989026E-02 
1408	 4.67671664239569E-02 
1409	 4.67599390380899E-02 
1410	 4.67529137842318E-02 
1411	 0.046750056864369 
1412	 4.67526711661503E-02 
1413	 4.67540317222053E-02 
1414	 4.67557924138397E-02 
1415	 4.67591523797722E-02 
1416	 4.67649906958483E-02 
1417	 4.67690413495709E-02 
1418	 4.67780911223935E-02 
1419	 4.67799474772628E-02 
1420	 4.67723219992311E-02 
1421	 4.67705457724659E-02 
1422	 4.67694013860895E-02 
1423	 4.67667223460786E-02 
1424	 4.67641634307708E-02 
1425	 4.67639722288742E-02 
1426	 4.67719294519765E-02 
1427	 4.67759259351918E-02 
1428	 0.046777753836985 
1429	 4.67889808897903E-02 
1430	 4.67939477491497E-02 
1431	 4.67930807223168E-02 
1432	 4.67904904635816E-02 
1433	 4.67895650361339E-02 
1434	 4.67857916474015E-02 
1435	 4.67719890107311E-02 
1436	 4.67705477542033E-02 
1437	 4.67746180662228E-02 
1438	 4.67800129207201E-02 
1439	 4.67924425695221E-02 
1440	 4.67976797154068E-02 
1441	 4.68043103157103E-02 
1442	 0.046807295590269 
1443	 4.68015745928621E-02 
1444	 4.68033579137393E-02 
1445	 4.68095396012395E-02 
1446	 4.68113741944284E-02 
1447	 4.68170112318045E-02 
1448	 4.68152358412507E-02 
1449	 4.68017683880466E-02 
1450	 4.67988783368133E-02 
1451	 4.67939145261947E-02 
1452	 4.67979093306726E-02 
1453	 4.68160848312399E-02 
1454	 4.68273217816091E-02 
1455	 4.68446866743868E-02 
1456	 4.68516916903813E-02 
1457	 4.68481214617146E-02 
1458	 4.68486581306668E-02 
1459	 4.68413251400426E-02 
1460	 4.68418952988972E-02 
1461	 0.046851364670616 
1462	 4.68576519202131E-02 
1463	 4.68698742482735E-02 
1464	 4.68736543556899E-02 
1465	 4.68666667228851E-02 
1466	 4.68673014361978E-02 
1467	 4.68620228087385E-02 
1468	 4.68650242434803E-02 
1469	 4.68794052253757E-02 
1470	 4.68795565753333E-02 
1471	 0.046884860128033 
1472	 4.68917873834105E-02 
1473	 4.68923918538982E-02 
1474	 4.68897061204316E-02 
1475	 4.68883439680018E-02 
1476	 4.68824040070703E-02 
1477	 4.68792234808343E-02 
1478	 4.68781203732587E-02 
1479	 4.68769596837419E-02 
1480	 4.68745452494554E-02 
1481	 4.68746445246987E-02 
1482	 4.68793904381278E-02 
1483	 0.04687748231711 
1484	 4.68698668449352E-02 
1485	 4.68710943198078E-02 
1486	 4.68735020567714E-02 
1487	 4.68755419907075E-02 
1488	 4.68870505595659E-02 
1489	 4.68889609346476E-02 
1490	 4.68802729812786E-02 
1491	 4.68806256317142E-02 
1492	 4.68841870374821E-02 
1493	 4.68847717306257E-02 
1494	 4.68888433229546E-02 
1495	 4.68893601535097E-02 
1496	 0.046878792108189 
1497	 4.68829928881273E-02 
1498	 4.69003166217796E-02 
1499	 4.69063219564132E-02 
1500	 4.69191935191105E-02 
1501	 4.69214530709842E-02 
1502	 4.69039783827196E-02 
1503	 4.69000639347968E-02 
1504	 4.68960082011955E-02 
1505	 4.68990216554619E-02 
1506	 4.69168830212157E-02 
1507	 4.69239871744482E-02 
1508	 4.69319797277406E-02 
1509	 4.69365320531555E-02 
1510	 4.69329903999951E-02 
1511	 4.69297746091021E-02 
1512	 4.69217714617852E-02 
1513	 4.69193835218216E-02 
1514	 4.69176024660381E-02 
1515	 4.69179882766113E-02 
1516	 0.046926612924284 
1517	 4.69314883911464E-02 
1518	 4.69352891781263E-02 
1519	 4.69377036320861E-02 
1520	 0.046937407764393 
1521	 4.69371851488825E-02 
1522	 4.69415512993669E-02 
1523	 4.69440366487359E-02 
1524	 4.69452994203583E-02 
1525	 4.69479587311958E-02 
1526	 4.69497904660441E-02 
1527	 4.69486657429677E-02 
1528	 4.69490348618515E-02 
1529	 0.046952153003078 
1530	 4.69518857373505E-02 
1531	 0.04694699024795 
1532	 4.69490368032612E-02 
1533	 4.69547486071781E-02 
1534	 4.69571206912296E-02 
1535	 4.69606748000993E-02 
1536	 4.69644883561685E-02 
1537	 4.69687144490091E-02 
1538	 4.69668245489391E-02 
1539	 4.69608356880257E-02 
1540	 4.69631577765147E-02 
1541	 4.69657652135418E-02 
1542	 4.69643383652176E-02 
1543	 4.69648025403286E-02 
1544	 4.69717762803512E-02 
1545	 4.69774594403924E-02 
1546	 4.69805674759585E-02 
1547	 4.69946928012985E-02 
1548	 4.69978903120672E-02 
1549	 0.046984634284001 
1550	 4.69850362840961E-02 
1551	 4.69958948285148E-02 
1552	 0.046995471637292 
1553	 4.69869584284793E-02 
1554	 4.69914876968265E-02 
1555	 4.70036878080182E-02 
1556	 0.047001538157743 
1557	 4.70034059758289E-02 
1558	 4.69982619873774E-02 
1559	 4.69698573006947E-02 
1560	 4.69614998779691E-02 
1561	 4.69636040296951E-02 
1562	 4.69663456408202E-02 
1563	 4.69753848149097E-02 
1564	 4.69827166850232E-02 
1565	 4.70012100251121E-02 
1566	 4.70009704233499E-02 
1567	 4.69786126170615E-02 
1568	 4.69827042155965E-02 
1569	 4.69940685805463E-02 
1570	 4.69984568781404E-02 
1571	 4.70189238462558E-02 
1572	 4.70303089434268E-02 
1573	 4.70278299076576E-02 
1574	 4.70268116573253E-02 
1575	 4.70295357593144E-02 
1576	 4.70314503586858E-02 
1577	 4.70224934569349E-02 
1578	 4.70228252759912E-02 
1579	 4.70335163868549E-02 
1580	 4.70398554215915E-02 
1581	 4.70489094624015E-02 
1582	 0.047052328547911 
1583	 4.70542731530485E-02 
1584	 4.70524971310234E-02 
1585	 4.70407895458579E-02 
1586	 4.70366407008986E-02 
1587	 0.047030706093846 
1588	 4.70320416621344E-02 
1589	 4.70465602318112E-02 
1590	 4.70505028531783E-02 
1591	 4.70500118726823E-02 
1592	 4.70545214763578E-02 
1593	 4.70560951556946E-02 
1594	 4.70588342216548E-02 
1595	 4.70714338053358E-02 
1596	 4.70747011705545E-02 
1597	 4.70635325047729E-02 
1598	 4.70660719314486E-02 
1599	 4.70768336808817E-02 
1600	 4.70807424599496E-02 
1601	 4.70880993234988E-02 
1602	 4.70952448478473E-02 
1603	 4.70944146502152E-02 
1604	 4.70987540165165E-02 
1605	 4.71182781751036E-02 
1606	 4.71198498865286E-02 
1607	 0.047110926769018 
1608	 4.71023557805347E-02 
1609	 4.70747540614015E-02 
1610	 4.70655934707775E-02 
1611	 4.70700745520202E-02 
1612	 4.70674839688551E-02 
1613	 4.70635198476559E-02 
1614	 0.047071899130372 
1615	 0.047089333350083 
1616	 0.047096811763647 
1617	 4.71172896738533E-02 
1618	 4.71229035970208E-02 
1619	 4.71038353343166E-02 
1620	 4.70984264639773E-02 
1621	 4.70896369191456E-02 
1622	 4.70916742414191E-02 
1623	 4.71119196409151E-02 
1624	 4.71188427153268E-02 
1625	 4.71282897856981E-02 
1626	 4.71315325018586E-02 
1627	 4.71230427860967E-02 
1628	 4.71139241866609E-02 
1629	 4.70901593952673E-02 
1630	 4.70903935319586E-02 
1631	 4.71071518248262E-02 
1632	 4.71147475715484E-02 
1633	 4.71421412287481E-02 
1634	 4.71501617580332E-02 
1635	 4.71282164131367E-02 
1636	 4.71262085153316E-02 
1637	 4.71327107195529E-02 
1638	 4.71371984523237E-02 
1639	 4.71546282348123E-02 
1640	 4.71589972929923E-02 
1641	 4.71531307935979E-02 
1642	 4.71474219058174E-02 
1643	 4.71279400351371E-02 
1644	 4.71230706299874E-02 
1645	 4.71258734192328E-02 
1646	 4.71275717100279E-02 
1647	 4.71446921147213E-02 
1648	 4.71513293983428E-02 
1649	 4.71471533492817E-02 
1650	 4.71472499922019E-02 
1651	 4.71492567066021E-02 
1652	 4.71437855619467E-02 
1653	 4.71250436689522E-02 
1654	 4.71257997324427E-02 
1655	 4.71364522401124E-02 
1656	 4.71433186719375E-02 
1657	 4.71740552387089E-02 
1658	 4.71778319230462E-02 
1659	 4.71454406209857E-02 
1660	 4.71390918463511E-02 
1661	 0.047136428995725 
1662	 4.71398258350277E-02 
1663	 4.71684718587741E-02 
1664	 4.71800632382243E-02 
1665	 4.71833091052278E-02 
1666	 4.71787790807313E-02 
1667	 4.71642353368682E-02 
1668	 4.71562602315301E-02 
1669	 4.71375229329366E-02 
1670	 4.71341142926818E-02 
1671	 4.71425864025784E-02 
1672	 4.71483723346171E-02 
1673	 4.71677017686079E-02 
1674	 4.71727366233333E-02 
1675	 4.71667436470129E-02 
1676	 4.71691490781801E-02 
1677	 4.71676266759701E-02 
1678	 4.71669619303865E-02 
1679	 4.71687195863881E-02 
1680	 4.71753049808587E-02 
1681	 4.71905377089088E-02 
1682	 4.71907098263477E-02 
1683	 4.71899099342585E-02 
1684	 4.71865035482309E-02 
1685	 4.71597040905463E-02 
1686	 4.71585484524132E-02 
1687	 4.71758735597118E-02 
1688	 4.71847101618814E-02 
1689	 4.72065892856246E-02 
1690	 4.72070222984906E-02 
1691	 0.047186795227708 
1692	 4.71862944737486E-02 
1693	 4.71858690657701E-02 
1694	 4.71876655460652E-02 
1695	 4.71979722565309E-02 
1696	 4.72085527769232E-02 
1697	 4.72302295564507E-02 
1698	 4.72225849093229E-02 
1699	 0.047198874153332 
1700	 4.71991137859152E-02 
1701	 4.71841832531565E-02 
1702	 4.71804651077958E-02 
1703	 4.72107275373613E-02 
1704	 4.72069997257046E-02 
1705	 4.71729794134483E-02 
1706	 0.047174757339475 
1707	 4.71816999041439E-02 
1708	 4.71754863050228E-02 
1709	 4.71906699406123E-02 
1710	 4.72007889883794E-02 
1711	 4.71910004163529E-02 
1712	 4.71946027053737E-02 
1713	 4.71763094170622E-02 
1714	 4.71446107007037E-02 
1715	 4.71456856285916E-02 
1716	 4.71537499095511E-02 
1717	 4.71606203770954E-02 
1718	 4.71677017716976E-02 
1719	 0.047148071899504 
1720	 4.71399664935302E-02 
1721	 4.71447697253538E-02 
1722	 4.71367376065229E-02 
1723	 4.71454729001302E-02 
1724	 4.71504664513971E-02 
1725	 4.71356943336701E-02 
1726	 4.71317088908733E-02 
1727	 4.71420211028096E-02 
1728	 4.71388684128033E-02 
1729	 4.71428888072328E-02 
1730	 4.71626985216451E-02 
1731	 4.71499241062887E-02 
1732	 4.71280085378648E-02 
1733	 4.71247113119104E-02 
1734	 4.71245817207629E-02 
1735	 0.047132008576166 
1736	 0.047142619536566 
1737	 4.71568558717493E-02 
1738	 4.71709213434691E-02 
1739	 4.71735301662065E-02 
1740	 4.71779462500985E-02 
1741	 4.71816120611569E-02 
1742	 4.71807920820307E-02 
1743	 4.71748665645759E-02 
1744	 4.71664807484955E-02 
1745	 4.71560162027982E-02 
1746	 4.71225690920872E-02 
1747	 4.71106233911753E-02 
1748	 4.71248108125449E-02 
1749	 4.71173207411692E-02 
1750	 4.70970725040329E-02 
1751	 4.70926773430894E-02 
1752	 4.70870956929232E-02 
1753	 0.047093150916341 
1754	 4.71213074341478E-02 
1755	 4.71341364366202E-02 
1756	 4.71454736416823E-02 
1757	 4.71479353637553E-02 
1758	 4.71350996946441E-02 
1759	 4.71303240346353E-02 
1760	 4.71235136091029E-02 
1761	 4.71105714079449E-02 
1762	 4.71182686333264E-02 
1763	 4.71216779841038E-02 
1764	 4.71081044057615E-02 
1765	 4.71106303565578E-02 
1766	 4.71212035386097E-02 
1767	 4.71289435602991E-02 
1768	 4.71395456522682E-02 
1769	 0.047146230986889 
1770	 4.71567228702337E-02 
1771	 4.71790962305212E-02 
1772	 4.71871903082982E-02 
1773	 4.71892075685958E-02 
1774	 4.71817452401173E-02 
1775	 4.71589506896185E-02 
1776	 4.71779771360408E-02 
1777	 4.72007254157677E-02 
1778	 4.72002643871364E-02 
1779	 4.72068735318918E-02 
1780	 4.71907083967845E-02 
1781	 4.71795897975921E-02 
1782	 0.047186972468593 
1783	 4.71954412606968E-02 
1784	 4.72121779071462E-02 
1785	 0.047221847892571 
1786	 4.72240509259847E-02 
1787	 4.72232720743462E-02 
1788	 4.72196966033595E-02 
1789	 4.71933881640394E-02 
1790	 4.71932834296459E-02 
1791	 4.72214020431197E-02 
1792	 4.72343373957711E-02 
1793	 4.72521427561582E-02 
1794	 4.72740153117703E-02 
1795	 4.72646651921996E-02 
1796	 4.72597358184743E-02 
1797	 4.72638982977208E-02 
1798	 4.72510855377274E-02 
1799	 4.72523367504459E-02 
1800	 4.72784000725409E-02 
1801	 4.75237977174436E-02 
1802	 4.75122167863729E-02 
1803	 4.75179996018022E-02 
1804	 4.75317909110815E-02 
1805	 4.75458108909988E-02 
1806	 4.75532053710505E-02 
1807	 4.75711319278321E-02 
1808	 4.75729823790851E-02 
1809	 4.75467615724834E-02 
1810	 4.75531028589428E-02 
1811	 4.75849292545483E-02 
1812	 4.75947526409864E-02 
1813	 4.76116525396564E-02 
1814	 4.76077377294923E-02 
1815	 4.76095635202862E-02 
1816	 4.76236397575184E-02 
1817	 4.76281734728927E-02 
1818	 4.76482986130277E-02 
1819	 4.76543312143947E-02 
1820	 4.76425594598162E-02 
1821	 0.047632080777813 
1822	 4.76193174106332E-02 
1823	 4.76040929263383E-02 
1824	 4.75990510971305E-02 
1825	 4.76107520466275E-02 
1826	 0.047616290060192 
1827	 4.76366569785686E-02 
1828	 4.76464437009175E-02 
1829	 4.76459156519035E-02 
1830	 4.76491721966092E-02 
1831	 4.76483901394563E-02 
1832	 4.76639251140067E-02 
1833	 4.76811811988957E-02 
1834	 4.76866066808643E-02 
1835	 4.76937498619161E-02 
1836	 4.76993038078529E-02 
1837	 0.047697914797117 
1838	 4.76825019119063E-02 
1839	 4.76800393022226E-02 
1840	 4.76785896684967E-02 
1841	 4.76785576572043E-02 
1842	 4.76828760731898E-02 
1843	 4.76871606526936E-02 
1844	 0.047688532959113 
1845	 4.76928049584207E-02 
1846	 4.77074514768194E-02 
1847	 0.047712601087194 
1848	 4.77159996833657E-02 
1849	 4.77200820288753E-02 
1850	 4.77266645901626E-02 
1851	 4.77240370491925E-02 
1852	 4.77345774519449E-02 
1853	 4.77627443674019E-02 
1854	 4.77681365481501E-02 
1855	 4.77678728179831E-02 
1856	 0.047771891506355 
1857	 4.77661595643495E-02 
1858	 4.77671183955062E-02 
1859	 4.77698150744561E-02 
1860	 4.77790715410975E-02 
1861	 4.77823443832964E-02 
1862	 4.77830828568563E-02 
1863	 4.77882898065648E-02 
1864	 4.77851049214497E-02 
1865	 4.77818176677923E-02 
1866	 4.77849388705577E-02 
1867	 4.77861778204245E-02 
1868	 4.78005577456615E-02 
1869	 4.78173555116998E-02 
1870	 4.78214873978476E-02 
1871	 4.78163602958444E-02 
1872	 4.78150223829752E-02 
1873	 0.047808058854605 
1874	 4.77980654006266E-02 
1875	 0.047795620630186 
1876	 4.78004461531184E-02 
1877	 0.047792341385477 
1878	 4.77846347031407E-02 
1879	 4.77802081930182E-02 
1880	 4.77718667621045E-02 
1881	 4.77665399494189E-02 
1882	 4.77633956860988E-02 
1883	 4.77613625358518E-02 
1884	 4.77597721809254E-02 
1885	 4.77491600005859E-02 
1886	 4.77352000461872E-02 
1887	 4.77274321868843E-02 
1888	 4.77242702250504E-02 
1889	 4.77198942447768E-02 
1890	 4.77104237949788E-02 
1891	 4.77103316863751E-02 
1892	 4.77072478851283E-02 
1893	 4.76996500090955E-02 
1894	 4.76921981415678E-02 
1895	 4.76892349893502E-02 
1896	 4.76703635407189E-02 
1897	 0.047656293869992 
1898	 4.76457682617472E-02 
1899	 4.76248026357447E-02 
1900	 4.76218682721841E-02 
1901	 0.047613568038786 
1902	 0.047587692993462 
1903	 4.75795598875139E-02 
1904	 4.75733278805485E-02 
1905	 4.75685870525257E-02 
1906	 4.75562028311435E-02 
1907	 4.75512889686941E-02 
1908	 0.047545012885848 
1909	 4.75283322716343E-02 
1910	 4.75034677618246E-02 
1911	 4.74846308447575E-02 
1912	 4.74717295121909E-02 
1913	 4.74591999461989E-02 
1914	 4.74535260262066E-02 
1915	 4.74493638424094E-02 
1916	 4.74490372277219E-02 
1917	 4.74548894485586E-02 
1918	 4.74599122345422E-02 
1919	 4.74576005810194E-02 
1920	 4.74577368683285E-02 
1921	 4.74456216640843E-02 
1922	 4.74394410737584E-02 
1923	 4.74437628967652E-02 
1924	 4.74464664858871E-02 
1925	 4.74542650263394E-02 
1926	 4.74563464216155E-02 
1927	 0.047449068153227 
1928	 4.74469160903637E-02 
1929	 4.74471087835503E-02 
1930	 4.74461331894179E-02 
1931	 0.047439071856002 
1932	 4.74410773496648E-02 
1933	 4.74455970724482E-02 
1934	 4.74456408380445E-02 
1935	 4.74527363736418E-02 
1936	 0.047464123380877 
1937	 4.74694187118858E-02 
1938	 4.74673966535092E-02 
1939	 4.74717856337651E-02 
1940	 0.047479470258575 
1941	 0.04748029837837 
1942	 4.74895086337963E-02 
1943	 4.75103485108542E-02 
1944	 0.047511134364802 
1945	 4.75144573198512E-02 
1946	 4.75217374502511E-02 
1947	 4.75207983774139E-02 
1948	 4.75367615225881E-02 
1949	 0.047559416605657 
1950	 0.047571140067761 
1951	 4.75719941041101E-02 
1952	 4.75823412972889E-02 
1953	 4.75930348413515E-02 
1954	 4.76030004008363E-02 
1955	 4.76193337862794E-02 
1956	 0.047636856319337 
1957	 4.76468707746197E-02 
1958	 4.76569896780469E-02 
1959	 4.76615930670083E-02 
1960	 4.76639415310055E-02 
1961	 4.76746204556172E-02 
1962	 4.76911413969618E-02 
1963	 4.77032120515747E-02 
1964	 0.047718751468866 
1965	 0.047732710909608 
1966	 4.77442434825341E-02 
1967	 4.77516426429962E-02 
1968	 4.77682458851449E-02 
1969	 4.77900375691841E-02 
1970	 4.78031825313982E-02 
1971	 4.78168509471275E-02 
1972	 0.047828781557183 
1973	 4.78338435992419E-02 
1974	 4.78463467012964E-02 
1975	 4.78709324872903E-02 
1976	 4.78802821516478E-02 
1977	 4.78793240954973E-02 
1978	 4.78903232471181E-02 
1979	 4.79017323763662E-02 
1980	 4.79067326708327E-02 
1981	 4.79282306157999E-02 
1982	 4.79516871127399E-02 
1983	 4.79678163294543E-02 
1984	 4.79832129694278E-02 
1985	 4.80028410459343E-02 
1986	 4.80282214520964E-02 
1987	 4.80520180747289E-02 
1988	 0.048080375110573 
1989	 4.81049164785208E-02 
1990	 4.81325509477344E-02 
1991	 4.81498677395266E-02 
1992	 4.81575219668261E-02 
1993	 4.81729725416516E-02 
1994	 4.81841808717151E-02 
1995	 4.81851596640405E-02 
1996	 4.81974976378876E-02 
1997	 4.82124965311013E-02 
1998	 4.82298992627721E-02 
1999	 4.82483565834737E-02 
2000	 4.82736790687002E-02 
2001	 4.83131585951253E-02 
2002	 4.83343347487668E-02 
2003	 4.83517712350569E-02 
2004	 4.83667430069242E-02 
2005	 4.83598351137614E-02 
2006	 4.83736054661388E-02 
2007	 4.83975322747237E-02 
2008	 4.84267689876493E-02 
2009	 4.84598151027521E-02 
2010	 4.84816132577721E-02 
2011	 4.84902701129268E-02 
2012	 4.85045451750588E-02 
2013	 4.85224605587272E-02 
2014	 4.85397184628975E-02 
2015	 4.85621810233624E-02 
2016	 0.048596726615374 
2017	 0.048619643325429 
2018	 4.86413463417094E-02 
2019	 4.86583132081292E-02 
2020	 4.86664258402707E-02 
2021	 4.86744095878514E-02 
2022	 4.86945552605234E-02 
2023	 4.87156614109076E-02 
2024	 4.87356638911539E-02 
2025	 4.87681928450896E-02 
2026	 4.87924229364399E-02 
2027	 0.04880910577047 
2028	 4.88309158386275E-02 
2029	 4.88541191278485E-02 
2030	 4.88775594947231E-02 
2031	 4.89080985867251E-02 
2032	 4.89274325663654E-02 
2033	 4.89374144948539E-02 
2034	 4.89560311655014E-02 
2035	 4.89711108203264E-02 
2036	 4.89887897005705E-02 
2037	 4.90094366334333E-02 
2038	 4.90289989740026E-02 
2039	 4.90428859960587E-02 
2040	 0.049040451539969 
2041	 0.049056246007094 
2042	 4.90851097429735E-02 
2043	 4.91011635366714E-02 
2044	 4.91219305714613E-02 
2045	 4.91364451863072E-02 
2046	 4.91337927536471E-02 
2047	 4.91434739687558E-02 
2048	 4.91560842141811E-02 
2049	 4.91704511104988E-02 
2050	 4.91892180711527E-02 
2051	 4.92109235374961E-02 
2052	 4.92304201961359E-02 
2053	 4.92636204431973E-02 
2054	 0.049286601797985 
2055	 4.93088416835426E-02 
2056	 4.93286322619839E-02 
2057	 4.93421109614092E-02 
2058	 4.93594675540043E-02 
2059	 4.93766925044319E-02 
2060	 4.93977936339192E-02 
2061	 4.94313487897321E-02 
2062	 4.94464629205857E-02 
2063	 4.94467307038471E-02 
2064	 4.94587917925118E-02 
2065	 4.94695275943508E-02 
2066	 4.94730108820858E-02 
2067	 4.94936515372368E-02 
2068	 4.95087230476775E-02 
2069	 4.95172555772248E-02 
2070	 4.95118046077069E-02 
2071	 4.95245293911346E-02 
2072	 4.95457690302976E-02 
2073	 4.95588862421016E-02 
2074	 4.95742301910263E-02 
2075	 4.95902387122838E-02 
2076	 0.049600622879637 
2077	 4.96140339063945E-02 
2078	 4.96344832024382E-02 
2079	 4.96501941199334E-02 
2080	 0.049655517415564 
2081	 4.96722055041015E-02 
2082	 4.96982994181925E-02 
2083	 4.97271110907053E-02 
2084	 4.97373657768148E-02 
2085	 4.97470358587707E-02 
2086	 4.97550412597063E-02 
2087	 4.97428398712239E-02 
2088	 4.97535367281193E-02 
2089	 4.97834762978984E-02 
2090	 4.97960272438504E-02 
2091	 4.98001049705816E-02 
2092	 4.98159360533603E-02 
2093	 4.98340618144215E-02 
2094	 4.98517539696342E-02 
2095	 4.98794249365788E-02 
2096	 0.049901579692122 
2097	 4.99231302220596E-02 
2098	 4.99326347812782E-02 
2099	 4.99352307383176E-02 
2100	 4.99649867605243E-02 
2101	 4.99756336892058E-02 
2102	 4.99695262762198E-02 
2103	 4.99896931406381E-02 
2104	 5.00246391477088E-02 
2105	 5.00422344791934E-02 
2106	 5.00731410460671E-02 
2107	 0.05008509527037 
2108	 5.00638279552336E-02 
2109	 0.050069610101096 
2110	 5.00810793582126E-02 
2111	 5.00987574210481E-02 
2112	 5.01363897727899E-02 
2113	 5.01636716321815E-02 
2114	 5.01891428281018E-02 
2115	 5.02126864387524E-02 
2116	 0.050229755740135 
2117	 5.02501978403222E-02 
2118	 5.02730280597362E-02 
2119	 5.02938720223064E-02 
2120	 5.03237265569223E-02 
2121	 5.03652882506952E-02 
2122	 5.03924120122975E-02 
2123	 5.04258207084178E-02 
2124	 5.04452132702859E-02 
2125	 5.04471635094259E-02 
2126	 5.04553779976308E-02 
2127	 5.04576400464508E-02 
2128	 5.04603355540587E-02 
2129	 5.04573820032884E-02 
2130	 0.050466112334301 
2131	 5.04849183994995E-02 
2132	 5.04977745786205E-02 
2133	 5.05214956027269E-02 
2134	 5.05374883932212E-02 
2135	 5.05210146750971E-02 
2136	 5.05046628978553E-02 
2137	 0.050505140049335 
2138	 5.05069317074526E-02 
2139	 5.05026100538812E-02 
2140	 5.05138298003685E-02 
2141	 5.05091160920472E-02 
2142	 5.04812851020778E-02 
2143	 5.04712133171981E-02 
2144	 5.04761553625707E-02 
2145	 5.04660027516448E-02 
2146	 5.04508682073554E-02 
2147	 5.04356843173151E-02 
2148	 5.04072536534113E-02 
2149	 5.03878761895868E-02 
2150	 5.03774468060075E-02 
2151	 0.050363706537366 
2152	 5.03506064644619E-02 
2153	 0.050340662580952 
2154	 5.03255819970211E-02 
2155	 5.02939896695786E-02 
2156	 5.02606116515777E-02 
2157	 5.02158177447487E-02 
2158	 5.01803523959682E-02 
2159	 5.01385123213022E-02 
2160	 5.01074276089069E-02 
2161	 5.00892668517971E-02 
2162	 5.00578193007907E-02 
2163	 5.00301122286349E-02 
2164	 4.99901743335569E-02 
2165	 4.99269333198101E-02 
2166	 4.98864079140804E-02 
2167	 4.98569712583716E-02 
2168	 0.049818134378756 
2169	 4.97800191942235E-02 
2170	 4.97496729552515E-02 
2171	 4.97180688319153E-02 
2172	 4.96849356200761E-02 
2173	 0.04965842748674 
2174	 4.96399401814762E-02 
2175	 4.96069963106136E-02 
2176	 4.95597248287121E-02 
2177	 4.95222929163588E-02 
2178	 4.94830367297917E-02 
2179	 4.94547700436908E-02 
2180	 4.94334496422419E-02 
2181	 0.04940970578535 
2182	 4.93882767500007E-02 
2183	 4.93757539702716E-02 
2184	 4.93668413288051E-02 
2185	 4.93530971136473E-02 
2186	 4.93526966744353E-02 
2187	 4.93394804600838E-02 
2188	 4.93234032387081E-02 
2189	 4.92925555097046E-02 
2190	 4.92465038210358E-02 
2191	 4.92073466733421E-02 
2192	 4.91356310608966E-02 
2193	 4.91009187697724E-02 
2194	 4.90974713475105E-02 
2195	 4.90882249871777E-02 
2196	 0.049095745133154 
2197	 4.91098097391631E-02 
2198	 4.90890135072812E-02 
2199	 0.049073776479847 
2200	 4.90599671014874E-02 
2201	 4.90344700102008E-02 
2202	 0.049021754204823 
2203	 4.90247303549079E-02 
2204	 4.90120787388522E-02 
2205	 4.89903063701582E-02 
2206	 4.89801698589215E-02 
2207	 4.89724708473564E-02 
2208	 4.89604783907227E-02 
2209	 0.048947842933097 
2210	 4.89459725242429E-02 
2211	 4.89480350789135E-02 
2212	 0.048946022776305 
2213	 4.89579469650868E-02 
2214	 4.89545025327062E-02 
2215	 4.89229269488147E-02 
2216	 4.89178432503532E-02 
2217	 4.89358944668931E-02 
2218	 4.89353717574175E-02 
2219	 4.89282314661695E-02 
2220	 4.89344874859228E-02 
2221	 4.89387624740959E-02 
2222	 4.89351357848777E-02 
2223	 4.89490915876842E-02 
2224	 4.89870982979505E-02 
2225	 4.89999801966077E-02 
2226	 4.89994401309567E-02 
2227	 0.048987879568104 
2228	 4.89532830210557E-02 
2229	 4.89476915380523E-02 
2230	 4.89428606884942E-02 
2231	 4.89386119049369E-02 
2232	 0.048955675376338 
2233	 0.048954147119253 
2234	 4.89327063849312E-02 
2235	 4.89328412434462E-02 
2236	 4.89468622848839E-02 
2237	 4.89495185023953E-02 
2238	 4.89526887955942E-02 
2239	 4.89511891954589E-02 
2240	 4.89354736248383E-02 
2241	 4.89351920624199E-02 
2242	 0.048952852351735 
2243	 0.048954531273285 
2244	 4.89586196206006E-02 
2245	 4.89517205286754E-02 
2246	 4.89204539466942E-02 
2247	 4.89027798741389E-02 
2248	 4.88803044383006E-02 
2249	 4.88709511432504E-02 
2250	 4.88723685724786E-02 
2251	 4.88814267448795E-02 
2252	 4.88946350427804E-02 
2253	 4.89216061686594E-02 
2254	 4.89233065607336E-02 
2255	 4.89195083769476E-02 
2256	 4.89106673621501E-02 
2257	 4.88740072749597E-02 
2258	 4.88714994860843E-02 
2259	 4.88898050806486E-02 
2260	 4.88845925588886E-02 
2261	 4.88835410679068E-02 
2262	 4.88848805927329E-02 
2263	 4.88670440409657E-02 
2264	 4.88677984983986E-02 
2265	 4.88915038893816E-02 
2266	 4.88894559622571E-02 
2267	 4.88818972514968E-02 
2268	 4.88715750394768E-02 
2269	 4.88325730139733E-02 
2270	 4.88371296549559E-02 
2271	 4.88717725476631E-02 
2272	 0.048882142539227 
2273	 0.048906760442698 
2274	 4.89230423976049E-02 
2275	 0.04891300494445 
2276	 4.89141991807919E-02 
2277	 4.89417188505671E-02 
2278	 4.89440173273599E-02 
2279	 4.89081520945078E-02 
2280	 4.89100612035935E-02 
2281	 4.89395986191613E-02 
2282	 4.89357684710547E-02 
2283	 4.89252964998919E-02 
2284	 4.89357236230256E-02 
2285	 4.89180050854715E-02 
2286	 4.88936595477003E-02 
2287	 0.048902547177526 
2288	 4.89129543548786E-02 
2289	 4.89225354243832E-02 
2290	 4.89377677472021E-02 
2291	 4.89551424195838E-02 
2292	 0.048975845729446 
2293	 0.048964522450804 
2294	 4.89665907548426E-02 
2295	 4.89896940673865E-02 
2296	 4.89905346120059E-02 
2297	 4.90107490125904E-02 
2298	 4.90573753391944E-02 
2299	 4.90681089589586E-02 
2300	 4.90585071279502E-02 
2301	 4.90749740494696E-02 
2302	 4.90863182422905E-02 
2303	 4.91000546716104E-02 
2304	 4.91419599904066E-02 
2305	 4.91589473927388E-02 
2306	 4.91433498932421E-02 
2307	 0.049160213855543 
2308	 4.91969587878106E-02 
2309	 4.92141558787225E-02 
2310	 4.92302183519836E-02 
2311	 4.92573315115127E-02 
2312	 4.92759295429151E-02 
2313	 4.92960368945763E-02 
2314	 0.049329925438002 
2315	 4.93657629904445E-02 
2316	 0.049395431613412 
2317	 4.94298236416576E-02 
2318	 4.94781180352291E-02 
2319	 0.049517708356142 
2320	 4.95564355752033E-02 
2321	 4.95825375731711E-02 
2322	 0.049604951815357 
2323	 4.96255526893919E-02 
2324	 0.049617744829389 
2325	 4.96418063778805E-02 
2326	 4.96968479372329E-02 
2327	 4.97291676647373E-02 
2328	 4.97608567793454E-02 
2329	 4.97909622874616E-02 
2330	 0.04981550313124 
2331	 4.98227742777834E-02 
2332	 4.98382913944797E-02 
2333	 4.98458998752337E-02 
2334	 4.98440327889672E-02 
2335	 4.98458657819002E-02 
2336	 4.98238806100847E-02 
2337	 4.98337959958618E-02 
2338	 4.98710664189139E-02 
2339	 4.98800304766585E-02 
2340	 4.98710999045159E-02 
2341	 4.98966088249197E-02 
2342	 4.99392859187045E-02 
2343	 4.99588939084623E-02 
2344	 5.00163628022663E-02 
2345	 0.050071811790622 
2346	 5.00523362159684E-02 
2347	 5.00193629915546E-02 
2348	 5.00032864002317E-02 
2349	 5.00206376832236E-02 
2350	 5.00532189962411E-02 
2351	 5.00868515911879E-02 
2352	 5.01636410064611E-02 
2353	 5.01932418988214E-02 
2354	 5.01715617653439E-02 
2355	 5.01922124779619E-02 
2356	 5.01861619555338E-02 
2357	 5.01638195572215E-02 
2358	 5.01775940690277E-02 
2359	 5.01772300174223E-02 
2360	 5.01821440816897E-02 
2361	 5.01726027065105E-02 
2362	 5.01571035031996E-02 
2363	 5.01856829850484E-02 
2364	 5.02270628534682E-02 
2365	 5.02936450435292E-02 
2366	 5.03299711687349E-02 
2367	 0.050331060359242 
2368	 5.03126000731001E-02 
2369	 5.02617412609222E-02 
2370	 5.03018416934044E-02 
2371	 5.03659641134499E-02 
2372	 5.03817825872494E-02 
2373	 5.04304828757343E-02 
2374	 0.050438734856487 
2375	 5.04145683105101E-02 
2376	 5.04721306544244E-02 
2377	 5.05320836127988E-02 
2378	 5.05581362360552E-02 
2379	 0.0506065733715 
2380	 5.05731402263479E-02 
2381	 5.05255953399747E-02 
2382	 5.04732238780083E-02 
2383	 5.03469289808505E-02 
2384	 5.03210596866137E-02 
2385	 5.03490238820219E-02 
2386	 5.03580124314115E-02 
2387	 5.04547841959302E-02 
2388	 5.04952106230983E-02 
2389	 5.04931652364692E-02 
2390	 5.04775321684502E-02 
2391	 5.04237495497105E-02 
2392	 5.03913205669896E-02 
2393	 5.03522574148629E-02 
2394	 5.03285958103759E-02 
2395	 5.03177556854081E-02 
2396	 0.050329663743006 
2397	 5.03620318114049E-02 
2398	 5.03659515820015E-02 
2399	 5.03763448100727E-02 
2400	 5.03758849562897E-02 
2401	 5.03485446781787E-02 
2402	 5.03243591649079E-02 
2403	 5.03686249698596E-02 
2404	 5.04329308377873E-02 
2405	 5.04124418144974E-02 
2406	 5.04303879486906E-02 
2407	 5.04744568157986E-02 
2408	 5.05115131762641E-02 
2409	 5.05105928493184E-02 
2410	 5.05249397270032E-02 
2411	 0.05052560309523 
2412	 5.04401485852298E-02 
2413	 5.05245990285696E-02 
2414	 5.05936062122885E-02 
2415	 5.05231320238898E-02 
2416	 0.050530251839285 
2417	 5.04711560258851E-02 
2418	 5.04084714244228E-02 
2419	 5.04487898501949E-02 
2420	 5.04762026114524E-02 
2421	 5.04493893915548E-02 
2422	 5.03437331243542E-02 
2423	 5.03220363219973E-02 
2424	 5.03475137436764E-02 
2425	 0.050358773665569 
2426	 5.04857221307303E-02 
2427	 5.04827018298568E-02 
2428	 5.04363472510439E-02 
2429	 5.04466259429803E-02 
2430	 5.03616414631722E-02 
2431	 5.02991683682186E-02 
2432	 5.02527014341082E-02 
2433	 5.02999705347034E-02 
2434	 5.04047849794566E-02 
2435	 5.04207176113027E-02 
2436	 0.050410897699316 
2437	 5.03338348616741E-02 
2438	 5.01624956087451E-02 
2439	 5.00956060870779E-02 
2440	 5.01835472769025E-02 
2441	 5.02329202662824E-02 
2442	 5.02753720136396E-02 
2443	 5.03555853554194E-02 
2444	 5.03482972369352E-02 
2445	 5.02757967283249E-02 
2446	 5.02549829973971E-02 
2447	 5.02502199316067E-02 
2448	 5.02597811541462E-02 
2449	 5.02699505709832E-02 
2450	 5.01925273926021E-02 
2451	 5.02504965885526E-02 
2452	 5.03074738651298E-02 
2453	 5.02423249395261E-02 
2454	 5.02975278102276E-02 
2455	 5.02862577752242E-02 
2456	 5.02190477748182E-02 
2457	 5.02374498932118E-02 
2458	 5.02646774803167E-02 
2459	 5.02370661278647E-02 
2460	 5.02459586802896E-02 
2461	 0.050303028158244 
2462	 5.03487634129033E-02 
2463	 5.03620549162649E-02 
2464	 5.02807250401206E-02 
2465	 5.02754742994257E-02 
2466	 5.02775843349378E-02 
2467	 5.02636948089496E-02 
2468	 5.03080752438382E-02 
2469	 5.02795613760123E-02 
2470	 5.03231599519679E-02 
2471	 5.04804234414432E-02 
2472	 5.05781134768689E-02 
2473	 5.05569446681369E-02 
2474	 5.05017020113012E-02 
2475	 5.04033381201874E-02 
2476	 5.01089043274407E-02 
2477	 5.00836984896653E-02 
2478	 5.01759263545882E-02 
2479	 5.01104297500587E-02 
2480	 5.05461137564483E-02 
2481	 5.06286637601685E-02 
2482	 5.05919301101006E-02 
2483	 5.04398787474848E-02 
2484	 0.05021243491106 
2485	 5.01243620095958E-02 
2486	 5.01735842311967E-02 
2487	 5.02134835865698E-02 
2488	 0.050399588003384 
2489	 5.04432751030867E-02 
2490	 5.03423143965984E-02 
2491	 5.05983806846982E-02 
2492	 5.06688901949092E-02 
2493	 0.050551350336746 
2494	 5.06070269216129E-02 
2495	 5.04440529265245E-02 
2496	 5.02877746875416E-02 
2497	 5.03429367031359E-02 
2498	 5.02282509445294E-02 
2499	 5.00250344931743E-02 
2500	 5.00851364065875E-02 
