Wavelength	spectrum00001.asd
350	 4.09634193236955E-02 
351	 4.07454091504057E-02 
352	 4.17681792824626E-02 
353	 4.21669164297097E-02 
354	 4.05915424622728E-02 
355	 4.11179303833358E-02 
356	 4.18554693378357E-02 
357	 4.06795546908134E-02 
358	 3.87857352949985E-02 
359	 3.67667979386163E-02 
360	 3.64116923210046E-02 
361	 3.91468355679125E-02 
362	 3.94465033419307E-02 
363	 3.84372975033258E-02 
364	 3.73303834501888E-02 
365	 3.64631399368664E-02 
366	 3.67559740084984E-02 
367	 3.72201378851053E-02 
368	 3.69018154417135E-02 
369	 3.64125012205465E-02 
370	 3.71283348340112E-02 
371	 3.82786285471371E-02 
372	 3.80340510527682E-02 
373	 0.037059518822185 
374	 3.66707630344553E-02 
375	 3.71241781954945E-02 
376	 3.71082201589563E-02 
377	 3.73768292970174E-02 
378	 0.03727243536196 
379	 3.65017215642441E-02 
380	 3.72302678005552E-02 
381	 3.77626198869715E-02 
382	 3.73358453198765E-02 
383	 3.61070408222763E-02 
384	 3.64357688397531E-02 
385	 3.71771479385346E-02 
386	 3.73990460240689E-02 
387	 3.71616115665513E-02 
388	 0.036636851215118 
389	 3.64732938216138E-02 
390	 3.69939044589314E-02 
391	 3.70266076219383E-02 
392	 3.66461897255355E-02 
393	 3.64376963231168E-02 
394	 3.71037217418539E-02 
395	 3.71152059854913E-02 
396	 3.69872272494779E-02 
397	 3.70598627170022E-02 
398	 3.69204882054905E-02 
399	 3.69356255903576E-02 
400	 3.68458074015754E-02 
401	 0.036439973325334 
402	 3.64227201963613E-02 
403	 3.66781199286063E-02 
404	 3.68799288634682E-02 
405	 3.66593829747325E-02 
406	 3.69396409209951E-02 
407	 3.71162466883574E-02 
408	 3.69106843326717E-02 
409	 3.71404607278321E-02 
410	 0.036960708661901 
411	 0.036695008261396 
412	 3.68852416121503E-02 
413	 3.71960373696847E-02 
414	 3.71399357086698E-02 
415	 3.69303060877024E-02 
416	 3.73388144341011E-02 
417	 3.72428394361262E-02 
418	 3.72123734568082E-02 
419	 3.76106814457021E-02 
420	 3.76015296107162E-02 
421	 0.037765502563256 
422	 0.038035104762774 
423	 3.81554426690593E-02 
424	 3.85214838776678E-02 
425	 3.87008107152184E-02 
426	 3.86702704661243E-02 
427	 3.89295405345321E-02 
428	 3.91798888707202E-02 
429	 3.94081935171935E-02 
430	 3.96513635488988E-02 
431	 3.98969881340926E-02 
432	 4.02523081012612E-02 
433	 4.06353868722527E-02 
434	 4.08941010518018E-02 
435	 4.12803233127131E-02 
436	 4.17198039526887E-02 
437	 0.042155971644269 
438	 4.26179964933555E-02 
439	 0.043104264518061 
440	 4.36264114932483E-02 
441	 4.42081741206326E-02 
442	 4.49179244997092E-02 
443	 4.56412306751322E-02 
444	 4.63390909749885E-02 
445	 4.70402802202158E-02 
446	 4.77127000335475E-02 
447	 4.84134140302236E-02 
448	 4.91944249655505E-02 
449	 5.00673749175511E-02 
450	 5.10111017655988E-02 
451	 5.20209835942696E-02 
452	 5.30755947962334E-02 
453	 5.40165726259163E-02 
454	 5.50371260282693E-02 
455	 5.62041621789282E-02 
456	 5.74197823247808E-02 
457	 5.86040686164497E-02 
458	 5.97885380075131E-02 
459	 6.10274356136797E-02 
460	 6.23422349366425E-02 
461	 6.37507100335665E-02 
462	 6.51888891975842E-02 
463	 6.65701640523164E-02 
464	 6.80085143171094E-02 
465	 6.96714335656192E-02 
466	 7.14725908807797E-02 
467	 7.29264111013747E-02 
468	 7.45890197206123E-02 
469	 7.63383392849251E-02 
470	 7.80014725979277E-02 
471	 8.00958853630907E-02 
472	 8.19583013936126E-02 
473	 8.36284514858644E-02 
474	 8.56887219785304E-02 
475	 8.76246937197923E-02 
476	 8.94789289534862E-02 
477	 9.13876779827956E-02 
478	 9.35126271330451E-02 
479	 9.55608294098896E-02 
480	 9.76478277951235E-02 
481	 9.99494718920373E-02 
482	 0.101912188055287 
483	 0.104047148417054 
484	 0.10644749906498 
485	 0.108645198365317 
486	 0.110914228722871 
487	 0.11317582459013 
488	 0.115350241193507 
489	 0.117591027170725 
490	 0.119883687234095 
491	 0.122188294417544 
492	 0.124462380722533 
493	 0.126793486437873 
494	 0.129075235307487 
495	 0.131306332790312 
496	 0.133703896370339 
497	 0.135948361718559 
498	 0.138132923516005 
499	 0.140423074904814 
500	 0.142706192498481 
501	 0.144899288781564 
502	 0.147010269112172 
503	 0.149126384514827 
504	 0.151256780937807 
505	 0.153390644471232 
506	 0.155500991302638 
507	 0.15753186123465 
508	 0.1595282520637 
509	 0.161528630001561 
510	 0.163541927727039 
511	 0.165404555463595 
512	 0.167257171861504 
513	 0.169113416998654 
514	 0.170796497162495 
515	 0.172422791776612 
516	 0.174024027634741 
517	 0.175599633674323 
518	 0.177123435874053 
519	 0.178552841560512 
520	 0.179905666375066 
521	 0.181236623602909 
522	 0.182516027720233 
523	 0.183668885099654 
524	 0.184686650895762 
525	 0.185703565746935 
526	 0.186641498052797 
527	 0.187499285303706 
528	 0.188286486273087 
529	 0.188924917256783 
530	 0.189470578200723 
531	 0.18997814156998 
532	 0.190485517900324 
533	 0.19081874763924 
534	 0.191054524951203 
535	 0.191261935092335 
536	 0.191315105679698 
537	 0.191302960232764 
538	 0.191215066697041 
539	 0.190997096646645 
540	 0.190737907739974 
541	 0.19040524098797 
542	 0.189971617583042 
543	 0.189437320824621 
544	 0.188869038565476 
545	 0.188225417388311 
546	 0.187468080117278 
547	 0.186738319423553 
548	 0.185913305515943 
549	 0.184982470599391 
550	 0.184039926810655 
551	 0.182998174365195 
552	 0.181931577946315 
553	 0.180877959581071 
554	 0.179714676899603 
555	 0.17848830324874 
556	 0.177245583416877 
557	 0.176019506730553 
558	 0.174707306717747 
559	 0.173388971778711 
560	 0.172076510175002 
561	 0.170662904049431 
562	 0.169250709438174 
563	 0.167840605598413 
564	 0.166407091440136 
565	 0.164944612664841 
566	 0.163424863048888 
567	 0.161863602429688 
568	 0.160306049640888 
569	 0.158709671050562 
570	 0.157089773673436 
571	 0.155473624218309 
572	 0.153897295635928 
573	 0.152339297329147 
574	 0.150816264740627 
575	 0.149347582091921 
576	 0.147901550260063 
577	 0.146410688421868 
578	 0.14488935822536 
579	 0.143445703728849 
580	 0.141943945443052 
581	 0.140442342498948 
582	 0.138991502640695 
583	 0.137477252263169 
584	 0.136015574777412 
585	 0.134565061696574 
586	 0.13301344769267 
587	 0.131543025270204 
588	 0.130097305904919 
589	 0.128626124040112 
590	 0.127137733177394 
591	 0.1256487605307 
592	 0.124174295667619 
593	 0.122728698317888 
594	 0.121327142063373 
595	 0.119938290285034 
596	 0.118550203351424 
597	 0.117175711954239 
598	 0.115826614207174 
599	 0.1145141567491 
600	 0.113229800395986 
601	 0.111930829879553 
602	 0.110640527953852 
603	 0.109374565490207 
604	 0.108138361028668 
605	 0.106871211085851 
606	 0.105630217167995 
607	 0.104444445274362 
608	 0.103299146235332 
609	 0.102128026813775 
610	 0.100973729828265 
611	 9.98783598693575E-02 
612	 9.87985978709903E-02 
613	 9.77074675014118E-02 
614	 9.66260727529162E-02 
615	 9.56003447662607E-02 
616	 9.45933819058982E-02 
617	 9.35948040751523E-02 
618	 9.26080663809165E-02 
619	 9.16526255381321E-02 
620	 0.090715757918208 
621	 8.98001073725222E-02 
622	 8.89059403881039E-02 
623	 8.79982148193104E-02 
624	 8.71185638285051E-02 
625	 8.62767863037697E-02 
626	 8.54480573066966E-02 
627	 8.46140375808761E-02 
628	 8.38110012038116E-02 
629	 8.30564282147424E-02 
630	 8.22985550048452E-02 
631	 8.15347465404473E-02 
632	 8.07914554291973E-02 
633	 8.00992386235612E-02 
634	 7.94011403640677E-02 
635	 7.87047784022355E-02 
636	 7.80283895992794E-02 
637	 7.73976377948163E-02 
638	 7.67749519556882E-02 
639	 7.61322839179412E-02 
640	 7.54684209231878E-02 
641	 7.48518699063815E-02 
642	 7.42690071441495E-02 
643	 7.37146384343857E-02 
644	 7.31833217290976E-02 
645	 7.26440162231632E-02 
646	 0.072092532661402 
647	 7.15460153332902E-02 
648	 7.10483299567158E-02 
649	 7.05598185757304E-02 
650	 0.070079271918246 
651	 6.96093806175416E-02 
652	 6.91092030269933E-02 
653	 6.86739674114589E-02 
654	 6.82735456173478E-02 
655	 6.77879069107536E-02 
656	 0.067367854182909 
657	 6.69696135045612E-02 
658	 6.65554545965371E-02 
659	 6.61641920420369E-02 
660	 6.58086846303144E-02 
661	 6.54608276334908E-02 
662	 6.50879266121508E-02 
663	 6.47322937719414E-02 
664	 6.43754540773248E-02 
665	 0.064027172467237 
666	 6.37261665915516E-02 
667	 6.34165852750161E-02 
668	 6.30967713654336E-02 
669	 0.062782781364593 
670	 0.062506636927757 
671	 6.22223684286977E-02 
672	 6.19280136156459E-02 
673	 6.16465301516635E-02 
674	 6.14197957460603E-02 
675	 6.11801551209687E-02 
676	 6.09044793097133E-02 
677	 6.06344088875886E-02 
678	 6.03909019484261E-02 
679	 6.01814622874071E-02 
680	 5.99902756423011E-02 
681	 5.97428399510391E-02 
682	 5.95438744154722E-02 
683	 5.93760111611932E-02 
684	 5.91625347588584E-02 
685	 5.89452260913836E-02 
686	 5.87444410146304E-02 
687	 0.058567791374899 
688	 5.84087471032554E-02 
689	 5.82159682168409E-02 
690	 5.80211052082134E-02 
691	 5.78668704604395E-02 
692	 5.77559352082788E-02 
693	 5.76155722729143E-02 
694	 0.057453184710373 
695	 5.73216069805216E-02 
696	 5.71661149161886E-02 
697	 5.70193239268438E-02 
698	 5.69009252433742E-02 
699	 5.67951087733328E-02 
700	 0.056678692413981 
701	 5.65646212924336E-02 
702	 5.64672546416283E-02 
703	 5.63587262005497E-02 
704	 5.62767823612522E-02 
705	 5.61954610685063E-02 
706	 5.60592153022358E-02 
707	 5.59983302787057E-02 
708	 5.59393237790244E-02 
709	 5.58432325484675E-02 
710	 5.57734139192545E-02 
711	 0.055718795012135 
712	 0.05566928678442 
713	 5.56163637800469E-02 
714	 5.55642355106619E-02 
715	 5.55056569908489E-02 
716	 5.54474248790028E-02 
717	 5.54050173880171E-02 
718	 5.53686796252954E-02 
719	 5.53440677842125E-02 
720	 5.53219441624526E-02 
721	 5.52629554869722E-02 
722	 5.52381305532823E-02 
723	 5.52253869888007E-02 
724	 5.51915466067859E-02 
725	 5.51806352576913E-02 
726	 5.51722114109215E-02 
727	 5.51646008553462E-02 
728	 0.055167258069533 
729	 5.51509775355311E-02 
730	 5.51235892844331E-02 
731	 5.51129901638006E-02 
732	 5.51734184279729E-02 
733	 5.51833556697117E-02 
734	 5.51733930987949E-02 
735	 5.51976973101942E-02 
736	 5.52138194430855E-02 
737	 5.52386348725316E-02 
738	 5.52720370983836E-02 
739	 5.53043168676013E-02 
740	 5.53528963132523E-02 
741	 5.54033830381651E-02 
742	 5.54420007716725E-02 
743	 5.54611080702506E-02 
744	 5.55206950978427E-02 
745	 5.55974840767571E-02 
746	 5.56558992274212E-02 
747	 5.57007675371495E-02 
748	 5.57618300619671E-02 
749	 5.58361557475773E-02 
750	 5.59038319833011E-02 
751	 5.59799857007661E-02 
752	 5.60569840697622E-02 
753	 5.61344488541341E-02 
754	 5.62236402766102E-02 
755	 5.62964591857438E-02 
756	 5.63693494341075E-02 
757	 5.64581477781581E-02 
758	 5.65445610731926E-02 
759	 5.66387128849047E-02 
760	 5.67315010961751E-02 
761	 5.68114207897458E-02 
762	 5.69084892441359E-02 
763	 5.70265846130586E-02 
764	 5.71585439455633E-02 
765	 5.72885292923197E-02 
766	 5.74117466199843E-02 
767	 5.75143130467262E-02 
768	 5.76095990791395E-02 
769	 5.77802577988542E-02 
770	 5.79227138244587E-02 
771	 5.80433260676396E-02 
772	 5.81830910361157E-02 
773	 5.83358293145075E-02 
774	 5.84863397354598E-02 
775	 5.86332653369357E-02 
776	 5.87871856184048E-02 
777	 5.89475271899935E-02 
778	 5.91181593167463E-02 
779	 5.92920842780563E-02 
780	 5.94429714525133E-02 
781	 5.96053058278318E-02 
782	 5.97817022250373E-02 
783	 5.99632219745391E-02 
784	 0.060133424784386 
785	 6.03292962234009E-02 
786	 6.05415695821782E-02 
787	 6.07385840648577E-02 
788	 6.09430525992507E-02 
789	 6.11495432429268E-02 
790	 6.13494308452126E-02 
791	 6.15355291622681E-02 
792	 0.061758219196075 
793	 6.19919661159297E-02 
794	 0.062213107091902 
795	 6.24448761710505E-02 
796	 6.26605486570401E-02 
797	 6.28895704059138E-02 
798	 6.31569622257439E-02 
799	 0.063361543548908 
800	 0.063581809456556 
801	 0.063836201117706 
802	 6.40916494793286E-02 
803	 6.43591094953036E-02 
804	 6.46265928240573E-02 
805	 6.48855180556517E-02 
806	 6.51360112569628E-02 
807	 6.54208459462968E-02 
808	 6.57049144649126E-02 
809	 6.59622917847143E-02 
810	 6.62541709068417E-02 
811	 0.066564274398895 
812	 0.066866809220698 
813	 6.71432698071818E-02 
814	 6.74416900111288E-02 
815	 6.77630107915122E-02 
816	 6.80913602373942E-02 
817	 0.068401991715989 
818	 6.87204510843181E-02 
819	 6.90290546115696E-02 
820	 6.93339389433436E-02 
821	 6.96888249665523E-02 
822	 7.00420014944295E-02 
823	 7.03893354780161E-02 
824	 7.07364155158384E-02 
825	 7.10760531908263E-02 
826	 7.14197906447474E-02 
827	 7.17696739457291E-02 
828	 7.21292723606325E-02 
829	 7.25420298205381E-02 
830	 7.29493072733507E-02 
831	 7.33304124396538E-02 
832	 7.37061207954499E-02 
833	 7.40948056390074E-02 
834	 7.45041381239748E-02 
835	 7.49249904881611E-02 
836	 7.53283442800533E-02 
837	 7.57242330444076E-02 
838	 7.61191977831005E-02 
839	 7.65246817790982E-02 
840	 7.69697552813826E-02 
841	 7.74133766975171E-02 
842	 7.78436149643539E-02 
843	 7.82678236771171E-02 
844	 7.87145101829654E-02 
845	 7.91765280974808E-02 
846	 7.96407746548811E-02 
847	 8.00944363953616E-02 
848	 8.05575077696072E-02 
849	 8.10039643372575E-02 
850	 0.081448566359989 
851	 8.19554739997398E-02 
852	 8.24266558892545E-02 
853	 8.28881082619951E-02 
854	 8.33784992425982E-02 
855	 8.39088534142689E-02 
856	 8.43994538273559E-02 
857	 8.48717112461902E-02 
858	 8.53721739631977E-02 
859	 8.59077157436239E-02 
860	 0.086440205658026 
861	 8.69757202112077E-02 
862	 8.75344293147067E-02 
863	 8.80736629486255E-02 
864	 8.85961319492632E-02 
865	 8.91362831491582E-02 
866	 8.97379667976397E-02 
867	 9.02679786736298E-02 
868	 9.08367950138909E-02 
869	 9.14657926264029E-02 
870	 9.20150172154246E-02 
871	 9.25687615570414E-02 
872	 9.31567862458134E-02 
873	 9.37728453643405E-02 
874	 9.43569139445557E-02 
875	 9.49773745918465E-02 
876	 9.56068424682897E-02 
877	 0.096214323250394 
878	 9.68676892701619E-02 
879	 9.74931834887441E-02 
880	 9.81137525758351E-02 
881	 9.87775385616659E-02 
882	 9.93918536716111E-02 
883	 0.100019297824072 
884	 0.100684927223747 
885	 0.101371374234321 
886	 0.102018758777316 
887	 0.102679532752753 
888	 0.103367268222967 
889	 0.104037717550978 
890	 0.10472650767419 
891	 0.105431027007612 
892	 0.10612660526142 
893	 0.106765078930234 
894	 0.107495403839598 
895	 0.10825230913095 
896	 0.108960468853835 
897	 0.109667273213904 
898	 0.110417970337855 
899	 0.111185672664682 
900	 0.111914920185463 
901	 0.112541883393285 
902	 0.113265207358763 
903	 0.114076994524941 
904	 0.114861432975516 
905	 0.115577475539901 
906	 0.116304674081475 
907	 0.117084019783754 
908	 0.117902724806059 
909	 0.118636480559657 
910	 0.119375058677799 
911	 0.120155642852167 
912	 0.120942891232526 
913	 0.121785134370823 
914	 0.12262438955451 
915	 0.123437300994267 
916	 0.124269756828943 
917	 0.125117830402439 
918	 0.125936684324687 
919	 0.126733310571004 
920	 0.127622658036037 
921	 0.128441296943519 
922	 0.129264902123079 
923	 0.130163770612383 
924	 0.131029286125152 
925	 0.131947162546952 
926	 0.13283744757665 
927	 0.133647015810207 
928	 0.134596002522223 
929	 0.135480793111797 
930	 0.136367146389473 
931	 0.137367862343125 
932	 0.138274670483694 
933	 0.13922213404003 
934	 0.140200500214477 
935	 0.141140022380734 
936	 0.14213521100277 
937	 0.143122362299266 
938	 0.144073946815559 
939	 0.145010469846429 
940	 0.146048431545732 
941	 0.14700720230809 
942	 0.147906509222431 
943	 0.148932496918922 
944	 0.149935904026795 
945	 0.150963185290243 
946	 0.152012071172106 
947	 0.153014909214988 
948	 0.154010922290362 
949	 0.154989616163523 
950	 0.155948245310968 
951	 0.156906643631403 
952	 0.157948094032827 
953	 0.159001775769682 
954	 0.160022885916667 
955	 0.161048687134642 
956	 0.162004678268282 
957	 0.163006420511462 
958	 0.164078794745744 
959	 0.165034882490683 
960	 0.16599391856132 
961	 0.167024541409515 
962	 0.168124554099855 
963	 0.169181803668863 
964	 0.170192347945515 
965	 0.171146313098991 
966	 0.172090669528584 
967	 0.173184415907382 
968	 0.174288508951723 
969	 0.175400912088731 
970	 0.176517230529676 
971	 0.177526161009165 
972	 0.178599492813423 
973	 0.17967030225969 
974	 0.180681463870314 
975	 0.181824625886879 
976	 0.182848134902085 
977	 0.183868818431761 
978	 0.185012748583354 
979	 0.186048888727324 
980	 0.187153049648854 
981	 0.188318258281539 
982	 0.189467335630622 
983	 0.190515106011711 
984	 0.191590221394348 
985	 0.192738196935826 
986	 0.193930314384639 
987	 0.195011705431978 
988	 0.196155768047972 
989	 0.197317131724198 
990	 0.198414522161049 
991	 0.199537058674607 
992	 0.200635770474829 
993	 0.201776845892572 
994	 0.203008656145555 
995	 0.204193367433059 
996	 0.205295810929987 
997	 0.206346616651632 
998	 0.207429085553746 
999	 0.208684559943577 
1000	 0.209999823839981 
1001	 0.214415009558126 
1002	 0.21562034464663 
1003	 0.21685729839326 
1004	 0.218013629466975 
1005	 0.219132426855541 
1006	 0.220286010954397 
1007	 0.221370655737508 
1008	 0.222543942645081 
1009	 0.223771653776113 
1010	 0.225000021665662 
1011	 0.226296183861258 
1012	 0.227522518853934 
1013	 0.228741713936287 
1014	 0.229941574000547 
1015	 0.231081781851946 
1016	 0.232220391878209 
1017	 0.233467685274989 
1018	 0.234653139909108 
1019	 0.23588023550203 
1020	 0.237165734480965 
1021	 0.238381258594733 
1022	 0.23955469687052 
1023	 0.240763255938039 
1024	 0.241951287063262 
1025	 0.243173940622541 
1026	 0.24442852316653 
1027	 0.245663458912844 
1028	 0.246917191664642 
1029	 0.248154262058436 
1030	 0.249353037701975 
1031	 0.250606254033011 
1032	 0.251794256265975 
1033	 0.252975739126388 
1034	 0.254263555891934 
1035	 0.255491552058422 
1036	 0.256744121262089 
1037	 0.258088192824213 
1038	 0.25933880387448 
1039	 0.260511678853922 
1040	 0.261749009264757 
1041	 0.262969159001137 
1042	 0.264226451742068 
1043	 0.265537046320052 
1044	 0.266809905590736 
1045	 0.268098117485101 
1046	 0.269389836754019 
1047	 0.270587391941725 
1048	 0.2718453414928 
1049	 0.273100377809506 
1050	 0.274333813979963 
1051	 0.275707470127357 
1052	 0.277037903006541 
1053	 0.278350042993408 
1054	 0.279693236572261 
1055	 0.281006075888567 
1056	 0.282252195037663 
1057	 0.283553600395339 
1058	 0.284874816316901 
1059	 0.28617503213572 
1060	 0.287532580047331 
1061	 0.288848117331756 
1062	 0.290204083929288 
1063	 0.291584371023857 
1064	 0.292889881254125 
1065	 0.294230432943292 
1066	 0.295542391587282 
1067	 0.296851818366443 
1068	 0.298219665558222 
1069	 0.299528967054833 
1070	 0.300886250907373 
1071	 0.302280814721129 
1072	 0.303672356306995 
1073	 0.304959378199928 
1074	 0.306308698244718 
1075	 0.307627279783916 
1076	 0.308894262932158 
1077	 0.31025750430881 
1078	 0.311591924059888 
1079	 0.312954170397723 
1080	 0.314360859475893 
1081	 0.315681258498545 
1082	 0.317043046470426 
1083	 0.318364796872943 
1084	 0.31962428899786 
1085	 0.320940941041828 
1086	 0.322224421651361 
1087	 0.323472504394632 
1088	 0.324775342505086 
1089	 0.326118502926587 
1090	 0.327389570764839 
1091	 0.32872513997865 
1092	 0.330027656184064 
1093	 0.331296448764221 
1094	 0.332633468977734 
1095	 0.333931884631837 
1096	 0.335273707177822 
1097	 0.336612729528941 
1098	 0.337850759466952 
1099	 0.339120691854964 
1100	 0.340338913926742 
1101	 0.341544833336564 
1102	 0.342882669709221 
1103	 0.344156902652123 
1104	 0.345427474951977 
1105	 0.346700868660056 
1106	 0.347990150395576 
1107	 0.349153460622302 
1108	 0.35036978294801 
1109	 0.351610972008143 
1110	 0.352806190041908 
1111	 0.354086164018577 
1112	 0.355338466628374 
1113	 0.35658964431661 
1114	 0.357854678690211 
1115	 0.359007492900226 
1116	 0.360179376558912 
1117	 0.361333403582299 
1118	 0.362491461416283 
1119	 0.363664742009673 
1120	 0.364829533486437 
1121	 0.365974233253094 
1122	 0.367150306720282 
1123	 0.368346034379368 
1124	 0.369431111719156 
1125	 0.370528242548851 
1126	 0.371600380780536 
1127	 0.372647939436201 
1128	 0.373743931435821 
1129	 0.374802762869854 
1130	 0.375862958743433 
1131	 0.376892664590764 
1132	 0.377827814158135 
1133	 0.37878623561746 
1134	 0.379718643403658 
1135	 0.380629005145867 
1136	 0.381533909837946 
1137	 0.382403701086427 
1138	 0.38322633647918 
1139	 0.384063128516217 
1140	 0.384908355363575 
1141	 0.385668706305355 
1142	 0.386431282216711 
1143	 0.387196992559032 
1144	 0.387921950235813 
1145	 0.38866637274082 
1146	 0.389394944962774 
1147	 0.390118322134502 
1148	 0.390816435177822 
1149	 0.391461721685743 
1150	 0.392119316662388 
1151	 0.392728221222875 
1152	 0.393331933917856 
1153	 0.393914415761484 
1154	 0.394496736576731 
1155	 0.3950780908164 
1156	 0.395641886306196 
1157	 0.396188269113399 
1158	 0.396704827919352 
1159	 0.397208785179291 
1160	 0.397681570536251 
1161	 0.398117071551962 
1162	 0.398594791804309 
1163	 0.399044944941548 
1164	 0.399503985920018 
1165	 0.399999516808906 
1166	 0.400477863460626 
1167	 0.400986080847242 
1168	 0.401492734446422 
1169	 0.401987408285336 
1170	 0.402477954626324 
1171	 0.402971000674515 
1172	 0.403476576758917 
1173	 0.403945193257037 
1174	 0.404403305750421 
1175	 0.404835119838986 
1176	 0.405232825166675 
1177	 0.405618439775293 
1178	 0.405989935304751 
1179	 0.406358238254751 
1180	 0.40667135324661 
1181	 0.406985437522844 
1182	 0.407285181032754 
1183	 0.407545843267863 
1184	 0.407839367440745 
1185	 0.408140488451907 
1186	 0.40848390360332 
1187	 0.408850176636821 
1188	 0.409260904119893 
1189	 0.409714850143671 
1190	 0.410183467031634 
1191	 0.410680153981731 
1192	 0.411193301281216 
1193	 0.41172178128765 
1194	 0.41228087922522 
1195	 0.412881732620567 
1196	 0.413487642232896 
1197	 0.4140934603242 
1198	 0.414754271276375 
1199	 0.415461759851534 
1200	 0.416116052445859 
1201	 0.416833178364701 
1202	 0.417573786535238 
1203	 0.418288021050985 
1204	 0.41911073318957 
1205	 0.419979624270905 
1206	 0.420873348441488 
1207	 0.421898995011131 
1208	 0.422980220073763 
1209	 0.424196301836138 
1210	 0.425511426050693 
1211	 0.426962366545125 
1212	 0.428540581248747 
1213	 0.430250490985765 
1214	 0.432098709113073 
1215	 0.434060009635303 
1216	 0.436167269005233 
1217	 0.438328441737384 
1218	 0.440621647093281 
1219	 0.442954376180226 
1220	 0.445314336089956 
1221	 0.447859300433981 
1222	 0.450327955051625 
1223	 0.452850844542088 
1224	 0.455330359184504 
1225	 0.457813220266831 
1226	 0.460203787367506 
1227	 0.462576284912142 
1228	 0.464878356694528 
1229	 0.467130761857036 
1230	 0.469306245357612 
1231	 0.471420237214359 
1232	 0.473491952437903 
1233	 0.47548216559193 
1234	 0.477409681385496 
1235	 0.479293578537632 
1236	 0.481122164973944 
1237	 0.482876999052835 
1238	 0.484590327278544 
1239	 0.486232831521292 
1240	 0.487871469861125 
1241	 0.48952501793438 
1242	 0.491029517814928 
1243	 0.492563200984789 
1244	 0.494091489848191 
1245	 0.495585539401811 
1246	 0.497039041328129 
1247	 0.498480536399699 
1248	 0.499917771941243 
1249	 0.501313929696132 
1250	 0.502669627395347 
1251	 0.503999298725292 
1252	 0.505298954253797 
1253	 0.506589794111601 
1254	 0.507859538582819 
1255	 0.509114015688902 
1256	 0.510363778228049 
1257	 0.511587507937453 
1258	 0.512781364222477 
1259	 0.51395687410931 
1260	 0.515097599647048 
1261	 0.516249303165002 
1262	 0.517367367433043 
1263	 0.518537629447999 
1264	 0.51966783016836 
1265	 0.520803052963021 
1266	 0.521919203572966 
1267	 0.523018828769938 
1268	 0.524094492190054 
1269	 0.52515039760757 
1270	 0.52620926737985 
1271	 0.527236611201985 
1272	 0.528285773327131 
1273	 0.529344514204135 
1274	 0.530405620740299 
1275	 0.531476144687206 
1276	 0.532521705267209 
1277	 0.533547261391183 
1278	 0.534592716125611 
1279	 0.535635964893003 
1280	 0.536669577548145 
1281	 0.537701401439447 
1282	 0.538746908184952 
1283	 0.539787680417915 
1284	 0.540817486847726 
1285	 0.541847478318681 
1286	 0.542898928135736 
1287	 0.543916404978012 
1288	 0.544903966183106 
1289	 0.545903387577248 
1290	 0.5468901858942 
1291	 0.547900362099221 
1292	 0.548923135007326 
1293	 0.549921974704702 
1294	 0.550926642484144 
1295	 0.55191839684248 
1296	 0.552896560598699 
1297	 0.553853610551357 
1298	 0.554812844267689 
1299	 0.555740370215437 
1300	 0.556620817259862 
1301	 0.557511935233862 
1302	 0.55839222346251 
1303	 0.559270761793785 
1304	 0.560153212209357 
1305	 0.561017304228302 
1306	 0.561864327478699 
1307	 0.562712428065911 
1308	 0.563536765039015 
1309	 0.56438293117183 
1310	 0.565212146983363 
1311	 0.566043805744766 
1312	 0.566861940033533 
1313	 0.567667226423237 
1314	 0.568474299627035 
1315	 0.569291511686431 
1316	 0.570065388582131 
1317	 0.57082921561624 
1318	 0.571563457398018 
1319	 0.572259660681173 
1320	 0.57295002950424 
1321	 0.57362618249389 
1322	 0.574285250948533 
1323	 0.574931802842693 
1324	 0.575552601744363 
1325	 0.576156934918098 
1326	 0.576739177182839 
1327	 0.577296817433559 
1328	 0.577836058387573 
1329	 0.578368932129704 
1330	 0.578861470591906 
1331	 0.579321436083335 
1332	 0.579761474921171 
1333	 0.580165443691285 
1334	 0.580568033262394 
1335	 0.580912102216267 
1336	 0.581237560063767 
1337	 0.581500505218721 
1338	 0.58171084447986 
1339	 0.581886249903146 
1340	 0.582027138015059 
1341	 0.582114958683932 
1342	 0.58216099745862 
1343	 0.582157621005304 
1344	 0.582114228998176 
1345	 0.582008783925295 
1346	 0.581844728864725 
1347	 0.581650056805855 
1348	 0.581406870101723 
1349	 0.581122763429143 
1350	 0.580792093984835 
1351	 0.580441973074196 
1352	 0.580036407008932 
1353	 0.57963139062097 
1354	 0.579198916954225 
1355	 0.578778672567108 
1356	 0.578346781273878 
1357	 0.577919573790605 
1358	 0.577504522146362 
1359	 0.57708104037978 
1360	 0.576675087520554 
1361	 0.576231683104477 
1362	 0.575767396969047 
1363	 0.575292425232184 
1364	 0.574734585833258 
1365	 0.574141713819804 
1366	 0.573453154779624 
1367	 0.572698327648093 
1368	 0.571873239579358 
1369	 0.570979112579742 
1370	 0.570003687918004 
1371	 0.568943579984118 
1372	 0.567861778118924 
1373	 0.566711546459559 
1374	 0.565519885781874 
1375	 0.564286765817932 
1376	 0.563009325469641 
1377	 0.561671117378692 
1378	 0.56028693356638 
1379	 0.558855430849364 
1380	 0.557400173501274 
1381	 0.555892687200262 
1382	 0.554355825795111 
1383	 0.552763161334653 
1384	 0.55120011477869 
1385	 0.549579225028747 
1386	 0.548035699754418 
1387	 0.546486974022303 
1388	 0.545071541107871 
1389	 0.543730987513631 
1390	 0.542466109918013 
1391	 0.541355100839181 
1392	 0.540224004543938 
1393	 0.539207301650075 
1394	 0.538163688306298 
1395	 0.537035693767765 
1396	 0.535967065783554 
1397	 0.534641499712926 
1398	 0.533231405374058 
1399	 0.531560955301878 
1400	 0.529724592177971 
1401	 0.527655639812738 
1402	 0.525395104523574 
1403	 0.52286670504406 
1404	 0.520067118362845 
1405	 0.517180772528677 
1406	 0.513982150456889 
1407	 0.51087158263716 
1408	 0.507548232226755 
1409	 0.504499467096909 
1410	 0.501345049758714 
1411	 0.498633084393013 
1412	 0.496104737282287 
1413	 0.493983662163082 
1414	 0.492228053382963 
1415	 0.490711673495931 
1416	 0.489622993532567 
1417	 0.488594166542127 
1418	 0.487854850880982 
1419	 0.487111103441355 
1420	 0.486506445508585 
1421	 0.485907313224639 
1422	 0.485350275758201 
1423	 0.484822676565519 
1424	 0.484335325848137 
1425	 0.483857587089948 
1426	 0.483438355455265 
1427	 0.48307033696978 
1428	 0.482755427005357 
1429	 0.482523060994876 
1430	 0.482362096974533 
1431	 0.482261317911919 
1432	 0.482253620900888 
1433	 0.482323719285786 
1434	 0.482485669236416 
1435	 0.482729556726254 
1436	 0.48306524092959 
1437	 0.483507428665516 
1438	 0.483992475199676 
1439	 0.48456811185387 
1440	 0.485170369437632 
1441	 0.485840108955879 
1442	 0.486523138349889 
1443	 0.487245704316946 
1444	 0.487999319743861 
1445	 0.488784191568904 
1446	 0.48958853526726 
1447	 0.490439131942653 
1448	 0.491286398110354 
1449	 0.492163433280731 
1450	 0.493025472804092 
1451	 0.493882448475924 
1452	 0.494756838062256 
1453	 0.49564929575222 
1454	 0.496508893603456 
1455	 0.497361501385838 
1456	 0.498220625552482 
1457	 0.499058456316908 
1458	 0.499904248596701 
1459	 0.500755622918183 
1460	 0.501623944725444 
1461	 0.502479403821103 
1462	 0.503359360362412 
1463	 0.504272935951978 
1464	 0.505192121704267 
1465	 0.506104724007897 
1466	 0.507073814273092 
1467	 0.507998123103884 
1468	 0.508957981802182 
1469	 0.509933582610712 
1470	 0.51084036384741 
1471	 0.511768848288361 
1472	 0.512701419702249 
1473	 0.513620547872179 
1474	 0.5145429130877 
1475	 0.515412034059139 
1476	 0.516272784967234 
1477	 0.517082443894086 
1478	 0.51784185614109 
1479	 0.518563278331362 
1480	 0.519246141055855 
1481	 0.519909070380494 
1482	 0.520521103581071 
1483	 0.521134626879175 
1484	 0.521735047557276 
1485	 0.522324298907505 
1486	 0.522892171268081 
1487	 0.523448622277797 
1488	 0.523984604313574 
1489	 0.524534188189481 
1490	 0.525064264249529 
1491	 0.525621951614049 
1492	 0.526188771252498 
1493	 0.526783715276488 
1494	 0.527395088660437 
1495	 0.528020980601085 
1496	 0.528672443004433 
1497	 0.529338107055873 
1498	 0.530028048511481 
1499	 0.530712583879811 
1500	 0.531409176592384 
1501	 0.53211195639415 
1502	 0.532816343024239 
1503	 0.533518997534233 
1504	 0.534226474607113 
1505	 0.534944121378733 
1506	 0.535660148062493 
1507	 0.536385316477766 
1508	 0.537133495810764 
1509	 0.537872328973618 
1510	 0.538607866426348 
1511	 0.539340040292476 
1512	 0.540067985587296 
1513	 0.540799443435336 
1514	 0.541539315565266 
1515	 0.542266042337694 
1516	 0.542979639801457 
1517	 0.543703632509485 
1518	 0.544437986367847 
1519	 0.545146714940854 
1520	 0.54584786601617 
1521	 0.546542949288929 
1522	 0.547219940174201 
1523	 0.547935975930216 
1524	 0.548636314959436 
1525	 0.549357234706656 
1526	 0.550065716456215 
1527	 0.550760529013384 
1528	 0.551458176455404 
1529	 0.552165213663886 
1530	 0.552861729609253 
1531	 0.553535318280379 
1532	 0.554251925613493 
1533	 0.554983646040102 
1534	 0.555726349889015 
1535	 0.556500590290246 
1536	 0.557247509103352 
1537	 0.558000691827633 
1538	 0.558726386986294 
1539	 0.559434069552622 
1540	 0.560139810209878 
1541	 0.560834497285787 
1542	 0.561516714875459 
1543	 0.562211543262561 
1544	 0.562840927372001 
1545	 0.563446587823092 
1546	 0.563997835797227 
1547	 0.564506596818469 
1548	 0.564958947094534 
1549	 0.565342085823389 
1550	 0.565731118719662 
1551	 0.56606217857529 
1552	 0.566417955912546 
1553	 0.566788992223195 
1554	 0.567128031146924 
1555	 0.567436329694213 
1556	 0.56776819716492 
1557	 0.568088138178641 
1558	 0.568426135611399 
1559	 0.568779854369399 
1560	 0.569142007227695 
1561	 0.569494054812473 
1562	 0.569890757852184 
1563	 0.570316554359724 
1564	 0.57075793435434 
1565	 0.571233097423548 
1566	 0.571712084394748 
1567	 0.572208651072361 
1568	 0.572707734168213 
1569	 0.573224336942404 
1570	 0.573734203640147 
1571	 0.574237986835768 
1572	 0.574757327456591 
1573	 0.575285629569645 
1574	 0.575813787909814 
1575	 0.576361863029286 
1576	 0.576891265214325 
1577	 0.577407491441222 
1578	 0.577929207044725 
1579	 0.578459592940212 
1580	 0.578962878905694 
1581	 0.579452253624535 
1582	 0.579941846344936 
1583	 0.580413359603824 
1584	 0.580882658732465 
1585	 0.581352368810731 
1586	 0.581820873976074 
1587	 0.582281670639219 
1588	 0.582735343023266 
1589	 0.583184388870364 
1590	 0.583639522801028 
1591	 0.584081873919432 
1592	 0.58453797992135 
1593	 0.584998316830811 
1594	 0.585479109555083 
1595	 0.585990258224357 
1596	 0.586473520038303 
1597	 0.586971607490479 
1598	 0.587444140569789 
1599	 0.587890801880245 
1600	 0.588324704842304 
1601	 0.588756463231817 
1602	 0.589158035169287 
1603	 0.589526717408544 
1604	 0.589885150850005 
1605	 0.590222573987265 
1606	 0.590548115739997 
1607	 0.590863343381985 
1608	 0.591161126404823 
1609	 0.591424530877278 
1610	 0.591704733149088 
1611	 0.592002710786591 
1612	 0.592256378589637 
1613	 0.592514573806646 
1614	 0.592728634594491 
1615	 0.592896896041642 
1616	 0.593034868046426 
1617	 0.593144687061502 
1618	 0.593222435946833 
1619	 0.593247137394083 
1620	 0.59326771785663 
1621	 0.593265412553791 
1622	 0.593251708987847 
1623	 0.59322477843122 
1624	 0.593181247146828 
1625	 0.593128743221457 
1626	 0.593046460110169 
1627	 0.592939464178906 
1628	 0.592818502845197 
1629	 0.592671319452104 
1630	 0.592512684122455 
1631	 0.592323147970223 
1632	 0.592147005944724 
1633	 0.591954594768291 
1634	 0.591780034205829 
1635	 0.591631772338704 
1636	 0.591470313963004 
1637	 0.59133934726888 
1638	 0.591150581849365 
1639	 0.590940814750302 
1640	 0.590689023328329 
1641	 0.590401928930797 
1642	 0.5900606088681 
1643	 0.589689289716489 
1644	 0.589257038821436 
1645	 0.588751355028381 
1646	 0.588219665956312 
1647	 0.587646919392238 
1648	 0.587018213347348 
1649	 0.586344857121061 
1650	 0.585627199770371 
1651	 0.584863758284507 
1652	 0.584049473395279 
1653	 0.583238500956531 
1654	 0.582281809323692 
1655	 0.581247568507058 
1656	 0.580077513090579 
1657	 0.578788285352236 
1658	 0.57735974252209 
1659	 0.575794410519909 
1660	 0.574136993803726 
1661	 0.57237465129771 
1662	 0.570454756333703 
1663	 0.568391507441634 
1664	 0.566208515601889 
1665	 0.563880433115951 
1666	 0.561402380486127 
1667	 0.558814684231435 
1668	 0.556102150862777 
1669	 0.553243797055145 
1670	 0.55023346915987 
1671	 0.547087528120443 
1672	 0.543773924399353 
1673	 0.540292788564913 
1674	 0.536643395822035 
1675	 0.532843050187993 
1676	 0.528952884546323 
1677	 0.52490212033984 
1678	 0.520736020217923 
1679	 0.516389676679856 
1680	 0.512009351138663 
1681	 0.507512238513336 
1682	 0.502942578433846 
1683	 0.498320376614159 
1684	 0.493718246936212 
1685	 0.489001436704489 
1686	 0.484335806110045 
1687	 0.479650714920621 
1688	 0.475002162853124 
1689	 0.470368578518176 
1690	 0.465726872367304 
1691	 0.461165405111842 
1692	 0.456617563578333 
1693	 0.452076800385715 
1694	 0.447487198904608 
1695	 0.44289087287431 
1696	 0.438215756195858 
1697	 0.433472906052661 
1698	 0.428667852062496 
1699	 0.423812813647955 
1700	 0.419088649149347 
1701	 0.414263411668244 
1702	 0.409701159891209 
1703	 0.405215518436428 
1704	 0.400982515564798 
1705	 0.396901326582645 
1706	 0.39300775403447 
1707	 0.389594031554917 
1708	 0.386333975709596 
1709	 0.383272400264043 
1710	 0.380442003471766 
1711	 0.377609783400221 
1712	 0.374993145809344 
1713	 0.372461030701982 
1714	 0.369990364727311 
1715	 0.367811258757151 
1716	 0.365644807094862 
1717	 0.363612791215517 
1718	 0.361818877925625 
1719	 0.36009140730967 
1720	 0.358590652327056 
1721	 0.357355695167569 
1722	 0.356366147768158 
1723	 0.355735772390404 
1724	 0.355460727689659 
1725	 0.355534128580514 
1726	 0.35607230523943 
1727	 0.357082962690226 
1728	 0.358502829544567 
1729	 0.360443592226749 
1730	 0.362843289681643 
1731	 0.365410385083846 
1732	 0.368355967042523 
1733	 0.371396866993818 
1734	 0.374419021396778 
1735	 0.377562970139724 
1736	 0.380437801433547 
1737	 0.38307756100012 
1738	 0.385434591272934 
1739	 0.387334214829462 
1740	 0.38889010324316 
1741	 0.390079593598181 
1742	 0.390795292626526 
1743	 0.391315957365116 
1744	 0.391470363498078 
1745	 0.391469637720414 
1746	 0.391135421585076 
1747	 0.39078613913112 
1748	 0.390222060318069 
1749	 0.389720040276893 
1750	 0.389114923347159 
1751	 0.388648893935413 
1752	 0.38817514886655 
1753	 0.387872753806207 
1754	 0.387624069524982 
1755	 0.387656724266698 
1756	 0.387820680832991 
1757	 0.388279844149916 
1758	 0.389062124587474 
1759	 0.390031577304254 
1760	 0.391350859373582 
1761	 0.393053116887401 
1762	 0.394923719680119 
1763	 0.39717761430881 
1764	 0.399651143928733 
1765	 0.402318126126345 
1766	 0.405357267007011 
1767	 0.408405300207916 
1768	 0.411584176746738 
1769	 0.41481565876833 
1770	 0.417757945066637 
1771	 0.420697567095003 
1772	 0.423501353657239 
1773	 0.426096620923428 
1774	 0.428708938442155 
1775	 0.4310876164821 
1776	 0.433314081298986 
1777	 0.435395566056763 
1778	 0.437201921748626 
1779	 0.438945937467909 
1780	 0.440557527246704 
1781	 0.442000713281413 
1782	 0.443383848457621 
1783	 0.444584612660275 
1784	 0.445657355184076 
1785	 0.446557302750744 
1786	 0.447390607610495 
1787	 0.448108286364784 
1788	 0.448784260527571 
1789	 0.449381215860767 
1790	 0.449941411623712 
1791	 0.450429960597995 
1792	 0.450910974361226 
1793	 0.451332032493113 
1794	 0.451764833772319 
1795	 0.452208934657139 
1796	 0.452643376595903 
1797	 0.453042032298397 
1798	 0.453461429703537 
1799	 0.453902309343331 
1800	 0.454345913238108 
1801	 0.454503365451692 
1802	 0.4548963550272 
1803	 0.455312475272514 
1804	 0.455738174816959 
1805	 0.456193730437279 
1806	 0.456629257826114 
1807	 0.457075757510922 
1808	 0.457504128289196 
1809	 0.457928271389994 
1810	 0.458340183893681 
1811	 0.458718293631917 
1812	 0.459136876068835 
1813	 0.459543379893783 
1814	 0.460003580128321 
1815	 0.460471190647813 
1816	 0.460968495843665 
1817	 0.4614889108539 
1818	 0.46203302812828 
1819	 0.462572078181063 
1820	 0.463121640980396 
1821	 0.463703268896976 
1822	 0.464288810011777 
1823	 0.464920691483058 
1824	 0.465551534852024 
1825	 0.466192896299516 
1826	 0.466791371038974 
1827	 0.467349948444812 
1828	 0.467916032594983 
1829	 0.468459911758993 
1830	 0.469021980936228 
1831	 0.469582595638799 
1832	 0.470162109756641 
1833	 0.470715457039701 
1834	 0.471290981280171 
1835	 0.471875220672631 
1836	 0.472435697986361 
1837	 0.473006977825171 
1838	 0.473587339293316 
1839	 0.474170374250619 
1840	 0.474755794267708 
1841	 0.475337110623508 
1842	 0.475930848353435 
1843	 0.476519698515232 
1844	 0.477084407648201 
1845	 0.477605153548219 
1846	 0.478119271129157 
1847	 0.47860323351971 
1848	 0.479056428082337 
1849	 0.479506266068972 
1850	 0.479885552173592 
1851	 0.480228021607237 
1852	 0.480517738745623 
1853	 0.48074173235573 
1854	 0.480909055386849 
1855	 0.481027421795082 
1856	 0.481086389354634 
1857	 0.481075793123248 
1858	 0.480999198694243 
1859	 0.480870372082035 
1860	 0.480692008878278 
1861	 0.480424176010045 
1862	 0.480095953375639 
1863	 0.479704282787891 
1864	 0.479191102836197 
1865	 0.478638659627598 
1866	 0.478016207484629 
1867	 0.477261925216799 
1868	 0.476467729202333 
1869	 0.47553533192635 
1870	 0.474470334671425 
1871	 0.473302808753936 
1872	 0.47202030151706 
1873	 0.470613526360017 
1874	 0.469110654222837 
1875	 0.467478608109617 
1876	 0.465612642018265 
1877	 0.463659760434625 
1878	 0.461448491917149 
1879	 0.459001685461172 
1880	 0.456530690478634 
1881	 0.453792280298384 
1882	 0.450810873694472 
1883	 0.447686054230865 
1884	 0.444327252654238 
1885	 0.440504859168058 
1886	 0.436539900998404 
1887	 0.432228169059061 
1888	 0.427542884830204 
1889	 0.423014306128835 
1890	 0.418217255241675 
1891	 0.413384119230981 
1892	 0.408625508021483 
1893	 0.403727409751351 
1894	 0.398620321142014 
1895	 0.393725638295399 
1896	 0.388778987025376 
1897	 0.383868651540455 
1898	 0.379419158122345 
1899	 0.374960130579804 
1900	 0.370678286334546 
1901	 0.366653503935113 
1902	 0.362476638452515 
1903	 0.358579816871794 
1904	 0.354843393596102 
1905	 0.351224937472496 
1906	 0.347742335435492 
1907	 0.344696482242843 
1908	 0.341682127648469 
1909	 0.338807772087538 
1910	 0.336180702144416 
1911	 0.333522330348439 
1912	 0.33104072907593 
1913	 0.328678515975088 
1914	 0.326362805513082 
1915	 0.32424073061679 
1916	 0.322318504038538 
1917	 0.320428737544242 
1918	 0.318641682875041 
1919	 0.316986983885397 
1920	 0.315298508865852 
1921	 0.313736299590726 
1922	 0.312240216661635 
1923	 0.310782121994128 
1924	 0.309510374354089 
1925	 0.308282480009042 
1926	 0.307151911655861 
1927	 0.306150320032745 
1928	 0.305194824956253 
1929	 0.304287407859154 
1930	 0.303497180256906 
1931	 0.302788545140262 
1932	 0.302159493464522 
1933	 0.301682194681413 
1934	 0.30128520379286 
1935	 0.300960904871961 
1936	 0.300744590452247 
1937	 0.300605177554228 
1938	 0.300547796420522 
1939	 0.300572453591583 
1940	 0.300686560602092 
1941	 0.300882275429118 
1942	 0.301139040651739 
1943	 0.301456499711327 
1944	 0.301824292091542 
1945	 0.302247467225885 
1946	 0.302757574907413 
1947	 0.303308737836178 
1948	 0.303940260427702 
1949	 0.304646253521285 
1950	 0.305344125270936 
1951	 0.306074624031484 
1952	 0.306834671458852 
1953	 0.307612165610109 
1954	 0.308402230760085 
1955	 0.309280275125559 
1956	 0.310127052517774 
1957	 0.311002568560879 
1958	 0.311897016366697 
1959	 0.312719437530019 
1960	 0.31358096896161 
1961	 0.31444103363893 
1962	 0.315283288199015 
1963	 0.316148323760421 
1964	 0.317050462205412 
1965	 0.317910632437129 
1966	 0.31877182773674 
1967	 0.319622051118141 
1968	 0.32039708668011 
1969	 0.321217023657655 
1970	 0.322007016230322 
1971	 0.322774526176825 
1972	 0.323594425581976 
1973	 0.324365014693027 
1974	 0.325153136496653 
1975	 0.325970284751118 
1976	 0.326741638959628 
1977	 0.327501344870856 
1978	 0.328248831248981 
1979	 0.328966406770845 
1980	 0.329659820828905 
1981	 0.330411516836875 
1982	 0.331114357264476 
1983	 0.331822914331716 
1984	 0.332556813154301 
1985	 0.333214549606085 
1986	 0.333862828008699 
1987	 0.334492925172602 
1988	 0.33507926541906 
1989	 0.335685871904625 
1990	 0.336311690601959 
1991	 0.336887146835448 
1992	 0.337452492148422 
1993	 0.337999597974417 
1994	 0.3384735176992 
1995	 0.338946870132402 
1996	 0.339415874675981 
1997	 0.339864583692399 
1998	 0.340317951041371 
1999	 0.340775101874712 
2000	 0.341203707682195 
2001	 0.341636871483633 
2002	 0.342027244881593 
2003	 0.342392436466198 
2004	 0.342726751234082 
2005	 0.343025506484727 
2006	 0.34330185432638 
2007	 0.343556170630158 
2008	 0.343776115428605 
2009	 0.343962131891128 
2010	 0.344131763062804 
2011	 0.344252269508332 
2012	 0.344320911905025 
2013	 0.344341039067043 
2014	 0.34433066809921 
2015	 0.344231693652989 
2016	 0.344074698875603 
2017	 0.343849140956638 
2018	 0.343536960752137 
2019	 0.343179603465215 
2020	 0.342775803559418 
2021	 0.342287596744512 
2022	 0.341745010521431 
2023	 0.341136245092987 
2024	 0.34042862352728 
2025	 0.339682449053402 
2026	 0.338880143702813 
2027	 0.33797512768535 
2028	 0.337101575376638 
2029	 0.336181733783009 
2030	 0.335278943574482 
2031	 0.33437907583533 
2032	 0.333479513726544 
2033	 0.332521811311561 
2034	 0.331661668483208 
2035	 0.330818159620421 
2036	 0.330023977706966 
2037	 0.329364843429088 
2038	 0.328771717373501 
2039	 0.328247485727485 
2040	 0.327812980872164 
2041	 0.327434912598373 
2042	 0.327115444661594 
2043	 0.326879689596029 
2044	 0.326725771153339 
2045	 0.326625228564921 
2046	 0.326607615235044 
2047	 0.326630913463381 
2048	 0.326718237562374 
2049	 0.326850683427244 
2050	 0.327041513156671 
2051	 0.327280086718371 
2052	 0.327548491846504 
2053	 0.327836986029378 
2054	 0.328137261244574 
2055	 0.328448325084859 
2056	 0.328795232211375 
2057	 0.329166593384534 
2058	 0.329561087528526 
2059	 0.329997484690692 
2060	 0.330428016262392 
2061	 0.330894794983122 
2062	 0.331333452489797 
2063	 0.331767095287212 
2064	 0.332198234721236 
2065	 0.332622068609807 
2066	 0.333024080009128 
2067	 0.333464749098792 
2068	 0.333888676505579 
2069	 0.334280724792391 
2070	 0.334675091126297 
2071	 0.335020751818542 
2072	 0.335310932686672 
2073	 0.335614065841963 
2074	 0.335903114966901 
2075	 0.336171068614464 
2076	 0.336438527458839 
2077	 0.336667447132612 
2078	 0.336862116803286 
2079	 0.337046945298568 
2080	 0.337198900915452 
2081	 0.337347878838708 
2082	 0.337502449088713 
2083	 0.33761360306207 
2084	 0.337709703411317 
2085	 0.337792488312759 
2086	 0.337844990114993 
2087	 0.337858150035302 
2088	 0.337878444713818 
2089	 0.337884676008985 
2090	 0.337878209660622 
2091	 0.337870073011123 
2092	 0.337835599299551 
2093	 0.33778122748437 
2094	 0.337709565234819 
2095	 0.337633161617757 
2096	 0.337514004087241 
2097	 0.337376271290756 
2098	 0.337194884364209 
2099	 0.33696246087464 
2100	 0.336711235654376 
2101	 0.336419029752165 
2102	 0.336087445481237 
2103	 0.335726380605345 
2104	 0.335319182556333 
2105	 0.334906846146467 
2106	 0.334472806873517 
2107	 0.334007054202095 
2108	 0.333540899752261 
2109	 0.33301063494445 
2110	 0.332416409534483 
2111	 0.331816800610468 
2112	 0.331161896713185 
2113	 0.330514829086953 
2114	 0.329852489594505 
2115	 0.329188553151814 
2116	 0.328509350687699 
2117	 0.327840474764342 
2118	 0.327180265568946 
2119	 0.326517631185741 
2120	 0.325887787518942 
2121	 0.325257502851184 
2122	 0.324679570235589 
2123	 0.324130424656328 
2124	 0.323614330037779 
2125	 0.323151244941343 
2126	 0.322692432756738 
2127	 0.322255665552318 
2128	 0.321844145393735 
2129	 0.321462832006568 
2130	 0.321083614258546 
2131	 0.320752955202426 
2132	 0.320381551332623 
2133	 0.319987545459485 
2134	 0.31961271064618 
2135	 0.319200261732368 
2136	 0.318771010931304 
2137	 0.318319121590184 
2138	 0.317829597413749 
2139	 0.317375247304086 
2140	 0.316900827731789 
2141	 0.316461895283378 
2142	 0.316051610407266 
2143	 0.315649808727148 
2144	 0.315237444494665 
2145	 0.314888504041033 
2146	 0.314568570543759 
2147	 0.314290347210692 
2148	 0.314062873331991 
2149	 0.313860408052348 
2150	 0.313723570786346 
2151	 0.313567288028232 
2152	 0.313436900108611 
2153	 0.313300468996216 
2154	 0.313158493382517 
2155	 0.312971440097107 
2156	 0.312783941828368 
2157	 0.312599204033393 
2158	 0.312358586281504 
2159	 0.312089764093625 
2160	 0.311792613895856 
2161	 0.311435417462253 
2162	 0.31111059578863 
2163	 0.310772955339116 
2164	 0.310436099454451 
2165	 0.310090475018459 
2166	 0.309768266744072 
2167	 0.309445274013865 
2168	 0.309141124882375 
2169	 0.3088310491139 
2170	 0.308586550336417 
2171	 0.308358468663486 
2172	 0.308183276893821 
2173	 0.308070440264434 
2174	 0.308000553042224 
2175	 0.307956727298394 
2176	 0.307954923297425 
2177	 0.307997524583632 
2178	 0.308090296664252 
2179	 0.308211793755379 
2180	 0.308394463228955 
2181	 0.308549843055292 
2182	 0.308728936964722 
2183	 0.308908129188262 
2184	 0.309073354622172 
2185	 0.309268895455423 
2186	 0.309499980558231 
2187	 0.309712464444709 
2188	 0.309925649937723 
2189	 0.310149821351762 
2190	 0.310386152568017 
2191	 0.310606296302067 
2192	 0.310843680006112 
2193	 0.311048657713518 
2194	 0.31124095948427 
2195	 0.311400654889611 
2196	 0.311526404038238 
2197	 0.311643980926886 
2198	 0.311747684624446 
2199	 0.311824602121384 
2200	 0.311879314225371 
2201	 0.311935282976599 
2202	 0.311924466955758 
2203	 0.311864210127397 
2204	 0.311783085864866 
2205	 0.311643311675695 
2206	 0.311525941391099 
2207	 0.311419209880558 
2208	 0.311244999913125 
2209	 0.311059748670157 
2210	 0.310820221035421 
2211	 0.310512712822466 
2212	 0.310184191765658 
2213	 0.309818595522485 
2214	 0.309430860443157 
2215	 0.309021676109443 
2216	 0.30855474468836 
2217	 0.308075779133156 
2218	 0.307525486920515 
2219	 0.306914584932846 
2220	 0.306240095843799 
2221	 0.305520227455692 
2222	 0.304694629166252 
2223	 0.30387322161968 
2224	 0.302952544688101 
2225	 0.301955113743225 
2226	 0.300915479515795 
2227	 0.299714101103114 
2228	 0.298389829492557 
2229	 0.296955096091639 
2230	 0.29537919472383 
2231	 0.293741472484346 
2232	 0.292008345416838 
2233	 0.290146668923982 
2234	 0.28826591798421 
2235	 0.286092195984736 
2236	 0.283709802774644 
2237	 0.281203435345698 
2238	 0.278427743269263 
2239	 0.275615798599972 
2240	 0.27274492561051 
2241	 0.269663758276069 
2242	 0.266483434623338 
2243	 0.263073253869086 
2244	 0.259394831499403 
2245	 0.255659055444065 
2246	 0.251596086738406 
2247	 0.247673211004506 
2248	 0.243763641966067 
2249	 0.239794852698661 
2250	 0.235822722524681 
2251	 0.231926262387972 
2252	 0.227709713883043 
2253	 0.22365007615647 
2254	 0.219620981728801 
2255	 0.21560946787109 
2256	 0.212005726789629 
2257	 0.208451421958446 
2258	 0.205070931138308 
2259	 0.201944091903575 
2260	 0.198773075942924 
2261	 0.195645043285559 
2262	 0.192706391845448 
2263	 0.189798430246402 
2264	 0.187144208156903 
2265	 0.184771009715769 
2266	 0.182361768488541 
2267	 0.180129414735726 
2268	 0.177862922704081 
2269	 0.175596948996976 
2270	 0.173429642853124 
2271	 0.171284464590264 
2272	 0.169253394959749 
2273	 0.167365950103499 
2274	 0.165449046821103 
2275	 0.163675932694945 
2276	 0.16178164543002 
2277	 0.159846169982616 
2278	 0.157886842985667 
2279	 0.155808920786157 
2280	 0.153800270531762 
2281	 0.151860667353288 
2282	 0.149825174381775 
2283	 0.147768030140348 
2284	 0.145722744655997 
2285	 0.143501599132694 
2286	 0.141320573073419 
2287	 0.139099936214834 
2288	 0.136823056217341 
2289	 0.134631126594229 
2290	 0.132318981425117 
2291	 0.130018676372013 
2292	 0.127749775874995 
2293	 0.125352954731141 
2294	 0.123060714379131 
2295	 0.120830854697622 
2296	 0.118636273674089 
2297	 0.116721178714509 
2298	 0.114969282459492 
2299	 0.113436496288162 
2300	 0.112113232841276 
2301	 0.111055776903759 
2302	 0.110181386450723 
2303	 0.109682315526905 
2304	 0.109515726393805 
2305	 0.109592613588778 
2306	 0.109997341824029 
2307	 0.110652941694596 
2308	 0.111543495223328 
2309	 0.112807733464361 
2310	 0.114539819909055 
2311	 0.116294127497436 
2312	 0.118488176278569 
2313	 0.120469564237687 
2314	 0.122506233820978 
2315	 0.124463509941452 
2316	 0.12641826551124 
2317	 0.12822225896756 
2318	 0.130057758836498 
2319	 0.131547781160114 
2320	 0.13284560036538 
2321	 0.13391467249667 
2322	 0.134666121374865 
2323	 0.135299867218906 
2324	 0.135746697177445 
2325	 0.135989851538738 
2326	 0.136003581141689 
2327	 0.135886976873424 
2328	 0.135565255304169 
2329	 0.135114726481558 
2330	 0.134527529413148 
2331	 0.133745366542956 
2332	 0.132845963297275 
2333	 0.131736037236025 
2334	 0.130433914085559 
2335	 0.129061457278524 
2336	 0.127479078806342 
2337	 0.12581759025956 
2338	 0.124261110327022 
2339	 0.122632336090912 
2340	 0.121078030941788 
2341	 0.119641082400671 
2342	 0.118225116933196 
2343	 0.117020163336413 
2344	 0.116092785102749 
2345	 0.115489030422036 
2346	 0.115221417903785 
2347	 0.11528675908419 
2348	 0.115644127807648 
2349	 0.116415439190615 
2350	 0.117496038196674 
2351	 0.118786358963119 
2352	 0.120301864687075 
2353	 0.121849085522132 
2354	 0.123290186558109 
2355	 0.124789392773104 
2356	 0.126174474736727 
2357	 0.127312373955102 
2358	 0.128444366040253 
2359	 0.129361309219768 
2360	 0.130028339064335 
2361	 0.130530907607006 
2362	 0.130849154596877 
2363	 0.131068183017565 
2364	 0.131307000059017 
2365	 0.131493298657672 
2366	 0.131555155576479 
2367	 0.131600063383417 
2368	 0.131620989785184 
2369	 0.131663557946465 
2370	 0.131753111701923 
2371	 0.131804931757245 
2372	 0.131882023470817 
2373	 0.132018390591903 
2374	 0.132129874729631 
2375	 0.132271425156088 
2376	 0.132398088589501 
2377	 0.132469023200479 
2378	 0.132647278281122 
2379	 0.132865831003611 
2380	 0.13307512019087 
2381	 0.133303577175156 
2382	 0.133486533088884 
2383	 0.133618775973041 
2384	 0.133792281231805 
2385	 0.133961811981615 
2386	 0.13415872025866 
2387	 0.134375548950482 
2388	 0.134566705311679 
2389	 0.13476623718111 
2390	 0.1349371275251 
2391	 0.135089038517522 
2392	 0.135277197391822 
2393	 0.135461221635382 
2394	 0.135655615110827 
2395	 0.135897879035897 
2396	 0.136050230312416 
2397	 0.136156536053919 
2398	 0.136270367314924 
2399	 0.136312703526047 
2400	 0.136453181568262 
2401	 0.136661481056816 
2402	 0.136829388666575 
2403	 0.13699823282174 
2404	 0.137111385338051 
2405	 0.137176811931467 
2406	 0.1372916403974 
2407	 0.137438791388406 
2408	 0.137638172141885 
2409	 0.137814807397637 
2410	 0.13789851997422 
2411	 0.138016202001255 
2412	 0.138070063108801 
2413	 0.138145012491746 
2414	 0.138338258467675 
2415	 0.138468146940199 
2416	 0.138604529442376 
2417	 0.138812201161431 
2418	 0.138991735579186 
2419	 0.139112955243297 
2420	 0.139171348860024 
2421	 0.139204150473495 
2422	 0.139227679744898 
2423	 0.139277815826198 
2424	 0.139467347676776 
2425	 0.139699295231083 
2426	 0.139795998741114 
2427	 0.139865957149922 
2428	 0.139969867449984 
2429	 0.139949750574776 
2430	 0.139963334539058 
2431	 0.140072406009368 
2432	 0.140064749131903 
2433	 0.140104093078557 
2434	 0.140183488633327 
2435	 0.140080102839192 
2436	 0.13989145159493 
2437	 0.139696702761565 
2438	 0.139468460460097 
2439	 0.139237452215791 
2440	 0.139004172689091 
2441	 0.138755567941241 
2442	 0.138462455495436 
2443	 0.138207791709854 
2444	 0.138049260637488 
2445	 0.137797170996999 
2446	 0.137531650526344 
2447	 0.13732129503288 
2448	 0.136950407889792 
2449	 0.136559175336658 
2450	 0.136211158975339 
2451	 0.135682146323521 
2452	 0.135207886364865 
2453	 0.134818825541281 
2454	 0.134296658339372 
2455	 0.133827255459794 
2456	 0.133382280955426 
2457	 0.132942065157084 
2458	 0.132652527950886 
2459	 0.132420217579797 
2460	 0.132237720824259 
2461	 0.131995185327846 
2462	 0.131515651608436 
2463	 0.131054085978153 
2464	 0.130770486291438 
2465	 0.130616348129186 
2466	 0.130547284982478 
2467	 0.130426925819656 
2468	 0.130101956914284 
2469	 0.129702467502378 
2470	 0.129482252503538 
2471	 0.129357470182083 
2472	 0.129269190142816 
2473	 0.129209976689662 
2474	 0.129092499591742 
2475	 0.128937660196302 
2476	 0.128891193845734 
2477	 0.128952439189384 
2478	 0.12898746676106 
2479	 0.129022347274759 
2480	 0.128993554170389 
2481	 0.12878167531514 
2482	 0.128163903745115 
2483	 0.128073865353251 
2484	 0.128166611638851 
2485	 0.128359898534525 
2486	 0.128726305253076 
2487	 0.128861748293066 
2488	 0.128919547739669 
2489	 0.129093945186244 
2490	 0.129045630411131 
2491	 0.129042076412589 
2492	 0.129006884139957 
2493	 0.12887665809469 
2494	 0.129144527036069 
2495	 0.129584961854203 
2496	 0.130037055633535 
2497	 0.130571135147102 
2498	 0.130800294846598 
2499	 0.13081322057833 
2500	 0.131114213904941 
