Wavelength	spectrum00021.asd
350	 0.037165462477798 
351	 3.63333795855066E-02 
352	 0.037074523314354 
353	 3.78605564812211E-02 
354	 3.78836547041302E-02 
355	 4.00092407068365E-02 
356	 4.10125558031928E-02 
357	 3.86227739842693E-02 
358	 3.68770748763469E-02 
359	 3.73629018253146E-02 
360	 3.90043876476549E-02 
361	 3.94161012432218E-02 
362	 0.038020462813542 
363	 3.74187988720667E-02 
364	 3.80153349300607E-02 
365	 3.69874894809775E-02 
366	 3.75037414143191E-02 
367	 3.79813900469467E-02 
368	 0.037025424403111 
369	 3.76418882493911E-02 
370	 3.81637750605239E-02 
371	 3.80340799101324E-02 
372	 3.74683564684047E-02 
373	 3.70399361420587E-02 
374	 3.77168999112355E-02 
375	 3.92967494667411E-02 
376	 3.99837235741574E-02 
377	 3.92905671899118E-02 
378	 3.86928280894662E-02 
379	 0.039249968466081 
380	 3.85110512250656E-02 
381	 3.88055791695001E-02 
382	 3.94195231422904E-02 
383	 3.81929690788923E-02 
384	 3.81556876514421E-02 
385	 3.89833003191674E-02 
386	 3.96837962958707E-02 
387	 3.88827636338282E-02 
388	 3.88142451513346E-02 
389	 0.039326832136353 
390	 3.95583569842716E-02 
391	 0.038530951278666 
392	 3.89006224572024E-02 
393	 3.99266672229793E-02 
394	 3.89912211026901E-02 
395	 3.94108576238806E-02 
396	 3.99578576815368E-02 
397	 3.97863730679066E-02 
398	 3.96123479910393E-02 
399	 3.97442715500513E-02 
400	 3.99277143799447E-02 
401	 3.98258497483733E-02 
402	 3.94935474519376E-02 
403	 3.98789628297341E-02 
404	 4.04891247528531E-02 
405	 3.99142637528813E-02 
406	 3.96787211940808E-02 
407	 3.97200479484198E-02 
408	 3.98390787079499E-02 
409	 4.01124722343077E-02 
410	 3.99565047580342E-02 
411	 3.97878711074019E-02 
412	 4.01079562165893E-02 
413	 4.01262395188311E-02 
414	 3.95791087630024E-02 
415	 0.038998416186586 
416	 3.94927497368227E-02 
417	 3.98195407213738E-02 
418	 3.99830702530502E-02 
419	 4.00921631883184E-02 
420	 3.99135508927314E-02 
421	 3.97536400186975E-02 
422	 3.97904864294207E-02 
423	 4.00631649782685E-02 
424	 4.02026633971945E-02 
425	 4.01202056005324E-02 
426	 3.99671909939145E-02 
427	 4.01229370502905E-02 
428	 4.01413990645209E-02 
429	 4.00530193593979E-02 
430	 3.99738336168508E-02 
431	 3.98991457069922E-02 
432	 0.040079903542689 
433	 4.03105994368564E-02 
434	 4.02002500349246E-02 
435	 4.02219940077222E-02 
436	 4.02005269105559E-02 
437	 4.00755184163843E-02 
438	 4.00740198501156E-02 
439	 4.01853500296501E-02 
440	 4.02424934260313E-02 
441	 4.01469718844409E-02 
442	 4.03091348050262E-02 
443	 4.03943988590745E-02 
444	 4.03280680062889E-02 
445	 4.02670521120417E-02 
446	 4.02809023833413E-02 
447	 4.03065444835325E-02 
448	 4.03074313531576E-02 
449	 4.03628196508755E-02 
450	 4.04433332309659E-02 
451	 4.04461932903821E-02 
452	 0.040308906876491 
453	 4.03830297781553E-02 
454	 4.04746091509071E-02 
455	 4.04797902146715E-02 
456	 4.04429498847289E-02 
457	 4.05639631943655E-02 
458	 4.06416202198196E-02 
459	 4.05187811001298E-02 
460	 4.04290121388571E-02 
461	 4.04750429829014E-02 
462	 4.05018213624386E-02 
463	 4.02844452916008E-02 
464	 4.03864795427784E-02 
465	 4.05491373152829E-02 
466	 4.05823332094518E-02 
467	 0.040547646268964 
468	 4.05094729332467E-02 
469	 4.04779211282904E-02 
470	 4.04625203652831E-02 
471	 4.05655155740643E-02 
472	 4.06175507660679E-02 
473	 4.05998250950458E-02 
474	 4.06190192830003E-02 
475	 4.06671394132585E-02 
476	 4.06764860508317E-02 
477	 0.040616754975146 
478	 4.05604018663315E-02 
479	 4.04637836823312E-02 
480	 4.04607385867559E-02 
481	 4.06643452865005E-02 
482	 4.06365483406465E-02 
483	 4.05837428739236E-02 
484	 4.06048819338909E-02 
485	 4.06207728044742E-02 
486	 4.07337543333333E-02 
487	 4.08027684948364E-02 
488	 4.07151025141239E-02 
489	 4.05863355690132E-02 
490	 4.06398841055756E-02 
491	 4.07863297555291E-02 
492	 4.07731494681948E-02 
493	 4.07603076917125E-02 
494	 4.07662899576913E-02 
495	 4.08047911747706E-02 
496	 4.09187868904014E-02 
497	 4.09236783727745E-02 
498	 4.08727570692988E-02 
499	 4.08772673947373E-02 
500	 4.09397508033205E-02 
501	 0.040901999066258 
502	 4.08077318065122E-02 
503	 4.08691253728473E-02 
504	 4.09054056391937E-02 
505	 4.09066067635396E-02 
506	 0.040902460108463 
507	 4.09477743283548E-02 
508	 4.09420132733904E-02 
509	 4.09161550893828E-02 
510	 4.09494752903923E-02 
511	 4.10084893439989E-02 
512	 4.10433009253153E-02 
513	 4.10387327009101E-02 
514	 4.10245852886326E-02 
515	 4.10516360056236E-02 
516	 4.10465289504129E-02 
517	 4.09619901510693E-02 
518	 4.09520658860273E-02 
519	 0.041007150626305 
520	 4.10680289684709E-02 
521	 4.10563719877392E-02 
522	 0.041091165239758 
523	 0.04112206777535 
524	 4.11023724514572E-02 
525	 4.10291047244594E-02 
526	 4.10129452884733E-02 
527	 4.10623602142351E-02 
528	 0.041135906988936 
529	 4.11728117123709E-02 
530	 4.11694921046808E-02 
531	 4.11502392100826E-02 
532	 4.11614411965854E-02 
533	 0.041147529557218 
534	 4.11369762910716E-02 
535	 4.11572625419905E-02 
536	 4.11831845304889E-02 
537	 4.11945390565287E-02 
538	 4.11944890517984E-02 
539	 4.11991469303342E-02 
540	 4.12020133685064E-02 
541	 4.12147056806033E-02 
542	 4.12394697738098E-02 
543	 4.12622205627555E-02 
544	 4.12714212756434E-02 
545	 4.12528094310391E-02 
546	 4.12066550432351E-02 
547	 0.041184827861545 
548	 4.12193713150783E-02 
549	 4.12818831685858E-02 
550	 4.12948763251505E-02 
551	 4.12934477822983E-02 
552	 4.13032480983365E-02 
553	 4.13333485788912E-02 
554	 4.13569417628327E-02 
555	 4.13638305020997E-02 
556	 4.13675994460819E-02 
557	 4.13902216299765E-02 
558	 4.14140014369144E-02 
559	 4.14382239847806E-02 
560	 4.14671068122728E-02 
561	 4.15109414529926E-02 
562	 0.041485668729507 
563	 4.14512188104674E-02 
564	 4.14721038412698E-02 
565	 4.14702531175888E-02 
566	 4.14321144292288E-02 
567	 4.14047780702785E-02 
568	 4.14676297904657E-02 
569	 4.14971833930846E-02 
570	 4.15062679549391E-02 
571	 4.15117107549374E-02 
572	 4.14838295320628E-02 
573	 4.15012419419125E-02 
574	 4.15454165068022E-02 
575	 4.15648585538203E-02 
576	 4.15748198528094E-02 
577	 4.15415261619125E-02 
578	 4.14887796467611E-02 
579	 4.15056458409835E-02 
580	 4.15304102272047E-02 
581	 4.15481541512352E-02 
582	 4.15621008774834E-02 
583	 4.16021755119657E-02 
584	 4.16159722888216E-02 
585	 4.16114263444057E-02 
586	 4.16288816890213E-02 
587	 4.16388644866065E-02 
588	 4.16582978508539E-02 
589	 4.16888270759371E-02 
590	 4.16989783232078E-02 
591	 4.17123578769307E-02 
592	 4.17147738132266E-02 
593	 0.041690479135349 
594	 4.16629399695977E-02 
595	 4.16618812879554E-02 
596	 0.041675372554305 
597	 0.041659210166311 
598	 4.16767262459368E-02 
599	 4.16900996929562E-02 
600	 4.16740932807373E-02 
601	 4.16766717289386E-02 
602	 4.16862364500576E-02 
603	 4.16935387839574E-02 
604	 4.16908718653595E-02 
605	 4.16801254601586E-02 
606	 4.16875001014769E-02 
607	 4.17161820098195E-02 
608	 4.17391323865998E-02 
609	 4.17529831350432E-02 
610	 4.17573436955932E-02 
611	 0.041755030078024 
612	 0.0417509153935 
613	 4.17578236356883E-02 
614	 4.17683670381831E-02 
615	 0.04176412964429 
616	 4.17579358375578E-02 
617	 4.17730775343574E-02 
618	 4.18032158639535E-02 
619	 4.17868798786427E-02 
620	 4.17667605028665E-02 
621	 4.17760109083316E-02 
622	 4.18179890792673E-02 
623	 4.17668653945455E-02 
624	 4.17514259975731E-02 
625	 4.17946359058732E-02 
626	 4.18125398143394E-02 
627	 4.18359792730674E-02 
628	 4.18315521109702E-02 
629	 4.17949392142715E-02 
630	 4.18226860676326E-02 
631	 4.18310101307272E-02 
632	 4.18253060173763E-02 
633	 4.18423223463016E-02 
634	 4.18407311631947E-02 
635	 0.041846765637955 
636	 0.041867065877953 
637	 4.18773946770392E-02 
638	 4.18725663502827E-02 
639	 4.18663869414447E-02 
640	 4.18665537717059E-02 
641	 4.18387130282642E-02 
642	 4.18380223275566E-02 
643	 4.18592841652595E-02 
644	 4.18623576406146E-02 
645	 4.18665996343334E-02 
646	 4.18725772594736E-02 
647	 4.18818243079742E-02 
648	 4.19018022156966E-02 
649	 4.19012959579176E-02 
650	 4.19041599813405E-02 
651	 0.041931539636212 
652	 4.19170022535761E-02 
653	 4.18925196325422E-02 
654	 4.18782438396104E-02 
655	 4.18810201466225E-02 
656	 4.19003649727134E-02 
657	 4.19129251272703E-02 
658	 4.19101222584815E-02 
659	 4.19225739096311E-02 
660	 4.19261396635276E-02 
661	 4.19205683291246E-02 
662	 4.19157529128748E-02 
663	 4.19267283500095E-02 
664	 4.19231784490076E-02 
665	 0.041915953787741 
666	 4.19550670060018E-02 
667	 4.19426849599088E-02 
668	 0.041922600663401 
669	 4.19355101604456E-02 
670	 4.19415036957709E-02 
671	 4.19224558662655E-02 
672	 4.19007026828303E-02 
673	 4.19124474941071E-02 
674	 4.19422076588846E-02 
675	 4.19525847981929E-02 
676	 4.19404040281866E-02 
677	 4.19448925359938E-02 
678	 4.19364533359175E-02 
679	 4.19244216531292E-02 
680	 4.19259989488568E-02 
681	 4.19571383186186E-02 
682	 4.19834843073501E-02 
683	 4.19857090242625E-02 
684	 4.19608265239194E-02 
685	 4.19529764642269E-02 
686	 4.19490179501967E-02 
687	 4.19488532160278E-02 
688	 4.19805384012999E-02 
689	 4.19593120148035E-02 
690	 4.19322788020341E-02 
691	 4.19515983214031E-02 
692	 4.19589257794251E-02 
693	 4.19546018611856E-02 
694	 4.19503021027621E-02 
695	 4.19613674392545E-02 
696	 4.19639881140379E-02 
697	 4.19563901830617E-02 
698	 4.19431104948506E-02 
699	 4.19330242330719E-02 
700	 4.19416466657122E-02 
701	 4.19512388990881E-02 
702	 0.041943258755281 
703	 4.19338018073971E-02 
704	 4.19448950303674E-02 
705	 4.19569912141525E-02 
706	 4.19307242569091E-02 
707	 0.041940733215151 
708	 4.19514242843579E-02 
709	 4.19410319952553E-02 
710	 4.19348216652767E-02 
711	 0.041937504420966 
712	 0.041944069688822 
713	 4.19486154264987E-02 
714	 4.19596913365165E-02 
715	 4.19597543710445E-02 
716	 4.19483988335703E-02 
717	 4.19387408485641E-02 
718	 4.19407800951502E-02 
719	 4.19496665533816E-02 
720	 0.041953585349902 
721	 4.19321197359111E-02 
722	 0.041925738411103 
723	 4.19315194870926E-02 
724	 4.19336192471153E-02 
725	 4.19227822989815E-02 
726	 4.19180250675267E-02 
727	 0.041928494760632 
728	 4.19502033407222E-02 
729	 4.19296624513828E-02 
730	 4.19142086714332E-02 
731	 4.19264779293362E-02 
732	 4.19266379283754E-02 
733	 0.041920878301848 
734	 4.19163588553005E-02 
735	 4.19160979988561E-02 
736	 0.041899911232386 
737	 4.19086646729646E-02 
738	 4.19247663418836E-02 
739	 4.19014828070167E-02 
740	 0.041911458590755 
741	 4.19311393275017E-02 
742	 4.19330775202798E-02 
743	 4.19018261014678E-02 
744	 4.18987311033426E-02 
745	 4.19139803263813E-02 
746	 0.04192225319844 
747	 4.19195889157787E-02 
748	 4.19119730312782E-02 
749	 4.19120639989297E-02 
750	 4.19289158666862E-02 
751	 0.041915648304227 
752	 4.18970689831774E-02 
753	 4.18898261769804E-02 
754	 4.18897618802181E-02 
755	 4.19129579736604E-02 
756	 0.041921435081633 
757	 4.18930098839409E-02 
758	 4.18852833277234E-02 
759	 4.18772766432773E-02 
760	 4.18686233022011E-02 
761	 4.18676225391992E-02 
762	 4.18794913884047E-02 
763	 4.18721854060178E-02 
764	 4.18481992487905E-02 
765	 0.041847608205908 
766	 4.18528538174167E-02 
767	 4.18517965366816E-02 
768	 4.18429757923055E-02 
769	 4.18489894520362E-02 
770	 4.18420064396873E-02 
771	 4.18293534817186E-02 
772	 4.18262898081479E-02 
773	 4.18187836911518E-02 
774	 4.18062678879166E-02 
775	 0.0417960845089 
776	 4.17989475502892E-02 
777	 4.17906621924496E-02 
778	 4.17940822352916E-02 
779	 4.18088158095502E-02 
780	 0.041784186423906 
781	 4.17674848149884E-02 
782	 4.17554796206262E-02 
783	 4.17406413369089E-02 
784	 4.17556705994379E-02 
785	 0.041752871664678 
786	 4.17406502954589E-02 
787	 4.17532042931993E-02 
788	 4.17533261557079E-02 
789	 4.17395617971627E-02 
790	 4.17238412286283E-02 
791	 4.17279403810691E-02 
792	 0.041727160821214 
793	 4.17272209318442E-02 
794	 4.17294611636992E-02 
795	 4.17081693183205E-02 
796	 4.16855523512661E-02 
797	 4.16793028922003E-02 
798	 4.16929338990214E-02 
799	 4.16739243667666E-02 
800	 0.041656453243853 
801	 4.16502543944676E-02 
802	 4.16434715906875E-02 
803	 4.16397503345893E-02 
804	 4.16358979219487E-02 
805	 4.16315434557941E-02 
806	 0.041631555347382 
807	 4.16293471647013E-02 
808	 4.16122128243315E-02 
809	 4.15814276022073E-02 
810	 4.15802128113418E-02 
811	 4.15984501219159E-02 
812	 4.16054201821818E-02 
813	 0.041575168573585 
814	 4.15650025843333E-02 
815	 4.15578823811547E-02 
816	 4.15483549275696E-02 
817	 4.15445256674722E-02 
818	 4.15429054860963E-02 
819	 4.15332107286944E-02 
820	 4.15154330060233E-02 
821	 4.15071351195527E-02 
822	 4.15123301893315E-02 
823	 4.15125028927168E-02 
824	 4.14975963712113E-02 
825	 4.15049030091644E-02 
826	 0.041500996044847 
827	 0.041486271168477 
828	 4.14781082324635E-02 
829	 4.14913636411899E-02 
830	 4.14962655973162E-02 
831	 4.14818183057416E-02 
832	 4.14592253935929E-02 
833	 4.14609698139763E-02 
834	 4.14629538807812E-02 
835	 4.14528344786269E-02 
836	 4.14499823585698E-02 
837	 4.14316255783555E-02 
838	 4.14111730803399E-02 
839	 4.14048971507488E-02 
840	 4.14133579694566E-02 
841	 4.14069154401485E-02 
842	 4.13831855442904E-02 
843	 4.13552502198968E-02 
844	 4.13445014641035E-02 
845	 4.13270711582566E-02 
846	 4.13149548415175E-02 
847	 4.13386231384911E-02 
848	 4.13388871665185E-02 
849	 4.13242074844822E-02 
850	 4.13062876928412E-02 
851	 4.12904152936231E-02 
852	 4.12932358366798E-02 
853	 4.12946453192893E-02 
854	 4.12830876264292E-02 
855	 4.12823741635572E-02 
856	 4.12757025511478E-02 
857	 0.041262209279339 
858	 4.12493191771169E-02 
859	 4.12569356220843E-02 
860	 4.12437976319363E-02 
861	 4.12190208432341E-02 
862	 0.041215351382717 
863	 4.12334813906509E-02 
864	 4.12279343116162E-02 
865	 4.11985519080221E-02 
866	 4.11844561940718E-02 
867	 4.11696627128489E-02 
868	 4.11700221594161E-02 
869	 0.041172107181752 
870	 4.11227315076874E-02 
871	 4.11378518724974E-02 
872	 4.11474742325015E-02 
873	 4.11057222687176E-02 
874	 4.11123712027325E-02 
875	 4.11056221153557E-02 
876	 4.11066605155972E-02 
877	 4.11360665798275E-02 
878	 4.11212302031136E-02 
879	 4.11173872168612E-02 
880	 4.11224907388428E-02 
881	 4.11098580354328E-02 
882	 4.10867604247316E-02 
883	 0.041066566493269 
884	 4.10534520325302E-02 
885	 4.10444123378004E-02 
886	 4.10454279684953E-02 
887	 4.10585959032068E-02 
888	 4.10692569991237E-02 
889	 4.10488163119579E-02 
890	 4.10419859689129E-02 
891	 4.10300930892516E-02 
892	 4.10013612218557E-02 
893	 4.09744557604344E-02 
894	 4.10111766575842E-02 
895	 4.10418771658033E-02 
896	 4.10087785969096E-02 
897	 4.09711109261021E-02 
898	 4.09745736739956E-02 
899	 4.09905362274794E-02 
900	 4.09705117597652E-02 
901	 4.09017321317325E-02 
902	 4.08946490812065E-02 
903	 4.09216228043411E-02 
904	 4.08977761179201E-02 
905	 4.08487627163957E-02 
906	 4.08501381211917E-02 
907	 4.08851787484632E-02 
908	 4.08762696213464E-02 
909	 4.08478711522854E-02 
910	 4.08307175878184E-02 
911	 4.08264559971715E-02 
912	 4.08081961210749E-02 
913	 0.040786636388659 
914	 4.07907602557973E-02 
915	 4.08209224418746E-02 
916	 4.08353741566044E-02 
917	 4.07900620759857E-02 
918	 4.07442770309597E-02 
919	 4.07566487494092E-02 
920	 4.08416167491646E-02 
921	 4.08020627389565E-02 
922	 4.07260876968352E-02 
923	 4.07193165621269E-02 
924	 4.07254469846228E-02 
925	 4.07135396480835E-02 
926	 4.07027668670025E-02 
927	 4.07159471268884E-02 
928	 4.07233826435448E-02 
929	 4.07284662971271E-02 
930	 4.07166522880233E-02 
931	 4.06760299332139E-02 
932	 4.06250251600092E-02 
933	 4.06481481980169E-02 
934	 0.040686061118598 
935	 4.06368697079445E-02 
936	 4.06283404290371E-02 
937	 4.06558318902997E-02 
938	 4.06698076458421E-02 
939	 4.06173915924858E-02 
940	 4.05996077179316E-02 
941	 4.06004957794518E-02 
942	 4.06185785330216E-02 
943	 4.06652957227351E-02 
944	 4.06902561526909E-02 
945	 4.06570062599733E-02 
946	 4.06071497597296E-02 
947	 4.06426147942012E-02 
948	 4.06503161223681E-02 
949	 4.06497849348227E-02 
950	 4.06524341281594E-02 
951	 4.06364920254499E-02 
952	 4.06010601646722E-02 
953	 4.05989412011774E-02 
954	 0.040629082877098 
955	 4.06040520462165E-02 
956	 4.05785767926809E-02 
957	 4.05701011235195E-02 
958	 4.05808936896398E-02 
959	 4.05995639279004E-02 
960	 0.040504780283464 
961	 4.04487292522849E-02 
962	 4.05243259790136E-02 
963	 4.05795926576435E-02 
964	 0.0405221958902 
965	 4.04637130924761E-02 
966	 4.04936118733661E-02 
967	 4.05190231570105E-02 
968	 4.04593747251069E-02 
969	 0.040442604677833 
970	 4.05320091880282E-02 
971	 4.04714737403949E-02 
972	 4.04552916695841E-02 
973	 4.04475679729711E-02 
974	 4.03861054788043E-02 
975	 4.03292523791191E-02 
976	 4.03429014707564E-02 
977	 4.04006950816908E-02 
978	 4.04304584058658E-02 
979	 4.03275848472987E-02 
980	 4.03018428472831E-02 
981	 4.03209438282351E-02 
982	 4.02997058888052E-02 
983	 4.02706892782305E-02 
984	 4.03158737561275E-02 
985	 0.040373480353667 
986	 4.03764912879908E-02 
987	 4.04343466683234E-02 
988	 4.04014077040035E-02 
989	 4.03668064358421E-02 
990	 0.040418093431556 
991	 4.03361085343072E-02 
992	 4.02728193230867E-02 
993	 4.02641863271355E-02 
994	 4.02868426554749E-02 
995	 0.04027276154951 
996	 4.03633647804704E-02 
997	 4.04060090057291E-02 
998	 4.02767244321296E-02 
999	 0.040302445769702 
1000	 4.03234170237486E-02 
1001	 4.14661726091873E-02 
1002	 4.14392381470972E-02 
1003	 4.13957377994939E-02 
1004	 4.13667617001798E-02 
1005	 0.041316710484665 
1006	 4.13040283462217E-02 
1007	 4.13038934830821E-02 
1008	 4.13166036953375E-02 
1009	 4.13907954960926E-02 
1010	 4.13849991218884E-02 
1011	 0.04132375196279 
1012	 4.13119138238244E-02 
1013	 4.12655091308836E-02 
1014	 4.12573493892439E-02 
1015	 4.13051112040705E-02 
1016	 4.13631112929245E-02 
1017	 4.13764471252621E-02 
1018	 4.13387685868471E-02 
1019	 4.12828680740437E-02 
1020	 4.12522001738533E-02 
1021	 4.12314684624382E-02 
1022	 4.12301048396327E-02 
1023	 4.12197942078706E-02 
1024	 4.12155854714162E-02 
1025	 4.12109090337058E-02 
1026	 4.11955781544286E-02 
1027	 4.11823142593712E-02 
1028	 4.11741003413998E-02 
1029	 4.11727651209073E-02 
1030	 4.11626814046423E-02 
1031	 4.11698992156353E-02 
1032	 4.11741495415005E-02 
1033	 4.11556307507082E-02 
1034	 4.11206591112719E-02 
1035	 4.10856098437932E-02 
1036	 4.10621037651656E-02 
1037	 4.10446132034308E-02 
1038	 4.10377261056102E-02 
1039	 4.10402568977187E-02 
1040	 4.10380051492969E-02 
1041	 4.10488824927944E-02 
1042	 4.10332882709525E-02 
1043	 4.09878994465539E-02 
1044	 4.09816872700464E-02 
1045	 4.09823407293016E-02 
1046	 4.09788099769381E-02 
1047	 4.09894892005886E-02 
1048	 4.09919329732753E-02 
1049	 4.09758956664645E-02 
1050	 4.09672638528257E-02 
1051	 4.09960837454062E-02 
1052	 0.041017779259756 
1053	 4.10217847931727E-02 
1054	 4.10365231379923E-02 
1055	 4.10325380313876E-02 
1056	 4.09772474581089E-02 
1057	 4.09636451281065E-02 
1058	 4.09694659731931E-02 
1059	 4.09646094059774E-02 
1060	 4.09731774694939E-02 
1061	 4.10114198908344E-02 
1062	 4.10298511963894E-02 
1063	 4.10191358271962E-02 
1064	 4.10003874373075E-02 
1065	 4.09970628973032E-02 
1066	 4.10111951276791E-02 
1067	 4.10163921717943E-02 
1068	 4.10250276167536E-02 
1069	 4.10150392908051E-02 
1070	 4.10167476924444E-02 
1071	 4.10053182402825E-02 
1072	 4.10313796284447E-02 
1073	 4.10516085698146E-02 
1074	 4.10739253056123E-02 
1075	 4.10963896711304E-02 
1076	 4.10906708322154E-02 
1077	 4.10811102815765E-02 
1078	 4.10847937334267E-02 
1079	 4.10849058523491E-02 
1080	 4.10877742857374E-02 
1081	 4.11028734334323E-02 
1082	 4.11164428093097E-02 
1083	 4.11236699320824E-02 
1084	 4.11235439272916E-02 
1085	 4.11283790443582E-02 
1086	 4.11316809111603E-02 
1087	 4.11349441279574E-02 
1088	 4.11317720894196E-02 
1089	 4.11197393804669E-02 
1090	 4.11023259583534E-02 
1091	 0.041098694383217 
1092	 4.11073158841602E-02 
1093	 4.11215390799667E-02 
1094	 4.11425825787915E-02 
1095	 4.11616871796563E-02 
1096	 4.11588486423514E-02 
1097	 4.11432609511461E-02 
1098	 4.11341847457713E-02 
1099	 4.11247774390471E-02 
1100	 4.11085243108704E-02 
1101	 4.11010245448034E-02 
1102	 0.041102389088822 
1103	 0.041102650765865 
1104	 4.10983689600577E-02 
1105	 4.11010102877623E-02 
1106	 0.041106648744799 
1107	 4.10970008388452E-02 
1108	 4.10783311431458E-02 
1109	 0.041062420144248 
1110	 4.10457843932167E-02 
1111	 4.10350194051031E-02 
1112	 0.041027884757556 
1113	 4.10313617392617E-02 
1114	 4.10390218332659E-02 
1115	 4.10324534279703E-02 
1116	 4.10433393261606E-02 
1117	 4.10468779390204E-02 
1118	 4.10356074467798E-02 
1119	 4.10168992385175E-02 
1120	 4.10042839381014E-02 
1121	 4.09805402268835E-02 
1122	 4.09550919075693E-02 
1123	 4.09587904123656E-02 
1124	 4.09516299293097E-02 
1125	 0.040949386868864 
1126	 4.09455693644414E-02 
1127	 4.09250791266119E-02 
1128	 4.09150335658562E-02 
1129	 4.09053605116448E-02 
1130	 4.09061216573533E-02 
1131	 4.09087081387244E-02 
1132	 4.08907459349323E-02 
1133	 4.08808093644194E-02 
1134	 0.040861440287713 
1135	 4.08451386405465E-02 
1136	 4.08342253421177E-02 
1137	 4.08244469439863E-02 
1138	 4.08117746612657E-02 
1139	 0.040798868656696 
1140	 4.07842669960296E-02 
1141	 4.07721971007682E-02 
1142	 4.07709458489945E-02 
1143	 4.07768457596162E-02 
1144	 4.07847295270785E-02 
1145	 4.07735716426172E-02 
1146	 4.07554828743657E-02 
1147	 4.07435731174305E-02 
1148	 4.07261449052414E-02 
1149	 4.07222962406968E-02 
1150	 4.07241675487283E-02 
1151	 0.040710509495656 
1152	 0.040697272931612 
1153	 4.06853369751132E-02 
1154	 4.06682238081381E-02 
1155	 4.06379346385247E-02 
1156	 4.06239267149843E-02 
1157	 4.06151629280399E-02 
1158	 0.040607213000717 
1159	 4.06119858335535E-02 
1160	 4.06031944213345E-02 
1161	 4.05933693137167E-02 
1162	 4.05900624670553E-02 
1163	 4.05684467892249E-02 
1164	 4.05567974504022E-02 
1165	 4.05534698147565E-02 
1166	 4.05480057231424E-02 
1167	 4.05479624778252E-02 
1168	 0.040548572246225 
1169	 4.05465265929492E-02 
1170	 4.05326335379155E-02 
1171	 4.05323069344338E-02 
1172	 4.05510060071158E-02 
1173	 4.05440440275602E-02 
1174	 4.05245649092625E-02 
1175	 4.05137272992901E-02 
1176	 4.04854848918688E-02 
1177	 4.04757542346811E-02 
1178	 4.04867430151337E-02 
1179	 0.040489051607942 
1180	 4.04856021521972E-02 
1181	 4.04836280002138E-02 
1182	 4.04714765573222E-02 
1183	 4.04629446260341E-02 
1184	 4.04710141590518E-02 
1185	 0.040469784058218 
1186	 4.04713532747122E-02 
1187	 4.04815561281565E-02 
1188	 4.04824636600428E-02 
1189	 4.04751984660596E-02 
1190	 4.04733230958577E-02 
1191	 4.04680650717691E-02 
1192	 4.04691513360745E-02 
1193	 0.040479148695127 
1194	 4.04789851096333E-02 
1195	 0.040480308607528 
1196	 4.04763956391282E-02 
1197	 4.04605654388455E-02 
1198	 4.04494802081495E-02 
1199	 0.04045245253538 
1200	 4.04424077752928E-02 
1201	 4.04398512010267E-02 
1202	 4.04492516402666E-02 
1203	 4.04513136908944E-02 
1204	 4.04533413949459E-02 
1205	 4.04516273536482E-02 
1206	 4.04436508510422E-02 
1207	 4.04451176496944E-02 
1208	 4.04519066113772E-02 
1209	 4.04525598340358E-02 
1210	 0.040456126238119 
1211	 4.04569074182142E-02 
1212	 4.04511996386815E-02 
1213	 4.04449509817965E-02 
1214	 4.04375330569197E-02 
1215	 4.04359075978207E-02 
1216	 4.04377977148584E-02 
1217	 4.04324296772413E-02 
1218	 4.04274360783861E-02 
1219	 4.04217998852453E-02 
1220	 4.04145605963363E-02 
1221	 0.040406832824757 
1222	 4.04045639046114E-02 
1223	 4.04095998198629E-02 
1224	 4.04082438078288E-02 
1225	 4.04022242990673E-02 
1226	 4.03974294158402E-02 
1227	 4.03925959684265E-02 
1228	 0.040390251632452 
1229	 4.03874396696088E-02 
1230	 4.03846862513389E-02 
1231	 4.03872102924942E-02 
1232	 4.03823387847848E-02 
1233	 4.03710626431351E-02 
1234	 4.03653468210082E-02 
1235	 4.03519531653605E-02 
1236	 4.03507452272271E-02 
1237	 4.03604550906927E-02 
1238	 4.03667751259603E-02 
1239	 4.03795738251291E-02 
1240	 4.03965953064756E-02 
1241	 4.03859717338598E-02 
1242	 4.03829986879716E-02 
1243	 0.04038048233969 
1244	 4.03747570308434E-02 
1245	 4.03616638558339E-02 
1246	 4.03482029018899E-02 
1247	 4.03388535116487E-02 
1248	 4.03180443400697E-02 
1249	 4.03073368017186E-02 
1250	 4.03119170904487E-02 
1251	 4.03074772194552E-02 
1252	 4.02972346268378E-02 
1253	 0.040289745400753 
1254	 4.02831054807941E-02 
1255	 4.02782690763625E-02 
1256	 4.02729028994334E-02 
1257	 4.02686378360622E-02 
1258	 0.040278308652488 
1259	 4.02695499782987E-02 
1260	 4.02404927238732E-02 
1261	 4.02259053656655E-02 
1262	 4.02166919602445E-02 
1263	 4.01877303353622E-02 
1264	 4.01821910035245E-02 
1265	 4.01993897262804E-02 
1266	 4.01938403888112E-02 
1267	 4.01826022047632E-02 
1268	 4.01745563248669E-02 
1269	 4.01526985958324E-02 
1270	 4.01520201241029E-02 
1271	 4.01683288043687E-02 
1272	 4.01734164890459E-02 
1273	 4.01850753807813E-02 
1274	 4.01899773244722E-02 
1275	 4.01829269867107E-02 
1276	 4.01847339916263E-02 
1277	 4.01876362517384E-02 
1278	 4.01957410883019E-02 
1279	 0.040210720158692 
1280	 4.02230060076144E-02 
1281	 4.02401687024581E-02 
1282	 4.02535420296342E-02 
1283	 0.040270501840956 
1284	 4.02766757130057E-02 
1285	 4.02767437910448E-02 
1286	 4.02678724148859E-02 
1287	 4.02712862966843E-02 
1288	 4.02688129057662E-02 
1289	 4.02753768125244E-02 
1290	 4.02965686322689E-02 
1291	 0.04030673947457 
1292	 4.03086023618758E-02 
1293	 4.03217230835894E-02 
1294	 4.03404480884313E-02 
1295	 0.040355819915798 
1296	 4.03765931561434E-02 
1297	 4.03926339693433E-02 
1298	 0.040412586827858 
1299	 4.04164914759915E-02 
1300	 4.04029426349858E-02 
1301	 4.04047094278008E-02 
1302	 4.04024638434668E-02 
1303	 4.04024200584613E-02 
1304	 4.04138269785642E-02 
1305	 4.04243446767858E-02 
1306	 4.04326236631425E-02 
1307	 4.04385368774611E-02 
1308	 0.040442039643036 
1309	 4.04600677583047E-02 
1310	 4.04580465166331E-02 
1311	 4.04431392588336E-02 
1312	 4.04385333981152E-02 
1313	 4.04294818947808E-02 
1314	 4.04283565848705E-02 
1315	 4.04336170079869E-02 
1316	 4.04384748574893E-02 
1317	 4.04510153619283E-02 
1318	 4.04503183560926E-02 
1319	 4.04443630391325E-02 
1320	 4.04403303279297E-02 
1321	 4.04259613302229E-02 
1322	 4.04206782965592E-02 
1323	 4.04272101864001E-02 
1324	 4.04229888420506E-02 
1325	 4.04137648780134E-02 
1326	 4.04063133127298E-02 
1327	 4.03959009126049E-02 
1328	 4.03847132243143E-02 
1329	 4.03748952008179E-02 
1330	 4.03639464133968E-02 
1331	 4.03481219532474E-02 
1332	 4.03354924594553E-02 
1333	 4.03231457227666E-02 
1334	 4.03140876408562E-02 
1335	 4.03058940869633E-02 
1336	 4.02993892845546E-02 
1337	 4.02922661622485E-02 
1338	 0.040286008216905 
1339	 4.02811974917412E-02 
1340	 4.02772171270572E-02 
1341	 4.02738397457932E-02 
1342	 4.02728179827553E-02 
1343	 4.02694083872842E-02 
1344	 4.02687775603604E-02 
1345	 4.02589811037402E-02 
1346	 4.02426783965721E-02 
1347	 4.02302409223315E-02 
1348	 4.02104136671873E-02 
1349	 4.01988554469121E-02 
1350	 4.01969508916286E-02 
1351	 4.01874916417075E-02 
1352	 4.01746548832592E-02 
1353	 4.01655156153591E-02 
1354	 4.01586828121014E-02 
1355	 4.01464645556718E-02 
1356	 4.01307768533873E-02 
1357	 4.01202018227675E-02 
1358	 4.01105741940391E-02 
1359	 4.00970138517586E-02 
1360	 4.00853010478121E-02 
1361	 4.00723309279919E-02 
1362	 4.00680781575522E-02 
1363	 4.00561259420645E-02 
1364	 4.00479251491714E-02 
1365	 4.00481223354975E-02 
1366	 0.040043389342291 
1367	 4.00348527461948E-02 
1368	 4.00228610507086E-02 
1369	 4.00100498201881E-02 
1370	 4.00008536878586E-02 
1371	 3.99878136996925E-02 
1372	 3.99757374314405E-02 
1373	 3.99674529467599E-02 
1374	 3.99613526310843E-02 
1375	 3.99561512773779E-02 
1376	 3.99437522957901E-02 
1377	 3.99278531925001E-02 
1378	 0.039921934767666 
1379	 3.99127815258535E-02 
1380	 0.039907990272125 
1381	 3.99228955900668E-02 
1382	 3.99202493165704E-02 
1383	 3.99039331658891E-02 
1384	 3.98923592729165E-02 
1385	 3.98775830814848E-02 
1386	 3.98643243760184E-02 
1387	 3.98460243562786E-02 
1388	 0.039838042011073 
1389	 3.98425672860476E-02 
1390	 3.98366460288904E-02 
1391	 3.98316513354911E-02 
1392	 3.98291225346632E-02 
1393	 3.98082485016298E-02 
1394	 0.039784122888399 
1395	 3.97771132940843E-02 
1396	 3.97796514611696E-02 
1397	 3.97741785455466E-02 
1398	 3.97767405495756E-02 
1399	 3.97716176896064E-02 
1400	 3.97574916463483E-02 
1401	 3.97474940650623E-02 
1402	 3.97368169363853E-02 
1403	 3.97327046487809E-02 
1404	 3.97297529466925E-02 
1405	 3.97283447063831E-02 
1406	 3.97373734860058E-02 
1407	 3.97365147438952E-02 
1408	 3.97258578219816E-02 
1409	 3.97241713942967E-02 
1410	 3.97272979529859E-02 
1411	 3.97245568826166E-02 
1412	 3.97245955253613E-02 
1413	 3.97214406063549E-02 
1414	 3.97107712628659E-02 
1415	 3.97024482806438E-02 
1416	 3.96943360072995E-02 
1417	 3.96877444952749E-02 
1418	 3.96765822769508E-02 
1419	 3.96734688739456E-02 
1420	 3.96814276029003E-02 
1421	 3.96827695384582E-02 
1422	 3.96850358345731E-02 
1423	 3.96866857841838E-02 
1424	 3.96888200340678E-02 
1425	 3.96796936760836E-02 
1426	 3.96810616330506E-02 
1427	 0.039682048536018 
1428	 3.96739224897499E-02 
1429	 3.96714660782372E-02 
1430	 3.96746546982851E-02 
1431	 0.039681863835736 
1432	 3.96825868738561E-02 
1433	 3.96884059922959E-02 
1434	 3.96890483436725E-02 
1435	 3.96787849591907E-02 
1436	 3.96778860932475E-02 
1437	 3.96854767333158E-02 
1438	 3.96832535090577E-02 
1439	 3.96764969424762E-02 
1440	 3.96739241109249E-02 
1441	 0.03966872044859 
1442	 3.96669062769075E-02 
1443	 3.96687348175894E-02 
1444	 3.96682995503501E-02 
1445	 3.96702543195987E-02 
1446	 3.96670404998821E-02 
1447	 3.96631203559272E-02 
1448	 3.96562752672045E-02 
1449	 3.96404307380648E-02 
1450	 0.039630746429918 
1451	 3.96169175111764E-02 
1452	 3.96149223875551E-02 
1453	 3.96287010719081E-02 
1454	 3.96309505894707E-02 
1455	 3.96370233499169E-02 
1456	 3.96364151798633E-02 
1457	 3.96232623951016E-02 
1458	 3.96137849905117E-02 
1459	 3.95974969623535E-02 
1460	 3.95938381792365E-02 
1461	 3.96051769055493E-02 
1462	 3.96036392313379E-02 
1463	 3.96042897002793E-02 
1464	 3.96023994333708E-02 
1465	 3.95939573562109E-02 
1466	 0.039573252661398 
1467	 3.95677725020516E-02 
1468	 3.95652471402703E-02 
1469	 3.95435479436907E-02 
1470	 3.95376100377798E-02 
1471	 3.95358823617998E-02 
1472	 3.95353441098422E-02 
1473	 3.95363272301199E-02 
1474	 0.03955005898996 
1475	 3.95530787476506E-02 
1476	 3.95489152901612E-02 
1477	 3.95498224784783E-02 
1478	 3.95549118586308E-02 
1479	 3.95522377758606E-02 
1480	 3.95463661907466E-02 
1481	 3.95399618406333E-02 
1482	 3.95270778194036E-02 
1483	 3.95205883387513E-02 
1484	 3.95173735669403E-02 
1485	 3.95113147291864E-02 
1486	 3.95066842168053E-02 
1487	 3.95007494398015E-02 
1488	 3.94911405699499E-02 
1489	 3.94852060563695E-02 
1490	 3.94798707450567E-02 
1491	 3.94779555084374E-02 
1492	 3.94804701868305E-02 
1493	 3.94796487217491E-02 
1494	 3.94788971287511E-02 
1495	 0.039479432779622 
1496	 3.94815332494817E-02 
1497	 3.94790714089888E-02 
1498	 3.94760580882208E-02 
1499	 3.94726584336267E-02 
1500	 0.039463618056051 
1501	 3.94572194343124E-02 
1502	 3.94495623705399E-02 
1503	 3.94482729127469E-02 
1504	 3.94525155239283E-02 
1505	 3.94536772718578E-02 
1506	 3.94628852004935E-02 
1507	 3.94632896788678E-02 
1508	 3.94532384587822E-02 
1509	 3.94474105209084E-02 
1510	 3.94411521384227E-02 
1511	 3.94343221353856E-02 
1512	 3.94243137557682E-02 
1513	 3.94206732200653E-02 
1514	 3.94251662919773E-02 
1515	 0.039421269803688 
1516	 3.94153639024619E-02 
1517	 3.94121303504012E-02 
1518	 3.93997608866982E-02 
1519	 3.93936994397435E-02 
1520	 3.93907237833859E-02 
1521	 3.94005126207582E-02 
1522	 3.94059362858915E-02 
1523	 3.94002829033723E-02 
1524	 3.93974480174093E-02 
1525	 3.93920169004731E-02 
1526	 3.93872323027721E-02 
1527	 0.039381130305345 
1528	 3.93766179312929E-02 
1529	 3.93722098184793E-02 
1530	 3.93686743707595E-02 
1531	 3.93659898081129E-02 
1532	 0.039362436715961 
1533	 3.93599502370825E-02 
1534	 3.93544664485164E-02 
1535	 3.93466246449502E-02 
1536	 0.039342070128108 
1537	 0.039338596228582 
1538	 3.93310279622934E-02 
1539	 3.93216500704886E-02 
1540	 3.93168893600508E-02 
1541	 3.93118735561697E-02 
1542	 3.93051544635255E-02 
1543	 3.93008128745982E-02 
1544	 3.92979437758413E-02 
1545	 3.92923735537643E-02 
1546	 3.92880298120052E-02 
1547	 3.92884694622192E-02 
1548	 3.92874534675792E-02 
1549	 3.92848175150643E-02 
1550	 3.92796534424506E-02 
1551	 3.92745086131244E-02 
1552	 3.92710257224789E-02 
1553	 3.92673716979591E-02 
1554	 3.92578434451439E-02 
1555	 0.039244604737777 
1556	 3.92392219753372E-02 
1557	 0.03923210943237 
1558	 3.92249805631658E-02 
1559	 3.92263290574506E-02 
1560	 3.92235691937762E-02 
1561	 3.92129052895141E-02 
1562	 3.92077197917487E-02 
1563	 3.92091487910226E-02 
1564	 3.92065385695111E-02 
1565	 3.91986271942439E-02 
1566	 3.91977483213512E-02 
1567	 3.92022595100087E-02 
1568	 3.92028210748779E-02 
1569	 3.92084565201533E-02 
1570	 3.92060219445212E-02 
1571	 3.91930189440553E-02 
1572	 3.91884812739023E-02 
1573	 3.91886577479652E-02 
1574	 3.91811118582167E-02 
1575	 0.039169072304653 
1576	 3.91649831258725E-02 
1577	 3.91588432147487E-02 
1578	 3.91545009659164E-02 
1579	 3.91643253546551E-02 
1580	 3.91610832327663E-02 
1581	 3.91424692909797E-02 
1582	 3.91363167599794E-02 
1583	 0.039134146192023 
1584	 3.91298743698918E-02 
1585	 3.91344440046381E-02 
1586	 3.91297663914854E-02 
1587	 3.91103616286263E-02 
1588	 3.91047598849572E-02 
1589	 3.91078834265637E-02 
1590	 3.91038353189316E-02 
1591	 0.039101720138439 
1592	 3.91012519419993E-02 
1593	 3.90958720524588E-02 
1594	 3.90910865839929E-02 
1595	 3.90945747638252E-02 
1596	 3.90914973000443E-02 
1597	 0.039079419537218 
1598	 3.90717160676891E-02 
1599	 3.90610733818004E-02 
1600	 0.039057094088305 
1601	 3.90594959036353E-02 
1602	 3.90596540468811E-02 
1603	 3.90655571098841E-02 
1604	 3.90662765684676E-02 
1605	 3.90612929184698E-02 
1606	 3.90595655576863E-02 
1607	 3.90596203678037E-02 
1608	 3.90564428184438E-02 
1609	 3.90538888234442E-02 
1610	 3.90483613656255E-02 
1611	 0.039039566089814 
1612	 3.90286935577084E-02 
1613	 3.90087676096459E-02 
1614	 3.90005202888664E-02 
1615	 3.89949031191315E-02 
1616	 3.89931942549952E-02 
1617	 3.90099480798641E-02 
1618	 3.90108297914257E-02 
1619	 3.90024479635302E-02 
1620	 3.89973487013923E-02 
1621	 3.89836443598727E-02 
1622	 3.89752375449014E-02 
1623	 3.89672759296881E-02 
1624	 0.03896774591306 
1625	 3.89809943185608E-02 
1626	 3.89823766919227E-02 
1627	 3.89854591866581E-02 
1628	 3.89837807352944E-02 
1629	 3.89666335665601E-02 
1630	 3.89585467677525E-02 
1631	 3.89576297871606E-02 
1632	 3.89530675318543E-02 
1633	 3.89499417992745E-02 
1634	 3.89444851319882E-02 
1635	 3.89310800955113E-02 
1636	 3.89269413733353E-02 
1637	 3.89282231830969E-02 
1638	 3.89270197147399E-02 
1639	 3.89328435198966E-02 
1640	 3.89336014537665E-02 
1641	 3.89295220434391E-02 
1642	 3.89245205803056E-02 
1643	 3.89164327355305E-02 
1644	 3.89126260772529E-02 
1645	 3.89130507482527E-02 
1646	 3.89064474074201E-02 
1647	 3.88936617584955E-02 
1648	 3.88880734594568E-02 
1649	 3.88763797914689E-02 
1650	 3.88751671411062E-02 
1651	 3.88949221644852E-02 
1652	 3.88989724106302E-02 
1653	 3.89017340778023E-02 
1654	 3.88965622613295E-02 
1655	 3.88696246570849E-02 
1656	 3.88599367585886E-02 
1657	 3.88565007771559E-02 
1658	 3.88556774045892E-02 
1659	 3.88680324272933E-02 
1660	 3.88738299763074E-02 
1661	 3.88761067678324E-02 
1662	 3.88757678718197E-02 
1663	 3.88737380866246E-02 
1664	 0.038871462512344 
1665	 3.88726204630591E-02 
1666	 3.88633182862101E-02 
1667	 3.88402356864752E-02 
1668	 3.88318514038012E-02 
1669	 3.88230603185415E-02 
1670	 3.88188963117628E-02 
1671	 3.88298214731244E-02 
1672	 3.88331766127579E-02 
1673	 3.88310980901965E-02 
1674	 3.88281303658149E-02 
1675	 3.88261705440104E-02 
1676	 3.88236051587108E-02 
1677	 3.88171819217417E-02 
1678	 3.88123492094682E-02 
1679	 3.88105118472181E-02 
1680	 3.88055835680256E-02 
1681	 3.88017577524149E-02 
1682	 3.87935034210239E-02 
1683	 3.87741498107627E-02 
1684	 3.87684532267109E-02 
1685	 0.038771110555757 
1686	 3.87658786919615E-02 
1687	 3.87695589905457E-02 
1688	 3.87611226321435E-02 
1689	 3.87268383059462E-02 
1690	 3.87191791967164E-02 
1691	 3.87256243908856E-02 
1692	 0.038730165597612 
1693	 3.87527839246311E-02 
1694	 3.87545938147631E-02 
1695	 3.87414823777243E-02 
1696	 3.87396690985511E-02 
1697	 3.87358385274975E-02 
1698	 3.87321246593359E-02 
1699	 3.87333551093088E-02 
1700	 3.87325481818813E-02 
1701	 3.87267878828623E-02 
1702	 3.87206840072164E-02 
1703	 3.87241000810518E-02 
1704	 3.87160299762463E-02 
1705	 0.038691084245918 
1706	 3.86944459260782E-02 
1707	 3.86812040689871E-02 
1708	 3.86717746303861E-02 
1709	 3.86854112047291E-02 
1710	 0.038677008763703 
1711	 3.86545137682998E-02 
1712	 3.86438067537242E-02 
1713	 3.86474529705058E-02 
1714	 3.86414562048586E-02 
1715	 3.86391232891619E-02 
1716	 3.86615382006262E-02 
1717	 3.86555471723058E-02 
1718	 3.86380521646606E-02 
1719	 3.86414095775808E-02 
1720	 3.86196665143205E-02 
1721	 3.85871510482471E-02 
1722	 3.85833476871378E-02 
1723	 3.85907588427538E-02 
1724	 0.038598535337089 
1725	 3.86119944993727E-02 
1726	 3.86172356711202E-02 
1727	 3.86112338353893E-02 
1728	 3.85892100841971E-02 
1729	 3.85556606120856E-02 
1730	 3.85401375995408E-02 
1731	 3.85437930504281E-02 
1732	 3.85490293244058E-02 
1733	 3.85602390770781E-02 
1734	 3.85640472647221E-02 
1735	 3.85503608692925E-02 
1736	 3.85458837861303E-02 
1737	 3.85404819456592E-02 
1738	 3.85347889635226E-02 
1739	 3.85295590053939E-02 
1740	 3.85238171795782E-02 
1741	 0.038509924651534 
1742	 3.84895288653861E-02 
1743	 3.84764497509538E-02 
1744	 3.84604209116105E-02 
1745	 3.84454389021747E-02 
1746	 3.84316465539963E-02 
1747	 3.84260944379011E-02 
1748	 0.038426098495896 
1749	 3.84270525828372E-02 
1750	 3.84434369725058E-02 
1751	 3.84437130211575E-02 
1752	 0.038422053917032 
1753	 3.84138860636951E-02 
1754	 3.84124471360227E-02 
1755	 3.84061352119958E-02 
1756	 3.84011362029164E-02 
1757	 3.84214549798728E-02 
1758	 3.84281177745751E-02 
1759	 3.84315184006915E-02 
1760	 3.84281349533523E-02 
1761	 0.038407484891579 
1762	 3.83772784159538E-02 
1763	 0.038340923005064 
1764	 3.83178489419137E-02 
1765	 3.83121368628428E-02 
1766	 3.82945862780878E-02 
1767	 3.82930644124331E-02 
1768	 0.038303245617135 
1769	 3.83024820908142E-02 
1770	 3.83215394034285E-02 
1771	 3.83089486809319E-02 
1772	 0.038268624775251 
1773	 3.82580300801239E-02 
1774	 3.82388917386096E-02 
1775	 3.82457249448683E-02 
1776	 3.82883212534856E-02 
1777	 3.82805135744942E-02 
1778	 3.82625221241152E-02 
1779	 3.82778502254633E-02 
1780	 3.82735013388198E-02 
1781	 3.82683831027642E-02 
1782	 3.82700098793059E-02 
1783	 3.82607818046751E-02 
1784	 3.82576584733453E-02 
1785	 0.038246531868447 
1786	 3.82515907837607E-02 
1787	 3.82520204172194E-02 
1788	 3.82550470250409E-02 
1789	 3.82911971063888E-02 
1790	 3.82872603194546E-02 
1791	 3.82428575008176E-02 
1792	 3.82401065418382E-02 
1793	 3.82496928657915E-02 
1794	 3.82304045640974E-02 
1795	 3.82387220986436E-02 
1796	 3.82291407803771E-02 
1797	 3.82076829423162E-02 
1798	 3.82109815784602E-02 
1799	 3.82099134493118E-02 
1800	 3.82013272368068E-02 
1801	 3.82538968608066E-02 
1802	 3.82701269217703E-02 
1803	 3.82753673672693E-02 
1804	 3.82815901253651E-02 
1805	 3.82867386625985E-02 
1806	 0.038286474354546 
1807	 3.82786926330948E-02 
1808	 3.82773009301616E-02 
1809	 3.82792554656391E-02 
1810	 3.82766279458412E-02 
1811	 3.82636627571217E-02 
1812	 3.82664076034139E-02 
1813	 3.82843357099793E-02 
1814	 3.82842535916306E-02 
1815	 3.82798015913998E-02 
1816	 3.82898104568019E-02 
1817	 3.82948981001035E-02 
1818	 3.82824333469986E-02 
1819	 3.82862999352033E-02 
1820	 3.83154662573815E-02 
1821	 3.83235338879511E-02 
1822	 3.83157004151051E-02 
1823	 3.83256075624092E-02 
1824	 3.83331160598994E-02 
1825	 3.83278220959279E-02 
1826	 3.83210456799971E-02 
1827	 3.83064099482615E-02 
1828	 3.83032927026147E-02 
1829	 3.82953689130438E-02 
1830	 3.82962999673804E-02 
1831	 3.83075750598268E-02 
1832	 3.83325006436098E-02 
1833	 3.83265580071328E-02 
1834	 3.83166273994638E-02 
1835	 3.83133149837158E-02 
1836	 3.82989955946488E-02 
1837	 3.82976964327282E-02 
1838	 3.83111784627279E-02 
1839	 3.83149475061441E-02 
1840	 3.83208104050865E-02 
1841	 3.83213976702166E-02 
1842	 3.83166682829346E-02 
1843	 3.83115235359199E-02 
1844	 3.83157905939081E-02 
1845	 3.83205388597348E-02 
1846	 3.83124869742555E-02 
1847	 0.038305250950429 
1848	 3.83027180147466E-02 
1849	 3.82830976846046E-02 
1850	 3.82858352515842E-02 
1851	 3.83074703410929E-02 
1852	 3.83291487965164E-02 
1853	 3.83365670163885E-02 
1854	 3.83466115123258E-02 
1855	 3.83472891199154E-02 
1856	 3.83469337732474E-02 
1857	 3.83511571637402E-02 
1858	 3.83493431589084E-02 
1859	 3.83460516931746E-02 
1860	 3.83339178033188E-02 
1861	 3.83328084566944E-02 
1862	 3.83350354065924E-02 
1863	 3.83379542708717E-02 
1864	 0.038342575743359 
1865	 3.83468263664436E-02 
1866	 3.83555837929354E-02 
1867	 3.83577955140301E-02 
1868	 3.83613417056898E-02 
1869	 3.83683375209605E-02 
1870	 0.038365420184162 
1871	 3.83476400224974E-02 
1872	 0.038341322075905 
1873	 3.83368101633493E-02 
1874	 3.83316346712246E-02 
1875	 0.038326482975903 
1876	 3.83219598954657E-02 
1877	 3.83210657029574E-02 
1878	 3.83063852473505E-02 
1879	 3.83027456841467E-02 
1880	 3.83073767270489E-02 
1881	 3.83045615621521E-02 
1882	 3.82977964890694E-02 
1883	 3.83024025061484E-02 
1884	 3.82980788347451E-02 
1885	 3.82890631233826E-02 
1886	 3.82905778500582E-02 
1887	 3.82917379571707E-02 
1888	 3.82939552877326E-02 
1889	 3.82886808603165E-02 
1890	 3.82821625916717E-02 
1891	 3.82691616061788E-02 
1892	 3.82411743332316E-02 
1893	 3.82286824376862E-02 
1894	 3.82239994928072E-02 
1895	 3.82259904939488E-02 
1896	 3.82182502951146E-02 
1897	 0.038219665147922 
1898	 3.82218615996626E-02 
1899	 3.82085262523185E-02 
1900	 0.038201388466613 
1901	 3.82041683804733E-02 
1902	 3.81966095586048E-02 
1903	 3.81867650357628E-02 
1904	 3.81825518137795E-02 
1905	 3.81837441238017E-02 
1906	 3.81802789418395E-02 
1907	 3.81731782460484E-02 
1908	 3.81667284445282E-02 
1909	 3.81545033194781E-02 
1910	 3.81511210327063E-02 
1911	 3.81579950592337E-02 
1912	 3.81581010797868E-02 
1913	 3.81525947047889E-02 
1914	 3.81461253094098E-02 
1915	 3.81422357013484E-02 
1916	 0.038133869655324 
1917	 3.81285379870396E-02 
1918	 3.81302355293339E-02 
1919	 3.81336242997895E-02 
1920	 3.81285835479577E-02 
1921	 3.81305109576697E-02 
1922	 3.81406513601382E-02 
1923	 3.81347199697488E-02 
1924	 3.81216116593112E-02 
1925	 3.81134031795487E-02 
1926	 3.81058639501784E-02 
1927	 3.80897818774499E-02 
1928	 3.80917347286057E-02 
1929	 3.81081216178595E-02 
1930	 0.038115263495555 
1931	 3.81277583995355E-02 
1932	 3.81336917620612E-02 
1933	 3.81231529540116E-02 
1934	 3.81203303787235E-02 
1935	 3.81170230854275E-02 
1936	 3.81114162647478E-02 
1937	 3.81153177069127E-02 
1938	 3.81314080088174E-02 
1939	 3.81361350021664E-02 
1940	 3.81384965160582E-02 
1941	 3.81468161039874E-02 
1942	 3.81547906596795E-02 
1943	 3.81566087545423E-02 
1944	 3.81596312299308E-02 
1945	 0.038160981748847 
1946	 3.81528701172365E-02 
1947	 3.81457611298548E-02 
1948	 3.81486354204544E-02 
1949	 3.81612399531779E-02 
1950	 0.038164717939125 
1951	 3.81610284098569E-02 
1952	 3.81667828642304E-02 
1953	 0.038175572771182 
1954	 3.81797704577269E-02 
1955	 3.81861161720427E-02 
1956	 3.82019145234882E-02 
1957	 3.82153262521648E-02 
1958	 3.82200077680671E-02 
1959	 3.82216937931388E-02 
1960	 0.038226853074453 
1961	 3.82314394116218E-02 
1962	 3.82276079012294E-02 
1963	 0.038231475386229 
1964	 3.82452487375323E-02 
1965	 3.82511656911851E-02 
1966	 3.82540775904024E-02 
1967	 3.82563742114627E-02 
1968	 3.82549473000247E-02 
1969	 3.82567818978199E-02 
1970	 3.82689045268146E-02 
1971	 3.82761288139925E-02 
1972	 3.82837589081302E-02 
1973	 3.82990508337104E-02 
1974	 3.83090357517442E-02 
1975	 3.83127854857324E-02 
1976	 3.83226274325387E-02 
1977	 3.83379553392634E-02 
1978	 3.83465170321545E-02 
1979	 3.83530858896633E-02 
1980	 3.83598880249248E-02 
1981	 3.83688646849182E-02 
1982	 3.83648010056046E-02 
1983	 3.83577121753086E-02 
1984	 3.83634463982822E-02 
1985	 3.83665507711158E-02 
1986	 3.83766038722193E-02 
1987	 0.038393914452412 
1988	 3.84347580158277E-02 
1989	 3.84470421750453E-02 
1990	 3.84440399096675E-02 
1991	 3.84545244341779E-02 
1992	 3.84623271410018E-02 
1993	 3.84647250943471E-02 
1994	 0.03847395610863 
1995	 3.84891193939327E-02 
1996	 3.84968165639293E-02 
1997	 3.85033872954001E-02 
1998	 3.85077637625579E-02 
1999	 3.85128040103048E-02 
2000	 3.85238025436139E-02 
2001	 3.85315171664642E-02 
2002	 3.85420715419394E-02 
2003	 0.038566705197334 
2004	 3.85796951356678E-02 
2005	 3.85796176998097E-02 
2006	 3.85877985059805E-02 
2007	 3.85973335204295E-02 
2008	 3.86096234387982E-02 
2009	 3.86184915534058E-02 
2010	 3.86435472274704E-02 
2011	 3.86665906041886E-02 
2012	 0.038672260094135 
2013	 3.86842607859799E-02 
2014	 3.86974236716919E-02 
2015	 3.87058968459384E-02 
2016	 3.87108942791917E-02 
2017	 3.87192643495825E-02 
2018	 3.87209237269675E-02 
2019	 3.87315289902537E-02 
2020	 3.87473665197956E-02 
2021	 3.87648526545091E-02 
2022	 0.038786740656658 
2023	 0.038811123997108 
2024	 3.88241015824724E-02 
2025	 3.88395955498963E-02 
2026	 3.88492990124786E-02 
2027	 3.88494149709879E-02 
2028	 3.88569696596676E-02 
2029	 3.88598030890473E-02 
2030	 3.88751777331535E-02 
2031	 0.03890471899065 
2032	 3.89256757759151E-02 
2033	 3.89583986201362E-02 
2034	 3.89745719002569E-02 
2035	 3.89789705563437E-02 
2036	 3.89747777028583E-02 
2037	 3.89828704347133E-02 
2038	 3.89850981543251E-02 
2039	 3.89882087049243E-02 
2040	 3.89958925064651E-02 
2041	 3.90076804318386E-02 
2042	 3.90136910214096E-02 
2043	 3.90267690606891E-02 
2044	 0.039062713692639 
2045	 3.90706258274872E-02 
2046	 3.90520887617272E-02 
2047	 3.90583518300046E-02 
2048	 3.90625460154287E-02 
2049	 3.90701475404329E-02 
2050	 3.90926833454103E-02 
2051	 3.91288686771998E-02 
2052	 3.91251741229094E-02 
2053	 3.91159164091526E-02 
2054	 3.91251148990742E-02 
2055	 3.91337384221455E-02 
2056	 3.91426876448123E-02 
2057	 3.91715611899638E-02 
2058	 3.91840201587416E-02 
2059	 3.91805941605756E-02 
2060	 3.91849498636977E-02 
2061	 3.91881378769268E-02 
2062	 0.039195123758707 
2063	 3.92076458218773E-02 
2064	 3.92150666066542E-02 
2065	 3.92175022983158E-02 
2066	 3.92304573303984E-02 
2067	 3.92439422810847E-02 
2068	 3.92516229206088E-02 
2069	 3.92610538059482E-02 
2070	 0.039281704019005 
2071	 3.92833385839297E-02 
2072	 3.92683968141421E-02 
2073	 3.92684904577839E-02 
2074	 3.92614980273687E-02 
2075	 3.92629190549367E-02 
2076	 0.039277857662289 
2077	 3.92881321354491E-02 
2078	 3.92987737621789E-02 
2079	 3.93130120240603E-02 
2080	 3.93349373759218E-02 
2081	 3.93464580528143E-02 
2082	 3.93533365085148E-02 
2083	 3.93564127633965E-02 
2084	 3.93588573843291E-02 
2085	 0.039375487734244 
2086	 3.93850137783854E-02 
2087	 3.93978193521841E-02 
2088	 3.94112666118067E-02 
2089	 3.94263539608239E-02 
2090	 3.94314148918343E-02 
2091	 3.94293325873584E-02 
2092	 3.94402665477566E-02 
2093	 3.94493018261461E-02 
2094	 3.94591050040933E-02 
2095	 3.94875206119483E-02 
2096	 3.95045854122669E-02 
2097	 3.95166178024113E-02 
2098	 3.95139735482803E-02 
2099	 0.039524261838426 
2100	 3.95247247412657E-02 
2101	 3.95296680820051E-02 
2102	 3.95333462064884E-02 
2103	 3.95424800669864E-02 
2104	 0.039553476920799 
2105	 3.95636645514016E-02 
2106	 3.95785251058953E-02 
2107	 3.95884178904893E-02 
2108	 3.95874528488091E-02 
2109	 3.96041888679544E-02 
2110	 3.96390505823114E-02 
2111	 3.96541031761074E-02 
2112	 3.96664657551147E-02 
2113	 3.96834891306639E-02 
2114	 0.039682061807708 
2115	 3.96926010339049E-02 
2116	 3.97255570611333E-02 
2117	 0.039745712396853 
2118	 3.97629545691585E-02 
2119	 3.97740874088718E-02 
2120	 3.97948309261019E-02 
2121	 3.98206767904394E-02 
2122	 3.98365097119933E-02 
2123	 0.039855070155387 
2124	 3.98655280417392E-02 
2125	 3.98579556625993E-02 
2126	 3.98626331030715E-02 
2127	 3.98729997011724E-02 
2128	 0.039882824258585 
2129	 3.98959370572336E-02 
2130	 3.99084324620015E-02 
2131	 3.99241496349146E-02 
2132	 3.99334190183724E-02 
2133	 3.99441770981033E-02 
2134	 3.99443406617448E-02 
2135	 3.99429322335703E-02 
2136	 3.99380470347033E-02 
2137	 3.99280689843371E-02 
2138	 3.99120265805302E-02 
2139	 3.98974733100305E-02 
2140	 3.98780005093846E-02 
2141	 3.98619162841597E-02 
2142	 3.98440238801738E-02 
2143	 0.039834507973332 
2144	 3.98315880601872E-02 
2145	 3.98226711568201E-02 
2146	 3.98178131037614E-02 
2147	 0.039809380112004 
2148	 3.97949858724876E-02 
2149	 3.97812077856005E-02 
2150	 3.97705559483156E-02 
2151	 3.97561510370385E-02 
2152	 3.97379590167786E-02 
2153	 3.97155980389334E-02 
2154	 3.97021913824838E-02 
2155	 3.96962490322288E-02 
2156	 3.96754645438141E-02 
2157	 0.039651863972457 
2158	 3.96304673478284E-02 
2159	 3.96041131296394E-02 
2160	 3.95695095009342E-02 
2161	 3.95294564011572E-02 
2162	 3.95025739898668E-02 
2163	 3.94698055389322E-02 
2164	 3.94421871935302E-02 
2165	 3.94385815995511E-02 
2166	 3.94138679122794E-02 
2167	 3.93680735965243E-02 
2168	 3.93350451865372E-02 
2169	 3.93008898779888E-02 
2170	 3.92730894284682E-02 
2171	 3.92536233002416E-02 
2172	 3.92310895132734E-02 
2173	 3.92175183459713E-02 
2174	 3.91945515899376E-02 
2175	 3.91380428508835E-02 
2176	 3.91080693119679E-02 
2177	 3.90752023379198E-02 
2178	 3.90266868890874E-02 
2179	 3.90038310064822E-02 
2180	 3.90101337555157E-02 
2181	 3.89919158549092E-02 
2182	 3.89676917653152E-02 
2183	 3.89551232652367E-02 
2184	 3.89445942593734E-02 
2185	 3.89236997145109E-02 
2186	 0.038909554167323 
2187	 3.88859200176798E-02 
2188	 3.88441580599049E-02 
2189	 3.88111422933193E-02 
2190	 3.87797126506487E-02 
2191	 3.87510150822367E-02 
2192	 3.87204699687803E-02 
2193	 0.038695544071229 
2194	 3.86769352749061E-02 
2195	 3.86591126738931E-02 
2196	 3.86354403644144E-02 
2197	 0.038626079629711 
2198	 3.86468742725708E-02 
2199	 3.86504781621295E-02 
2200	 3.86365851363159E-02 
2201	 3.86203561340107E-02 
2202	 3.86049500841656E-02 
2203	 0.038567759052508 
2204	 3.85400660422338E-02 
2205	 3.85191639026186E-02 
2206	 0.038508608869795 
2207	 3.84929472423609E-02 
2208	 3.84824276815858E-02 
2209	 3.84989344525099E-02 
2210	 3.84948740538104E-02 
2211	 0.038471362479286 
2212	 3.84579944581044E-02 
2213	 3.84414217040542E-02 
2214	 3.84378896645597E-02 
2215	 3.84457383755875E-02 
2216	 3.84481975217186E-02 
2217	 3.84629860219167E-02 
2218	 3.84633026335136E-02 
2219	 3.84473479304951E-02 
2220	 3.84392732955652E-02 
2221	 3.84223945087035E-02 
2222	 3.84244972435944E-02 
2223	 3.84316362720382E-02 
2224	 0.038414985315681 
2225	 3.84156884080284E-02 
2226	 3.84314312599858E-02 
2227	 3.84238479954352E-02 
2228	 3.84132364609156E-02 
2229	 3.84094638281694E-02 
2230	 3.83798341097655E-02 
2231	 0.038385296619759 
2232	 3.84283049453018E-02 
2233	 3.84356052162315E-02 
2234	 3.84363602027274E-02 
2235	 3.84490251814489E-02 
2236	 3.84547426224188E-02 
2237	 0.038456666744412 
2238	 3.84712739182113E-02 
2239	 0.03847146224731 
2240	 3.84439348411179E-02 
2241	 3.84414164870536E-02 
2242	 3.84616799538358E-02 
2243	 3.84604454346888E-02 
2244	 3.84543193194085E-02 
2245	 3.84482692538144E-02 
2246	 3.84286359921927E-02 
2247	 3.84121854324928E-02 
2248	 3.83901603499372E-02 
2249	 3.83874265114672E-02 
2250	 3.83863047259071E-02 
2251	 3.83979191952057E-02 
2252	 3.84436248231979E-02 
2253	 3.84841193973889E-02 
2254	 3.84929264830999E-02 
2255	 3.84905002318456E-02 
2256	 3.84613281962763E-02 
2257	 3.84395417838888E-02 
2258	 3.84305290843748E-02 
2259	 3.84269591696159E-02 
2260	 3.84333158320843E-02 
2261	 3.84566920368223E-02 
2262	 3.84661936493181E-02 
2263	 3.84833696702033E-02 
2264	 3.84896942811727E-02 
2265	 3.84780837524158E-02 
2266	 3.84850250439106E-02 
2267	 3.85027405419926E-02 
2268	 3.85046376851469E-02 
2269	 3.85029580929892E-02 
2270	 0.038512896669269 
2271	 3.85276347777847E-02 
2272	 0.038524213386911 
2273	 3.85194424857481E-02 
2274	 3.85161891709667E-02 
2275	 3.84711764297378E-02 
2276	 3.84752149992897E-02 
2277	 3.85397573119625E-02 
2278	 3.85606675237747E-02 
2279	 3.85806621040033E-02 
2280	 3.85911335402719E-02 
2281	 3.85646709188502E-02 
2282	 3.85597190245921E-02 
2283	 3.85539546648903E-02 
2284	 3.85753506273052E-02 
2285	 3.86117629518533E-02 
2286	 3.86249997944341E-02 
2287	 3.86253177246777E-02 
2288	 3.86276775632708E-02 
2289	 0.038623683531572 
2290	 3.86206319186318E-02 
2291	 3.86390768508811E-02 
2292	 3.86548912609772E-02 
2293	 0.038641195102375 
2294	 0.03862526130379 
2295	 0.038631072875553 
2296	 3.86316100159425E-02 
2297	 3.86217222923023E-02 
2298	 3.86136661538333E-02 
2299	 3.86202054761287E-02 
2300	 3.86038185761355E-02 
2301	 3.86272970265251E-02 
2302	 3.87170161058071E-02 
2303	 3.87308716515453E-02 
2304	 3.87122829969888E-02 
2305	 3.87185774265756E-02 
2306	 3.86825669027202E-02 
2307	 3.86949903784537E-02 
2308	 3.87687790007616E-02 
2309	 3.87915437551513E-02 
2310	 3.87999640225125E-02 
2311	 3.88189626999209E-02 
2312	 3.88186792623939E-02 
2313	 3.88331698819343E-02 
2314	 3.88912564645052E-02 
2315	 3.88930001960882E-02 
2316	 3.88423699454349E-02 
2317	 3.88305805166251E-02 
2318	 3.87899865332555E-02 
2319	 3.87943957709854E-02 
2320	 0.038870159087063 
2321	 3.88955329934706E-02 
2322	 3.89059990136218E-02 
2323	 3.89258609271003E-02 
2324	 0.038933585076715 
2325	 3.89512324426967E-02 
2326	 3.89907551541094E-02 
2327	 3.90081349627344E-02 
2328	 3.89974065267426E-02 
2329	 3.89982206213184E-02 
2330	 3.89876368776152E-02 
2331	 0.039010275659012 
2332	 3.90411893665137E-02 
2333	 3.90701197896522E-02 
2334	 3.91042467342096E-02 
2335	 3.91313642091249E-02 
2336	 3.91530561748625E-02 
2337	 0.039195891341543 
2338	 3.92062701419911E-02 
2339	 3.92005653634373E-02 
2340	 0.039232011465567 
2341	 3.92485700233073E-02 
2342	 3.92838507437172E-02 
2343	 3.93207511616941E-02 
2344	 3.92969893082739E-02 
2345	 3.92813367627294E-02 
2346	 3.92757176483068E-02 
2347	 3.92692041502553E-02 
2348	 3.93273981089575E-02 
2349	 3.93800068324143E-02 
2350	 3.93640256818579E-02 
2351	 3.93669236131924E-02 
2352	 3.93410333931132E-02 
2353	 3.92698954171577E-02 
2354	 3.92727140694632E-02 
2355	 3.92720549955124E-02 
2356	 3.92722659658565E-02 
2357	 3.93196981465865E-02 
2358	 3.93225322494074E-02 
2359	 0.039356222286932 
2360	 3.94247820242725E-02 
2361	 3.94249250497127E-02 
2362	 3.94096413453386E-02 
2363	 3.94372557443401E-02 
2364	 3.94303132029622E-02 
2365	 3.93939059575319E-02 
2366	 3.93616558033494E-02 
2367	 3.93470182747764E-02 
2368	 3.93949642353565E-02 
2369	 3.94330077627443E-02 
2370	 3.94154665656452E-02 
2371	 3.93882419342007E-02 
2372	 3.93645728622911E-02 
2373	 3.92897195316578E-02 
2374	 3.92701014489354E-02 
2375	 3.93305213466088E-02 
2376	 3.93011189745864E-02 
2377	 0.039258229368722 
2378	 3.92737200456065E-02 
2379	 3.92528892651454E-02 
2380	 3.92786342387104E-02 
2381	 0.039301260585166 
2382	 3.93125445717279E-02 
2383	 3.93559819336657E-02 
2384	 3.93623423797944E-02 
2385	 3.93237289562371E-02 
2386	 3.93171320332443E-02 
2387	 0.039274481523846 
2388	 3.92746985725588E-02 
2389	 0.039335935676723 
2390	 3.93326383804487E-02 
2391	 0.039306051969495 
2392	 3.93077093882245E-02 
2393	 0.039306414506681 
2394	 3.92781323134511E-02 
2395	 3.92494967172529E-02 
2396	 3.92626463596922E-02 
2397	 3.92447409492475E-02 
2398	 3.92611406319134E-02 
2399	 3.93703442931116E-02 
2400	 3.94014296351993E-02 
2401	 3.93890283492292E-02 
2402	 3.94264800855958E-02 
2403	 3.94161302489767E-02 
2404	 3.93045311233451E-02 
2405	 3.91463169843381E-02 
2406	 0.039127632004909 
2407	 3.91021626578653E-02 
2408	 0.039096604367187 
2409	 3.92170583387727E-02 
2410	 3.91714862163382E-02 
2411	 3.91487498341932E-02 
2412	 3.92857913699373E-02 
2413	 3.93120797555463E-02 
2414	 3.92644862096456E-02 
2415	 3.92217369676137E-02 
2416	 3.92658691758149E-02 
2417	 3.93090873363021E-02 
2418	 3.92223341668778E-02 
2419	 3.92146700156558E-02 
2420	 0.039188576114487 
2421	 3.90811805099978E-02 
2422	 3.91346663196817E-02 
2423	 3.91985491708334E-02 
2424	 3.91480313610843E-02 
2425	 3.91644265992616E-02 
2426	 3.91835150253625E-02 
2427	 3.91980879977241E-02 
2428	 3.92571681325458E-02 
2429	 3.91881231281288E-02 
2430	 3.91428284040648E-02 
2431	 3.91227197957901E-02 
2432	 3.90345385235753E-02 
2433	 3.90541120199646E-02 
2434	 3.90440623715542E-02 
2435	 0.038985898318886 
2436	 3.90283233576135E-02 
2437	 3.90643954196502E-02 
2438	 3.90911617605387E-02 
2439	 3.90839272765304E-02 
2440	 3.90383073674889E-02 
2441	 3.90067227228947E-02 
2442	 0.038993988343919 
2443	 3.90393899430306E-02 
2444	 3.89765997582991E-02 
2445	 3.89225135441247E-02 
2446	 0.038965702285563 
2447	 0.039044378727703 
2448	 3.91104776121119E-02 
2449	 3.91474106151969E-02 
2450	 3.91592820512849E-02 
2451	 3.90095077301145E-02 
2452	 3.90247075718399E-02 
2453	 3.91563139661827E-02 
2454	 3.92346465594182E-02 
2455	 0.039378426268938 
2456	 3.93957347865947E-02 
2457	 0.039317539646625 
2458	 3.92293204727213E-02 
2459	 3.91199822296276E-02 
2460	 3.90871419890933E-02 
2461	 3.90802911855529E-02 
2462	 3.89494690173008E-02 
2463	 3.88543032695773E-02 
2464	 0.03880182138706 
2465	 3.87354503754269E-02 
2466	 0.038739016529332 
2467	 3.87183381898464E-02 
2468	 3.87867031414357E-02 
2469	 3.87926259602173E-02 
2470	 3.86756637002637E-02 
2471	 3.87093395462594E-02 
2472	 3.88118783126119E-02 
2473	 3.88973196649547E-02 
2474	 3.89970431608792E-02 
2475	 3.90743720126136E-02 
2476	 3.89655450860786E-02 
2477	 0.038869067495274 
2478	 3.90055452462744E-02 
2479	 3.90686640156621E-02 
2480	 3.91029765947109E-02 
2481	 3.90705958309676E-02 
2482	 3.89696641893307E-02 
2483	 3.89373284575006E-02 
2484	 0.038766351723618 
2485	 3.87137211763375E-02 
2486	 3.86278156453525E-02 
2487	 3.85767788327993E-02 
2488	 3.86560462961691E-02 
2489	 3.86478803164874E-02 
2490	 3.86075262535774E-02 
2491	 3.85441281039828E-02 
2492	 3.85491176832752E-02 
2493	 3.87255386089494E-02 
2494	 3.88826625644007E-02 
2495	 3.89473400169705E-02 
2496	 0.03897171899058 
2497	 0.039029076622016 
2498	 3.91065416382419E-02 
2499	 3.91855603758388E-02 
2500	 3.90919291193609E-02 
