Wavelength	spectrum00003.asd
350	 4.66775035660285E-02 
351	 4.53492097584842E-02 
352	 0.044144140409545 
353	 4.35183467209321E-02 
354	 4.54462427952718E-02 
355	 4.62986693995209E-02 
356	 4.63316853409107E-02 
357	 4.60508607746218E-02 
358	 4.35990374845783E-02 
359	 4.15868260595431E-02 
360	 4.18009347366522E-02 
361	 4.45706365598914E-02 
362	 4.35866030472308E-02 
363	 4.19971275889973E-02 
364	 4.17359599549774E-02 
365	 4.18876795055966E-02 
366	 4.22134975162886E-02 
367	 4.23052631511384E-02 
368	 4.21673116991606E-02 
369	 0.043270623769178 
370	 4.33180273719051E-02 
371	 4.26685674376185E-02 
372	 4.29902573478506E-02 
373	 0.042694566989056 
374	 4.26799106575966E-02 
375	 4.36068248140781E-02 
376	 4.55121438750171E-02 
377	 4.45931571122101E-02 
378	 4.31834825261615E-02 
379	 4.39053824368431E-02 
380	 4.43095696055165E-02 
381	 4.50900189103794E-02 
382	 4.55064370442735E-02 
383	 4.43392331649284E-02 
384	 4.42620491066541E-02 
385	 4.52182412685841E-02 
386	 4.60910123933019E-02 
387	 4.46903291496285E-02 
388	 4.42653352256913E-02 
389	 4.48073305476891E-02 
390	 4.53665105247006E-02 
391	 4.51676202953765E-02 
392	 4.54780100047918E-02 
393	 4.63168327961601E-02 
394	 4.68361637570772E-02 
395	 4.66812689299135E-02 
396	 4.65513000932568E-02 
397	 4.67969563011677E-02 
398	 4.69905031331353E-02 
399	 4.69394709689823E-02 
400	 4.68034440687255E-02 
401	 4.68274869792456E-02 
402	 4.70627781534526E-02 
403	 4.75325302585579E-02 
404	 4.79033112886951E-02 
405	 0.047676287374796 
406	 0.047657092600863 
407	 4.78513313909369E-02 
408	 4.81462087137923E-02 
409	 4.84806913663454E-02 
410	 4.86813014245289E-02 
411	 4.88958280210131E-02 
412	 4.92711901592836E-02 
413	 0.049379616686289 
414	 4.93889118483214E-02 
415	 4.94513162548516E-02 
416	 4.96636869736838E-02 
417	 4.99887321213798E-02 
418	 0.050269884881906 
419	 5.04005976574671E-02 
420	 5.03918234092161E-02 
421	 5.05719651264646E-02 
422	 5.08665086486427E-02 
423	 0.051082678518817 
424	 5.15226867669049E-02 
425	 5.17852408152255E-02 
426	 5.18473685551629E-02 
427	 0.052163195374241 
428	 5.24987175235714E-02 
429	 5.27729249625688E-02 
430	 5.29639968032899E-02 
431	 5.31004355941525E-02 
432	 5.34146018209124E-02 
433	 5.37974857054641E-02 
434	 5.39983815626154E-02 
435	 5.43980936467426E-02 
436	 5.48530747847308E-02 
437	 5.52151219706567E-02 
438	 5.54133972293085E-02 
439	 5.56812865688452E-02 
440	 5.59512587835924E-02 
441	 5.61681301614772E-02 
442	 5.67452216897344E-02 
443	 5.72501574420791E-02 
444	 5.76062188752269E-02 
445	 5.80359145440293E-02 
446	 5.84020064362674E-02 
447	 0.058788522912268 
448	 5.92516616186743E-02 
449	 5.97089289662964E-02 
450	 6.02643570748905E-02 
451	 6.07516633058162E-02 
452	 0.060997166767924 
453	 0.061416314869601 
454	 6.20289116387381E-02 
455	 6.26759582763366E-02 
456	 6.30534605870246E-02 
457	 6.37085525508201E-02 
458	 6.43898742603634E-02 
459	 6.48439406638076E-02 
460	 6.53472866494839E-02 
461	 6.59606431180789E-02 
462	 6.66040265085907E-02 
463	 6.71478166397183E-02 
464	 6.78274186732924E-02 
465	 6.85343195034145E-02 
466	 6.91842418853928E-02 
467	 6.97848469835621E-02 
468	 7.05381541791313E-02 
469	 0.071249947724169 
470	 7.17647000566522E-02 
471	 7.25958603800163E-02 
472	 7.34506071162775E-02 
473	 7.42578449179146E-02 
474	 7.51213021905509E-02 
475	 0.075675177803409 
476	 7.62826572546904E-02 
477	 7.71599066214288E-02 
478	 7.79421491887342E-02 
479	 7.87651189006924E-02 
480	 7.95987995892228E-02 
481	 8.03855612656496E-02 
482	 8.12589143289682E-02 
483	 0.082197817973878 
484	 8.31246349946376E-02 
485	 8.39152579308324E-02 
486	 8.49023230649231E-02 
487	 8.58906883188969E-02 
488	 8.66958183292269E-02 
489	 8.75470209173306E-02 
490	 8.85032539691691E-02 
491	 8.94972553697433E-02 
492	 9.04111429959721E-02 
493	 9.14586495382537E-02 
494	 9.24265549375551E-02 
495	 9.32682156989464E-02 
496	 9.42946653968302E-02 
497	 9.53064809328676E-02 
498	 9.62680961112573E-02 
499	 9.72154723510186E-02 
500	 9.82923150040832E-02 
501	 9.92811364967099E-02 
502	 0.100185507009134 
503	 0.101207248475056 
504	 0.102242725402466 
505	 0.103259549868979 
506	 0.104255269279106 
507	 0.105272074242391 
508	 0.106250665351165 
509	 0.107218900261359 
510	 0.108233650136807 
511	 0.109265352229228 
512	 0.110268197141392 
513	 0.111242530287292 
514	 0.112253882348277 
515	 0.113174229386485 
516	 0.114035198183304 
517	 0.114908345844396 
518	 0.115848750000781 
519	 0.1167750152661 
520	 0.117674343530858 
521	 0.118578463401706 
522	 0.119420302187894 
523	 0.120240464847255 
524	 0.121071832418584 
525	 0.121907049468302 
526	 0.122696710370865 
527	 0.123483800292485 
528	 0.124305507581404 
529	 0.124962799280639 
530	 0.125606850930543 
531	 0.126305970077305 
532	 0.127013771567624 
533	 0.127670865292114 
534	 0.128257463965704 
535	 0.128780333575772 
536	 0.129273215267667 
537	 0.12984068555583 
538	 0.130405075154295 
539	 0.130812518227775 
540	 0.131237257369731 
541	 0.131631936897331 
542	 0.131969434272921 
543	 0.132295764685714 
544	 0.132594893649426 
545	 0.132843604688181 
546	 0.133029403404588 
547	 0.133199145461647 
548	 0.133339910771425 
549	 0.133446172643506 
550	 0.133520719592191 
551	 0.133551291028562 
552	 0.1335716696429 
553	 0.133587597772387 
554	 0.13350777618094 
555	 0.133426620227341 
556	 0.133353266652252 
557	 0.133251410082351 
558	 0.133073789819596 
559	 0.13290140887818 
560	 0.132747539359546 
561	 0.13251563481683 
562	 0.132262265104988 
563	 0.132000830263388 
564	 0.131720130047386 
565	 0.131363559252128 
566	 0.130952190965807 
567	 0.130504243098858 
568	 0.130035450404454 
569	 0.129563279898796 
570	 0.129099261699053 
571	 0.128647995050038 
572	 0.128203231233071 
573	 0.127786802634022 
574	 0.127382297342609 
575	 0.126957047601534 
576	 0.126495061333613 
577	 0.125977409009392 
578	 0.125398537167466 
579	 0.124769404402587 
580	 0.124132311945383 
581	 0.12352467387362 
582	 0.12295569109017 
583	 0.122364903034074 
584	 0.121781286678272 
585	 0.121201120780056 
586	 0.120600295797278 
587	 0.119964619381873 
588	 0.119316965564337 
589	 0.118661877186524 
590	 0.1179643130686 
591	 0.117282640570754 
592	 0.116618561470718 
593	 0.115960377154842 
594	 0.115329467980993 
595	 0.114660842598073 
596	 0.11395157314073 
597	 0.113256582321069 
598	 0.112559300421018 
599	 0.111863782759479 
600	 0.111169769448925 
601	 0.110462038686806 
602	 0.10978206745174 
603	 0.109127977222146 
604	 0.108475340817 
605	 0.107790365912767 
606	 0.107103078467707 
607	 0.106430031722837 
608	 0.105765559820994 
609	 0.105050854769774 
610	 0.104366110014394 
611	 0.103770521182912 
612	 0.103145767217261 
613	 0.102502175513169 
614	 0.101853286309738 
615	 0.101213789991777 
616	 0.10058022138635 
617	 9.99710050775314E-02 
618	 9.93859744239113E-02 
619	 9.87863786644895E-02 
620	 9.82012965849636E-02 
621	 9.76208309630743E-02 
622	 9.70307141283493E-02 
623	 9.64569208037111E-02 
624	 9.59020660795859E-02 
625	 9.53612274275462E-02 
626	 9.48228479314992E-02 
627	 9.42848295203791E-02 
628	 9.37526575349446E-02 
629	 0.093230214906614 
630	 9.27121857492203E-02 
631	 9.22193349041254E-02 
632	 0.091734805638611 
633	 9.12340788522724E-02 
634	 9.07639441604065E-02 
635	 9.02949572506394E-02 
636	 8.98224492933332E-02 
637	 8.93813804317775E-02 
638	 8.89313668875634E-02 
639	 8.84766146824965E-02 
640	 8.80321966144315E-02 
641	 8.76123678529999E-02 
642	 8.71738781903748E-02 
643	 8.67450474702025E-02 
644	 8.63841203877379E-02 
645	 8.59962457130063E-02 
646	 0.08557974940609 
647	 8.51636548509188E-02 
648	 8.48053044383641E-02 
649	 8.44669246599157E-02 
650	 8.41282402284977E-02 
651	 8.37770495958115E-02 
652	 0.083410472946392 
653	 8.30605666620244E-02 
654	 8.27357884241446E-02 
655	 8.24244218468796E-02 
656	 8.21320595276276E-02 
657	 0.081824850729651 
658	 8.14957424154541E-02 
659	 8.12035586186783E-02 
660	 8.09294028025791E-02 
661	 8.06609867862865E-02 
662	 8.03921060705726E-02 
663	 0.080150085013411 
664	 7.98797972788125E-02 
665	 7.95858884139171E-02 
666	 7.93360300600033E-02 
667	 7.91168629568257E-02 
668	 7.88953310107183E-02 
669	 7.86523940296988E-02 
670	 7.84137787164547E-02 
671	 7.81857573229054E-02 
672	 7.79668216887037E-02 
673	 7.77535055592875E-02 
674	 7.75649768823387E-02 
675	 7.73771800926032E-02 
676	 7.71767700112918E-02 
677	 7.69680409570658E-02 
678	 7.67649135525306E-02 
679	 7.65835991149463E-02 
680	 7.64294796372764E-02 
681	 7.62795802741605E-02 
682	 7.61242187450155E-02 
683	 7.59623271484444E-02 
684	 7.57990586331497E-02 
685	 7.56376315376565E-02 
686	 7.54984682212914E-02 
687	 7.53751044389692E-02 
688	 0.075222188224629 
689	 7.50816175873702E-02 
690	 7.49527114725972E-02 
691	 7.48316741039143E-02 
692	 7.47495007048624E-02 
693	 7.46457352713155E-02 
694	 7.45197019958671E-02 
695	 7.44074725014275E-02 
696	 7.42882379141143E-02 
697	 7.41907119440976E-02 
698	 7.41158210186478E-02 
699	 0.074012395501657 
700	 7.39353903013146E-02 
701	 0.073867353678899 
702	 0.073783870898701 
703	 7.37164822784735E-02 
704	 7.36569285291388E-02 
705	 7.35879251395402E-02 
706	 7.34937168596378E-02 
707	 7.34350909808223E-02 
708	 7.33864987033747E-02 
709	 7.33313591647081E-02 
710	 7.32875554678769E-02 
711	 7.32628150555797E-02 
712	 7.32425280738668E-02 
713	 7.32092064735489E-02 
714	 7.31627710485875E-02 
715	 7.31313789934506E-02 
716	 7.31106825071873E-02 
717	 7.30759431108117E-02 
718	 7.30554795868784E-02 
719	 7.30540511158817E-02 
720	 0.073058407806178 
721	 7.30293840042679E-02 
722	 7.30354428202613E-02 
723	 7.30425674137683E-02 
724	 7.30118142528518E-02 
725	 7.30121641942062E-02 
726	 7.30376540952797E-02 
727	 7.30666717800204E-02 
728	 7.30724299919153E-02 
729	 7.30885332467658E-02 
730	 7.30944650967943E-02 
731	 0.07309478217448 
732	 7.31462888326698E-02 
733	 7.32022653684542E-02 
734	 7.32524293107075E-02 
735	 7.32950656537583E-02 
736	 7.33152754749696E-02 
737	 7.33575435311196E-02 
738	 7.34194770442206E-02 
739	 7.34697981374479E-02 
740	 7.35310418567607E-02 
741	 7.35935377431602E-02 
742	 7.36518920121994E-02 
743	 7.37122233903005E-02 
744	 7.37979114607745E-02 
745	 7.38846821243296E-02 
746	 7.39529558986676E-02 
747	 7.40455692750155E-02 
748	 7.41345529784859E-02 
749	 0.074215988329915 
750	 7.43009180373111E-02 
751	 7.43963785601282E-02 
752	 7.44937051899091E-02 
753	 7.45972465732227E-02 
754	 7.47292015408959E-02 
755	 7.48164504334825E-02 
756	 7.49003228096013E-02 
757	 7.50211360722072E-02 
758	 7.51335889444492E-02 
759	 0.075255830761284 
760	 7.53770238849904E-02 
761	 7.54829363273949E-02 
762	 7.56244076906198E-02 
763	 7.57764697893979E-02 
764	 7.59217437331715E-02 
765	 7.60593735811605E-02 
766	 7.62109482811625E-02 
767	 7.63605009896745E-02 
768	 7.65042150076366E-02 
769	 7.66868760389028E-02 
770	 7.68470483148095E-02 
771	 7.69964979277769E-02 
772	 7.71686549184535E-02 
773	 7.73606786474996E-02 
774	 7.75313783002666E-02 
775	 7.76949262538884E-02 
776	 7.79035956886334E-02 
777	 0.078077918837261 
778	 7.82656950014174E-02 
779	 7.84829221389508E-02 
780	 7.86605370561353E-02 
781	 7.88519194364236E-02 
782	 7.90590832470394E-02 
783	 7.92741667964588E-02 
784	 7.95096410204609E-02 
785	 0.079742053524412 
786	 7.99595225863127E-02 
787	 8.01630536246449E-02 
788	 8.03845164048297E-02 
789	 8.06181946722868E-02 
790	 8.08571955528729E-02 
791	 8.10986970266891E-02 
792	 0.081352322657799 
793	 8.16004186852843E-02 
794	 8.18395163715892E-02 
795	 0.082113539530541 
796	 8.23969110434068E-02 
797	 8.26861057347947E-02 
798	 8.29762934491591E-02 
799	 8.32178000196459E-02 
800	 8.34830532603543E-02 
801	 0.083778448772116 
802	 8.40579384865955E-02 
803	 8.43389075204373E-02 
804	 8.46406906182826E-02 
805	 8.49587566931301E-02 
806	 0.085253163692517 
807	 8.55705372059438E-02 
808	 0.085890467084485 
809	 8.61952623440532E-02 
810	 8.65257268077012E-02 
811	 8.68657189880848E-02 
812	 8.71932443573254E-02 
813	 8.75001321380472E-02 
814	 8.78688219442186E-02 
815	 8.82374754169512E-02 
816	 8.85821141849774E-02 
817	 8.89233451314117E-02 
818	 8.92932527340723E-02 
819	 8.96557656198592E-02 
820	 0.090005665853043 
821	 0.090404779169089 
822	 0.090792647348363 
823	 9.11665657678681E-02 
824	 9.15441484269704E-02 
825	 9.19574615438004E-02 
826	 9.23417441925761E-02 
827	 0.092711687453763 
828	 9.31142536936476E-02 
829	 9.35442209322783E-02 
830	 9.39894551686497E-02 
831	 0.094424971725962 
832	 9.48246498106538E-02 
833	 9.52588879204966E-02 
834	 9.57129676937864E-02 
835	 9.61657998202027E-02 
836	 9.66087072029449E-02 
837	 9.70549897727486E-02 
838	 9.74991737474517E-02 
839	 9.79441124000964E-02 
840	 9.84316463524597E-02 
841	 9.89219574440924E-02 
842	 9.93988294453197E-02 
843	 9.98628078453351E-02 
844	 0.100336941366181 
845	 0.100827499662315 
846	 0.101332320724887 
847	 0.101841042235116 
848	 0.10232747452901 
849	 0.10282693423613 
850	 0.103348294917339 
851	 0.103858056406496 
852	 0.104376523234591 
853	 0.104907268263966 
854	 0.105446356774326 
855	 0.10598124970467 
856	 0.106507078002766 
857	 0.107055774598063 
858	 0.107647216208961 
859	 0.108220131684314 
860	 0.108780319205538 
861	 0.109343043471631 
862	 0.109922500925407 
863	 0.110496401681767 
864	 0.11106720950001 
865	 0.111646138326812 
866	 0.112247686055977 
867	 0.112839688905305 
868	 0.113457934473692 
869	 0.114096418466221 
870	 0.114684038930089 
871	 0.115270322453949 
872	 0.115886560611755 
873	 0.116531080258927 
874	 0.117137668689869 
875	 0.117803196041482 
876	 0.118465988424629 
877	 0.119067909883279 
878	 0.119746963820752 
879	 0.120392742064748 
880	 0.121029528934208 
881	 0.121725488457668 
882	 0.1224029535707 
883	 0.123073754277478 
884	 0.123743764098934 
885	 0.124412906972351 
886	 0.125087682807475 
887	 0.125776669194373 
888	 0.126477005219699 
889	 0.127173564714401 
890	 0.127886307296538 
891	 0.128600739139773 
892	 0.129304064828553 
893	 0.129997310928643 
894	 0.13072481390571 
895	 0.131466743115868 
896	 0.132197916520242 
897	 0.132928185250525 
898	 0.133651899995817 
899	 0.134375374129355 
900	 0.135105873487893 
901	 0.135832870312376 
902	 0.136578864631441 
903	 0.137350414890453 
904	 0.138133674331487 
905	 0.138863868557967 
906	 0.13961339236581 
907	 0.140395038833924 
908	 0.141172192017058 
909	 0.141936778254985 
910	 0.142694761214697 
911	 0.143470561840359 
912	 0.144294823419117 
913	 0.145082389995885 
914	 0.145880642890112 
915	 0.146706541194986 
916	 0.14751196489605 
917	 0.148353085209997 
918	 0.149159518209445 
919	 0.14991910087206 
920	 0.150768346523648 
921	 0.151638049222162 
922	 0.15248555673605 
923	 0.153300776359955 
924	 0.154135690014032 
925	 0.154996657205108 
926	 0.155880298387345 
927	 0.156777187474832 
928	 0.157681790150042 
929	 0.158563924147928 
930	 0.159429535813624 
931	 0.160297065299192 
932	 0.161156108922339 
933	 0.162055248494807 
934	 0.162978474545473 
935	 0.163883655256973 
936	 0.164804565357892 
937	 0.165733673847759 
938	 0.166666900941086 
939	 0.167601151081902 
940	 0.168512434276275 
941	 0.169444985855904 
942	 0.170404226042088 
943	 0.171361116919758 
944	 0.172338723135535 
945	 0.173284634248417 
946	 0.174188969320288 
947	 0.175095230653486 
948	 0.176023359753463 
949	 0.176946471049247 
950	 0.177841119522941 
951	 0.178705783163176 
952	 0.17961466760049 
953	 0.180582076398149 
954	 0.181561466300495 
955	 0.182448479628146 
956	 0.183308040897099 
957	 0.184270918052791 
958	 0.18530599270486 
959	 0.186106211959608 
960	 0.18701294872479 
961	 0.187954713635769 
962	 0.188874140741508 
963	 0.189935315841996 
964	 0.190851355873021 
965	 0.191678271570686 
966	 0.192555835328057 
967	 0.193584646964418 
968	 0.194585441168487 
969	 0.195535541333728 
970	 0.196461841111899 
971	 0.197387203607795 
972	 0.198293034459835 
973	 0.199226570274856 
974	 0.200205038504512 
975	 0.20111034614996 
976	 0.202045026816341 
977	 0.203011892158976 
978	 0.203984931067884 
979	 0.204952988941047 
980	 0.205962840385154 
981	 0.20695152341003 
982	 0.207879699973691 
983	 0.208915037862596 
984	 0.209848253861829 
985	 0.210762275091051 
986	 0.211781729780925 
987	 0.212805387774595 
988	 0.213803946877315 
989	 0.214759731935498 
990	 0.215681115165965 
991	 0.216633527448653 
992	 0.217528148762187 
993	 0.218444629135046 
994	 0.219474003619031 
995	 0.22053984708806 
996	 0.221524462191768 
997	 0.222427022879295 
998	 0.223311592117658 
999	 0.224256010445379 
1000	 0.225371992170228 
1001	 0.22866271015947 
1002	 0.229638546808885 
1003	 0.230635802416014 
1004	 0.231601507180191 
1005	 0.232525179802547 
1006	 0.233488784863729 
1007	 0.234450781932151 
1008	 0.235434571139868 
1009	 0.236437337057211 
1010	 0.237432883573619 
1011	 0.238466267293834 
1012	 0.239450227203981 
1013	 0.240388294906804 
1014	 0.241359783768733 
1015	 0.242306740479225 
1016	 0.243274299949552 
1017	 0.244329869491443 
1018	 0.245337475183895 
1019	 0.246362898423257 
1020	 0.247406335390644 
1021	 0.248387717953862 
1022	 0.249326321302362 
1023	 0.250278683959527 
1024	 0.251185464141632 
1025	 0.252143296043032 
1026	 0.253126223796594 
1027	 0.254097128858968 
1028	 0.255099830610666 
1029	 0.256075970630409 
1030	 0.257007780415014 
1031	 0.257988300881204 
1032	 0.258940481118152 
1033	 0.259893248880086 
1034	 0.260880816739097 
1035	 0.261837171381709 
1036	 0.262815257484215 
1037	 0.26384259063409 
1038	 0.264796360846374 
1039	 0.265717535659535 
1040	 0.266663663738327 
1041	 0.267556912014879 
1042	 0.268502596306991 
1043	 0.269505991579962 
1044	 0.27046131408229 
1045	 0.271417804713903 
1046	 0.272427053035673 
1047	 0.273338921756866 
1048	 0.274287374662192 
1049	 0.275260089972056 
1050	 0.276183914173092 
1051	 0.277228056232193 
1052	 0.278255280573042 
1053	 0.279260813598493 
1054	 0.280298826756253 
1055	 0.281290910024394 
1056	 0.28222319461306 
1057	 0.283190997820515 
1058	 0.284139637449555 
1059	 0.28509915374686 
1060	 0.286175140008266 
1061	 0.287181106868128 
1062	 0.288206275155167 
1063	 0.289239516890574 
1064	 0.290164021256839 
1065	 0.291173439979219 
1066	 0.292184268345344 
1067	 0.293171660307299 
1068	 0.294189231862136 
1069	 0.295125892056337 
1070	 0.296110075654911 
1071	 0.297113617560777 
1072	 0.298115936880708 
1073	 0.299066294427835 
1074	 0.300060811611571 
1075	 0.300969089176425 
1076	 0.301887284288597 
1077	 0.30290355998821 
1078	 0.303855462430752 
1079	 0.304825541045611 
1080	 0.305815469861569 
1081	 0.306717011203441 
1082	 0.307654505122366 
1083	 0.308599958067824 
1084	 0.30950980035796 
1085	 0.310461412050977 
1086	 0.311377471876247 
1087	 0.312266246941287 
1088	 0.313158015847197 
1089	 0.314093748593832 
1090	 0.314990660080099 
1091	 0.315898130461843 
1092	 0.316816768616439 
1093	 0.317702505435715 
1094	 0.318607461401569 
1095	 0.319505171364309 
1096	 0.320399230366551 
1097	 0.321314260704621 
1098	 0.322185679996857 
1099	 0.323052296302414 
1100	 0.323899529204667 
1101	 0.32472576260168 
1102	 0.325590005499301 
1103	 0.326439834977835 
1104	 0.327280827240976 
1105	 0.328166552913678 
1106	 0.329048276895031 
1107	 0.329849413217947 
1108	 0.330686906854355 
1109	 0.331500024477716 
1110	 0.332306017179282 
1111	 0.333187338651045 
1112	 0.334030088822718 
1113	 0.334879723118903 
1114	 0.335739645432614 
1115	 0.336514543239518 
1116	 0.337286411231493 
1117	 0.338050597522057 
1118	 0.338809827613991 
1119	 0.339550690654462 
1120	 0.340308257497329 
1121	 0.3410677977174 
1122	 0.341840262421856 
1123	 0.342612102277843 
1124	 0.343319612295247 
1125	 0.344028198003349 
1126	 0.344693518947534 
1127	 0.345338824614658 
1128	 0.346030333134974 
1129	 0.3466759071825 
1130	 0.347330057770698 
1131	 0.347977440517079 
1132	 0.348547019102956 
1133	 0.349137060729925 
1134	 0.349698098939016 
1135	 0.350229585188881 
1136	 0.350742259862202 
1137	 0.351231546847619 
1138	 0.351672887693094 
1139	 0.352130385892446 
1140	 0.352593640382461 
1141	 0.353002265238221 
1142	 0.353415359981434 
1143	 0.35381803998165 
1144	 0.354184017324213 
1145	 0.354545566113198 
1146	 0.354886638892676 
1147	 0.355225165713479 
1148	 0.355534325685171 
1149	 0.355822431555331 
1150	 0.356131844040974 
1151	 0.356418605644692 
1152	 0.356693131166885 
1153	 0.356972262819465 
1154	 0.357225961838901 
1155	 0.357456501004069 
1156	 0.357668001772433 
1157	 0.357864631004215 
1158	 0.358039581897177 
1159	 0.358178313073267 
1160	 0.35833183641812 
1161	 0.358479979725715 
1162	 0.358617136182033 
1163	 0.35875031743544 
1164	 0.358880767077532 
1165	 0.359006338631858 
1166	 0.359125108274522 
1167	 0.359266621196977 
1168	 0.359420532283447 
1169	 0.359570142868841 
1170	 0.359742017208697 
1171	 0.359879250035622 
1172	 0.359996640892433 
1173	 0.360117361590122 
1174	 0.360236919083394 
1175	 0.36033029910413 
1176	 0.36041952871808 
1177	 0.360488367504909 
1178	 0.360524815567934 
1179	 0.360558377696477 
1180	 0.360591856925709 
1181	 0.36060681265766 
1182	 0.36061103236795 
1183	 0.360603256086171 
1184	 0.360588616284534 
1185	 0.360596842963845 
1186	 0.360641500891216 
1187	 0.360702968488155 
1188	 0.360799609949746 
1189	 0.360939484599839 
1190	 0.361089277402367 
1191	 0.361255022251576 
1192	 0.361449416810245 
1193	 0.361669578376502 
1194	 0.361906544914499 
1195	 0.362172722582863 
1196	 0.362453486406631 
1197	 0.362751743157176 
1198	 0.363066852414173 
1199	 0.363401396145508 
1200	 0.36372070930265 
1201	 0.364060700208861 
1202	 0.364414916375725 
1203	 0.364772890191234 
1204	 0.365208187633998 
1205	 0.365677587107571 
1206	 0.366161627591599 
1207	 0.366744970019664 
1208	 0.36738362997331 
1209	 0.368099456035296 
1210	 0.368873029914733 
1211	 0.369760729852131 
1212	 0.370723763184393 
1213	 0.371801946743543 
1214	 0.373003775125103 
1215	 0.374280414757841 
1216	 0.375681827880148 
1217	 0.377102669364933 
1218	 0.378606154768866 
1219	 0.38013511495184 
1220	 0.381693629868742 
1221	 0.383381659223931 
1222	 0.385030958966996 
1223	 0.386715037129358 
1224	 0.388359470341306 
1225	 0.390000763354991 
1226	 0.391561692828908 
1227	 0.393107929235646 
1228	 0.394586426672107 
1229	 0.395994586066162 
1230	 0.397378550310618 
1231	 0.398726441100669 
1232	 0.400033513304489 
1233	 0.40130290242025 
1234	 0.402502720957035 
1235	 0.40364493523533 
1236	 0.404756367894009 
1237	 0.405807789902607 
1238	 0.406831496628967 
1239	 0.407818509884636 
1240	 0.408778758122365 
1241	 0.409722985379936 
1242	 0.410593705490249 
1243	 0.411478956031702 
1244	 0.41235528890754 
1245	 0.413202401856785 
1246	 0.414026580396793 
1247	 0.414840145760668 
1248	 0.415634873618951 
1249	 0.416416762835 
1250	 0.417196260056098 
1251	 0.417930597549716 
1252	 0.418640797259377 
1253	 0.419324463725951 
1254	 0.419970536082441 
1255	 0.42060589654507 
1256	 0.421212025149464 
1257	 0.421819717976157 
1258	 0.42241763173897 
1259	 0.42299702691837 
1260	 0.423566680610106 
1261	 0.424126931739793 
1262	 0.424652771773661 
1263	 0.425199714701522 
1264	 0.425735750211499 
1265	 0.42627371670859 
1266	 0.426797522950114 
1267	 0.427312874604424 
1268	 0.427823426755235 
1269	 0.428316569659477 
1270	 0.428825000454156 
1271	 0.429343951533112 
1272	 0.429845199471828 
1273	 0.430341741010641 
1274	 0.430838657266649 
1275	 0.431308502382428 
1276	 0.431804878891309 
1277	 0.432315679012711 
1278	 0.432829155638433 
1279	 0.433359993826635 
1280	 0.433880925508201 
1281	 0.434390544985654 
1282	 0.434914431801547 
1283	 0.435455741336311 
1284	 0.435973622146978 
1285	 0.436484334110877 
1286	 0.436997390845125 
1287	 0.437500727755259 
1288	 0.437977033060127 
1289	 0.438476251094004 
1290	 0.438987273358614 
1291	 0.439491518195311 
1292	 0.44000450386112 
1293	 0.440490089561258 
1294	 0.440970194101426 
1295	 0.441432186776187 
1296	 0.441872181703312 
1297	 0.44230367567008 
1298	 0.442714736801903 
1299	 0.443134986117037 
1300	 0.443558113146214 
1301	 0.443958362849475 
1302	 0.444349544016943 
1303	 0.444739086466442 
1304	 0.445113433550662 
1305	 0.44547827052625 
1306	 0.445843577642336 
1307	 0.446200793207483 
1308	 0.44653523893637 
1309	 0.446872608984913 
1310	 0.447210999887195 
1311	 0.447548898360706 
1312	 0.447893472401913 
1313	 0.448244887654781 
1314	 0.448579680472576 
1315	 0.448920848668377 
1316	 0.449237700612258 
1317	 0.449538065129564 
1318	 0.449826521665275 
1319	 0.450098439235384 
1320	 0.450370697412428 
1321	 0.450633001779918 
1322	 0.450887419861261 
1323	 0.451152741633309 
1324	 0.451381128849578 
1325	 0.45157797595755 
1326	 0.451778566853365 
1327	 0.451960693576315 
1328	 0.45213961844134 
1329	 0.452326275164875 
1330	 0.452491527231468 
1331	 0.452644906405573 
1332	 0.452780970998919 
1333	 0.452908154104943 
1334	 0.453015226196424 
1335	 0.45308729902002 
1336	 0.453134804373213 
1337	 0.453163569808303 
1338	 0.453166974935983 
1339	 0.453143398980664 
1340	 0.453106533129193 
1341	 0.45303102113793 
1342	 0.452910675666781 
1343	 0.452792294041507 
1344	 0.452670526005779 
1345	 0.452497898454423 
1346	 0.452307620245253 
1347	 0.452075591000375 
1348	 0.451789111013323 
1349	 0.451495625715285 
1350	 0.451183384767624 
1351	 0.45084262501775 
1352	 0.450463385837127 
1353	 0.450086459918852 
1354	 0.449680895832797 
1355	 0.449285282894806 
1356	 0.448896239095943 
1357	 0.448495860623156 
1358	 0.448086219654645 
1359	 0.447676407195746 
1360	 0.447277862446335 
1361	 0.446850138049845 
1362	 0.446399568188142 
1363	 0.445966952177614 
1364	 0.445488112669815 
1365	 0.44499545066476 
1366	 0.444440188803665 
1367	 0.443858158416993 
1368	 0.443218544741511 
1369	 0.442520384443902 
1370	 0.441792974400047 
1371	 0.441028656031589 
1372	 0.44023200706062 
1373	 0.439401317761737 
1374	 0.438522890887326 
1375	 0.437588584047937 
1376	 0.436646206948597 
1377	 0.435667993132183 
1378	 0.434656383113521 
1379	 0.433614202673397 
1380	 0.43256374053121 
1381	 0.431481788837547 
1382	 0.4303783340447 
1383	 0.429248521892652 
1384	 0.428130842731663 
1385	 0.426970678233776 
1386	 0.425855045638995 
1387	 0.424734135302653 
1388	 0.423696867280058 
1389	 0.422693559115383 
1390	 0.421749633890197 
1391	 0.420907245275647 
1392	 0.420055408276578 
1393	 0.419285544259968 
1394	 0.418510684017427 
1395	 0.417693790345572 
1396	 0.416926411680805 
1397	 0.416002218869017 
1398	 0.415039642294156 
1399	 0.413906990844919 
1400	 0.412671416886064 
1401	 0.411292582087053 
1402	 0.409777947376583 
1403	 0.408139648106119 
1404	 0.406348546814614 
1405	 0.404519378143027 
1406	 0.402527633808455 
1407	 0.400590495409088 
1408	 0.398521210831943 
1409	 0.396646925097309 
1410	 0.394728697483386 
1411	 0.393089001125418 
1412	 0.391591955158917 
1413	 0.390326802485173 
1414	 0.389305158843881 
1415	 0.388393122393931 
1416	 0.387724282169603 
1417	 0.387078496010948 
1418	 0.38658695361818 
1419	 0.386078999287118 
1420	 0.385646368999879 
1421	 0.385199220304158 
1422	 0.384741880340204 
1423	 0.38431677214976 
1424	 0.383915637363585 
1425	 0.383507970081031 
1426	 0.383162131861337 
1427	 0.382837874597495 
1428	 0.382539783828278 
1429	 0.382294633764747 
1430	 0.38208411318099 
1431	 0.381903403489068 
1432	 0.3817761502345 
1433	 0.381694723876444 
1434	 0.381658812756225 
1435	 0.381667563894561 
1436	 0.381718196354373 
1437	 0.381822238832848 
1438	 0.381948026238559 
1439	 0.382115921955943 
1440	 0.382301703401283 
1441	 0.382516242396386 
1442	 0.382756946440624 
1443	 0.383029743482952 
1444	 0.383314758722264 
1445	 0.383632669849523 
1446	 0.383946753596105 
1447	 0.384270072382473 
1448	 0.384603736635465 
1449	 0.384947467963669 
1450	 0.38530029532229 
1451	 0.385675023416041 
1452	 0.3860366930211 
1453	 0.386406411049459 
1454	 0.386760177202238 
1455	 0.387092948146716 
1456	 0.387439054770983 
1457	 0.387792325437174 
1458	 0.388134156487057 
1459	 0.388457599921644 
1460	 0.388811526181359 
1461	 0.389170559240972 
1462	 0.38953526097826 
1463	 0.389920966597283 
1464	 0.3903183913953 
1465	 0.390716109981393 
1466	 0.391133414319703 
1467	 0.391535756305895 
1468	 0.391967995177754 
1469	 0.392389620258916 
1470	 0.392762988305897 
1471	 0.39317094871983 
1472	 0.393593599793002 
1473	 0.393997480363179 
1474	 0.394413852794653 
1475	 0.394782902733675 
1476	 0.395133578680049 
1477	 0.395452508191248 
1478	 0.395735012019673 
1479	 0.396006445983961 
1480	 0.396250664355774 
1481	 0.396492377309007 
1482	 0.396720186688237 
1483	 0.396934662909469 
1484	 0.397137621666536 
1485	 0.397330145097921 
1486	 0.397506497365221 
1487	 0.397673766449874 
1488	 0.397824888133061 
1489	 0.397982875675208 
1490	 0.398117327281776 
1491	 0.398286755163347 
1492	 0.398465358046475 
1493	 0.398668765751662 
1494	 0.398893683463202 
1495	 0.399135207872788 
1496	 0.399397451267831 
1497	 0.399674935119864 
1498	 0.399990089934272 
1499	 0.400283791735316 
1500	 0.4005743701572 
1501	 0.400877923905329 
1502	 0.401172753426675 
1503	 0.40148059408725 
1504	 0.401804342584263 
1505	 0.402137116904978 
1506	 0.402478562762728 
1507	 0.402824000142072 
1508	 0.403184938745701 
1509	 0.403544386362335 
1510	 0.403900221913966 
1511	 0.404262727775713 
1512	 0.404628653345551 
1513	 0.405003661345849 
1514	 0.405396313617307 
1515	 0.405777075328805 
1516	 0.406152581126358 
1517	 0.406536709218887 
1518	 0.406913290952496 
1519	 0.407296151680514 
1520	 0.407692216565499 
1521	 0.408089089913613 
1522	 0.408478151721371 
1523	 0.408891795154592 
1524	 0.409289110699384 
1525	 0.409690041577174 
1526	 0.410084227668719 
1527	 0.410472246316033 
1528	 0.410855454357545 
1529	 0.411230755937309 
1530	 0.411622392141796 
1531	 0.41201158993394 
1532	 0.41241285237222 
1533	 0.412827415641038 
1534	 0.413249198182434 
1535	 0.41368433671371 
1536	 0.414096552782502 
1537	 0.414509866782931 
1538	 0.414922931049081 
1539	 0.415322806623458 
1540	 0.415720956945317 
1541	 0.41613035898324 
1542	 0.416522784013581 
1543	 0.416905571603885 
1544	 0.417262760112776 
1545	 0.417621354592514 
1546	 0.417936816327869 
1547	 0.418211743755049 
1548	 0.418477924305054 
1549	 0.418723720359107 
1550	 0.418949812375396 
1551	 0.419144569543296 
1552	 0.419348104108461 
1553	 0.419534447268515 
1554	 0.419727651553679 
1555	 0.419927208550135 
1556	 0.420116746441017 
1557	 0.420293949164034 
1558	 0.420482579222127 
1559	 0.420666036121223 
1560	 0.420865505290806 
1561	 0.421083144202782 
1562	 0.421289694802026 
1563	 0.421494603949721 
1564	 0.421709688506434 
1565	 0.42191634793382 
1566	 0.422145268724785 
1567	 0.422396853762912 
1568	 0.422644956881306 
1569	 0.422898817957434 
1570	 0.423160593057094 
1571	 0.423427257472892 
1572	 0.423699628619124 
1573	 0.423987514587401 
1574	 0.424266195021105 
1575	 0.424548867412928 
1576	 0.424821868699742 
1577	 0.425082165410811 
1578	 0.425352404423921 
1579	 0.425621326786635 
1580	 0.425892077332693 
1581	 0.42617873212471 
1582	 0.426445616108658 
1583	 0.426700448784436 
1584	 0.426955718547467 
1585	 0.427204574658828 
1586	 0.427447568772029 
1587	 0.427680289129522 
1588	 0.427922687803606 
1589	 0.428157956754208 
1590	 0.428403953855317 
1591	 0.428667990647259 
1592	 0.428923828566215 
1593	 0.429171600487447 
1594	 0.429433102956551 
1595	 0.429705306829513 
1596	 0.429968728642369 
1597	 0.430244724961182 
1598	 0.430503950855217 
1599	 0.430752423433184 
1600	 0.430993267418912 
1601	 0.431233779980786 
1602	 0.431451284687231 
1603	 0.431641599873724 
1604	 0.431836052436781 
1605	 0.432030921662454 
1606	 0.432199345624908 
1607	 0.432352886852889 
1608	 0.432504204420807 
1609	 0.432613715539289 
1610	 0.432755560509389 
1611	 0.432935062609096 
1612	 0.433080343859862 
1613	 0.433231438736235 
1614	 0.433353906565705 
1615	 0.433447606387426 
1616	 0.43352711028808 
1617	 0.433604390353709 
1618	 0.433640400407459 
1619	 0.433622680007105 
1620	 0.433619700662653 
1621	 0.433592786952418 
1622	 0.433569128254273 
1623	 0.433564632314806 
1624	 0.433538068546258 
1625	 0.433494352061103 
1626	 0.433442583455286 
1627	 0.433376974843626 
1628	 0.433307515886772 
1629	 0.433220212187291 
1630	 0.43314227237396 
1631	 0.433071419247887 
1632	 0.432989927415305 
1633	 0.432900176776439 
1634	 0.432821412023358 
1635	 0.432747148155302 
1636	 0.432659867265136 
1637	 0.43259107962725 
1638	 0.432490873247114 
1639	 0.43236699232624 
1640	 0.432226353691681 
1641	 0.432068383114293 
1642	 0.431889488517182 
1643	 0.431701538780654 
1644	 0.431477520231627 
1645	 0.431232443752764 
1646	 0.43095017992405 
1647	 0.430625636615194 
1648	 0.430276274227032 
1649	 0.429892209431974 
1650	 0.429486503089397 
1651	 0.429055303124645 
1652	 0.42860215881975 
1653	 0.428148000861175 
1654	 0.427624301435235 
1655	 0.427074906742971 
1656	 0.426441459257159 
1657	 0.425748453043325 
1658	 0.424968264323787 
1659	 0.424106596795359 
1660	 0.423188348029891 
1661	 0.422196733797594 
1662	 0.421128700640817 
1663	 0.419994486511226 
1664	 0.418767731171011 
1665	 0.417462309871297 
1666	 0.416049081139514 
1667	 0.4145444147069 
1668	 0.412970226446667 
1669	 0.411305358602164 
1670	 0.409549368696162 
1671	 0.40769500247384 
1672	 0.405768741266534 
1673	 0.40374961658506 
1674	 0.401642520070218 
1675	 0.399472427219068 
1676	 0.397239973576992 
1677	 0.394926274099707 
1678	 0.392523672481698 
1679	 0.390017066688012 
1680	 0.387460809439425 
1681	 0.384799588955273 
1682	 0.382106900300913 
1683	 0.379384427956739 
1684	 0.376644757509354 
1685	 0.373834891449766 
1686	 0.37103131908581 
1687	 0.368183821167222 
1688	 0.365349675037181 
1689	 0.362515130235226 
1690	 0.359649928735939 
1691	 0.356785209285865 
1692	 0.353969005367808 
1693	 0.351156423352418 
1694	 0.348328988192502 
1695	 0.345535487795439 
1696	 0.342664681068091 
1697	 0.339726650361514 
1698	 0.336788076323533 
1699	 0.333825744805094 
1700	 0.330949638813926 
1701	 0.328047528404059 
1702	 0.325276191876724 
1703	 0.322535751966448 
1704	 0.319957636407774 
1705	 0.317478857560058 
1706	 0.315077691953356 
1707	 0.31296154313346 
1708	 0.310902487651533 
1709	 0.308969129155269 
1710	 0.307204435935747 
1711	 0.30543307887889 
1712	 0.303791765877037 
1713	 0.302181608432843 
1714	 0.300579010691715 
1715	 0.29913880407408 
1716	 0.29768830158334 
1717	 0.296304236616498 
1718	 0.295048858171787 
1719	 0.293815613326352 
1720	 0.29273792240357 
1721	 0.291832808144519 
1722	 0.291055925146577 
1723	 0.29051401549198 
1724	 0.290198529787481 
1725	 0.29008332298062 
1726	 0.290271745747608 
1727	 0.290785771318929 
1728	 0.291560458429143 
1729	 0.29266538982263 
1730	 0.294099518694674 
1731	 0.295668709614653 
1732	 0.297465587900946 
1733	 0.299344921973735 
1734	 0.301256474707699 
1735	 0.303237117414946 
1736	 0.305081681541968 
1737	 0.306814726413953 
1738	 0.308334827684221 
1739	 0.30960760251632 
1740	 0.310695815259128 
1741	 0.311536417015544 
1742	 0.312110210679643 
1743	 0.312531557646941 
1744	 0.312689215723524 
1745	 0.312758243565668 
1746	 0.312638086212555 
1747	 0.312478262909898 
1748	 0.31215412385027 
1749	 0.311877862417937 
1750	 0.311515255625954 
1751	 0.311247570693077 
1752	 0.310989935691559 
1753	 0.310824917728688 
1754	 0.310700766178598 
1755	 0.310714843898769 
1756	 0.310789123852547 
1757	 0.31105542153065 
1758	 0.311474168827712 
1759	 0.312024427004705 
1760	 0.312792143838157 
1761	 0.313770871412073 
1762	 0.31487679179904 
1763	 0.316265288476542 
1764	 0.317808328673268 
1765	 0.319476217291734 
1766	 0.321383899688943 
1767	 0.323277909868868 
1768	 0.325233756891374 
1769	 0.327234689704047 
1770	 0.329079004061436 
1771	 0.330932783165852 
1772	 0.332685155704387 
1773	 0.334304629396797 
1774	 0.335932466808142 
1775	 0.33738453659894 
1776	 0.338762722161524 
1777	 0.340065985768814 
1778	 0.341157217333969 
1779	 0.342215182652073 
1780	 0.34318457589148 
1781	 0.344014763051591 
1782	 0.344837493273467 
1783	 0.345546421997994 
1784	 0.346156218916701 
1785	 0.346689533176394 
1786	 0.347165335782195 
1787	 0.347557650351128 
1788	 0.347920403272229 
1789	 0.348218279271376 
1790	 0.34850637935868 
1791	 0.348762630587693 
1792	 0.349015042796038 
1793	 0.349236001369867 
1794	 0.349488504351643 
1795	 0.349695396370543 
1796	 0.349904823357594 
1797	 0.350132609063289 
1798	 0.350340781010298 
1799	 0.350582304698234 
1800	 0.350855808683192 
1801	 0.347230061305787 
1802	 0.347504881222159 
1803	 0.347756382766293 
1804	 0.347985396378993 
1805	 0.348234757288412 
1806	 0.348474778324511 
1807	 0.348700068273825 
1808	 0.34893928485206 
1809	 0.349190245364886 
1810	 0.349432700586076 
1811	 0.349664902809345 
1812	 0.349915044305197 
1813	 0.350164857724561 
1814	 0.350435978364213 
1815	 0.350708080967752 
1816	 0.351000919421464 
1817	 0.351297635716933 
1818	 0.351588801215901 
1819	 0.351910065825913 
1820	 0.352244514648111 
1821	 0.352599145279105 
1822	 0.352977401331743 
1823	 0.353384290493095 
1824	 0.353763165077001 
1825	 0.354150358431345 
1826	 0.354522989161193 
1827	 0.354873608651572 
1828	 0.355234480528697 
1829	 0.355594745211944 
1830	 0.355959455854359 
1831	 0.356328421363618 
1832	 0.356694257855356 
1833	 0.35705786747186 
1834	 0.357421690136634 
1835	 0.357761443209314 
1836	 0.358095080590084 
1837	 0.358427163159152 
1838	 0.358734466310133 
1839	 0.359078186355018 
1840	 0.359440186777741 
1841	 0.359795432550145 
1842	 0.360170109014622 
1843	 0.360536148696195 
1844	 0.360889941826604 
1845	 0.361212055423531 
1846	 0.361522878563454 
1847	 0.361823859910508 
1848	 0.362106984626264 
1849	 0.362389897537979 
1850	 0.362620435248494 
1851	 0.362829105743562 
1852	 0.363009214134895 
1853	 0.363121719226777 
1854	 0.363199943035813 
1855	 0.363248024740612 
1856	 0.363258927312971 
1857	 0.363235000028236 
1858	 0.363180567407694 
1859	 0.363098201081974 
1860	 0.36299729269065 
1861	 0.362830525887633 
1862	 0.362629823433877 
1863	 0.362383204521438 
1864	 0.362052575594749 
1865	 0.361706983980319 
1866	 0.361307248894145 
1867	 0.360811639578091 
1868	 0.360284977489877 
1869	 0.359675736814506 
1870	 0.35899165955421 
1871	 0.358246583804477 
1872	 0.357437881980361 
1873	 0.356564458091597 
1874	 0.355622304480248 
1875	 0.354605328382722 
1876	 0.353438878945016 
1877	 0.352231002991443 
1878	 0.350885317669263 
1879	 0.349391385735802 
1880	 0.347894838727938 
1881	 0.346224306249615 
1882	 0.344405817905229 
1883	 0.342481744255954 
1884	 0.340422666948009 
1885	 0.338069891096614 
1886	 0.335647290503905 
1887	 0.33302233151877 
1888	 0.330153639737152 
1889	 0.327374879163805 
1890	 0.324405646912339 
1891	 0.321390348106714 
1892	 0.318396040434136 
1893	 0.315284235934692 
1894	 0.31201609949907 
1895	 0.308864151871922 
1896	 0.305635459513339 
1897	 0.302380368043014 
1898	 0.299398034092658 
1899	 0.296358295123695 
1900	 0.293407450174873 
1901	 0.290615870398237 
1902	 0.287713482706909 
1903	 0.284978995747891 
1904	 0.282325298113416 
1905	 0.279726593863913 
1906	 0.277204343650349 
1907	 0.274964899236534 
1908	 0.272735982163747 
1909	 0.270620779941965 
1910	 0.26866375862296 
1911	 0.266665324225557 
1912	 0.264819178854598 
1913	 0.2630455732285 
1914	 0.261304002957525 
1915	 0.259701754347015 
1916	 0.258248558829248 
1917	 0.25679368595633 
1918	 0.255427279664581 
1919	 0.254169783003271 
1920	 0.252882043276984 
1921	 0.251691140373796 
1922	 0.250552154605891 
1923	 0.249441958109506 
1924	 0.248482562352784 
1925	 0.24758008204483 
1926	 0.246738091635051 
1927	 0.245997318264033 
1928	 0.24528096404981 
1929	 0.244597718950004 
1930	 0.243985524656826 
1931	 0.243436847545286 
1932	 0.24294975237706 
1933	 0.2425854886074 
1934	 0.242295875460464 
1935	 0.24205526150086 
1936	 0.241889975832548 
1937	 0.24177799785342 
1938	 0.241717206454619 
1939	 0.241716724096719 
1940	 0.241778969258235 
1941	 0.241906478615184 
1942	 0.242079258787069 
1943	 0.242294246629479 
1944	 0.242546557251776 
1945	 0.24284307840987 
1946	 0.243183205251404 
1947	 0.243553565852859 
1948	 0.243966243698257 
1949	 0.244419771265612 
1950	 0.244868221151265 
1951	 0.245328376062878 
1952	 0.245806183151346 
1953	 0.246297377654643 
1954	 0.246794334377343 
1955	 0.247330311022898 
1956	 0.247860978204383 
1957	 0.248395715665704 
1958	 0.248941849449324 
1959	 0.249449673154696 
1960	 0.249987511950199 
1961	 0.250523706900146 
1962	 0.251054796334494 
1963	 0.251592315484965 
1964	 0.252144930700467 
1965	 0.252685448478804 
1966	 0.253235914379043 
1967	 0.253764657812466 
1968	 0.254264099705256 
1969	 0.254777373562198 
1970	 0.255263971447991 
1971	 0.255760494244981 
1972	 0.256302451089568 
1973	 0.256825857026323 
1974	 0.257351832696672 
1975	 0.257900803653203 
1976	 0.258421770498978 
1977	 0.258922245260416 
1978	 0.259430122696137 
1979	 0.259927642411494 
1980	 0.260423381874831 
1981	 0.260946839160817 
1982	 0.261448171254965 
1983	 0.261967041997543 
1984	 0.262480128240109 
1985	 0.262938230134564 
1986	 0.263408175438311 
1987	 0.263874214084565 
1988	 0.264313566286386 
1989	 0.264772679527544 
1990	 0.265261314123066 
1991	 0.265713774644947 
1992	 0.266156214169315 
1993	 0.266598630776383 
1994	 0.266987761376502 
1995	 0.267373709547738 
1996	 0.267756493060526 
1997	 0.268103669369247 
1998	 0.268466029579907 
1999	 0.268834294075907 
2000	 0.269190506776432 
2001	 0.269555092992006 
2002	 0.269886620559129 
2003	 0.270205393264686 
2004	 0.27049898800696 
2005	 0.270754956680351 
2006	 0.271011949013488 
2007	 0.27126600345833 
2008	 0.271496454128304 
2009	 0.271698059872963 
2010	 0.271886871850508 
2011	 0.272035847902124 
2012	 0.272163141089297 
2013	 0.272260971808372 
2014	 0.272355533579396 
2015	 0.272373580075103 
2016	 0.272345209641432 
2017	 0.272274109741307 
2018	 0.272137939124405 
2019	 0.27197954202723 
2020	 0.271799718732511 
2021	 0.271558399186644 
2022	 0.271275583304662 
2023	 0.270945888384726 
2024	 0.270547946579088 
2025	 0.270114787938035 
2026	 0.269637723941099 
2027	 0.269085996592792 
2028	 0.268555726106134 
2029	 0.267992879828326 
2030	 0.26742730784419 
2031	 0.266861852691573 
2032	 0.266280956879182 
2033	 0.265649750501877 
2034	 0.265068891529291 
2035	 0.264491459983839 
2036	 0.263931008641048 
2037	 0.263431173494385 
2038	 0.262963473291699 
2039	 0.262534278313357 
2040	 0.262147056473515 
2041	 0.261791811255111 
2042	 0.261465777747057 
2043	 0.261190778480463 
2044	 0.260949995652859 
2045	 0.260762509875115 
2046	 0.260630390631905 
2047	 0.260533875367756 
2048	 0.260489842505126 
2049	 0.260475631783093 
2050	 0.260494045801082 
2051	 0.260560739211164 
2052	 0.260658476174429 
2053	 0.260800489832406 
2054	 0.260979129253235 
2055	 0.261200042484353 
2056	 0.261455885334966 
2057	 0.261749239584619 
2058	 0.26208163864636 
2059	 0.262466465734019 
2060	 0.262862460845508 
2061	 0.26330905563187 
2062	 0.263747339391805 
2063	 0.264206407743832 
2064	 0.264663626254625 
2065	 0.265129142988637 
2066	 0.265579722137681 
2067	 0.266077988577385 
2068	 0.2665566690611 
2069	 0.267035756951937 
2070	 0.267547147198002 
2071	 0.268001390265618 
2072	 0.268428106905962 
2073	 0.268839387640071 
2074	 0.269218061899636 
2075	 0.269590913630955 
2076	 0.269946924590655 
2077	 0.270292544615204 
2078	 0.270650285184951 
2079	 0.270953001252227 
2080	 0.271216749934255 
2081	 0.271468593631332 
2082	 0.271685028679733 
2083	 0.271873682534734 
2084	 0.272068991573483 
2085	 0.272243721498637 
2086	 0.272394181063673 
2087	 0.272516945268649 
2088	 0.272631151370262 
2089	 0.272731198112536 
2090	 0.272808241696699 
2091	 0.272873749285076 
2092	 0.272909062514368 
2093	 0.272913135524398 
2094	 0.272902445156965 
2095	 0.272875663193279 
2096	 0.272819299644073 
2097	 0.272742387746713 
2098	 0.272635384108174 
2099	 0.272504571568602 
2100	 0.272349844530303 
2101	 0.272181786297923 
2102	 0.272007493045734 
2103	 0.27178577244567 
2104	 0.271521995832321 
2105	 0.271259884032532 
2106	 0.270968232520714 
2107	 0.270663073485805 
2108	 0.270375000469702 
2109	 0.270025358052582 
2110	 0.269618978660283 
2111	 0.269215359995671 
2112	 0.268766886307562 
2113	 0.268328067837332 
2114	 0.267896521835612 
2115	 0.267440104090814 
2116	 0.266960512472146 
2117	 0.266488542398057 
2118	 0.266006666324563 
2119	 0.265498435621089 
2120	 0.265030019332322 
2121	 0.264567735444554 
2122	 0.26412494307498 
2123	 0.263696011048395 
2124	 0.263291828811891 
2125	 0.262915740132474 
2126	 0.262539521898682 
2127	 0.262187223170546 
2128	 0.261836403903553 
2129	 0.26148245970388 
2130	 0.261140829867137 
2131	 0.2608375819948 
2132	 0.260496700234575 
2133	 0.260139886400461 
2134	 0.259798356159641 
2135	 0.259394262892661 
2136	 0.258979040534959 
2137	 0.25855294551928 
2138	 0.258088050347042 
2139	 0.257661785548392 
2140	 0.257239098187262 
2141	 0.256824965434346 
2142	 0.25643307094959 
2143	 0.256031012399766 
2144	 0.255612662815518 
2145	 0.255229417037434 
2146	 0.25483957850774 
2147	 0.254500056865758 
2148	 0.254212444141493 
2149	 0.253920074784926 
2150	 0.253676115624488 
2151	 0.253406578307262 
2152	 0.253143977636615 
2153	 0.252850405870411 
2154	 0.252549755088631 
2155	 0.252236288110515 
2156	 0.251916067562054 
2157	 0.251584869579694 
2158	 0.251238917955141 
2159	 0.250882025442326 
2160	 0.250515652919534 
2161	 0.250122818115597 
2162	 0.249750495009486 
2163	 0.249364855290631 
2164	 0.249014125136558 
2165	 0.248673569316285 
2166	 0.248357765799701 
2167	 0.248062497324284 
2168	 0.247794214019468 
2169	 0.247538901800343 
2170	 0.247325269746861 
2171	 0.247147170174654 
2172	 0.246995199925852 
2173	 0.246876339951668 
2174	 0.246784413784463 
2175	 0.246725086440497 
2176	 0.246711666614194 
2177	 0.246705238706901 
2178	 0.246728787446146 
2179	 0.246773053932429 
2180	 0.246833045097547 
2181	 0.246920781057618 
2182	 0.247054430267277 
2183	 0.247174536670453 
2184	 0.247303925213125 
2185	 0.247440743966952 
2186	 0.24758594487406 
2187	 0.247734745239437 
2188	 0.247898226462663 
2189	 0.248059039519538 
2190	 0.248236851487719 
2191	 0.248385086464211 
2192	 0.248525888970621 
2193	 0.248651735538662 
2194	 0.248755254252567 
2195	 0.248847485274948 
2196	 0.248913793535752 
2197	 0.249000385863371 
2198	 0.24908174677805 
2199	 0.2491416643195 
2200	 0.249185035581218 
2201	 0.249231777212054 
2202	 0.249237028418387 
2203	 0.249206324025225 
2204	 0.249170350959493 
2205	 0.249105143242641 
2206	 0.249046207550244 
2207	 0.248978055525753 
2208	 0.248901588173198 
2209	 0.248834569949798 
2210	 0.248733036059267 
2211	 0.248614762514696 
2212	 0.248467861664951 
2213	 0.248293239888558 
2214	 0.248100994683582 
2215	 0.24788109233442 
2216	 0.247647659517315 
2217	 0.247420298786233 
2218	 0.247132817685854 
2219	 0.246814987949795 
2220	 0.246455904155452 
2221	 0.24604830787079 
2222	 0.245592837228367 
2223	 0.245128603252902 
2224	 0.24460103922616 
2225	 0.244018893532469 
2226	 0.24337614491512 
2227	 0.242629174660552 
2228	 0.241798097032635 
2229	 0.24089199445943 
2230	 0.239869492708607 
2231	 0.23883496153183 
2232	 0.237769496503101 
2233	 0.236574310528638 
2234	 0.23533459447483 
2235	 0.233947012457766 
2236	 0.23241461612016 
2237	 0.230818658142928 
2238	 0.229093924309208 
2239	 0.227328932853569 
2240	 0.225502307002521 
2241	 0.22356366377046 
2242	 0.22158862869389 
2243	 0.219448295194431 
2244	 0.217123088440254 
2245	 0.214781317719777 
2246	 0.21224407321153 
2247	 0.209783297300974 
2248	 0.207350724427968 
2249	 0.204856029075452 
2250	 0.20232938757107 
2251	 0.199854303848664 
2252	 0.197176627269996 
2253	 0.194603500771449 
2254	 0.192052135415955 
2255	 0.189467921075127 
2256	 0.187106930559276 
2257	 0.184764568593411 
2258	 0.182523521263719 
2259	 0.180426405348459 
2260	 0.178276474507129 
2261	 0.176135140003564 
2262	 0.174108209460885 
2263	 0.172068501798222 
2264	 0.170198966309027 
2265	 0.168506698626712 
2266	 0.166798633792478 
2267	 0.165202205151433 
2268	 0.163570537467711 
2269	 0.161939368729878 
2270	 0.160373981650216 
2271	 0.158798301251269 
2272	 0.157320059078697 
2273	 0.155935968030484 
2274	 0.154572241987136 
2275	 0.153349461996935 
2276	 0.152007484053411 
2277	 0.150651389336208 
2278	 0.149277038443583 
2279	 0.147794795141496 
2280	 0.146363727049815 
2281	 0.144981912085537 
2282	 0.143549161126333 
2283	 0.142099524398752 
2284	 0.140665011608732 
2285	 0.139110023338309 
2286	 0.137590162061654 
2287	 0.135995777592338 
2288	 0.134323077926198 
2289	 0.132733435911338 
2290	 0.131078888966194 
2291	 0.129436753858259 
2292	 0.127834799060163 
2293	 0.126093784439333 
2294	 0.124371170313845 
2295	 0.122694321507239 
2296	 0.121006540493749 
2297	 0.119533557299614 
2298	 0.118194342045884 
2299	 0.116991196535321 
2300	 0.115922869855845 
2301	 0.115037397736756 
2302	 0.11428116173762 
2303	 0.113759549304201 
2304	 0.113417646152191 
2305	 0.113330358765825 
2306	 0.113463916339696 
2307	 0.113858500822811 
2308	 0.114517282771285 
2309	 0.115419090181036 
2310	 0.116668897916299 
2311	 0.117971392088202 
2312	 0.119611939963227 
2313	 0.121136951414189 
2314	 0.122762349033303 
2315	 0.124320213286482 
2316	 0.125912102544891 
2317	 0.127334695074332 
2318	 0.128759006088179 
2319	 0.129930586259375 
2320	 0.130937526602733 
2321	 0.131771926325515 
2322	 0.132378763597618 
2323	 0.132878102412041 
2324	 0.133191927602674 
2325	 0.13340213995822 
2326	 0.133490599918195 
2327	 0.133434089080714 
2328	 0.13320264415272 
2329	 0.132889457574651 
2330	 0.132464614752247 
2331	 0.131863438787794 
2332	 0.131198523815091 
2333	 0.130432591659062 
2334	 0.1294872861984 
2335	 0.128457943492923 
2336	 0.127295493325645 
2337	 0.126034089302663 
2338	 0.124833331834873 
2339	 0.123567157505266 
2340	 0.122321670384058 
2341	 0.121179906577147 
2342	 0.120027220793528 
2343	 0.119038910319856 
2344	 0.118245100144712 
2345	 0.117607138953231 
2346	 0.117253889197551 
2347	 0.117174758860938 
2348	 0.117324649290289 
2349	 0.117858257440472 
2350	 0.118641518752601 
2351	 0.119590164402029 
2352	 0.12074978019985 
2353	 0.122029963252422 
2354	 0.12325427383636 
2355	 0.124451917376844 
2356	 0.125576489812481 
2357	 0.126496622254599 
2358	 0.127332012096054 
2359	 0.128014936146128 
2360	 0.128527966044702 
2361	 0.128947195461657 
2362	 0.129260586382751 
2363	 0.1294418697734 
2364	 0.129585493218144 
2365	 0.129677933641799 
2366	 0.129702391378416 
2367	 0.129768699054376 
2368	 0.129811596944359 
2369	 0.129823869260205 
2370	 0.129869400534519 
2371	 0.129937495606562 
2372	 0.130008474866213 
2373	 0.130059040565872 
2374	 0.130148093245309 
2375	 0.130235040243557 
2376	 0.130308434715402 
2377	 0.130458706645774 
2378	 0.130607171739016 
2379	 0.130687569753824 
2380	 0.130757632290638 
2381	 0.130840440676008 
2382	 0.130924800809571 
2383	 0.130975756996302 
2384	 0.131075898198407 
2385	 0.1312412794042 
2386	 0.131345110724632 
2387	 0.131414214661506 
2388	 0.131536351141171 
2389	 0.131649549919436 
2390	 0.131752884411438 
2391	 0.131911836342665 
2392	 0.13203467057633 
2393	 0.13212344607833 
2394	 0.132188900445321 
2395	 0.132220632316522 
2396	 0.13231081027738 
2397	 0.132401580358444 
2398	 0.132476611576053 
2399	 0.132600572575997 
2400	 0.132683636841367 
2401	 0.132717875010573 
2402	 0.132923717575318 
2403	 0.132995148746916 
2404	 0.133115245066221 
2405	 0.133204971815481 
2406	 0.133278962192079 
2407	 0.133447753952104 
2408	 0.133606537567335 
2409	 0.133729847191798 
2410	 0.133842704309775 
2411	 0.133947673532228 
2412	 0.13410736033338 
2413	 0.134213866579668 
2414	 0.134244975962233 
2415	 0.134298107945091 
2416	 0.134295600155178 
2417	 0.134348739787655 
2418	 0.134471023143259 
2419	 0.134482479770602 
2420	 0.134510916289719 
2421	 0.134548008370578 
2422	 0.134477165527933 
2423	 0.134467839989477 
2424	 0.134493151729205 
2425	 0.13450979659572 
2426	 0.134597955550235 
2427	 0.134711086870376 
2428	 0.134778687852129 
2429	 0.134700305379966 
2430	 0.134580667693708 
2431	 0.134461865692081 
2432	 0.134269890687492 
2433	 0.134168421864116 
2434	 0.13418767197181 
2435	 0.134182501573498 
2436	 0.13413231304928 
2437	 0.134074269987729 
2438	 0.134005518798897 
2439	 0.133914535818138 
2440	 0.133816363605122 
2441	 0.133689272014313 
2442	 0.133480156689655 
2443	 0.13324936060685 
2444	 0.133027815702307 
2445	 0.132798530680987 
2446	 0.132555373217165 
2447	 0.132200465426243 
2448	 0.131809556948785 
2449	 0.131513856772513 
2450	 0.131251878602466 
2451	 0.131017895039879 
2452	 0.130866462566201 
2453	 0.130744968920016 
2454	 0.130542701492556 
2455	 0.13022257854117 
2456	 0.129868536867829 
2457	 0.129541977409416 
2458	 0.129220446363944 
2459	 0.128835753991797 
2460	 0.128434506566401 
2461	 0.128241521947558 
2462	 0.128133589921916 
2463	 0.127971556818613 
2464	 0.127966931755596 
2465	 0.127879961672187 
2466	 0.127609641284792 
2467	 0.127641008003329 
2468	 0.127726260491998 
2469	 0.127579924477009 
2470	 0.127501085566928 
2471	 0.127300984067973 
2472	 0.127034169016271 
2473	 0.126891527658055 
2474	 0.126809989184453 
2475	 0.126871211052541 
2476	 0.126928878443681 
2477	 0.127035406666904 
2478	 0.127038978450205 
2479	 0.126803822215372 
2480	 0.127004055501016 
2481	 0.126998120834579 
2482	 0.126892104091018 
2483	 0.127113401927869 
2484	 0.126926771181191 
2485	 0.12709864640196 
2486	 0.127447473748587 
2487	 0.127403971659504 
2488	 0.127556813276841 
2489	 0.127645536985532 
2490	 0.127637144063874 
2491	 0.127850408861174 
2492	 0.127844555590206 
2493	 0.127663283563646 
2494	 0.127594971691645 
2495	 0.127743487413975 
2496	 0.127995729306153 
2497	 0.12835686108588 
2498	 0.128676097331335 
2499	 0.128642068155013 
2500	 0.128778309841981 
