Wavelength	spectrum00009.asd
350	 5.66460813078507E-02 
351	 5.57494622782212E-02 
352	 5.34048834797554E-02 
353	 0.052362069341233 
354	 0.054607383948042 
355	 5.40508306277369E-02 
356	 5.34780985127338E-02 
357	 5.48669283321719E-02 
358	 5.12924047599588E-02 
359	 4.92856276633908E-02 
360	 5.02872251563786E-02 
361	 5.25832612483128E-02 
362	 5.36582516759486E-02 
363	 5.33586107417413E-02 
364	 5.26224948420168E-02 
365	 5.33323522211753E-02 
366	 5.53149001164097E-02 
367	 5.61736961667983E-02 
368	 5.49709797001186E-02 
369	 5.72238220899949E-02 
370	 5.87515260177795E-02 
371	 5.93048240149515E-02 
372	 6.06537875632903E-02 
373	 6.05764125115112E-02 
374	 6.11998337795975E-02 
375	 6.27281406417458E-02 
376	 6.19897768741706E-02 
377	 6.33129213484133E-02 
378	 0.065154793647194 
379	 6.55849159108644E-02 
380	 6.69104765800478E-02 
381	 6.86068151106321E-02 
382	 6.98184982181315E-02 
383	 6.98920483977748E-02 
384	 0.071752537823475 
385	 7.37115034208276E-02 
386	 7.47565700282095E-02 
387	 7.56907561732114E-02 
388	 7.70547214787949E-02 
389	 0.078523647581352 
390	 0.079770641294696 
391	 8.13820988397548E-02 
392	 8.39578248000641E-02 
393	 0.086471261637625 
394	 8.72037650081159E-02 
395	 8.87207134261835E-02 
396	 9.14176263955555E-02 
397	 9.43560910005232E-02 
398	 9.48372591242221E-02 
399	 9.65088365952304E-02 
400	 9.91596139917491E-02 
401	 0.101532374176734 
402	 0.103121938776169 
403	 0.105384053982161 
404	 0.108099272435516 
405	 0.109896663025001 
406	 0.112139358523576 
407	 0.114278058933445 
408	 0.116090988754051 
409	 0.118563553598708 
410	 0.120633616812732 
411	 0.122581776818349 
412	 0.124930186354781 
413	 0.127145598733444 
414	 0.128903840894236 
415	 0.130645226074472 
416	 0.133354655078194 
417	 0.135300244526043 
418	 0.136994625658566 
419	 0.139002392249127 
420	 0.141065029211482 
421	 0.143026374186484 
422	 0.144945022049246 
423	 0.146931368596428 
424	 0.148740789908697 
425	 0.150453239396258 
426	 0.152243117220372 
427	 0.154351022444571 
428	 0.156239989790781 
429	 0.157961571862835 
430	 0.159667772135236 
431	 0.161356827999722 
432	 0.163205260885491 
433	 0.165137973276281 
434	 0.16696128256317 
435	 0.168796750808906 
436	 0.170626170686738 
437	 0.172454722912244 
438	 0.174347050782272 
439	 0.176147535529673 
440	 0.177947995358071 
441	 0.179842232342628 
442	 0.181593509248724 
443	 0.183513446156242 
444	 0.185548516414784 
445	 0.187373517064209 
446	 0.189283986311323 
447	 0.191185311817879 
448	 0.193027353281066 
449	 0.194986017401715 
450	 0.197034232695365 
451	 0.199081251739654 
452	 0.201048548986176 
453	 0.203137349976928 
454	 0.205169290850353 
455	 0.207120996605322 
456	 0.209175014721209 
457	 0.211336206302103 
458	 0.213478694772969 
459	 0.215524787115604 
460	 0.217616498426671 
461	 0.219813144235081 
462	 0.222054908537366 
463	 0.224224173124173 
464	 0.226347283987395 
465	 0.228574003813317 
466	 0.230850725953455 
467	 0.232781824084162 
468	 0.234938211026375 
469	 0.237215849317881 
470	 0.239397891657736 
471	 0.241688371845438 
472	 0.243975469724936 
473	 0.246222585794355 
474	 0.248455532060268 
475	 0.250605845616074 
476	 0.252761625823746 
477	 0.254985226633627 
478	 0.257246360008392 
479	 0.259408925194644 
480	 0.261524734960984 
481	 0.263703451338484 
482	 0.265866350478957 
483	 0.268026141392747 
484	 0.270175386335646 
485	 0.272273134199057 
486	 0.274456311380612 
487	 0.276572480147291 
488	 0.278526544649003 
489	 0.280613017249181 
490	 0.282681219723218 
491	 0.28472498275859 
492	 0.286806807590072 
493	 0.28876082037367 
494	 0.290658336810578 
495	 0.29256261323737 
496	 0.294466511477354 
497	 0.296436955412285 
498	 0.298392260007845 
499	 0.300238574195606 
500	 0.302085758434253 
501	 0.303782639474066 
502	 0.305430686444592 
503	 0.307331844279141 
504	 0.309078729098678 
505	 0.310691001014055 
506	 0.312264647155032 
507	 0.313873898137077 
508	 0.315465874417603 
509	 0.317038985090909 
510	 0.318596582710987 
511	 0.320012582234061 
512	 0.321477809107051 
513	 0.322999235038614 
514	 0.324321320350548 
515	 0.32555627752832 
516	 0.326774916168927 
517	 0.328012262387943 
518	 0.329210819651284 
519	 0.330374869627882 
520	 0.331533438165962 
521	 0.332710032480187 
522	 0.333647847351374 
523	 0.334523291960977 
524	 0.335463267789567 
525	 0.336383667909788 
526	 0.337207453939031 
527	 0.337945101061984 
528	 0.338628060632652 
529	 0.339167816056301 
530	 0.339742300475374 
531	 0.340337916348326 
532	 0.340727425188097 
533	 0.340999863109305 
534	 0.34120421253195 
535	 0.341372983100482 
536	 0.341515828491376 
537	 0.341585881696198 
538	 0.341534648086387 
539	 0.34132581473006 
540	 0.341019911438194 
541	 0.340635889148981 
542	 0.340177191311796 
543	 0.339630040221524 
544	 0.339048392619199 
545	 0.338395438222662 
546	 0.337613901702159 
547	 0.33668919281377 
548	 0.335686736134791 
549	 0.334619381513718 
550	 0.333451010698528 
551	 0.332198805576215 
552	 0.330849532249868 
553	 0.329394367674399 
554	 0.327858648223686 
555	 0.326183830463538 
556	 0.324411658756378 
557	 0.322620474207008 
558	 0.320748987184399 
559	 0.318789961793416 
560	 0.316764639667741 
561	 0.314724461741407 
562	 0.312591003377896 
563	 0.310395121653918 
564	 0.308180616481367 
565	 0.305929833379502 
566	 0.303567034074429 
567	 0.30108997669201 
568	 0.298557989134024 
569	 0.296022080392721 
570	 0.293491859794045 
571	 0.290950681010384 
572	 0.288346955368912 
573	 0.285731352444946 
574	 0.283153681243117 
575	 0.280636667475139 
576	 0.278068918218796 
577	 0.275458652047332 
578	 0.272802112840259 
579	 0.270078735110714 
580	 0.267354892982295 
581	 0.264642599604162 
582	 0.261922939966558 
583	 0.259148196476989 
584	 0.256323707991642 
585	 0.253499467493655 
586	 0.250729583398993 
587	 0.247872873024856 
588	 0.245012511798532 
589	 0.242193923061344 
590	 0.239358887346604 
591	 0.236490485487654 
592	 0.233664198677113 
593	 0.230945939083242 
594	 0.228212936628735 
595	 0.225556205962585 
596	 0.222942208352226 
597	 0.220243326023653 
598	 0.217586090446955 
599	 0.214979307192724 
600	 0.212392573919874 
601	 0.209772390304987 
602	 0.207183230734182 
603	 0.204651789932807 
604	 0.202176919295436 
605	 0.199666040870161 
606	 0.197185748647641 
607	 0.194772565652667 
608	 0.192414730382901 
609	 0.190082193135383 
610	 0.187807309717302 
611	 0.185602134138712 
612	 0.183374760336796 
613	 0.181230540618942 
614	 0.179157736719046 
615	 0.177071023479047 
616	 0.175007557188082 
617	 0.172991241986498 
618	 0.171039243639164 
619	 0.169160134952266 
620	 0.167268442592855 
621	 0.16539354980392 
622	 0.163588179116729 
623	 0.161806878452343 
624	 0.160070318173048 
625	 0.15838144062791 
626	 0.156722972830882 
627	 0.155110773354303 
628	 0.153542743978418 
629	 0.152004587132141 
630	 0.150462594665825 
631	 0.148936220025513 
632	 0.14746655833194 
633	 0.14608687671992 
634	 0.144691811452714 
635	 0.143322539720819 
636	 0.142003827915425 
637	 0.140728075533494 
638	 0.139431786554374 
639	 0.138144082260098 
640	 0.136909605600459 
641	 0.135741613066733 
642	 0.134580953528231 
643	 0.133436136198043 
644	 0.13235046042367 
645	 0.131295790584362 
646	 0.130224255586606 
647	 0.129138827992135 
648	 0.128124075637321 
649	 0.127158129563771 
650	 0.126208131765537 
651	 0.125249166567493 
652	 0.124308129790494 
653	 0.123396454795106 
654	 0.122523266460017 
655	 0.121691194184491 
656	 0.120826980308595 
657	 0.119988708596502 
658	 0.119210566309229 
659	 0.11842835043691 
660	 0.117656694136925 
661	 0.116911428830976 
662	 0.116199687735863 
663	 0.115473044862358 
664	 0.114734563220468 
665	 0.114019072012756 
666	 0.113384719153431 
667	 0.112720331491121 
668	 0.112066240355684 
669	 0.111454665846915 
670	 0.11080877092097 
671	 0.110193645282393 
672	 0.109616701689781 
673	 0.109055643019268 
674	 0.108488914549301 
675	 0.107925352633136 
676	 0.107372379552973 
677	 0.106831681796868 
678	 0.10627558017034 
679	 0.105743119934129 
680	 0.105260384653528 
681	 0.104764978967832 
682	 0.104293501257026 
683	 0.103830497219869 
684	 0.103337842535044 
685	 0.102840323992357 
686	 0.102361330051165 
687	 0.101906602244366 
688	 0.101457472928074 
689	 0.101035627077042 
690	 0.100606792012925 
691	 0.1001551097285 
692	 9.97841343160158E-02 
693	 9.93868192658975E-02 
694	 9.89669669237536E-02 
695	 9.85923931796981E-02 
696	 9.82034132904996E-02 
697	 9.77913336167375E-02 
698	 9.73798252395493E-02 
699	 9.70326300058961E-02 
700	 9.66649771948962E-02 
701	 9.62956146723074E-02 
702	 9.59570161436872E-02 
703	 9.56182710090566E-02 
704	 9.52604226036085E-02 
705	 9.48902851131538E-02 
706	 0.094532466615804 
707	 9.41977106665332E-02 
708	 0.093876107386766 
709	 9.35533269011135E-02 
710	 9.32128109082691E-02 
711	 9.28845310907435E-02 
712	 9.25825698024538E-02 
713	 9.23050955547418E-02 
714	 9.20149663397336E-02 
715	 9.17169259939208E-02 
716	 9.14078430020287E-02 
717	 9.10859918261305E-02 
718	 9.08210174578671E-02 
719	 0.090573014204018 
720	 9.03025480079606E-02 
721	 8.99955748647226E-02 
722	 8.97321679790105E-02 
723	 8.94827307581307E-02 
724	 0.089204167500792 
725	 8.89417136947416E-02 
726	 8.86997859468653E-02 
727	 8.84639394880702E-02 
728	 8.82109124370248E-02 
729	 0.087972422374297 
730	 8.77310030163918E-02 
731	 8.74847361287639E-02 
732	 8.72669596802551E-02 
733	 8.70588146119908E-02 
734	 8.68533316204055E-02 
735	 8.66433070669859E-02 
736	 8.64064423745203E-02 
737	 8.61949670900693E-02 
738	 8.60018619027515E-02 
739	 8.57871169191691E-02 
740	 8.56077792296513E-02 
741	 8.54183664461578E-02 
742	 8.52075999262825E-02 
743	 8.50322351138341E-02 
744	 8.48447099320028E-02 
745	 8.46636449171044E-02 
746	 8.45070641508045E-02 
747	 8.43320322002932E-02 
748	 8.41632714709011E-02 
749	 8.39998258444098E-02 
750	 8.38292928946298E-02 
751	 8.36738717231456E-02 
752	 8.35309139995305E-02 
753	 8.33879095428673E-02 
754	 8.32244365287273E-02 
755	 8.30744339350265E-02 
756	 8.29307846026876E-02 
757	 0.082786065237909 
758	 8.26642111838746E-02 
759	 0.082538205653207 
760	 8.23934581105361E-02 
761	 8.22348180214598E-02 
762	 8.21412918970088E-02 
763	 8.20470578855545E-02 
764	 8.19298580442016E-02 
765	 0.081824506769952 
766	 8.17074912372753E-02 
767	 8.15870461972465E-02 
768	 0.08147820444904 
769	 8.14028194012936E-02 
770	 8.12934480888238E-02 
771	 0.081177058677143 
772	 8.10997943656542E-02 
773	 8.10133570473333E-02 
774	 8.09231942433463E-02 
775	 8.08312053110725E-02 
776	 0.080735116969941 
777	 0.080635083771765 
778	 8.05519919379138E-02 
779	 8.04865819356708E-02 
780	 8.04025824361869E-02 
781	 8.03059400664931E-02 
782	 8.02078207813026E-02 
783	 8.01260642138908E-02 
784	 8.00964161808103E-02 
785	 8.00457776133847E-02 
786	 7.99790191930938E-02 
787	 7.99375610689231E-02 
788	 7.98609395368853E-02 
789	 7.97938114558751E-02 
790	 7.97398810493212E-02 
791	 7.96469108373898E-02 
792	 7.95948002721615E-02 
793	 7.95455966151521E-02 
794	 7.94715168758779E-02 
795	 0.079430055204712 
796	 7.93969528659813E-02 
797	 7.93637439431996E-02 
798	 7.93242101561158E-02 
799	 7.92586130534914E-02 
800	 7.91992055322706E-02 
801	 7.91646240137734E-02 
802	 7.91538044766255E-02 
803	 7.91071030181326E-02 
804	 0.079060441353952 
805	 7.90340511158634E-02 
806	 0.079004603779129 
807	 7.89687075934142E-02 
808	 0.07893275505156 
809	 7.89035979879772E-02 
810	 7.88783333707738E-02 
811	 7.88737281836189E-02 
812	 7.88619945755354E-02 
813	 0.078813468062542 
814	 7.88066914643793E-02 
815	 7.88089308436485E-02 
816	 0.078793693751169 
817	 7.87528875153773E-02 
818	 7.87498151368428E-02 
819	 7.87486731173333E-02 
820	 7.87292061372675E-02 
821	 7.87222095113338E-02 
822	 7.87148140268398E-02 
823	 7.87216317101628E-02 
824	 7.87444039925015E-02 
825	 0.078724601144528 
826	 7.87077195856956E-02 
827	 7.87095351747538E-02 
828	 7.87286312696624E-02 
829	 7.87543017810536E-02 
830	 7.87914274154396E-02 
831	 7.88234533292333E-02 
832	 7.88209877824162E-02 
833	 7.88289113736735E-02 
834	 7.88555009438554E-02 
835	 0.078903132698461 
836	 7.89741836656765E-02 
837	 7.90074241948881E-02 
838	 7.90184117132656E-02 
839	 7.90398212086559E-02 
840	 7.90904900052345E-02 
841	 7.91470421986913E-02 
842	 7.91982621041318E-02 
843	 0.07924078395472 
844	 7.92776468156634E-02 
845	 7.93443933630687E-02 
846	 7.94267430187692E-02 
847	 7.94812290200297E-02 
848	 0.07955952075954 
849	 0.079646665256678 
850	 7.97298589016252E-02 
851	 7.98092797620669E-02 
852	 7.98956129465497E-02 
853	 7.99872736760934E-02 
854	 8.00803762364744E-02 
855	 8.01720939821296E-02 
856	 8.02656480145721E-02 
857	 0.080367198236748 
858	 8.04822356294018E-02 
859	 8.06141796276922E-02 
860	 0.08072613626979 
861	 8.08371006433558E-02 
862	 8.09824807936403E-02 
863	 8.11053143743339E-02 
864	 0.081239090832543 
865	 8.13943272390566E-02 
866	 8.15552908870607E-02 
867	 8.17039972767915E-02 
868	 8.18596900092912E-02 
869	 8.20252097522216E-02 
870	 8.21748655072547E-02 
871	 8.23315423401892E-02 
872	 8.25005459381904E-02 
873	 8.26765364086372E-02 
874	 0.082837092883109 
875	 8.30527988205048E-02 
876	 8.32780962157645E-02 
877	 8.34564516414982E-02 
878	 0.083626423143413 
879	 0.083842961585338 
880	 8.40839766062562E-02 
881	 8.43012447985884E-02 
882	 0.084542429943251 
883	 8.47648501358855E-02 
884	 8.49805108554393E-02 
885	 8.52375304642129E-02 
886	 8.54865245201845E-02 
887	 8.57186731425912E-02 
888	 8.59522738027858E-02 
889	 8.62258902700556E-02 
890	 8.64952844946498E-02 
891	 8.67657430927618E-02 
892	 8.70390633144391E-02 
893	 8.72961196627751E-02 
894	 8.75941944101307E-02 
895	 8.78987270664189E-02 
896	 8.81776223623577E-02 
897	 8.84657248659348E-02 
898	 8.88004486921823E-02 
899	 0.089121227612563 
900	 8.93809712434861E-02 
901	 8.97187902593284E-02 
902	 9.00464363593309E-02 
903	 9.03726598334894E-02 
904	 9.07346132269564E-02 
905	 0.091035121607899 
906	 9.13737467121031E-02 
907	 9.17486597740825E-02 
908	 0.092088164102342 
909	 0.092442670146159 
910	 9.28325874854248E-02 
911	 9.32373068985634E-02 
912	 9.36049165145758E-02 
913	 9.39722414123323E-02 
914	 9.43546838862362E-02 
915	 9.47713994243922E-02 
916	 9.52440607838245E-02 
917	 9.56298830482676E-02 
918	 9.59847436760422E-02 
919	 9.63876763155131E-02 
920	 9.68763223062018E-02 
921	 9.72534680586194E-02 
922	 9.76049362451882E-02 
923	 9.80377343729415E-02 
924	 0.098510018125284 
925	 9.89778365616313E-02 
926	 9.94238298264661E-02 
927	 9.98577231667915E-02 
928	 0.100336106523527 
929	 0.100805266334166 
930	 0.101250134186506 
931	 0.101681157929799 
932	 0.102131266725514 
933	 0.102606077418035 
934	 0.103092198506372 
935	 0.103570655599149 
936	 0.104049177437631 
937	 0.104578901686306 
938	 0.105103465667726 
939	 0.105529478608365 
940	 0.106042872521742 
941	 0.106576342402025 
942	 0.107073116647111 
943	 0.107525444158628 
944	 0.108072127297317 
945	 0.108602104990485 
946	 0.109092630765223 
947	 0.109634745293744 
948	 0.110153057833313 
949	 0.110667182091836 
950	 0.111169997870124 
951	 0.111615564875424 
952	 0.112125594480536 
953	 0.1126998478621 
954	 0.113280019916825 
955	 0.113771098206684 
956	 0.11428271706542 
957	 0.114835752353019 
958	 0.115399377441079 
959	 0.115894907678593 
960	 0.116368113158665 
961	 0.116889439761297 
962	 0.117487474347057 
963	 0.118099731362605 
964	 0.118650797726153 
965	 0.119193390531123 
966	 0.119757291790436 
967	 0.120233552844838 
968	 0.120836991838645 
969	 0.121447843357217 
970	 0.121953151120631 
971	 0.122507042117409 
972	 0.123124896765238 
973	 0.123689914869061 
974	 0.124139142662587 
975	 0.124670412126215 
976	 0.125281672114469 
977	 0.125912184154702 
978	 0.126491326786858 
979	 0.126989556941423 
980	 0.127579130220325 
981	 0.128149999346896 
982	 0.128598069320393 
983	 0.12916525978419 
984	 0.12972719267635 
985	 0.130302752170629 
986	 0.130937308884447 
987	 0.131614468363973 
988	 0.132124366732661 
989	 0.132609759597951 
990	 0.133224391524312 
991	 0.133690848544814 
992	 0.134135373147443 
993	 0.134695754199942 
994	 0.13540735820215 
995	 0.135974550997656 
996	 0.13654578644187 
997	 0.137024259841674 
998	 0.137376240153837 
999	 0.138049448252056 
1000	 0.138653589081267 
1001	 0.139906325037254 
1002	 0.140508282615686 
1003	 0.141126517819535 
1004	 0.141670330545593 
1005	 0.142180477418211 
1006	 0.142682225857 
1007	 0.143106145809094 
1008	 0.143614701035801 
1009	 0.144154330028622 
1010	 0.144676861570325 
1011	 0.145255845623052 
1012	 0.145781451345443 
1013	 0.146267131129141 
1014	 0.146754458702279 
1015	 0.147220043137972 
1016	 0.147686068836475 
1017	 0.148186296286811 
1018	 0.14864345178789 
1019	 0.149138935671733 
1020	 0.149631316336059 
1021	 0.15009899481095 
1022	 0.150549735785716 
1023	 0.151009362482854 
1024	 0.151466303595582 
1025	 0.151913733608137 
1026	 0.152345192717838 
1027	 0.152784699057796 
1028	 0.153228678949437 
1029	 0.153659367763401 
1030	 0.154095081855307 
1031	 0.154550606316433 
1032	 0.15498799581578 
1033	 0.155389005570261 
1034	 0.155778200724036 
1035	 0.156167606910007 
1036	 0.156558696448087 
1037	 0.156969570254641 
1038	 0.157336175121478 
1039	 0.157670998137406 
1040	 0.158021415600484 
1041	 0.158330486991583 
1042	 0.158675542414746 
1043	 0.159052289217485 
1044	 0.159445669150952 
1045	 0.159767160991299 
1046	 0.160117835959186 
1047	 0.160438485131409 
1048	 0.16070136080602 
1049	 0.161015491956461 
1050	 0.161302398179904 
1051	 0.161575192714305 
1052	 0.161872289782724 
1053	 0.162154092464479 
1054	 0.162434899761956 
1055	 0.162699815407157 
1056	 0.162954135060472 
1057	 0.163209946936453 
1058	 0.163450155516496 
1059	 0.163701735319144 
1060	 0.16397077601931 
1061	 0.164208208359814 
1062	 0.16444385399055 
1063	 0.16465545302948 
1064	 0.164850108096705 
1065	 0.165084436542192 
1066	 0.165343925602376 
1067	 0.165566310272265 
1068	 0.165759054352599 
1069	 0.165948033705483 
1070	 0.166129985447051 
1071	 0.166278725123253 
1072	 0.166442507801509 
1073	 0.166629162948559 
1074	 0.166797757945039 
1075	 0.166967314190364 
1076	 0.167158965407825 
1077	 0.167352309846077 
1078	 0.167518832111128 
1079	 0.167656978436662 
1080	 0.167796711020925 
1081	 0.167924471263221 
1082	 0.168063161594992 
1083	 0.16819789290938 
1084	 0.168317544551927 
1085	 0.168447685558465 
1086	 0.168552377815372 
1087	 0.168640578635841 
1088	 0.168712388099034 
1089	 0.168791951311231 
1090	 0.168863190441271 
1091	 0.168933211106854 
1092	 0.16901558734858 
1093	 0.169087115331075 
1094	 0.169158233916376 
1095	 0.16922923083655 
1096	 0.169312505819057 
1097	 0.169410380760984 
1098	 0.169482607363411 
1099	 0.169547576854744 
1100	 0.169585284454121 
1101	 0.169600768461162 
1102	 0.169628378341452 
1103	 0.169656937793441 
1104	 0.169682487235106 
1105	 0.169729032358631 
1106	 0.169780050256013 
1107	 0.16980644861563 
1108	 0.169841702455799 
1109	 0.169880880746414 
1110	 0.16990614222322 
1111	 0.169937392199114 
1112	 0.169965730355239 
1113	 0.169988585183414 
1114	 0.17001035410699 
1115	 0.170020711884906 
1116	 0.170040926117921 
1117	 0.170062172299949 
1118	 0.170070204655614 
1119	 0.170073185136249 
1120	 0.170079704287756 
1121	 0.170081785447165 
1122	 0.170066589985233 
1123	 0.170074798326188 
1124	 0.170096101160532 
1125	 0.170103042940388 
1126	 0.170109880338982 
1127	 0.170123448054873 
1128	 0.170104465877086 
1129	 0.170077052610228 
1130	 0.170061243461247 
1131	 0.170053726157626 
1132	 0.170058199441876 
1133	 0.170065475266752 
1134	 0.170090576922326 
1135	 0.170088668177429 
1136	 0.170054287059046 
1137	 0.170039984210308 
1138	 0.170026696655535 
1139	 0.170006246566857 
1140	 0.169985571836913 
1141	 0.169974754793741 
1142	 0.169959736955867 
1143	 0.169953743656424 
1144	 0.169936369320148 
1145	 0.169918247892584 
1146	 0.16990489031266 
1147	 0.169880081601009 
1148	 0.169865997878788 
1149	 0.169867921872748 
1150	 0.16986593583457 
1151	 0.169851426933833 
1152	 0.16984384039725 
1153	 0.169841348120184 
1154	 0.169838442978741 
1155	 0.16983203294064 
1156	 0.16983447978839 
1157	 0.169853652021946 
1158	 0.169855319480378 
1159	 0.169848644325954 
1160	 0.169844252793614 
1161	 0.169844599688901 
1162	 0.169831770997307 
1163	 0.169834899198946 
1164	 0.169837381602644 
1165	 0.16982902325658 
1166	 0.169838246638854 
1167	 0.169858758484567 
1168	 0.169875928754078 
1169	 0.169885282886816 
1170	 0.169890431469837 
1171	 0.169899551456777 
1172	 0.169896265520544 
1173	 0.169910357245757 
1174	 0.169933511767548 
1175	 0.169965340077879 
1176	 0.17001296370863 
1177	 0.170048663656959 
1178	 0.170082856552196 
1179	 0.170125365854143 
1180	 0.170165950822561 
1181	 0.170220166603474 
1182	 0.17028588538069 
1183	 0.170339604366555 
1184	 0.170378384530381 
1185	 0.170419226319319 
1186	 0.17047086260498 
1187	 0.1705233221727 
1188	 0.170585682852031 
1189	 0.17066783908232 
1190	 0.170734296684405 
1191	 0.170793394933336 
1192	 0.170865388088202 
1193	 0.170931971615032 
1194	 0.171009212301962 
1195	 0.17110021742463 
1196	 0.171193976235185 
1197	 0.171296536613555 
1198	 0.17139487380982 
1199	 0.171491944081561 
1200	 0.171590491121554 
1201	 0.171698319160361 
1202	 0.171804609453738 
1203	 0.171914753280006 
1204	 0.172043633571426 
1205	 0.172170267168649 
1206	 0.172300922929665 
1207	 0.17242750070125 
1208	 0.172550434245853 
1209	 0.172686100952331 
1210	 0.172814586057899 
1211	 0.172966511621813 
1212	 0.173151008932507 
1213	 0.173321176650548 
1214	 0.173487960614702 
1215	 0.173665945322452 
1216	 0.17384083224139 
1217	 0.174027666542691 
1218	 0.174231533074816 
1219	 0.174435082666771 
1220	 0.174641800677038 
1221	 0.174870453193773 
1222	 0.175094251029741 
1223	 0.175326467163592 
1224	 0.175557505071613 
1225	 0.175796624726491 
1226	 0.176015506462796 
1227	 0.176220182487068 
1228	 0.176442864515069 
1229	 0.176659004618803 
1230	 0.176885051758752 
1231	 0.177135830334629 
1232	 0.177371185013254 
1233	 0.177593141340786 
1234	 0.177822550842473 
1235	 0.178058529569713 
1236	 0.178287622928845 
1237	 0.178516689955012 
1238	 0.178743482875677 
1239	 0.178962818012638 
1240	 0.179179130941293 
1241	 0.179413248836393 
1242	 0.179650410664698 
1243	 0.179890669514249 
1244	 0.180145853653202 
1245	 0.18038431688636 
1246	 0.18061324193057 
1247	 0.180853038738721 
1248	 0.181092925980746 
1249	 0.181334139892804 
1250	 0.181583882987274 
1251	 0.181826015305898 
1252	 0.182055841337775 
1253	 0.182302296940963 
1254	 0.182565463275349 
1255	 0.182813400224644 
1256	 0.183061040113763 
1257	 0.183310716648823 
1258	 0.1835505670016 
1259	 0.183791221492468 
1260	 0.184036430909422 
1261	 0.184283956552555 
1262	 0.184518552200592 
1263	 0.184773833498514 
1264	 0.185027948244833 
1265	 0.185290802958902 
1266	 0.185552714566909 
1267	 0.185821920789858 
1268	 0.186077556183796 
1269	 0.186323028756392 
1270	 0.186586282502693 
1271	 0.186851497998427 
1272	 0.187114842228208 
1273	 0.187389373286964 
1274	 0.187660972694833 
1275	 0.18791594901621 
1276	 0.188189433976061 
1277	 0.188481955803863 
1278	 0.188766202803013 
1279	 0.189045529540138 
1280	 0.189337171662152 
1281	 0.189625688854438 
1282	 0.189927793563311 
1283	 0.190244977743684 
1284	 0.190564377276184 
1285	 0.190889394422402 
1286	 0.191222093735558 
1287	 0.191554184536773 
1288	 0.191891216504173 
1289	 0.192225402050991 
1290	 0.19255971439747 
1291	 0.192894286142624 
1292	 0.193222780148577 
1293	 0.193564565258228 
1294	 0.193907868744491 
1295	 0.19426203404657 
1296	 0.194632824351694 
1297	 0.194993928340633 
1298	 0.195355886368919 
1299	 0.195718894244056 
1300	 0.19608369709402 
1301	 0.196440824245703 
1302	 0.196790075620543 
1303	 0.197149191490314 
1304	 0.197508443149925 
1305	 0.197865765319311 
1306	 0.198221707642294 
1307	 0.198590033756178 
1308	 0.198942745653829 
1309	 0.199332397779773 
1310	 0.19971271688027 
1311	 0.20011201712363 
1312	 0.200493671652574 
1313	 0.200860670826728 
1314	 0.201254168267118 
1315	 0.201655385272266 
1316	 0.202058082983138 
1317	 0.202482554871649 
1318	 0.202886774813756 
1319	 0.203273970856354 
1320	 0.203678328465156 
1321	 0.204092332161932 
1322	 0.204492765598938 
1323	 0.204895916003299 
1324	 0.20529309736634 
1325	 0.205670456694344 
1326	 0.2060627932611 
1327	 0.20645428496677 
1328	 0.206861400548429 
1329	 0.207288332014318 
1330	 0.207703235142 
1331	 0.208117683147339 
1332	 0.208539488894374 
1333	 0.208948911856723 
1334	 0.209380677420829 
1335	 0.209800654680114 
1336	 0.210234162476128 
1337	 0.21064804669505 
1338	 0.211045098691681 
1339	 0.211453692355293 
1340	 0.211859108040928 
1341	 0.212273612822764 
1342	 0.212699105991815 
1343	 0.21311288920595 
1344	 0.213527549447506 
1345	 0.213937577503643 
1346	 0.214336845363852 
1347	 0.214743274048256 
1348	 0.215150001795375 
1349	 0.215562388764501 
1350	 0.215986501157164 
1351	 0.216397852623818 
1352	 0.216803606662855 
1353	 0.217216227191211 
1354	 0.217622887194065 
1355	 0.218032831691747 
1356	 0.218446956312707 
1357	 0.218868091675224 
1358	 0.219297300088498 
1359	 0.219721937378136 
1360	 0.220138601515488 
1361	 0.220576470911689 
1362	 0.221040274958345 
1363	 0.221458739844691 
1364	 0.221893278616237 
1365	 0.222339324734102 
1366	 0.222776311370088 
1367	 0.223197462867826 
1368	 0.223632628820047 
1369	 0.224078939976934 
1370	 0.224516859529177 
1371	 0.224954369469889 
1372	 0.22538115218792 
1373	 0.225798960759459 
1374	 0.226228191355174 
1375	 0.226657380875329 
1376	 0.227088736863266 
1377	 0.227536449074579 
1378	 0.227970561172244 
1379	 0.228401391069087 
1380	 0.228821600266242 
1381	 0.229223377867996 
1382	 0.22964310985252 
1383	 0.230061520273678 
1384	 0.230484332043329 
1385	 0.230918031475727 
1386	 0.231352408954527 
1387	 0.231784313070823 
1388	 0.232215708459688 
1389	 0.232652216954545 
1390	 0.233090703759854 
1391	 0.233520272250709 
1392	 0.233970150624602 
1393	 0.234419977660093 
1394	 0.234862534490182 
1395	 0.235300083493094 
1396	 0.235737993868866 
1397	 0.236156692267522 
1398	 0.236563572893138 
1399	 0.236966580254751 
1400	 0.237365757015158 
1401	 0.237741178997026 
1402	 0.2381086688213 
1403	 0.238458304335017 
1404	 0.238780733012022 
1405	 0.23910110618966 
1406	 0.239405299523219 
1407	 0.239718975765248 
1408	 0.240015137604835 
1409	 0.240339415316518 
1410	 0.240668024699885 
1411	 0.241026207645694 
1412	 0.24140160999673 
1413	 0.241797323776077 
1414	 0.242221998362425 
1415	 0.242655787052412 
1416	 0.243107424555772 
1417	 0.243572899339874 
1418	 0.244057494546939 
1419	 0.244547475812977 
1420	 0.245054255493175 
1421	 0.245558651775088 
1422	 0.246063694252077 
1423	 0.246578639900598 
1424	 0.247090625163575 
1425	 0.247635013330348 
1426	 0.24814376952628 
1427	 0.248670367155836 
1428	 0.249215659317482 
1429	 0.249724474327881 
1430	 0.25026442199736 
1431	 0.25082456650555 
1432	 0.251386347144176 
1433	 0.251953774599528 
1434	 0.252523118997571 
1435	 0.25310435830294 
1436	 0.25368434341098 
1437	 0.254261394120501 
1438	 0.254839293736751 
1439	 0.255418450143708 
1440	 0.256011627391066 
1441	 0.256608207444402 
1442	 0.257213263992699 
1443	 0.257834613484501 
1444	 0.25845888216909 
1445	 0.259089951059808 
1446	 0.259711948612283 
1447	 0.26032942337661 
1448	 0.260964327361982 
1449	 0.261604519011272 
1450	 0.262246706468292 
1451	 0.262913509116121 
1452	 0.263564455913295 
1453	 0.264201715498555 
1454	 0.264838012944926 
1455	 0.265469272685419 
1456	 0.2661062198513 
1457	 0.266750534001433 
1458	 0.267384451978367 
1459	 0.268004973486529 
1460	 0.268644021932686 
1461	 0.269282058437456 
1462	 0.269923086362161 
1463	 0.270588132138258 
1464	 0.271244484302077 
1465	 0.271879836167732 
1466	 0.272547341649945 
1467	 0.273188163522588 
1468	 0.273833326719322 
1469	 0.274513272337417 
1470	 0.275149847804609 
1471	 0.275806267123878 
1472	 0.276473893564652 
1473	 0.277140342354777 
1474	 0.277803998426717 
1475	 0.278466914136569 
1476	 0.279144175348871 
1477	 0.279800186250593 
1478	 0.280438471612239 
1479	 0.281076820148407 
1480	 0.281708130771549 
1481	 0.282340431778145 
1482	 0.282969198685939 
1483	 0.283599069372777 
1484	 0.284234257364065 
1485	 0.284856898094945 
1486	 0.285474761641686 
1487	 0.286081683762457 
1488	 0.28666919565899 
1489	 0.287273331670162 
1490	 0.287874652428437 
1491	 0.288486475757563 
1492	 0.289105642130693 
1493	 0.289736528200522 
1494	 0.290373355774206 
1495	 0.291016683480999 
1496	 0.291670623192025 
1497	 0.292334143581815 
1498	 0.29301331970809 
1499	 0.293684527684481 
1500	 0.29435657308393 
1501	 0.295039764339655 
1502	 0.295723841094229 
1503	 0.296405711355524 
1504	 0.297088348246331 
1505	 0.297788672928633 
1506	 0.298504414434017 
1507	 0.299207471308675 
1508	 0.299918891931895 
1509	 0.300630820140234 
1510	 0.301324342002305 
1511	 0.302025278483968 
1512	 0.302737646352538 
1513	 0.303454223661609 
1514	 0.304173373715597 
1515	 0.304891862015248 
1516	 0.305612653729801 
1517	 0.30634166723275 
1518	 0.307071002320359 
1519	 0.307801648342892 
1520	 0.308540225546677 
1521	 0.309279085399256 
1522	 0.310021415014605 
1523	 0.310803380193148 
1524	 0.311564544615069 
1525	 0.312335957443898 
1526	 0.31311764079307 
1527	 0.313894578274793 
1528	 0.314678186978734 
1529	 0.315478687343783 
1530	 0.316282088762796 
1531	 0.317076414412582 
1532	 0.317898269765058 
1533	 0.318742382265937 
1534	 0.319594445761452 
1535	 0.320463249590399 
1536	 0.32131758288612 
1537	 0.322172300258301 
1538	 0.323049428988765 
1539	 0.323926315208761 
1540	 0.324815159250442 
1541	 0.325734367853234 
1542	 0.326639455850658 
1543	 0.327535884618844 
1544	 0.328438710310856 
1545	 0.329356381627293 
1546	 0.330255401367961 
1547	 0.331148719468001 
1548	 0.332032685882605 
1549	 0.332894642959442 
1550	 0.333783852277446 
1551	 0.334677258306572 
1552	 0.335573044490498 
1553	 0.336479980122582 
1554	 0.337396518885332 
1555	 0.338319115972336 
1556	 0.339237965919095 
1557	 0.340170023093738 
1558	 0.341098542285617 
1559	 0.342015633202679 
1560	 0.342942540366079 
1561	 0.343883960935665 
1562	 0.344816827468649 
1563	 0.345754866167338 
1564	 0.34667260680668 
1565	 0.347565679257712 
1566	 0.348488295997232 
1567	 0.349416026962048 
1568	 0.350337620614383 
1569	 0.351277338761595 
1570	 0.352210503919011 
1571	 0.353140812771442 
1572	 0.354048483617193 
1573	 0.354948461323909 
1574	 0.355850785440074 
1575	 0.356723716533184 
1576	 0.357615571274702 
1577	 0.358514991146314 
1578	 0.359434208323588 
1579	 0.360372277097306 
1580	 0.361294073005043 
1581	 0.362221454242494 
1582	 0.363159372579284 
1583	 0.364085278547869 
1584	 0.365025251100085 
1585	 0.366000020397106 
1586	 0.366952485357921 
1587	 0.367888134132954 
1588	 0.368830224538926 
1589	 0.369749826488067 
1590	 0.370711551952694 
1591	 0.371688568966746 
1592	 0.372689179918533 
1593	 0.373734733313101 
1594	 0.374773269585753 
1595	 0.375833694355257 
1596	 0.376872535231594 
1597	 0.377887202504942 
1598	 0.378934826726874 
1599	 0.379997961725917 
1600	 0.381052632071293 
1601	 0.382130988439737 
1602	 0.383198504229082 
1603	 0.384251537020692 
1604	 0.385294434862781 
1605	 0.386327767165126 
1606	 0.387372783438967 
1607	 0.388412430105807 
1608	 0.389454409551258 
1609	 0.390502316122413 
1610	 0.391563159081282 
1611	 0.392631064361522 
1612	 0.393685494774112 
1613	 0.394759193488705 
1614	 0.395811213179168 
1615	 0.396846700796684 
1616	 0.397868047595883 
1617	 0.398870945922825 
1618	 0.399876177430641 
1619	 0.400860385706387 
1620	 0.401847355658025 
1621	 0.402830942456391 
1622	 0.403827217465397 
1623	 0.404842138100498 
1624	 0.405836947393495 
1625	 0.406826355635375 
1626	 0.407822906979698 
1627	 0.408801447183744 
1628	 0.409782534664485 
1629	 0.410792194824964 
1630	 0.411769127259799 
1631	 0.412731946249805 
1632	 0.41368172879926 
1633	 0.414593723300098 
1634	 0.415530810925076 
1635	 0.41645055029944 
1636	 0.417395089064985 
1637	 0.418381645250752 
1638	 0.419345291231492 
1639	 0.420319032822949 
1640	 0.42128100790707 
1641	 0.422223179191791 
1642	 0.423168010128849 
1643	 0.42412739795279 
1644	 0.425044370645521 
1645	 0.425934373552397 
1646	 0.426823438026448 
1647	 0.42769243948275 
1648	 0.428552974148493 
1649	 0.429402044443339 
1650	 0.430254829641315 
1651	 0.431094921580362 
1652	 0.431920231458839 
1653	 0.43277947522261 
1654	 0.433571751092188 
1655	 0.43432588095026 
1656	 0.435052245681554 
1657	 0.435729375530493 
1658	 0.436386524062877 
1659	 0.437026192339226 
1660	 0.437613946545642 
1661	 0.438172412992949 
1662	 0.438680273382454 
1663	 0.439128677137333 
1664	 0.43955882070245 
1665	 0.439963890504774 
1666	 0.440312116572876 
1667	 0.440627288030245 
1668	 0.440879601055748 
1669	 0.441065083489951 
1670	 0.441212841394637 
1671	 0.441312165214285 
1672	 0.441367882143261 
1673	 0.441366925747466 
1674	 0.441340035175648 
1675	 0.441268555881561 
1676	 0.441172922476913 
1677	 0.441039102440224 
1678	 0.440889787590583 
1679	 0.440714124257632 
1680	 0.440513578640515 
1681	 0.440279131394553 
1682	 0.440055049426053 
1683	 0.439797294237098 
1684	 0.439566325590071 
1685	 0.439349527721843 
1686	 0.439137638846365 
1687	 0.438932822080566 
1688	 0.438731979218248 
1689	 0.4385457840654 
1690	 0.438347880582943 
1691	 0.438136373927525 
1692	 0.437960012562699 
1693	 0.437805894418988 
1694	 0.437627518363039 
1695	 0.437468920365739 
1696	 0.437278643363687 
1697	 0.437055506289148 
1698	 0.43683707093757 
1699	 0.436609567122254 
1700	 0.436393076094422 
1701	 0.436163530473094 
1702	 0.43595895679185 
1703	 0.435756234115744 
1704	 0.435600560904562 
1705	 0.435464994770444 
1706	 0.435378313883964 
1707	 0.43532867006206 
1708	 0.435298277074783 
1709	 0.435278853884426 
1710	 0.435276846488714 
1711	 0.435297682567721 
1712	 0.435319368941013 
1713	 0.435334376717345 
1714	 0.435353550260671 
1715	 0.435383124613429 
1716	 0.435420007552148 
1717	 0.435469907442053 
1718	 0.435544891613874 
1719	 0.435641534560437 
1720	 0.435761155377436 
1721	 0.435940658852305 
1722	 0.436145109548937 
1723	 0.436397365812622 
1724	 0.436756443869475 
1725	 0.437178062776193 
1726	 0.437747919336362 
1727	 0.43847446567906 
1728	 0.439274229761446 
1729	 0.440241189787839 
1730	 0.441333509030646 
1731	 0.442424862345806 
1732	 0.443607857308772 
1733	 0.444801716517729 
1734	 0.445981480183394 
1735	 0.447225646608606 
1736	 0.448430644579085 
1737	 0.449612344869599 
1738	 0.450719793648075 
1739	 0.451740046775897 
1740	 0.452681453736226 
1741	 0.453584197803813 
1742	 0.454422297860904 
1743	 0.455236483432233 
1744	 0.456006995919979 
1745	 0.456754474462494 
1746	 0.457437890749039 
1747	 0.458118014138154 
1748	 0.458765573802871 
1749	 0.459433267876671 
1750	 0.4601066073559 
1751	 0.460786050132424 
1752	 0.461467232164241 
1753	 0.462179590191247 
1754	 0.462867243017541 
1755	 0.463616245536114 
1756	 0.464393393076425 
1757	 0.46519822912316 
1758	 0.466167654292118 
1759	 0.467162675504777 
1760	 0.468214828446163 
1761	 0.469379527966569 
1762	 0.470512156578429 
1763	 0.471742327858816 
1764	 0.473018180756694 
1765	 0.474299670354256 
1766	 0.47571602900542 
1767	 0.477090459866675 
1768	 0.478504951014398 
1769	 0.479975630470738 
1770	 0.481303437778513 
1771	 0.482660747403192 
1772	 0.483970786038652 
1773	 0.485173602698085 
1774	 0.486415403883217 
1775	 0.487556437577075 
1776	 0.488675658416542 
1777	 0.489774590955249 
1778	 0.490750651995231 
1779	 0.491765634455821 
1780	 0.492707599593998 
1781	 0.49355764171663 
1782	 0.494465500990089 
1783	 0.495292699472962 
1784	 0.496101257807836 
1785	 0.496905170938225 
1786	 0.497639568515438 
1787	 0.498299201176485 
1788	 0.49895985320475 
1789	 0.499583183318343 
1790	 0.500250121502916 
1791	 0.500948307346503 
1792	 0.501605683263049 
1793	 0.502243620916818 
1794	 0.502860747483298 
1795	 0.503481343649672 
1796	 0.504142446079113 
1797	 0.504820381215289 
1798	 0.505443611703109 
1799	 0.506081084820812 
1800	 0.506751873284716 
1801	 0.503614888044757 
1802	 0.5042101256976 
1803	 0.504833707007439 
1804	 0.505461538188398 
1805	 0.506108792566367 
1806	 0.506721595654235 
1807	 0.507336867731032 
1808	 0.50794419056941 
1809	 0.50852899874447 
1810	 0.509112771344839 
1811	 0.509698521400952 
1812	 0.510287502336566 
1813	 0.510864391650698 
1814	 0.511463349112538 
1815	 0.512036020192444 
1816	 0.512637617506068 
1817	 0.513222049796299 
1818	 0.5137881080908 
1819	 0.51435568755061 
1820	 0.514925760640745 
1821	 0.515493758738257 
1822	 0.516046710611635 
1823	 0.516632780126269 
1824	 0.517184685152134 
1825	 0.517735546202941 
1826	 0.518259611725364 
1827	 0.518739970483444 
1828	 0.519240167154051 
1829	 0.519740839997477 
1830	 0.520233134294527 
1831	 0.520718120916913 
1832	 0.52122378935719 
1833	 0.521697134709625 
1834	 0.522139365529537 
1835	 0.522576494136119 
1836	 0.522990053237612 
1837	 0.523387950825366 
1838	 0.523751542944364 
1839	 0.524145343874391 
1840	 0.524520322952291 
1841	 0.524924682257195 
1842	 0.525339330464495 
1843	 0.525786074129982 
1844	 0.52625413120866 
1845	 0.526706885865389 
1846	 0.527182468123336 
1847	 0.527666627765814 
1848	 0.528171531120904 
1849	 0.528699395621313 
1850	 0.529217466640438 
1851	 0.529746839710866 
1852	 0.53029358937285 
1853	 0.530807239834895 
1854	 0.531299077136563 
1855	 0.531807310820306 
1856	 0.53227577378312 
1857	 0.5327271091872 
1858	 0.533192724368798 
1859	 0.533613322360291 
1860	 0.534021730187745 
1861	 0.534370620843199 
1862	 0.534700715346118 
1863	 0.534956999833492 
1864	 0.535138112482448 
1865	 0.535289409649748 
1866	 0.53534740790392 
1867	 0.535336886643675 
1868	 0.535273048258395 
1869	 0.535126595971362 
1870	 0.534934092315102 
1871	 0.534701662480935 
1872	 0.534385392697651 
1873	 0.534007566952622 
1874	 0.533572996220037 
1875	 0.533049975668945 
1876	 0.532397323280278 
1877	 0.531677707230427 
1878	 0.530814911071751 
1879	 0.529819774431756 
1880	 0.528788470562007 
1881	 0.527597040336184 
1882	 0.526266501859995 
1883	 0.524852019669186 
1884	 0.523292949444889 
1885	 0.521463717832005 
1886	 0.519553712731392 
1887	 0.517440644251545 
1888	 0.515095688574505 
1889	 0.512799250200497 
1890	 0.510334231828369 
1891	 0.507821067022581 
1892	 0.50527530158723 
1893	 0.502559273806591 
1894	 0.499654567899758 
1895	 0.496803452301479 
1896	 0.493818138990698 
1897	 0.490741999621128 
1898	 0.487904637255953 
1899	 0.484977400810818 
1900	 0.482097641790864 
1901	 0.479335384694991 
1902	 0.476413719091933 
1903	 0.473634249957701 
1904	 0.470918342567946 
1905	 0.468224200147225 
1906	 0.465591707827218 
1907	 0.463231723190947 
1908	 0.460852444607693 
1909	 0.458570974079639 
1910	 0.456430358312472 
1911	 0.454231498671423 
1912	 0.452190337351234 
1913	 0.45020510327798 
1914	 0.448230418055979 
1915	 0.446411421525996 
1916	 0.444747883473783 
1917	 0.443086610226383 
1918	 0.441508251270364 
1919	 0.440046892118065 
1920	 0.438544426232924 
1921	 0.437133371792648 
1922	 0.435788646646256 
1923	 0.434495700808324 
1924	 0.43337739671296 
1925	 0.432319409765978 
1926	 0.431329010462782 
1927	 0.430441791632394 
1928	 0.429598504595967 
1929	 0.428802328047019 
1930	 0.428088022042815 
1931	 0.427436568273499 
1932	 0.42684954527222 
1933	 0.42637433758878 
1934	 0.425985046775587 
1935	 0.425685508272216 
1936	 0.425452126201477 
1937	 0.425290113209895 
1938	 0.425205466630714 
1939	 0.425182780722156 
1940	 0.425214456706971 
1941	 0.425356756705811 
1942	 0.425562276159952 
1943	 0.425802520736759 
1944	 0.426087472239719 
1945	 0.426424478748745 
1946	 0.426847531835562 
1947	 0.427297373128378 
1948	 0.427832203789016 
1949	 0.428458599720288 
1950	 0.429086664802374 
1951	 0.429756985239811 
1952	 0.430455869698167 
1953	 0.431191102385197 
1954	 0.431926006475202 
1955	 0.432729112110419 
1956	 0.433501074857892 
1957	 0.434316046117522 
1958	 0.435170747825273 
1959	 0.435977316934533 
1960	 0.436827249716181 
1961	 0.43766040562555 
1962	 0.438470355548893 
1963	 0.439306121573278 
1964	 0.440153957652077 
1965	 0.441000757875526 
1966	 0.441878198570064 
1967	 0.442741456448586 
1968	 0.443523415405901 
1969	 0.444324651434234 
1970	 0.445066148208264 
1971	 0.44579365924284 
1972	 0.446609581047952 
1973	 0.447385297796977 
1974	 0.448164172155015 
1975	 0.448987416707711 
1976	 0.449742715759762 
1977	 0.450439940925002 
1978	 0.451168610805169 
1979	 0.451883604716941 
1980	 0.452582219018176 
1981	 0.453333456750411 
1982	 0.454050723748503 
1983	 0.454763807225749 
1984	 0.455460124520304 
1985	 0.456098501933167 
1986	 0.456774702847174 
1987	 0.457435499855512 
1988	 0.458075222851312 
1989	 0.458727264440697 
1990	 0.459404525950899 
1991	 0.460040056508987 
1992	 0.460658826989541 
1993	 0.461281814685636 
1994	 0.461856232379725 
1995	 0.462411806592358 
1996	 0.462956525075025 
1997	 0.463490088341187 
1998	 0.464042142364985 
1999	 0.464605950461377 
2000	 0.465152749700463 
2001	 0.465730138188719 
2002	 0.466242878152952 
2003	 0.466725239082632 
2004	 0.467177888295621 
2005	 0.467590918221073 
2006	 0.467981613869635 
2007	 0.468355504303649 
2008	 0.468693716691613 
2009	 0.468987957021573 
2010	 0.469231321463271 
2011	 0.469405001084403 
2012	 0.469530439295251 
2013	 0.469608590293222 
2014	 0.46963989022873 
2015	 0.469602087194613 
2016	 0.469522913928679 
2017	 0.469365411321109 
2018	 0.469128248936733 
2019	 0.46883944019538 
2020	 0.468504679647766 
2021	 0.468067733767377 
2022	 0.467582131515738 
2023	 0.467037763781373 
2024	 0.46639126650996 
2025	 0.465718679455565 
2026	 0.465017498771091 
2027	 0.464218858325252 
2028	 0.463495498528116 
2029	 0.462774769334891 
2030	 0.462061950005898 
2031	 0.461362733543426 
2032	 0.460689765050837 
2033	 0.45997285852441 
2034	 0.459365917180508 
2035	 0.458801762343472 
2036	 0.458307135970111 
2037	 0.457922858724999 
2038	 0.45764159346427 
2039	 0.457461927012216 
2040	 0.457401353237936 
2041	 0.457406989697613 
2042	 0.457523469988292 
2043	 0.457680291937306 
2044	 0.457921671427904 
2045	 0.458199300155677 
2046	 0.458543463389 
2047	 0.458928828512402 
2048	 0.459360349305257 
2049	 0.45984084279302 
2050	 0.460396510019627 
2051	 0.460954126276615 
2052	 0.461545852272746 
2053	 0.462179300909314 
2054	 0.462816103886901 
2055	 0.463473570411587 
2056	 0.464133098051598 
2057	 0.464794010873066 
2058	 0.465501124687151 
2059	 0.466224682290994 
2060	 0.466965896025322 
2061	 0.467787540411428 
2062	 0.468550590057104 
2063	 0.469286806126755 
2064	 0.470040181893936 
2065	 0.470790901043774 
2066	 0.471507907944343 
2067	 0.472299627457753 
2068	 0.473069870068751 
2069	 0.47381592777124 
2070	 0.474580776406631 
2071	 0.475280101054682 
2072	 0.475936942593467 
2073	 0.476568371799853 
2074	 0.477147838579242 
2075	 0.477734656935873 
2076	 0.478310397425879 
2077	 0.478850389383436 
2078	 0.479398049331515 
2079	 0.479882967595043 
2080	 0.480316075227552 
2081	 0.480722212868657 
2082	 0.481087213028359 
2083	 0.481412986426401 
2084	 0.481742008506179 
2085	 0.481990993612646 
2086	 0.4822228744465 
2087	 0.482426920146537 
2088	 0.482589533793355 
2089	 0.482693000411275 
2090	 0.482802885690431 
2091	 0.482878954544473 
2092	 0.482958207745266 
2093	 0.483048768283956 
2094	 0.483092276475739 
2095	 0.483109397181853 
2096	 0.483108751629496 
2097	 0.483078414771306 
2098	 0.483020521547411 
2099	 0.482957527484988 
2100	 0.482881187440714 
2101	 0.482771935255113 
2102	 0.482623465170455 
2103	 0.482491263208395 
2104	 0.482329370444321 
2105	 0.482196110437164 
2106	 0.482070191123131 
2107	 0.481954914742384 
2108	 0.481855503516618 
2109	 0.481756024594107 
2110	 0.481676489322769 
2111	 0.481578071107928 
2112	 0.481470849083623 
2113	 0.48136385107527 
2114	 0.481239768552263 
2115	 0.481127988586307 
2116	 0.481023793384554 
2117	 0.480924007273932 
2118	 0.480821906274835 
2119	 0.480725307129254 
2120	 0.480628081110963 
2121	 0.480543722161058 
2122	 0.480418950266334 
2123	 0.480294100189841 
2124	 0.480125871259102 
2125	 0.479922992423683 
2126	 0.479697264249771 
2127	 0.4794680701529 
2128	 0.479173661575548 
2129	 0.478839666902792 
2130	 0.478454399215064 
2131	 0.478025219122637 
2132	 0.477529263583904 
2133	 0.47697641771623 
2134	 0.476380005276838 
2135	 0.475683971249125 
2136	 0.474963932277194 
2137	 0.474196639635776 
2138	 0.473356022007947 
2139	 0.472529434299445 
2140	 0.471676095060223 
2141	 0.470803990500143 
2142	 0.469943459523208 
2143	 0.469004469397547 
2144	 0.468024521291145 
2145	 0.467002142235365 
2146	 0.465875269978699 
2147	 0.464802057854607 
2148	 0.463733514844751 
2149	 0.462637198958947 
2150	 0.461594017166772 
2151	 0.460458955723412 
2152	 0.459242311590479 
2153	 0.458023460854965 
2154	 0.456750476503127 
2155	 0.455439767739813 
2156	 0.454185552601571 
2157	 0.452939267583216 
2158	 0.451695247517921 
2159	 0.450500097760519 
2160	 0.449234760980373 
2161	 0.447914667315832 
2162	 0.446660809033112 
2163	 0.445338291983196 
2164	 0.444166217020887 
2165	 0.443097187940596 
2166	 0.442042913450433 
2167	 0.441069747865523 
2168	 0.440115869011092 
2169	 0.43917538553243 
2170	 0.438296938340879 
2171	 0.437460306333009 
2172	 0.436685313019392 
2173	 0.435980812011426 
2174	 0.435296861187215 
2175	 0.434682369772656 
2176	 0.434124084098901 
2177	 0.433575148378421 
2178	 0.433066555199881 
2179	 0.432574905096616 
2180	 0.432104871706567 
2181	 0.431656436223271 
2182	 0.431248568430935 
2183	 0.430828326798598 
2184	 0.430438852055091 
2185	 0.430013821845804 
2186	 0.429592278624206 
2187	 0.429135091287236 
2188	 0.42864908174226 
2189	 0.428146563397664 
2190	 0.427647395184483 
2191	 0.427079484251702 
2192	 0.426525894510288 
2193	 0.425840652213204 
2194	 0.425067014059127 
2195	 0.424215364066309 
2196	 0.423258191447468 
2197	 0.422216061674953 
2198	 0.421173747090136 
2199	 0.420003420472328 
2200	 0.418727293533177 
2201	 0.417392948545041 
2202	 0.415859820622913 
2203	 0.41415216492864 
2204	 0.412392580145107 
2205	 0.410416654522145 
2206	 0.408559484631746 
2207	 0.406656324812498 
2208	 0.404781379044815 
2209	 0.402918959336322 
2210	 0.401107627272988 
2211	 0.399197306814021 
2212	 0.397556569883965 
2213	 0.395965569891139 
2214	 0.394646494474827 
2215	 0.393574214829082 
2216	 0.392651410741778 
2217	 0.391967724599164 
2218	 0.391403629380014 
2219	 0.39104604881478 
2220	 0.390752289003262 
2221	 0.39061704545283 
2222	 0.390547325847324 
2223	 0.390523304099284 
2224	 0.390491160282645 
2225	 0.390419146393401 
2226	 0.39024786180961 
2227	 0.38991904615219 
2228	 0.389484218391241 
2229	 0.38890669165547 
2230	 0.388170620973388 
2231	 0.387334324326321 
2232	 0.386387469814766 
2233	 0.385292298480065 
2234	 0.384067257506465 
2235	 0.382700346957988 
2236	 0.381162998691998 
2237	 0.37955698406964 
2238	 0.377784829639197 
2239	 0.375985871505665 
2240	 0.374155040843523 
2241	 0.372153190330357 
2242	 0.370123810427742 
2243	 0.367840694872201 
2244	 0.365359935917606 
2245	 0.362726401479776 
2246	 0.359810760022369 
2247	 0.356860623238658 
2248	 0.353803228489779 
2249	 0.350600800702901 
2250	 0.347287240734074 
2251	 0.343911990654757 
2252	 0.340164990616611 
2253	 0.336452139404327 
2254	 0.332621082391577 
2255	 0.328646634936629 
2256	 0.32496865070371 
2257	 0.321260469026399 
2258	 0.317736127865824 
2259	 0.314355017842755 
2260	 0.31108120270995 
2261	 0.307825381189911 
2262	 0.304965925313668 
2263	 0.302219551447598 
2264	 0.299933347347167 
2265	 0.298060106795689 
2266	 0.29639786662488 
2267	 0.295072385893462 
2268	 0.294010646471045 
2269	 0.293267764229972 
2270	 0.292711531979812 
2271	 0.292489811164806 
2272	 0.292382647196399 
2273	 0.292522345668003 
2274	 0.292725621224635 
2275	 0.293123143627935 
2276	 0.293564464955914 
2277	 0.294106635911526 
2278	 0.294705019267724 
2279	 0.295438540871235 
2280	 0.296159668098904 
2281	 0.296930268514145 
2282	 0.297724347033453 
2283	 0.298536451353022 
2284	 0.299374342253258 
2285	 0.300297192853799 
2286	 0.301161567296748 
2287	 0.302058678978695 
2288	 0.30298667032575 
2289	 0.303815544416232 
2290	 0.304659741228263 
2291	 0.305484301760667 
2292	 0.306241253218837 
2293	 0.30704501560495 
2294	 0.307860085153595 
2295	 0.308715788008012 
2296	 0.309606340781699 
2297	 0.310560167506372 
2298	 0.311568588288216 
2299	 0.312638778069859 
2300	 0.313731637830044 
2301	 0.314990706730996 
2302	 0.316342912222878 
2303	 0.317783707303087 
2304	 0.319415040890326 
2305	 0.321001517080566 
2306	 0.322630147630459 
2307	 0.324305582354137 
2308	 0.325992768892439 
2309	 0.327769620936238 
2310	 0.329679573077878 
2311	 0.331484640084166 
2312	 0.333393667381322 
2313	 0.335115877266359 
2314	 0.336742000261254 
2315	 0.338271202593303 
2316	 0.339697987455185 
2317	 0.340996596844227 
2318	 0.342261972993119 
2319	 0.343217655777933 
2320	 0.343968031751316 
2321	 0.34454034256297 
2322	 0.344818100943478 
2323	 0.344991188377509 
2324	 0.345050041872951 
2325	 0.344880778974866 
2326	 0.344474636323289 
2327	 0.343941239553524 
2328	 0.343163170486096 
2329	 0.342298815202634 
2330	 0.341331350420798 
2331	 0.340165198246309 
2332	 0.338894806514194 
2333	 0.337494865634693 
2334	 0.335805724423157 
2335	 0.334001342974589 
2336	 0.33193977907851 
2337	 0.329685635339431 
2338	 0.32749366221066 
2339	 0.325168550094773 
2340	 0.322865646383439 
2341	 0.320543017145351 
2342	 0.318029552398038 
2343	 0.315633529591213 
2344	 0.313242010287202 
2345	 0.310919123571085 
2346	 0.308917369814201 
2347	 0.306981030265709 
2348	 0.305248190793598 
2349	 0.303858037508228 
2350	 0.302589406571079 
2351	 0.301584813382847 
2352	 0.300833848005648 
2353	 0.300275255771327 
2354	 0.299950257882419 
2355	 0.299831918585954 
2356	 0.299870498960448 
2357	 0.30008170130674 
2358	 0.300512204397711 
2359	 0.301083714874599 
2360	 0.30175279214166 
2361	 0.302562717850518 
2362	 0.303418054208876 
2363	 0.304262197467281 
2364	 0.305096715906705 
2365	 0.305957730333728 
2366	 0.306815765401552 
2367	 0.307580051301726 
2368	 0.308265603171874 
2369	 0.30883867112556 
2370	 0.309293609937559 
2371	 0.309680378097153 
2372	 0.309995384659366 
2373	 0.310209011988692 
2374	 0.310337856751639 
2375	 0.310430718140259 
2376	 0.310465486070245 
2377	 0.310411439211521 
2378	 0.310331381002044 
2379	 0.310163920636834 
2380	 0.310026670285268 
2381	 0.309955922014584 
2382	 0.309810744610621 
2383	 0.309644113129247 
2384	 0.309479358529773 
2385	 0.309235631715475 
2386	 0.309086899586485 
2387	 0.309058429628266 
2388	 0.308810889923473 
2389	 0.30849629404018 
2390	 0.308161383802391 
2391	 0.307644026581594 
2392	 0.307281848962382 
2393	 0.307015060041955 
2394	 0.306691005625519 
2395	 0.306350606026368 
2396	 0.306019903692122 
2397	 0.305677643061232 
2398	 0.305410144105414 
2399	 0.305156742162705 
2400	 0.304998486181571 
2401	 0.304885571607387 
2402	 0.304788221586606 
2403	 0.304902522705802 
2404	 0.305045722163443 
2405	 0.305249784739894 
2406	 0.305533932609722 
2407	 0.305801568605964 
2408	 0.306161611026067 
2409	 0.306521113811492 
2410	 0.306841814542472 
2411	 0.30710318154805 
2412	 0.307234659945201 
2413	 0.30751040817957 
2414	 0.307889502377308 
2415	 0.308228628186313 
2416	 0.308572869224746 
2417	 0.308711095080939 
2418	 0.30866215016644 
2419	 0.308600370444128 
2420	 0.308551618486188 
2421	 0.308621834333995 
2422	 0.308806541042034 
2423	 0.308992994135498 
2424	 0.309243130925766 
2425	 0.309450207989684 
2426	 0.309618817076356 
2427	 0.309953825167672 
2428	 0.310181222459386 
2429	 0.310449151441399 
2430	 0.310969184003185 
2431	 0.311408440185578 
2432	 0.311917131281342 
2433	 0.312500656811794 
2434	 0.312800071667684 
2435	 0.312931021374821 
2436	 0.313158006124058 
2437	 0.313300394169109 
2438	 0.31339248178412 
2439	 0.313640547267085 
2440	 0.313823691518733 
2441	 0.313977161526355 
2442	 0.314273079479784 
2443	 0.314526460503691 
2444	 0.314736672515777 
2445	 0.315084543879906 
2446	 0.315370468083229 
2447	 0.31573529023853 
2448	 0.316298776039665 
2449	 0.316760045115292 
2450	 0.317180567753214 
2451	 0.317635520494737 
2452	 0.318071559898481 
2453	 0.318501640344839 
2454	 0.319086939439888 
2455	 0.319652594222493 
2456	 0.319963406963754 
2457	 0.320302927774845 
2458	 0.320608505626337 
2459	 0.320730658781916 
2460	 0.320974939730071 
2461	 0.321217863365717 
2462	 0.321381365468324 
2463	 0.321692895123966 
2464	 0.321979161118121 
2465	 0.32221148914703 
2466	 0.322500236269784 
2467	 0.322780241096903 
2468	 0.323011254370308 
2469	 0.323328927464099 
2470	 0.323637155994397 
2471	 0.323871813053702 
2472	 0.32423021679581 
2473	 0.324616710688174 
2474	 0.324985322474715 
2475	 0.325267387645441 
2476	 0.32553181622575 
2477	 0.325790264976708 
2478	 0.325912788714364 
2479	 0.326224530509796 
2480	 0.326643826689601 
2481	 0.326863151981436 
2482	 0.327112969176459 
2483	 0.327102261898354 
2484	 0.327081624079672 
2485	 0.327325368598379 
2486	 0.327354205121718 
2487	 0.327594918942337 
2488	 0.327915189634748 
2489	 0.327870787160753 
2490	 0.328069043097903 
2491	 0.328194147788432 
2492	 0.328132610352773 
2493	 0.328415202277287 
2494	 0.328472501076167 
2495	 0.328266824981527 
2496	 0.328204765282938 
2497	 0.328024285808224 
2498	 0.327925757101722 
2499	 0.328128644231866 
2500	 0.3283933170343 
