Wavelength	spectrum00019.asd
350	 4.02640315926775E-02 
351	 3.98333365866617E-02 
352	 0.039874370690525 
353	 4.04050254631654E-02 
354	 3.97845068639448E-02 
355	 4.12210943406204E-02 
356	 4.24580153929382E-02 
357	 4.13011747286873E-02 
358	 3.90164660718899E-02 
359	 3.83206315661028E-02 
360	 3.91656487743679E-02 
361	 3.99378888338143E-02 
362	 3.97969462210506E-02 
363	 3.93797600284267E-02 
364	 3.88858756518841E-02 
365	 3.76899823327796E-02 
366	 3.83972401897226E-02 
367	 3.97151542542691E-02 
368	 0.040004052828992 
369	 3.97288037447933E-02 
370	 0.039879918528221 
371	 4.03368905431712E-02 
372	 4.03381567597615E-02 
373	 3.96416688729281E-02 
374	 0.039867979920156 
375	 4.07547823558825E-02 
376	 3.90995984228889E-02 
377	 3.95856830904317E-02 
378	 4.07394677737366E-02 
379	 4.03605823111295E-02 
380	 3.94660689964076E-02 
381	 0.040017788935634 
382	 0.040841670544449 
383	 3.93810395572513E-02 
384	 0.039474320017111 
385	 3.97914292019567E-02 
386	 3.95051681050387E-02 
387	 3.94699596940072E-02 
388	 3.93842590147667E-02 
389	 0.03985932605539 
390	 4.09749999534046E-02 
391	 4.00377490629567E-02 
392	 3.95170413930414E-02 
393	 3.99648098252844E-02 
394	 4.04747529410595E-02 
395	 0.039900876010232 
396	 3.98713092508026E-02 
397	 4.07373734743707E-02 
398	 4.01338550010543E-02 
399	 4.00198286495732E-02 
400	 3.99605281332613E-02 
401	 0.039345402135346 
402	 3.97846679490644E-02 
403	 4.03713130413426E-02 
404	 4.05267653835459E-02 
405	 4.00861274092581E-02 
406	 3.99085421724827E-02 
407	 3.96098669891514E-02 
408	 3.91734490818058E-02 
409	 3.97569274422887E-02 
410	 3.98329393426897E-02 
411	 3.95940873200456E-02 
412	 3.96697338238215E-02 
413	 3.98491061072494E-02 
414	 3.95013461138376E-02 
415	 3.90632773675592E-02 
416	 3.98157073764389E-02 
417	 3.99312335037279E-02 
418	 3.96902650678434E-02 
419	 3.95975841985904E-02 
420	 3.97851704542785E-02 
421	 3.97585512741641E-02 
422	 3.95580225097222E-02 
423	 3.94489132967915E-02 
424	 3.95284611129835E-02 
425	 3.95815005390581E-02 
426	 3.95335517266863E-02 
427	 3.94985522588976E-02 
428	 3.94655162939419E-02 
429	 3.94171445041534E-02 
430	 3.93795292963089E-02 
431	 3.95447502288303E-02 
432	 3.95777096412053E-02 
433	 3.94679678451516E-02 
434	 0.039403860183333 
435	 3.95360355534615E-02 
436	 3.95610194340937E-02 
437	 3.93905330956578E-02 
438	 3.93412960907564E-02 
439	 3.93797813338752E-02 
440	 3.93927958971414E-02 
441	 0.039298834480963 
442	 3.92655099314119E-02 
443	 3.93332491218717E-02 
444	 3.94373941614415E-02 
445	 3.94392353972787E-02 
446	 3.93474470838837E-02 
447	 3.93123677858946E-02 
448	 3.93797563231843E-02 
449	 3.93061172571337E-02 
450	 3.93179575330445E-02 
451	 3.93562157013647E-02 
452	 3.92927531498197E-02 
453	 0.039288627483211 
454	 3.93027190876388E-02 
455	 3.93111840447911E-02 
456	 3.93246994993838E-02 
457	 3.93296903758484E-02 
458	 3.92616743614644E-02 
459	 3.91485952477105E-02 
460	 3.93504049805515E-02 
461	 3.93648594954942E-02 
462	 3.91999004504392E-02 
463	 3.91359709681464E-02 
464	 3.90394639264552E-02 
465	 3.91028885263524E-02 
466	 3.92885593656526E-02 
467	 3.91517189350628E-02 
468	 3.91641300742344E-02 
469	 3.91781779338884E-02 
470	 3.90092256229037E-02 
471	 3.91159695515607E-02 
472	 3.91351809619636E-02 
473	 3.90392182049562E-02 
474	 3.90735425363711E-02 
475	 0.039077278665991 
476	 3.90241500026375E-02 
477	 3.89468584570787E-02 
478	 3.89566249959683E-02 
479	 3.90283960820894E-02 
480	 3.90730699705402E-02 
481	 3.90021992471129E-02 
482	 3.89043921201928E-02 
483	 3.89046922069663E-02 
484	 3.89837132292582E-02 
485	 3.89608563572478E-02 
486	 3.90468041386466E-02 
487	 3.91174183901522E-02 
488	 3.90501447474122E-02 
489	 0.038949162906354 
490	 3.89415215431652E-02 
491	 3.90313207380106E-02 
492	 3.91298037114036E-02 
493	 3.90716413228725E-02 
494	 3.90121144019815E-02 
495	 3.90478336850602E-02 
496	 3.91218757193597E-02 
497	 3.90643542520894E-02 
498	 3.89636712701887E-02 
499	 0.038953912585875 
500	 3.89609996774032E-02 
501	 3.89093746153167E-02 
502	 0.038814211855105 
503	 3.87703645372168E-02 
504	 3.88260340343129E-02 
505	 3.88832354371971E-02 
506	 3.88835425726347E-02 
507	 3.89431178886649E-02 
508	 3.89051691498116E-02 
509	 3.88203556222396E-02 
510	 3.88114490718311E-02 
511	 3.87840602697113E-02 
512	 0.038787744832562 
513	 3.88288417988803E-02 
514	 3.88456780669663E-02 
515	 0.03877268030786 
516	 3.87094350776488E-02 
517	 0.038741636298217 
518	 3.87456396212736E-02 
519	 3.87518374496986E-02 
520	 3.87677901153652E-02 
521	 3.87825324832593E-02 
522	 3.87805271280823E-02 
523	 3.87478801625574E-02 
524	 3.86982265154194E-02 
525	 3.87004321518752E-02 
526	 0.038677094199265 
527	 0.038675718675531 
528	 3.87491924153132E-02 
529	 3.87241138742647E-02 
530	 3.86899005330182E-02 
531	 3.86814233911756E-02 
532	 0.038658619886641 
533	 0.038664482465895 
534	 3.86845152833173E-02 
535	 3.86868545199045E-02 
536	 3.86163868331134E-02 
537	 3.86083192568237E-02 
538	 3.86417416595928E-02 
539	 3.86173225972172E-02 
540	 3.86001728567635E-02 
541	 3.86056965492683E-02 
542	 3.86205888718461E-02 
543	 3.85929592465586E-02 
544	 3.85896094813089E-02 
545	 3.85785538567999E-02 
546	 3.85262956279856E-02 
547	 3.85335220724364E-02 
548	 3.85598124175414E-02 
549	 3.85627546350354E-02 
550	 3.85098258743746E-02 
551	 3.85004607341078E-02 
552	 3.85213644803816E-02 
553	 3.85383405773317E-02 
554	 0.038519621436934 
555	 3.85204244607599E-02 
556	 3.85419068233888E-02 
557	 3.85595688597548E-02 
558	 3.85712034206457E-02 
559	 3.85955900445164E-02 
560	 3.86261040458114E-02 
561	 3.86184437763567E-02 
562	 0.038609041772953 
563	 3.86183309593298E-02 
564	 3.86480700940319E-02 
565	 3.86498808160878E-02 
566	 3.86456037777158E-02 
567	 3.86359784040504E-02 
568	 3.86078118875257E-02 
569	 3.85993998493728E-02 
570	 0.038563936217587 
571	 3.84949489180295E-02 
572	 3.85029951809633E-02 
573	 0.038502726437053 
574	 3.84874305899351E-02 
575	 3.84842793473753E-02 
576	 3.85450626053423E-02 
577	 0.038531174371354 
578	 3.84541578122956E-02 
579	 3.85040688674291E-02 
580	 3.84739371410313E-02 
581	 3.84416522238006E-02 
582	 3.84932017648513E-02 
583	 3.85341065810723E-02 
584	 3.85640494725574E-02 
585	 3.85747050770607E-02 
586	 3.85606988292439E-02 
587	 3.85686269416436E-02 
588	 3.85629765963058E-02 
589	 3.85370100070534E-02 
590	 3.85478653180346E-02 
591	 3.85476457919703E-02 
592	 3.85331546993488E-02 
593	 3.85173012867388E-02 
594	 3.85207719362026E-02 
595	 3.85154511199885E-02 
596	 3.85015184178752E-02 
597	 0.038502966524192 
598	 3.84761244546509E-02 
599	 3.84703122747467E-02 
600	 3.85065647445821E-02 
601	 3.84981038956903E-02 
602	 3.84876300781941E-02 
603	 3.84930762415893E-02 
604	 3.85155718320623E-02 
605	 3.85126794335177E-02 
606	 3.85072054395749E-02 
607	 3.85178243854787E-02 
608	 3.85507854888088E-02 
609	 3.85268170949808E-02 
610	 3.84980949449553E-02 
611	 3.85156551716212E-02 
612	 3.85104703724678E-02 
613	 3.84937717854003E-02 
614	 3.84754028897003E-02 
615	 0.03846368673877 
616	 3.84552584647513E-02 
617	 3.84577285311015E-02 
618	 3.84685336380931E-02 
619	 3.84651325531358E-02 
620	 3.84558860206594E-02 
621	 3.84617385711436E-02 
622	 3.84885468716147E-02 
623	 3.84454313940915E-02 
624	 3.84312709255406E-02 
625	 3.84604293578669E-02 
626	 3.84620396420784E-02 
627	 0.038439057261318 
628	 3.84285874212255E-02 
629	 3.84468326902965E-02 
630	 3.84405950335334E-02 
631	 0.03842477689164 
632	 3.84217265636725E-02 
633	 3.84479325143637E-02 
634	 3.84504718175972E-02 
635	 3.84337340858192E-02 
636	 3.84183118964995E-02 
637	 3.84372701706907E-02 
638	 3.84410781020496E-02 
639	 3.84211981171653E-02 
640	 3.83899063111692E-02 
641	 3.83896544910932E-02 
642	 3.83865474734749E-02 
643	 3.83703737518725E-02 
644	 3.83508650582933E-02 
645	 3.83746539553085E-02 
646	 3.83870664859506E-02 
647	 0.03836805485995 
648	 3.83760937648279E-02 
649	 3.83473613916195E-02 
650	 3.83264974871131E-02 
651	 3.83559670793669E-02 
652	 3.83222532865196E-02 
653	 3.82953670419517E-02 
654	 3.82989339220906E-02 
655	 3.83115473530821E-02 
656	 3.82946098455069E-02 
657	 3.82957059218704E-02 
658	 3.83284462287474E-02 
659	 0.038301052506668 
660	 3.82958589872034E-02 
661	 3.82992494977187E-02 
662	 3.82783240752831E-02 
663	 3.83020799220042E-02 
664	 3.83019752530632E-02 
665	 0.038273975215355 
666	 3.82834789291754E-02 
667	 3.82681803846467E-02 
668	 3.82591230733707E-02 
669	 3.82770974629702E-02 
670	 3.82695801176687E-02 
671	 3.82596976923559E-02 
672	 3.82522841568101E-02 
673	 3.82458510271576E-02 
674	 3.82523324918368E-02 
675	 3.82458804333714E-02 
676	 3.82314775498508E-02 
677	 3.82532948582461E-02 
678	 3.82391094976623E-02 
679	 3.82171725651234E-02 
680	 3.82200437411695E-02 
681	 0.038217493401674 
682	 3.82226923889107E-02 
683	 3.82282461648804E-02 
684	 3.82180822275471E-02 
685	 3.82021803829619E-02 
686	 3.81856677093857E-02 
687	 3.81731079016644E-02 
688	 3.81691287816014E-02 
689	 3.81495246293814E-02 
690	 3.81292337901315E-02 
691	 3.81285463650911E-02 
692	 3.81506353674154E-02 
693	 3.81575771002143E-02 
694	 3.81447782979036E-02 
695	 3.81305006360264E-02 
696	 0.03812127605762 
697	 3.81192435064844E-02 
698	 0.038116820433333 
699	 0.038092055061571 
700	 3.80920603279098E-02 
701	 3.81062226910777E-02 
702	 3.81099596970641E-02 
703	 3.80928162411156E-02 
704	 3.81006649344315E-02 
705	 3.81167557096195E-02 
706	 3.80889543963439E-02 
707	 3.80854355086996E-02 
708	 3.80901740148849E-02 
709	 3.80863333581049E-02 
710	 3.80741694501822E-02 
711	 3.80736301607275E-02 
712	 3.80740325818364E-02 
713	 3.80640545182983E-02 
714	 3.80721065494948E-02 
715	 3.80653860059892E-02 
716	 3.80454704327414E-02 
717	 3.80389285778309E-02 
718	 3.80480935527287E-02 
719	 3.80472727070798E-02 
720	 0.038031641784187 
721	 3.80384236132806E-02 
722	 0.038040628718515 
723	 3.80293060323585E-02 
724	 3.80086278584735E-02 
725	 3.80089219388974E-02 
726	 3.80260253271432E-02 
727	 3.80456660523629E-02 
728	 3.80486245475759E-02 
729	 3.80368094055247E-02 
730	 3.80261857804334E-02 
731	 3.80261117441673E-02 
732	 3.80322854057611E-02 
733	 3.80343744354938E-02 
734	 3.80305058285385E-02 
735	 3.80232930057042E-02 
736	 0.038018577556204 
737	 3.80245842065934E-02 
738	 3.80266977819314E-02 
739	 3.80026382182937E-02 
740	 3.80057485551167E-02 
741	 3.80195567500534E-02 
742	 3.80239005796059E-02 
743	 3.80064531461987E-02 
744	 3.80128548357097E-02 
745	 0.038022255855562 
746	 3.80131106813101E-02 
747	 3.80282465250113E-02 
748	 3.80306739605973E-02 
749	 0.038019749601343 
750	 3.80149403866377E-02 
751	 3.80098932364413E-02 
752	 3.80039023682243E-02 
753	 3.80036871061303E-02 
754	 3.80241606808993E-02 
755	 3.80268184049236E-02 
756	 3.80179847187025E-02 
757	 3.80103450229947E-02 
758	 3.79993841455403E-02 
759	 3.80023070143516E-02 
760	 3.80032372267575E-02 
761	 3.79804275334118E-02 
762	 3.79836241890215E-02 
763	 0.037981037668144 
764	 3.79713441713618E-02 
765	 0.037989079247314 
766	 3.79865042796237E-02 
767	 3.79750092684602E-02 
768	 3.79726587963859E-02 
769	 3.79872144036134E-02 
770	 0.037990554876402 
771	 3.79851618836008E-02 
772	 0.037985013961882 
773	 3.79985906479037E-02 
774	 3.79961050545064E-02 
775	 3.79812637913638E-02 
776	 3.79837821570462E-02 
777	 3.79826269984285E-02 
778	 3.79879635227084E-02 
779	 3.79940286522202E-02 
780	 3.79603241947468E-02 
781	 3.79595609646366E-02 
782	 3.79770825405678E-02 
783	 0.037982859598713 
784	 3.79907481093015E-02 
785	 3.79926608536352E-02 
786	 3.79889599287058E-02 
787	 0.037985549992157 
788	 3.79880622411785E-02 
789	 3.79963020340382E-02 
790	 3.80006503584978E-02 
791	 3.79837444549995E-02 
792	 3.79969212592762E-02 
793	 3.80117397709614E-02 
794	 3.80037436877016E-02 
795	 3.79993381101359E-02 
796	 3.79953589977563E-02 
797	 3.79993728871365E-02 
798	 3.80123229988369E-02 
799	 3.79880567446342E-02 
800	 3.79794250518117E-02 
801	 0.037989300963323 
802	 3.79814477348967E-02 
803	 3.79728568949481E-02 
804	 3.79822322022352E-02 
805	 3.80046030072647E-02 
806	 3.80006019708479E-02 
807	 3.79954418352535E-02 
808	 3.79788592827573E-02 
809	 3.79514321083207E-02 
810	 3.79713980984068E-02 
811	 3.79858587277049E-02 
812	 3.79827892738993E-02 
813	 3.79738410866701E-02 
814	 3.79871018089508E-02 
815	 3.79932256146624E-02 
816	 3.79955502150904E-02 
817	 3.80234567514505E-02 
818	 3.80190415428985E-02 
819	 0.037996846491752 
820	 3.79799670368403E-02 
821	 3.79851856022932E-02 
822	 3.79950115584706E-02 
823	 3.80180968776248E-02 
824	 3.80474452810025E-02 
825	 3.80034578321623E-02 
826	 3.79848272083459E-02 
827	 3.80006899390482E-02 
828	 3.80178587896269E-02 
829	 3.80346053032549E-02 
830	 3.80431226398765E-02 
831	 3.80384076863406E-02 
832	 3.80219214915997E-02 
833	 0.038035737063942 
834	 3.80403665538498E-02 
835	 3.80337095108156E-02 
836	 3.80880989708896E-02 
837	 3.80905968508886E-02 
838	 3.80754130362823E-02 
839	 0.03808487039291 
840	 3.80720505199176E-02 
841	 3.80775450614258E-02 
842	 3.80864143680822E-02 
843	 3.80729693811275E-02 
844	 3.80753413464106E-02 
845	 3.80912054636799E-02 
846	 3.81042772678836E-02 
847	 0.038095419052416 
848	 3.81052246998498E-02 
849	 3.80972324959564E-02 
850	 3.80713582418508E-02 
851	 3.80803723530656E-02 
852	 3.80760168179004E-02 
853	 3.80707238924316E-02 
854	 3.80775724755676E-02 
855	 3.80859062274154E-02 
856	 3.80729790476517E-02 
857	 3.80621550382013E-02 
858	 3.80784416509454E-02 
859	 3.80981328423216E-02 
860	 3.80913058740618E-02 
861	 3.80766055340741E-02 
862	 0.038089793102538 
863	 3.81023726367568E-02 
864	 3.80960371001913E-02 
865	 3.80827449475017E-02 
866	 3.80947334907274E-02 
867	 3.80960810106788E-02 
868	 3.81033011861324E-02 
869	 3.81142640345829E-02 
870	 3.80943249653761E-02 
871	 3.80866772645033E-02 
872	 3.80958550207932E-02 
873	 3.81113904388488E-02 
874	 3.81095870249829E-02 
875	 3.81292299629059E-02 
876	 3.81486591719667E-02 
877	 3.81413369294562E-02 
878	 3.81319693575048E-02 
879	 3.81456318338156E-02 
880	 3.81588622791013E-02 
881	 3.81385524744839E-02 
882	 3.81416025625252E-02 
883	 3.81300350184492E-02 
884	 3.81167657348138E-02 
885	 3.81467352729489E-02 
886	 3.81586669201698E-02 
887	 3.81829382140657E-02 
888	 3.82067517251509E-02 
889	 3.81658828516067E-02 
890	 0.038171671915944 
891	 3.81660622086156E-02 
892	 3.81253621533187E-02 
893	 3.81344948849996E-02 
894	 3.81630676223798E-02 
895	 3.81860253153092E-02 
896	 3.81924290896813E-02 
897	 3.82087735300109E-02 
898	 3.81935069961336E-02 
899	 3.81686464662934E-02 
900	 3.81675236572321E-02 
901	 3.81761038370074E-02 
902	 3.81868636381446E-02 
903	 3.82024560430856E-02 
904	 3.82196856185836E-02 
905	 3.81679340221841E-02 
906	 3.81873870003326E-02 
907	 3.82453256011768E-02 
908	 3.82030829914498E-02 
909	 3.81919121188993E-02 
910	 3.81747177209331E-02 
911	 3.81512480128134E-02 
912	 3.81682241523808E-02 
913	 3.81954115062695E-02 
914	 3.81891721912728E-02 
915	 3.81587257957004E-02 
916	 3.81812585405584E-02 
917	 3.81843291497523E-02 
918	 3.81909633685708E-02 
919	 3.82162658589014E-02 
920	 3.82263003524194E-02 
921	 3.82156136223644E-02 
922	 0.038189529614546 
923	 3.81710551148259E-02 
924	 0.038218145438284 
925	 3.82418821670698E-02 
926	 0.038241178276975 
927	 0.038237560278646 
928	 3.82146179951201E-02 
929	 3.82446224872405E-02 
930	 3.82609035249856E-02 
931	 3.81936284561979E-02 
932	 3.82241511808987E-02 
933	 0.038262888339589 
934	 3.82799692545773E-02 
935	 3.82786960820449E-02 
936	 3.82172880406641E-02 
937	 3.82331652732983E-02 
938	 3.83008826513607E-02 
939	 3.82987483688252E-02 
940	 3.83298965767769E-02 
941	 3.83295443790886E-02 
942	 3.83089429800247E-02 
943	 3.83434569817407E-02 
944	 3.83774338726356E-02 
945	 3.83765210243071E-02 
946	 3.83757957820152E-02 
947	 3.84554037579528E-02 
948	 3.83973487305406E-02 
949	 3.83525672276831E-02 
950	 0.03838942824088 
951	 3.84062117087397E-02 
952	 3.84403842142799E-02 
953	 3.84658413665927E-02 
954	 3.84536609097509E-02 
955	 3.83911864608602E-02 
956	 3.83754341254628E-02 
957	 3.83904793342252E-02 
958	 3.84175529271135E-02 
959	 3.84768032022025E-02 
960	 3.84564533821832E-02 
961	 0.03842452416987 
962	 3.84402989969264E-02 
963	 3.84560306108686E-02 
964	 3.84342449330698E-02 
965	 3.84149717260771E-02 
966	 3.84348513172918E-02 
967	 3.84728192693934E-02 
968	 3.84905767272015E-02 
969	 3.84347400776791E-02 
970	 3.83365773868069E-02 
971	 3.84391114458589E-02 
972	 3.84004908716752E-02 
973	 3.83348224183504E-02 
974	 3.83959171661321E-02 
975	 3.84407380634284E-02 
976	 3.84209150050141E-02 
977	 3.83991528905405E-02 
978	 3.84263827996348E-02 
979	 3.83807825529192E-02 
980	 3.84509526296445E-02 
981	 3.84989715915864E-02 
982	 3.83951639416418E-02 
983	 3.83969495101394E-02 
984	 3.84464946146128E-02 
985	 3.85138515225171E-02 
986	 3.85623778878641E-02 
987	 3.85128400797587E-02 
988	 3.85501321222632E-02 
989	 0.038613961653339 
990	 3.85904101426229E-02 
991	 3.85093944147305E-02 
992	 3.85127810419476E-02 
993	 3.85266771538373E-02 
994	 3.84810238267251E-02 
995	 3.86252831457829E-02 
996	 3.86070620660633E-02 
997	 3.85499662180571E-02 
998	 0.038631078646802 
999	 3.85762978608526E-02 
1000	 3.86560536587228E-02 
1001	 3.98200525804745E-02 
1002	 3.98235005241605E-02 
1003	 3.98589233847874E-02 
1004	 3.98596496482503E-02 
1005	 3.98331459842116E-02 
1006	 3.98449741554597E-02 
1007	 3.98640644218124E-02 
1008	 3.98836447029827E-02 
1009	 3.99284768555958E-02 
1010	 3.99443759783658E-02 
1011	 3.99457094403507E-02 
1012	 3.99505856104688E-02 
1013	 3.99634386092778E-02 
1014	 3.99527025972812E-02 
1015	 3.99176213076093E-02 
1016	 3.98871182053415E-02 
1017	 3.98871594735059E-02 
1018	 3.98960314049884E-02 
1019	 3.99253238154971E-02 
1020	 3.99373823095346E-02 
1021	 3.99414290870234E-02 
1022	 3.99093062051781E-02 
1023	 3.99050695750073E-02 
1024	 3.99247812327953E-02 
1025	 3.99267780289492E-02 
1026	 3.99275441383967E-02 
1027	 3.99244510609978E-02 
1028	 3.99219612760314E-02 
1029	 3.98829553429621E-02 
1030	 3.98849445754399E-02 
1031	 0.039885671876254 
1032	 3.98758466006099E-02 
1033	 3.98998524065095E-02 
1034	 3.99008014277631E-02 
1035	 3.98934304181457E-02 
1036	 0.039900397417426 
1037	 3.99259365139866E-02 
1038	 3.99236612697722E-02 
1039	 3.98987397913709E-02 
1040	 3.98945536331071E-02 
1041	 3.98877236426243E-02 
1042	 0.039886923464235 
1043	 3.98895740302825E-02 
1044	 3.99372033240817E-02 
1045	 3.99652610891875E-02 
1046	 3.99409953740857E-02 
1047	 3.99237649232073E-02 
1048	 3.99048244617961E-02 
1049	 0.039883258526966 
1050	 3.98953775619298E-02 
1051	 3.99202308335567E-02 
1052	 3.99539803104297E-02 
1053	 3.99891599672247E-02 
1054	 0.040042165368285 
1055	 4.00519610132646E-02 
1056	 4.00311759684271E-02 
1057	 0.040039460910906 
1058	 4.00272927610415E-02 
1059	 4.00490647860353E-02 
1060	 4.01030775810476E-02 
1061	 4.01516281310476E-02 
1062	 4.01709871087134E-02 
1063	 4.01811748405538E-02 
1064	 4.01851494423621E-02 
1065	 4.01740769992987E-02 
1066	 4.01837899922364E-02 
1067	 4.02141628442292E-02 
1068	 4.02286041340637E-02 
1069	 4.02450409499497E-02 
1070	 4.02698835899581E-02 
1071	 4.03036951445551E-02 
1072	 4.03139698811289E-02 
1073	 4.03233057371494E-02 
1074	 4.03560536992022E-02 
1075	 4.03650474185699E-02 
1076	 4.03578365994073E-02 
1077	 4.03743542733113E-02 
1078	 4.03738411220218E-02 
1079	 4.03850990349999E-02 
1080	 4.04118583815048E-02 
1081	 4.04279317558874E-02 
1082	 4.04572684626151E-02 
1083	 4.04813685305266E-02 
1084	 4.04984164066187E-02 
1085	 4.05049273391876E-02 
1086	 4.05180252603335E-02 
1087	 4.05296826650581E-02 
1088	 0.040555532787825 
1089	 4.05722943997831E-02 
1090	 4.05894089150935E-02 
1091	 4.05992218166514E-02 
1092	 0.040595345185605 
1093	 4.06004163275649E-02 
1094	 4.06142438402581E-02 
1095	 4.06213426347369E-02 
1096	 0.040623215585371 
1097	 4.06437973922125E-02 
1098	 4.06662438197214E-02 
1099	 4.06756654343186E-02 
1100	 4.06926104689877E-02 
1101	 4.06990787741794E-02 
1102	 4.06998481987719E-02 
1103	 4.07094025491046E-02 
1104	 4.07364019668452E-02 
1105	 4.07487580169142E-02 
1106	 4.07304172752035E-02 
1107	 4.07206832484341E-02 
1108	 0.040719272632132 
1109	 4.07184052935649E-02 
1110	 4.07372815974982E-02 
1111	 0.040758126090144 
1112	 4.07573533525343E-02 
1113	 4.07625872596028E-02 
1114	 4.07801647012436E-02 
1115	 4.07916432689056E-02 
1116	 4.08049883612723E-02 
1117	 4.08039944850461E-02 
1118	 4.08081977850212E-02 
1119	 4.08174002022512E-02 
1120	 4.08225485932643E-02 
1121	 4.08226364234021E-02 
1122	 4.08293753034635E-02 
1123	 4.08345408102155E-02 
1124	 4.08113666813337E-02 
1125	 4.07880157140021E-02 
1126	 4.07803487201683E-02 
1127	 4.07896202320263E-02 
1128	 0.040801542771265 
1129	 4.08005212693339E-02 
1130	 4.07989945749004E-02 
1131	 4.07956009781137E-02 
1132	 4.07839531683536E-02 
1133	 4.07884050017836E-02 
1134	 0.040824223829527 
1135	 4.08376414236033E-02 
1136	 4.08375166510338E-02 
1137	 4.08413649562689E-02 
1138	 4.08415753388869E-02 
1139	 4.08370435443781E-02 
1140	 4.08248865352977E-02 
1141	 4.08336617315142E-02 
1142	 4.08284893026103E-02 
1143	 4.08145551219096E-02 
1144	 4.08078154670367E-02 
1145	 4.08006123440469E-02 
1146	 0.040800430262498 
1147	 4.08131030944648E-02 
1148	 4.08133017995187E-02 
1149	 4.08046627044509E-02 
1150	 4.08019512567008E-02 
1151	 4.07966473670066E-02 
1152	 4.07878102399708E-02 
1153	 0.040774611053565 
1154	 4.07746673188161E-02 
1155	 4.07806461738735E-02 
1156	 4.07749944792792E-02 
1157	 4.07755791213941E-02 
1158	 4.07723543274253E-02 
1159	 0.040755367569524 
1160	 4.07427075634977E-02 
1161	 4.07441857853295E-02 
1162	 4.07453146046224E-02 
1163	 0.040740996571234 
1164	 4.07297001617492E-02 
1165	 4.07291141611552E-02 
1166	 4.07322904143541E-02 
1167	 4.07432159034349E-02 
1168	 4.07674716980984E-02 
1169	 4.07722068908402E-02 
1170	 0.040765066193729 
1171	 0.04076843137879 
1172	 4.07594742903177E-02 
1173	 4.07620460064956E-02 
1174	 4.07862702633373E-02 
1175	 4.07913292047208E-02 
1176	 4.07884709700485E-02 
1177	 4.07884968588508E-02 
1178	 4.07792352487307E-02 
1179	 4.07743028800528E-02 
1180	 4.07864869764257E-02 
1181	 4.07991685788386E-02 
1182	 4.07999464100814E-02 
1183	 4.08037281463962E-02 
1184	 4.08076146680117E-02 
1185	 4.08044936094074E-02 
1186	 4.08185701010336E-02 
1187	 4.08623894374171E-02 
1188	 4.08713956879949E-02 
1189	 4.08692874591155E-02 
1190	 4.08689004084665E-02 
1191	 4.08466170349097E-02 
1192	 4.08437877643686E-02 
1193	 4.08535977186764E-02 
1194	 0.040859991724881 
1195	 0.040868581893056 
1196	 4.08799520496881E-02 
1197	 4.08934575424592E-02 
1198	 4.09087651520645E-02 
1199	 4.09203242335127E-02 
1200	 4.09232433732105E-02 
1201	 4.09165257771963E-02 
1202	 0.040910381522712 
1203	 4.09217298979215E-02 
1204	 4.09390488873596E-02 
1205	 4.09556407062688E-02 
1206	 4.09855007234606E-02 
1207	 4.10012257806267E-02 
1208	 4.10125394031772E-02 
1209	 4.10186069635368E-02 
1210	 4.10055866282807E-02 
1211	 4.10187774516166E-02 
1212	 4.10416160592684E-02 
1213	 4.10630177845483E-02 
1214	 4.11071220847717E-02 
1215	 4.11345240822788E-02 
1216	 4.11442064867335E-02 
1217	 4.11638411845658E-02 
1218	 0.041187324096439 
1219	 4.12071051331673E-02 
1220	 0.041226009305144 
1221	 4.12566095927328E-02 
1222	 4.12794483742058E-02 
1223	 4.12966246932996E-02 
1224	 4.13165115270557E-02 
1225	 4.13391431008347E-02 
1226	 4.13528961281913E-02 
1227	 4.13595030197674E-02 
1228	 4.13749657714143E-02 
1229	 4.13856135208309E-02 
1230	 4.14052346954038E-02 
1231	 4.14402866271615E-02 
1232	 4.14627571773623E-02 
1233	 4.14786685752839E-02 
1234	 4.15005712432939E-02 
1235	 4.15206574795945E-02 
1236	 4.15403662438333E-02 
1237	 4.15761607452178E-02 
1238	 4.15937164619843E-02 
1239	 4.15975872571248E-02 
1240	 4.15967406053964E-02 
1241	 4.16054207385673E-02 
1242	 4.16051128154036E-02 
1243	 4.16222754886219E-02 
1244	 4.16606281344636E-02 
1245	 4.16774676893387E-02 
1246	 4.16923156783082E-02 
1247	 4.17017092696704E-02 
1248	 4.16982670705093E-02 
1249	 4.17040120128432E-02 
1250	 0.041705878645797 
1251	 4.17199174440177E-02 
1252	 4.17499711067352E-02 
1253	 4.17615981431529E-02 
1254	 4.17759504887013E-02 
1255	 4.17823839086069E-02 
1256	 4.17634481085168E-02 
1257	 4.17635696567985E-02 
1258	 0.04177402432349 
1259	 4.17809995614662E-02 
1260	 4.17921179443893E-02 
1261	 4.18047086173782E-02 
1262	 4.18204362645143E-02 
1263	 4.18333691909501E-02 
1264	 4.18379624298687E-02 
1265	 4.18387863226419E-02 
1266	 4.18471718710139E-02 
1267	 4.18495170289786E-02 
1268	 4.18560037406554E-02 
1269	 4.18744896272715E-02 
1270	 4.18820692545292E-02 
1271	 4.18747314191162E-02 
1272	 4.18850128782162E-02 
1273	 4.19040710331426E-02 
1274	 4.19204874538003E-02 
1275	 4.19416389653679E-02 
1276	 0.041965153858918 
1277	 4.19983860970002E-02 
1278	 0.042014172840778 
1279	 0.04201664981436 
1280	 4.20331916127821E-02 
1281	 0.042039023880589 
1282	 4.20559674976357E-02 
1283	 4.21001475885932E-02 
1284	 4.21302283012083E-02 
1285	 4.21558069126652E-02 
1286	 4.21744650302429E-02 
1287	 4.21977722132922E-02 
1288	 4.22145461990826E-02 
1289	 4.22442098631779E-02 
1290	 4.22854189279243E-02 
1291	 4.23125558602378E-02 
1292	 0.042341461177572 
1293	 4.23640049401902E-02 
1294	 4.23696840758879E-02 
1295	 4.23923038869934E-02 
1296	 4.24220629747668E-02 
1297	 4.24507427364997E-02 
1298	 4.24897942232368E-02 
1299	 4.25181456074839E-02 
1300	 4.25428567621564E-02 
1301	 4.25645343382064E-02 
1302	 4.25724635231397E-02 
1303	 4.25941037427243E-02 
1304	 4.26258638228742E-02 
1305	 0.042649610174148 
1306	 4.26848931970391E-02 
1307	 4.27053563292539E-02 
1308	 4.27163552452675E-02 
1309	 4.27131839165606E-02 
1310	 4.27187639911128E-02 
1311	 4.27163962449198E-02 
1312	 4.27277728573735E-02 
1313	 4.27458508178535E-02 
1314	 4.27642433038318E-02 
1315	 4.27941307454157E-02 
1316	 4.28070397925032E-02 
1317	 4.28117311333361E-02 
1318	 4.28218532225664E-02 
1319	 4.28242168182567E-02 
1320	 4.28331630160775E-02 
1321	 4.28511449522795E-02 
1322	 4.28630031394392E-02 
1323	 4.28756108154563E-02 
1324	 4.28810841112283E-02 
1325	 4.28779856925216E-02 
1326	 4.28821585832131E-02 
1327	 4.28833848084961E-02 
1328	 4.28878971931636E-02 
1329	 4.29004595025343E-02 
1330	 0.042910175028088 
1331	 4.29236885940118E-02 
1332	 4.29275225398312E-02 
1333	 4.29182154344541E-02 
1334	 4.29214122521658E-02 
1335	 4.29254901653961E-02 
1336	 4.29297322193353E-02 
1337	 4.29249812581401E-02 
1338	 4.29185952266865E-02 
1339	 4.29246182905374E-02 
1340	 4.29271713520768E-02 
1341	 4.29301125577546E-02 
1342	 4.29497769028891E-02 
1343	 4.29564890826389E-02 
1344	 4.29460684375785E-02 
1345	 4.29474674793589E-02 
1346	 0.042960005509958 
1347	 4.29628845620288E-02 
1348	 4.29623827044222E-02 
1349	 4.29599957826401E-02 
1350	 0.042952026887669 
1351	 4.29476076938806E-02 
1352	 4.29430420159039E-02 
1353	 4.29382320849019E-02 
1354	 4.29313726774003E-02 
1355	 4.29302811942171E-02 
1356	 4.29349604267322E-02 
1357	 4.29346453420129E-02 
1358	 4.29354161963073E-02 
1359	 0.042936801984331 
1360	 4.29365184019104E-02 
1361	 4.29338305760691E-02 
1362	 4.29243388810501E-02 
1363	 4.29207544785563E-02 
1364	 4.29148410216984E-02 
1365	 4.29015068447767E-02 
1366	 4.28958545162492E-02 
1367	 4.28968370014714E-02 
1368	 0.042894637672133 
1369	 4.28949986405886E-02 
1370	 4.28875499795489E-02 
1371	 4.28742048062376E-02 
1372	 4.28686672897244E-02 
1373	 4.28595644659381E-02 
1374	 4.28560670089904E-02 
1375	 4.28648713769657E-02 
1376	 4.28626830076146E-02 
1377	 4.28543981764925E-02 
1378	 4.28489841151564E-02 
1379	 4.28442602702903E-02 
1380	 4.28354182195998E-02 
1381	 4.28245502833194E-02 
1382	 4.28140239727064E-02 
1383	 4.27975823000726E-02 
1384	 4.27857372394721E-02 
1385	 4.27807170198666E-02 
1386	 4.27705037245416E-02 
1387	 4.27535796851855E-02 
1388	 4.27443807760344E-02 
1389	 4.27447300072701E-02 
1390	 4.27333568233662E-02 
1391	 0.04271536394594 
1392	 4.27038726341059E-02 
1393	 4.26924033606201E-02 
1394	 4.26751045141786E-02 
1395	 4.26750189208963E-02 
1396	 4.26986806287429E-02 
1397	 0.042694412585025 
1398	 4.26845930789174E-02 
1399	 4.26727324577081E-02 
1400	 4.26495505099584E-02 
1401	 4.26277212376543E-02 
1402	 4.26026889714063E-02 
1403	 4.25860991002101E-02 
1404	 4.25668316303025E-02 
1405	 4.25525577954015E-02 
1406	 4.25525152620113E-02 
1407	 4.25400479779923E-02 
1408	 4.25210712938433E-02 
1409	 0.042503868514516 
1410	 4.24816304549162E-02 
1411	 4.24647447744733E-02 
1412	 4.24458454429131E-02 
1413	 4.24353247523871E-02 
1414	 4.24329129381999E-02 
1415	 4.24293833304752E-02 
1416	 4.24305005618844E-02 
1417	 4.24309486152594E-02 
1418	 4.24295530009811E-02 
1419	 4.24312319265592E-02 
1420	 4.24347180423224E-02 
1421	 4.24419423657876E-02 
1422	 4.24614812433553E-02 
1423	 4.24670821813183E-02 
1424	 4.24652726036909E-02 
1425	 4.24617971510479E-02 
1426	 4.24700035219878E-02 
1427	 4.24705931237689E-02 
1428	 4.24764314346155E-02 
1429	 4.24993466334674E-02 
1430	 4.25165473181943E-02 
1431	 4.25298903537331E-02 
1432	 0.042543257591676 
1433	 4.25664710486045E-02 
1434	 4.25734729606647E-02 
1435	 4.25668458981804E-02 
1436	 4.25684038614829E-02 
1437	 4.25615038304895E-02 
1438	 0.04257369161208 
1439	 4.25976893247476E-02 
1440	 4.26163885236543E-02 
1441	 4.26502904393875E-02 
1442	 4.26663849742717E-02 
1443	 4.26659633335274E-02 
1444	 4.26781010619177E-02 
1445	 4.26910377189487E-02 
1446	 4.27029312983078E-02 
1447	 4.27208266822067E-02 
1448	 4.27347790703841E-02 
1449	 4.27437062585981E-02 
1450	 4.27539476757481E-02 
1451	 4.27620423295494E-02 
1452	 4.27760584814996E-02 
1453	 4.27939517029392E-02 
1454	 4.28090777156734E-02 
1455	 4.28284226959035E-02 
1456	 4.28454210101665E-02 
1457	 4.28547392922362E-02 
1458	 4.28710462743016E-02 
1459	 4.28972031169553E-02 
1460	 4.29142681163937E-02 
1461	 4.29302509883448E-02 
1462	 4.29430797806471E-02 
1463	 4.29405706001514E-02 
1464	 4.29515206512154E-02 
1465	 4.29742304909924E-02 
1466	 4.29915212487534E-02 
1467	 4.29996885382737E-02 
1468	 4.30182806706415E-02 
1469	 4.30371250949178E-02 
1470	 4.30528330819625E-02 
1471	 4.30704873010059E-02 
1472	 4.31005758398441E-02 
1473	 4.31150814130404E-02 
1474	 4.31198335398358E-02 
1475	 0.043124512114782 
1476	 4.31222800727032E-02 
1477	 4.31320826251421E-02 
1478	 4.31427237264248E-02 
1479	 0.043152895431765 
1480	 0.043171053267111 
1481	 4.31866266861336E-02 
1482	 4.32010216102156E-02 
1483	 4.32090890787673E-02 
1484	 4.32138503245454E-02 
1485	 4.32266934165253E-02 
1486	 4.32371569861196E-02 
1487	 0.043246565702536 
1488	 4.32642608775402E-02 
1489	 4.32783610894907E-02 
1490	 4.32816049082596E-02 
1491	 4.32945708957582E-02 
1492	 4.33144667731283E-02 
1493	 4.33367904876255E-02 
1494	 4.33659133394995E-02 
1495	 4.33869945307808E-02 
1496	 4.34091490243033E-02 
1497	 4.34291332736773E-02 
1498	 0.043442223201746 
1499	 4.34573655296503E-02 
1500	 4.34750681406652E-02 
1501	 4.34902201883208E-02 
1502	 4.35012449187784E-02 
1503	 4.35131028428446E-02 
1504	 4.35235682719237E-02 
1505	 4.35382945699982E-02 
1506	 0.043552640176305 
1507	 4.35715839985781E-02 
1508	 4.36007720940203E-02 
1509	 4.36215730874566E-02 
1510	 4.36373241920562E-02 
1511	 4.36570304602797E-02 
1512	 4.36788680703672E-02 
1513	 4.36943237597776E-02 
1514	 4.37061088252578E-02 
1515	 0.043723075800597 
1516	 4.37391492126181E-02 
1517	 4.37511107553832E-02 
1518	 4.37622986288161E-02 
1519	 4.37799500238833E-02 
1520	 4.37954795568022E-02 
1521	 4.38114166613051E-02 
1522	 4.38453344714395E-02 
1523	 4.38695858077264E-02 
1524	 4.38913694908086E-02 
1525	 4.39089685944796E-02 
1526	 4.39275765731829E-02 
1527	 4.39433487204379E-02 
1528	 4.39598957365386E-02 
1529	 4.39776500406719E-02 
1530	 4.39910883087979E-02 
1531	 4.39964340171284E-02 
1532	 4.40200785682099E-02 
1533	 4.40521433433265E-02 
1534	 4.40748551583599E-02 
1535	 4.41064448315357E-02 
1536	 4.41289216909583E-02 
1537	 4.41386201048394E-02 
1538	 4.41557847839838E-02 
1539	 4.41773502439849E-02 
1540	 4.41969857428051E-02 
1541	 4.42132000770019E-02 
1542	 4.42329363137768E-02 
1543	 4.42557410436365E-02 
1544	 4.42780229427668E-02 
1545	 4.43020730695712E-02 
1546	 4.43216938474305E-02 
1547	 4.43416058030063E-02 
1548	 4.43586109835777E-02 
1549	 4.43709365312291E-02 
1550	 0.044384012223119 
1551	 4.43969681695681E-02 
1552	 4.44080736789151E-02 
1553	 4.44128790893505E-02 
1554	 4.44277228022958E-02 
1555	 4.44497457585463E-02 
1556	 4.44644626875583E-02 
1557	 4.44825901204084E-02 
1558	 0.044496434742442 
1559	 4.44959404026011E-02 
1560	 4.45131405668295E-02 
1561	 4.45442987978312E-02 
1562	 4.45643785232137E-02 
1563	 4.45873657734887E-02 
1564	 4.46079449112452E-02 
1565	 4.46188996573995E-02 
1566	 4.46364989418384E-02 
1567	 4.46643349624725E-02 
1568	 4.46806163904598E-02 
1569	 4.46900616641099E-02 
1570	 0.044701902797171 
1571	 4.47041594405166E-02 
1572	 4.47185045257581E-02 
1573	 4.47400284193093E-02 
1574	 4.47622086898851E-02 
1575	 4.47962468198401E-02 
1576	 0.044818320040195 
1577	 4.48360904578844E-02 
1578	 0.044852111861662 
1579	 4.48569166884006E-02 
1580	 4.48710592516414E-02 
1581	 4.48882886864894E-02 
1582	 4.49074900326556E-02 
1583	 4.49337233786038E-02 
1584	 4.49556715179998E-02 
1585	 4.49774220658754E-02 
1586	 4.49981246468856E-02 
1587	 4.50207174367492E-02 
1588	 4.50352052367853E-02 
1589	 4.50384584928384E-02 
1590	 0.045053218844428 
1591	 4.50690597453877E-02 
1592	 4.50852502365545E-02 
1593	 4.51134458681496E-02 
1594	 4.51327235276024E-02 
1595	 4.51328324887804E-02 
1596	 0.045155548863861 
1597	 4.51989509519707E-02 
1598	 4.52252238636658E-02 
1599	 4.52612939564093E-02 
1600	 4.52830052602132E-02 
1601	 4.52775009506533E-02 
1602	 4.52857593778635E-02 
1603	 4.52951401225365E-02 
1604	 0.045309506810971 
1605	 4.53310883828518E-02 
1606	 4.53505342262916E-02 
1607	 4.53712606993845E-02 
1608	 4.53934000304976E-02 
1609	 4.54226380578651E-02 
1610	 4.54402719639409E-02 
1611	 4.54469030016483E-02 
1612	 4.54644525422597E-02 
1613	 4.54846828937056E-02 
1614	 4.54971582427335E-02 
1615	 4.55090504623933E-02 
1616	 4.55278580941409E-02 
1617	 4.55471742644733E-02 
1618	 4.55578234599774E-02 
1619	 0.045567991035675 
1620	 4.55842304594458E-02 
1621	 4.55896155469037E-02 
1622	 4.56040389475379E-02 
1623	 4.56387792750533E-02 
1624	 4.56635756525496E-02 
1625	 4.56838305971456E-02 
1626	 4.57012963369273E-02 
1627	 0.045713913391395 
1628	 4.57291394197479E-02 
1629	 4.57355897382541E-02 
1630	 4.57553732338013E-02 
1631	 4.58011879331687E-02 
1632	 4.58165443356891E-02 
1633	 4.58139043210089E-02 
1634	 4.58244820822073E-02 
1635	 4.58158163313729E-02 
1636	 4.58221817033918E-02 
1637	 4.58545726494792E-02 
1638	 4.58770543885397E-02 
1639	 4.59003960068876E-02 
1640	 4.59147391354714E-02 
1641	 4.59155613758324E-02 
1642	 4.59303981126597E-02 
1643	 4.59501596416322E-02 
1644	 4.59636930665439E-02 
1645	 4.59911602919217E-02 
1646	 4.60039462654716E-02 
1647	 4.59944345662317E-02 
1648	 0.045995948971351 
1649	 4.59951494907204E-02 
1650	 4.60044117062176E-02 
1651	 4.60286403224117E-02 
1652	 4.60389639660005E-02 
1653	 4.60436463110138E-02 
1654	 4.60534898803935E-02 
1655	 4.60599114782628E-02 
1656	 4.60667684280364E-02 
1657	 4.60851147688161E-02 
1658	 4.60923083805631E-02 
1659	 4.60796704995049E-02 
1660	 4.60842464300151E-02 
1661	 0.046103076059446 
1662	 4.61055740672226E-02 
1663	 4.61134476390804E-02 
1664	 4.61113427597726E-02 
1665	 4.60825260533159E-02 
1666	 4.60694654572091E-02 
1667	 4.60661826287857E-02 
1668	 4.60590694509419E-02 
1669	 4.60585976283482E-02 
1670	 4.60489120464075E-02 
1671	 4.60285508270097E-02 
1672	 4.60116281019397E-02 
1673	 4.59928900617473E-02 
1674	 4.59753248338273E-02 
1675	 4.59652813559961E-02 
1676	 4.59445462050617E-02 
1677	 4.59124579003316E-02 
1678	 4.58890933994696E-02 
1679	 4.58706061596064E-02 
1680	 4.58385636706269E-02 
1681	 4.58033315022919E-02 
1682	 0.045768076316557 
1683	 4.57159925034954E-02 
1684	 4.56834720086256E-02 
1685	 4.56606228465094E-02 
1686	 4.56381759027291E-02 
1687	 4.56257769035382E-02 
1688	 0.045607962954261 
1689	 4.55966255477492E-02 
1690	 4.55766721337412E-02 
1691	 4.55489594755466E-02 
1692	 4.55217062716473E-02 
1693	 4.54879332779711E-02 
1694	 4.54578261643452E-02 
1695	 4.54286263004372E-02 
1696	 4.54037881043269E-02 
1697	 4.53847850854762E-02 
1698	 4.53539212731869E-02 
1699	 4.53127278448534E-02 
1700	 4.52931194376927E-02 
1701	 4.52835953329525E-02 
1702	 4.52605129202386E-02 
1703	 4.52451098637034E-02 
1704	 0.045225421862368 
1705	 4.51896408494291E-02 
1706	 4.51530236995041E-02 
1707	 4.51306830280115E-02 
1708	 0.045113459626712 
1709	 4.50825293057495E-02 
1710	 4.50595378444112E-02 
1711	 4.50507501832903E-02 
1712	 0.045024046041735 
1713	 4.50012721309456E-02 
1714	 4.49971588705471E-02 
1715	 0.044990831861398 
1716	 4.49715061532348E-02 
1717	 4.49496673336935E-02 
1718	 4.49323094352771E-02 
1719	 4.49173460868072E-02 
1720	 0.044906046053775 
1721	 4.48971435922979E-02 
1722	 4.48889744820406E-02 
1723	 4.48784904813462E-02 
1724	 4.48738205435841E-02 
1725	 4.48847849032391E-02 
1726	 4.49120055698191E-02 
1727	 4.49410168336048E-02 
1728	 4.49721176616225E-02 
1729	 4.50134627776881E-02 
1730	 0.045029019094921 
1731	 4.50300659427122E-02 
1732	 4.50561331634118E-02 
1733	 4.50880612997694E-02 
1734	 4.51282368759823E-02 
1735	 4.51841296585278E-02 
1736	 4.52287180222994E-02 
1737	 4.52555851871742E-02 
1738	 4.53088684815054E-02 
1739	 4.53435848632688E-02 
1740	 4.53743274709042E-02 
1741	 4.54016463240104E-02 
1742	 4.54101008846638E-02 
1743	 4.54231518735828E-02 
1744	 4.54433219830274E-02 
1745	 4.54592916298505E-02 
1746	 4.54673976441828E-02 
1747	 4.54744889117071E-02 
1748	 4.54806361060523E-02 
1749	 4.54835320726236E-02 
1750	 4.54783887916211E-02 
1751	 4.54853247618222E-02 
1752	 0.045498809448572 
1753	 4.55047582168067E-02 
1754	 4.55150262443835E-02 
1755	 4.55250464139769E-02 
1756	 4.55240145441622E-02 
1757	 4.55615109616398E-02 
1758	 4.55856706319399E-02 
1759	 4.56092437762074E-02 
1760	 4.56464743908778E-02 
1761	 4.56779509316069E-02 
1762	 4.57043150810462E-02 
1763	 4.57344114292645E-02 
1764	 4.57808833444735E-02 
1765	 4.58372442436725E-02 
1766	 4.58820123336404E-02 
1767	 4.59335191432141E-02 
1768	 4.59720884703909E-02 
1769	 4.60005123388041E-02 
1770	 4.60437915056872E-02 
1771	 4.60764645281532E-02 
1772	 0.046112561346792 
1773	 0.046148680356207 
1774	 4.61815728466016E-02 
1775	 4.62316278856659E-02 
1776	 4.62684526980171E-02 
1777	 4.62882791434123E-02 
1778	 4.63197327892469E-02 
1779	 4.63557386141432E-02 
1780	 4.63860169646609E-02 
1781	 4.64121881561327E-02 
1782	 4.64415279831654E-02 
1783	 4.64814865715033E-02 
1784	 4.65140809565485E-02 
1785	 4.65392818022928E-02 
1786	 4.65687688881045E-02 
1787	 4.65861839013391E-02 
1788	 4.65988266510689E-02 
1789	 4.66191858249448E-02 
1790	 0.046632738365728 
1791	 4.66161378739762E-02 
1792	 4.66397562285659E-02 
1793	 4.67008423407307E-02 
1794	 4.67414314526326E-02 
1795	 4.67708355116259E-02 
1796	 4.67798444717094E-02 
1797	 0.046776931562209 
1798	 4.67853809292144E-02 
1799	 4.68019671910506E-02 
1800	 4.68295404103301E-02 
1801	 4.73061626942607E-02 
1802	 4.73069518351629E-02 
1803	 4.73255187986552E-02 
1804	 4.73514869939088E-02 
1805	 4.73882876058506E-02 
1806	 4.74188233016452E-02 
1807	 0.047462485468776 
1808	 4.74893402028941E-02 
1809	 4.75037412621297E-02 
1810	 4.75216237530437E-02 
1811	 0.047529686894246 
1812	 4.75506522722292E-02 
1813	 4.75724163448369E-02 
1814	 4.76111352018691E-02 
1815	 4.76424037178493E-02 
1816	 0.047664228362326 
1817	 0.047694225639066 
1818	 4.77225705949416E-02 
1819	 4.77467792340998E-02 
1820	 0.047776633870933 
1821	 4.78041227445009E-02 
1822	 4.78220694468788E-02 
1823	 4.78470827637383E-02 
1824	 4.78784843514791E-02 
1825	 4.79042647187904E-02 
1826	 4.79273960641665E-02 
1827	 4.79441819018616E-02 
1828	 0.047966403491172 
1829	 4.79881299199473E-02 
1830	 4.80131255318338E-02 
1831	 4.80432289948328E-02 
1832	 4.80730750415252E-02 
1833	 4.80862558818683E-02 
1834	 4.81014772091766E-02 
1835	 4.81245448328918E-02 
1836	 4.81395981208709E-02 
1837	 4.81583494909935E-02 
1838	 4.81857383972628E-02 
1839	 4.82091088032483E-02 
1840	 4.82234788130609E-02 
1841	 4.82485016967138E-02 
1842	 4.82836464315811E-02 
1843	 4.83163987363051E-02 
1844	 4.83423329883354E-02 
1845	 4.83675685728735E-02 
1846	 4.83838522263604E-02 
1847	 4.83935426023469E-02 
1848	 4.84083502958037E-02 
1849	 0.048418155962695 
1850	 4.84362465229239E-02 
1851	 4.84568770169468E-02 
1852	 4.84877751733211E-02 
1853	 4.85195406144638E-02 
1854	 4.85350065849231E-02 
1855	 4.85488357187225E-02 
1856	 4.85684009327089E-02 
1857	 4.85782078860861E-02 
1858	 4.86030631789144E-02 
1859	 4.86220830666941E-02 
1860	 4.86442556162839E-02 
1861	 0.048653555027018 
1862	 4.86569388219542E-02 
1863	 4.86543219153461E-02 
1864	 4.86566664375292E-02 
1865	 4.86701619645281E-02 
1866	 4.86978040113351E-02 
1867	 4.87142330719082E-02 
1868	 0.048703670083653 
1869	 4.86854921170512E-02 
1870	 4.86702281925781E-02 
1871	 4.86353931800633E-02 
1872	 4.86208395894351E-02 
1873	 4.86251835873739E-02 
1874	 4.86166756529686E-02 
1875	 4.85938326799723E-02 
1876	 4.85693088443064E-02 
1877	 4.85405534242672E-02 
1878	 4.85110627397444E-02 
1879	 4.84896067533687E-02 
1880	 4.84557250010081E-02 
1881	 0.048411951893026 
1882	 4.83572067716245E-02 
1883	 4.83016475251421E-02 
1884	 4.82311458042722E-02 
1885	 4.81602432554115E-02 
1886	 4.80917892952044E-02 
1887	 4.80085084190604E-02 
1888	 4.79187638041061E-02 
1889	 4.78281120754501E-02 
1890	 4.77306279650527E-02 
1891	 4.76220485463402E-02 
1892	 4.75132209067086E-02 
1893	 4.74056065447616E-02 
1894	 4.72956406164258E-02 
1895	 4.71813220688324E-02 
1896	 0.047071287491875 
1897	 4.69619140485906E-02 
1898	 4.68496752225066E-02 
1899	 4.67284642352892E-02 
1900	 4.66244383424647E-02 
1901	 4.65331855291522E-02 
1902	 4.64269542430293E-02 
1903	 4.63361784050409E-02 
1904	 4.62428902658681E-02 
1905	 4.61463548474993E-02 
1906	 4.60398405252385E-02 
1907	 4.59538041009038E-02 
1908	 4.58657589633666E-02 
1909	 4.57883620875415E-02 
1910	 4.57223782879522E-02 
1911	 4.56492635546536E-02 
1912	 4.55820260410249E-02 
1913	 4.55152683961828E-02 
1914	 4.54480804403945E-02 
1915	 4.53886538671433E-02 
1916	 4.53369412642451E-02 
1917	 4.52933884811267E-02 
1918	 4.52513804210517E-02 
1919	 4.52035956813223E-02 
1920	 4.51495507674209E-02 
1921	 4.51014929390987E-02 
1922	 0.045052528101542 
1923	 4.50131222673029E-02 
1924	 0.044993260396187 
1925	 4.49612220918323E-02 
1926	 0.044936226982722 
1927	 4.49203885460983E-02 
1928	 4.49011910203427E-02 
1929	 4.48785455457843E-02 
1930	 4.48640026962213E-02 
1931	 4.48561835648913E-02 
1932	 4.48319782982446E-02 
1933	 4.48156404962301E-02 
1934	 4.48185772501151E-02 
1935	 4.48088636086009E-02 
1936	 4.48063967602157E-02 
1937	 4.48164569191362E-02 
1938	 4.48327103762862E-02 
1939	 4.48503757989713E-02 
1940	 0.044880361976822 
1941	 4.49136548432461E-02 
1942	 4.49328121629918E-02 
1943	 4.49524191053603E-02 
1944	 4.49669438869155E-02 
1945	 4.49883577449407E-02 
1946	 4.50245859097545E-02 
1947	 4.50562261228724E-02 
1948	 4.50995733718932E-02 
1949	 4.51433776793269E-02 
1950	 4.51858190232769E-02 
1951	 4.52242899045078E-02 
1952	 0.045274816776449 
1953	 4.53331868794328E-02 
1954	 4.53864563650149E-02 
1955	 4.54445869536115E-02 
1956	 4.54933382757344E-02 
1957	 4.55345335166534E-02 
1958	 0.045582413190148 
1959	 4.56343327954462E-02 
1960	 4.56864819000326E-02 
1961	 4.57382513321084E-02 
1962	 4.57911310313613E-02 
1963	 4.58417181121195E-02 
1964	 4.58919700479681E-02 
1965	 4.59427029794374E-02 
1966	 4.59930234757084E-02 
1967	 4.60483433953646E-02 
1968	 0.046088629215009 
1969	 4.61229884497455E-02 
1970	 4.61610809296543E-02 
1971	 4.62080896741106E-02 
1972	 4.62849744793419E-02 
1973	 4.63569789416151E-02 
1974	 4.64167639509516E-02 
1975	 4.64739948225854E-02 
1976	 4.65283663227143E-02 
1977	 4.65721182425573E-02 
1978	 4.66187473574677E-02 
1979	 4.66621564099686E-02 
1980	 4.67109686380435E-02 
1981	 4.67764331613187E-02 
1982	 4.68260393751969E-02 
1983	 4.68899646697213E-02 
1984	 0.046963790805295 
1985	 4.70122510062094E-02 
1986	 4.70569807601064E-02 
1987	 4.71021648875602E-02 
1988	 4.71397138262467E-02 
1989	 4.71846036190263E-02 
1990	 4.72347849213158E-02 
1991	 4.72780790182144E-02 
1992	 4.73185707647276E-02 
1993	 4.73662532747486E-02 
1994	 4.74060093379798E-02 
1995	 0.047453677560242 
1996	 4.74995572518975E-02 
1997	 4.75343859841955E-02 
1998	 0.047584484657189 
1999	 0.047635716914348 
2000	 4.76879861408621E-02 
2001	 4.77596776460372E-02 
2002	 0.047811868377744 
2003	 4.78495266833667E-02 
2004	 4.78940948893751E-02 
2005	 0.047927940227712 
2006	 4.79766203976881E-02 
2007	 4.80415013335165E-02 
2008	 4.80948981122144E-02 
2009	 0.048145882761151 
2010	 4.81895988509107E-02 
2011	 4.82221750879746E-02 
2012	 4.82523561101326E-02 
2013	 4.82821879434573E-02 
2014	 4.83151780803731E-02 
2015	 4.83430605980841E-02 
2016	 4.83609843600813E-02 
2017	 4.83856792451586E-02 
2018	 4.84188629646669E-02 
2019	 4.84394671801838E-02 
2020	 4.84538302248887E-02 
2021	 0.048471908036132 
2022	 4.84866832840274E-02 
2023	 4.84865571153581E-02 
2024	 4.84896790358177E-02 
2025	 0.048494841280046 
2026	 4.84875956777671E-02 
2027	 4.84618321520284E-02 
2028	 4.84529266916387E-02 
2029	 4.84448100370349E-02 
2030	 4.84371286671259E-02 
2031	 4.84439333316339E-02 
2032	 4.84373638301849E-02 
2033	 4.84123547619774E-02 
2034	 4.84023929660049E-02 
2035	 4.83951469177129E-02 
2036	 4.83918475070345E-02 
2037	 4.83845965271856E-02 
2038	 4.83886482143693E-02 
2039	 4.83932227449371E-02 
2040	 4.83909363976253E-02 
2041	 4.84008029926281E-02 
2042	 4.84257147610138E-02 
2043	 4.84455327062933E-02 
2044	 4.84580507504749E-02 
2045	 4.84901710211814E-02 
2046	 4.85349144889038E-02 
2047	 4.85788394418273E-02 
2048	 4.86409597783404E-02 
2049	 0.048691560217324 
2050	 4.87376957030231E-02 
2051	 0.048778502222499 
2052	 4.88210538375653E-02 
2053	 4.88720128820736E-02 
2054	 4.89243310974357E-02 
2055	 4.89850760020348E-02 
2056	 4.90355591520844E-02 
2057	 4.90778002696342E-02 
2058	 0.049135588631618 
2059	 4.91978280161313E-02 
2060	 4.92559604054522E-02 
2061	 4.93264367836328E-02 
2062	 4.93894957541794E-02 
2063	 4.94421993111675E-02 
2064	 4.94978329465583E-02 
2065	 4.95572706516684E-02 
2066	 4.96132279780636E-02 
2067	 4.96657321143945E-02 
2068	 4.97221368328274E-02 
2069	 4.97795198131566E-02 
2070	 0.049844230651321 
2071	 4.98961393681958E-02 
2072	 4.99461910530122E-02 
2073	 0.049988121414112 
2074	 5.00122262197044E-02 
2075	 5.00544406967318E-02 
2076	 5.00943132360223E-02 
2077	 5.01453960684387E-02 
2078	 5.02287054560112E-02 
2079	 0.050279999327843 
2080	 5.03132868587318E-02 
2081	 5.03561161509838E-02 
2082	 5.03879758244724E-02 
2083	 5.04170205269102E-02 
2084	 5.04706109090912E-02 
2085	 5.05064710561055E-02 
2086	 5.05367779472314E-02 
2087	 5.05537969751029E-02 
2088	 5.05812015929753E-02 
2089	 5.06021135613848E-02 
2090	 5.06350244967046E-02 
2091	 5.06803492560673E-02 
2092	 5.07171098283987E-02 
2093	 5.07561577650314E-02 
2094	 5.07903117456715E-02 
2095	 5.08237683201319E-02 
2096	 0.050849862385741 
2097	 5.08657205068605E-02 
2098	 5.08883461710206E-02 
2099	 5.09039448244837E-02 
2100	 5.09228548033304E-02 
2101	 5.09484105211407E-02 
2102	 5.09827306922063E-02 
2103	 5.10089455589773E-02 
2104	 5.10371835588234E-02 
2105	 5.10624660535546E-02 
2106	 5.10822799683815E-02 
2107	 5.11048712827926E-02 
2108	 0.051134488715786 
2109	 5.11503947282669E-02 
2110	 5.11503320001526E-02 
2111	 5.11668239571464E-02 
2112	 5.11809166953817E-02 
2113	 5.12031360785727E-02 
2114	 5.12463320400979E-02 
2115	 5.12782474425108E-02 
2116	 5.13147028253658E-02 
2117	 5.13335649301188E-02 
2118	 5.13525615925569E-02 
2119	 5.13634643207049E-02 
2120	 0.051384427634787 
2121	 5.14064099487841E-02 
2122	 5.14229893945572E-02 
2123	 5.14430818357862E-02 
2124	 0.051459206762285 
2125	 5.14661632199174E-02 
2126	 5.14774770328618E-02 
2127	 0.051494051334183 
2128	 5.15046671850844E-02 
2129	 5.15085090768884E-02 
2130	 0.05151708582294 
2131	 5.15409668084569E-02 
2132	 5.15395640487345E-02 
2133	 5.15212534515748E-02 
2134	 5.15114107100325E-02 
2135	 5.14706376763872E-02 
2136	 5.14282705015954E-02 
2137	 5.14084016055857E-02 
2138	 5.14045973433603E-02 
2139	 5.13818886912889E-02 
2140	 5.13666085248517E-02 
2141	 5.13441499939002E-02 
2142	 5.13071183379674E-02 
2143	 5.12741422466599E-02 
2144	 5.12449716648571E-02 
2145	 5.12113586093126E-02 
2146	 5.11731701902969E-02 
2147	 5.11340336974279E-02 
2148	 5.10917594063055E-02 
2149	 5.10536138872617E-02 
2150	 5.10224315622888E-02 
2151	 5.09749174691776E-02 
2152	 5.09075480163362E-02 
2153	 5.08685701728389E-02 
2154	 5.08245021163329E-02 
2155	 5.07561589634791E-02 
2156	 5.07063474079452E-02 
2157	 5.06758194874747E-02 
2158	 5.06242098465342E-02 
2159	 5.05580894929858E-02 
2160	 5.05053430057216E-02 
2161	 5.04480736510484E-02 
2162	 5.04044672360999E-02 
2163	 5.03786027845467E-02 
2164	 5.03388582843173E-02 
2165	 5.03028265724206E-02 
2166	 5.02589171679939E-02 
2167	 5.01960836050208E-02 
2168	 5.01510440147872E-02 
2169	 5.01016189668611E-02 
2170	 5.00719382271811E-02 
2171	 5.00778202001292E-02 
2172	 5.00587797146108E-02 
2173	 0.050034684107882 
2174	 5.00156104468853E-02 
2175	 4.99971660396878E-02 
2176	 4.99542022216241E-02 
2177	 4.99367660639136E-02 
2178	 4.99393479092816E-02 
2179	 4.99322515715908E-02 
2180	 4.99189665425126E-02 
2181	 4.99236027961772E-02 
2182	 4.99429506570999E-02 
2183	 4.99504154597738E-02 
2184	 4.99621181038816E-02 
2185	 4.99713273434467E-02 
2186	 4.99692954118083E-02 
2187	 4.99794089369411E-02 
2188	 5.00028602383389E-02 
2189	 5.00177304835329E-02 
2190	 5.00328752708027E-02 
2191	 5.00439740447613E-02 
2192	 0.050047092414347 
2193	 5.00550228509304E-02 
2194	 5.00507711414374E-02 
2195	 5.00686152106325E-02 
2196	 5.00943408847204E-02 
2197	 5.01409784682923E-02 
2198	 5.01843850774397E-02 
2199	 5.02302481323169E-02 
2200	 5.02697971220148E-02 
2201	 0.050306784517419 
2202	 5.03235931498673E-02 
2203	 5.03319968366795E-02 
2204	 5.03434040236973E-02 
2205	 5.03320525055079E-02 
2206	 5.03403814531687E-02 
2207	 5.03611134923308E-02 
2208	 5.03823862176952E-02 
2209	 5.04059997152613E-02 
2210	 5.04308867767381E-02 
2211	 5.04578764271069E-02 
2212	 5.04948480184194E-02 
2213	 5.05483118000204E-02 
2214	 5.05802765500301E-02 
2215	 5.06078894773251E-02 
2216	 5.06374351302047E-02 
2217	 5.06577366192619E-02 
2218	 5.06698012028475E-02 
2219	 5.06869675848788E-02 
2220	 5.06963570115226E-02 
2221	 0.050680607052162 
2222	 5.06770302576251E-02 
2223	 5.06789981054071E-02 
2224	 5.06823101361582E-02 
2225	 5.07134622336763E-02 
2226	 5.07413029999905E-02 
2227	 5.07584732374705E-02 
2228	 5.07889521697143E-02 
2229	 5.07928875503119E-02 
2230	 5.07682437437904E-02 
2231	 5.07585245514322E-02 
2232	 5.07509055784044E-02 
2233	 5.07301995638096E-02 
2234	 5.07069717536052E-02 
2235	 5.06781445312629E-02 
2236	 0.050633616035315 
2237	 5.05941763452369E-02 
2238	 5.05716071527638E-02 
2239	 5.05116741052081E-02 
2240	 5.04175568548342E-02 
2241	 5.03483456200208E-02 
2242	 5.02766058232687E-02 
2243	 0.050191903275016 
2244	 5.01264653699165E-02 
2245	 5.00400526626576E-02 
2246	 4.99066261910981E-02 
2247	 4.98001963242252E-02 
2248	 4.97213846756495E-02 
2249	 4.96112403298136E-02 
2250	 4.94844202180628E-02 
2251	 4.93724704949775E-02 
2252	 4.92272702201064E-02 
2253	 4.90919325187983E-02 
2254	 4.89861360521264E-02 
2255	 4.88816364014368E-02 
2256	 4.87758309684008E-02 
2257	 4.86400812749517E-02 
2258	 4.85223727529316E-02 
2259	 4.83900917300359E-02 
2260	 4.82871141187889E-02 
2261	 4.82083242166565E-02 
2262	 4.81236570724593E-02 
2263	 0.0480393550071 
2264	 4.79690495730655E-02 
2265	 4.79170557138917E-02 
2266	 4.78466557274018E-02 
2267	 4.77769146307028E-02 
2268	 0.047713666543451 
2269	 4.76320964403684E-02 
2270	 4.75707466850835E-02 
2271	 4.75310600501676E-02 
2272	 4.74881770826493E-02 
2273	 4.74643035736073E-02 
2274	 4.74154984386962E-02 
2275	 4.73594219927548E-02 
2276	 4.72967060802505E-02 
2277	 4.71996814920769E-02 
2278	 4.71296680015851E-02 
2279	 4.70745566383657E-02 
2280	 4.70169403776583E-02 
2281	 4.69675606107101E-02 
2282	 4.69159429225312E-02 
2283	 0.046866359954014 
2284	 4.68135481688733E-02 
2285	 4.67474381372019E-02 
2286	 0.046709012641673 
2287	 4.66342789747723E-02 
2288	 4.65568832946266E-02 
2289	 4.65139081843338E-02 
2290	 4.64630898524551E-02 
2291	 4.64038743491227E-02 
2292	 4.63579673453356E-02 
2293	 4.63143617942219E-02 
2294	 4.62639215028121E-02 
2295	 4.62390482129603E-02 
2296	 4.62215391695083E-02 
2297	 0.046194466816432 
2298	 4.61597765772477E-02 
2299	 4.61245736834008E-02 
2300	 4.60896417276383E-02 
2301	 4.60582043058751E-02 
2302	 4.60002630754885E-02 
2303	 4.60055720379172E-02 
2304	 4.60410092643625E-02 
2305	 4.60928709553928E-02 
2306	 4.61955222628818E-02 
2307	 4.62796112795554E-02 
2308	 4.63746270771375E-02 
2309	 4.64461186665951E-02 
2310	 4.64964848970293E-02 
2311	 4.65900732539983E-02 
2312	 4.67030229187597E-02 
2313	 4.67977924819679E-02 
2314	 4.69085872657562E-02 
2315	 0.047014615808214 
2316	 4.70937954960472E-02 
2317	 4.71929272972374E-02 
2318	 4.73372449357905E-02 
2319	 4.74397309184897E-02 
2320	 4.75165577909243E-02 
2321	 4.75866930175635E-02 
2322	 4.76434203353489E-02 
2323	 4.76887575235174E-02 
2324	 4.77320291295082E-02 
2325	 4.77522207210836E-02 
2326	 4.77355753158562E-02 
2327	 4.77273957350954E-02 
2328	 4.76943774681932E-02 
2329	 4.76824240744955E-02 
2330	 4.76867361232578E-02 
2331	 4.76957600211183E-02 
2332	 4.76653279789316E-02 
2333	 0.047672934946609 
2334	 4.76961404927154E-02 
2335	 4.76820345350755E-02 
2336	 4.76395845902385E-02 
2337	 4.75797454127749E-02 
2338	 4.75008558848563E-02 
2339	 4.74343067217062E-02 
2340	 4.73923400014711E-02 
2341	 4.73608999142116E-02 
2342	 4.73060543584838E-02 
2343	 4.72278547956882E-02 
2344	 4.71920470364154E-02 
2345	 4.71720479867745E-02 
2346	 4.71793278699111E-02 
2347	 4.72363248895218E-02 
2348	 4.72933452527183E-02 
2349	 4.73738548596937E-02 
2350	 4.74561435666794E-02 
2351	 4.75098476035428E-02 
2352	 4.75728244161412E-02 
2353	 4.76308122972788E-02 
2354	 4.77014228599619E-02 
2355	 4.78031713535381E-02 
2356	 4.79173060560716E-02 
2357	 4.80158886793497E-02 
2358	 4.80614379842327E-02 
2359	 4.81023448010264E-02 
2360	 4.81448125555215E-02 
2361	 4.82099656221699E-02 
2362	 4.83082212790048E-02 
2363	 0.048336515614961 
2364	 0.04833944449323 
2365	 4.83392860734486E-02 
2366	 4.83276263307398E-02 
2367	 4.83719974858106E-02 
2368	 4.83977987882744E-02 
2369	 4.84053896969996E-02 
2370	 4.84616661595227E-02 
2371	 4.85296309496212E-02 
2372	 0.048560623480608 
2373	 4.85888707900822E-02 
2374	 4.86097246560532E-02 
2375	 4.85598641251005E-02 
2376	 4.85702442044422E-02 
2377	 4.86391279811435E-02 
2378	 4.86391587188077E-02 
2379	 4.86431064376817E-02 
2380	 4.86499132547587E-02 
2381	 4.86028094339028E-02 
2382	 4.85893421377784E-02 
2383	 4.86011331997207E-02 
2384	 4.86249076265717E-02 
2385	 4.86542199962193E-02 
2386	 4.86629299433291E-02 
2387	 4.86851089121691E-02 
2388	 4.87141921988328E-02 
2389	 4.87302925476818E-02 
2390	 4.87604258641165E-02 
2391	 4.88242955500852E-02 
2392	 0.048848479526796 
2393	 4.88226920299938E-02 
2394	 4.88217023813469E-02 
2395	 4.88427009911228E-02 
2396	 4.88446098560895E-02 
2397	 0.04885303664286 
2398	 4.88398305079227E-02 
2399	 0.048791940370844 
2400	 4.87411756797104E-02 
2401	 4.86545274626541E-02 
2402	 0.04865903281362 
2403	 4.87297186472545E-02 
2404	 4.88334641561408E-02 
2405	 4.88574157278238E-02 
2406	 4.88610324178398E-02 
2407	 4.88300562149084E-02 
2408	 4.88097039151796E-02 
2409	 4.88347644061445E-02 
2410	 4.88534386971457E-02 
2411	 4.89085000134133E-02 
2412	 4.89344344054023E-02 
2413	 4.88463755163049E-02 
2414	 4.87886828020798E-02 
2415	 4.88231038054365E-02 
2416	 4.88743007053878E-02 
2417	 4.89927310940397E-02 
2418	 0.049060960849745 
2419	 4.89887040241248E-02 
2420	 4.89221275456602E-02 
2421	 4.89029784414559E-02 
2422	 4.89442402398448E-02 
2423	 4.89517025656241E-02 
2424	 4.88875506167138E-02 
2425	 4.89157179473276E-02 
2426	 4.89345457351006E-02 
2427	 0.048854790330266 
2428	 4.88811918259179E-02 
2429	 4.88985281996586E-02 
2430	 0.048865253585105 
2431	 4.88919597565992E-02 
2432	 4.88409806185164E-02 
2433	 4.87918780033809E-02 
2434	 4.86858870821873E-02 
2435	 4.85806544104003E-02 
2436	 4.85967738271134E-02 
2437	 0.048497004880048 
2438	 0.048447541753916 
2439	 4.84780110534827E-02 
2440	 4.83957500265034E-02 
2441	 4.83023547729859E-02 
2442	 4.81670987704499E-02 
2443	 4.81175935464344E-02 
2444	 4.81867045619288E-02 
2445	 4.82535005613731E-02 
2446	 4.83597209414516E-02 
2447	 4.83636891632493E-02 
2448	 4.82585847747216E-02 
2449	 4.81681266805472E-02 
2450	 4.80909311061134E-02 
2451	 0.048030929036364 
2452	 0.048014463386915 
2453	 0.04804784296166 
2454	 4.80363160886309E-02 
2455	 4.79904766056396E-02 
2456	 4.79252967515617E-02 
2457	 4.77970982624942E-02 
2458	 0.047761417702585 
2459	 4.77218422103781E-02 
2460	 4.76878722474719E-02 
2461	 4.78122615972003E-02 
2462	 4.78674958798768E-02 
2463	 4.78447931104434E-02 
2464	 4.77905455145435E-02 
2465	 4.76956331168049E-02 
2466	 4.76605224354825E-02 
2467	 4.76192089019937E-02 
2468	 4.76042050898051E-02 
2469	 4.76182218062527E-02 
2470	 4.75980490845962E-02 
2471	 4.75660015919151E-02 
2472	 4.75627364187897E-02 
2473	 4.75273230717331E-02 
2474	 4.73472082041484E-02 
2475	 4.72894420343713E-02 
2476	 4.74326396655563E-02 
2477	 4.74913554035913E-02 
2478	 4.74565231360577E-02 
2479	 0.04748675145337 
2480	 4.72626843852794E-02 
2481	 0.047211467836348 
2482	 4.73776183751284E-02 
2483	 4.74013126297977E-02 
2484	 4.75768098930045E-02 
2485	 4.75582581165582E-02 
2486	 4.72595019255374E-02 
2487	 4.73790684066432E-02 
2488	 4.74736700050416E-02 
2489	 0.047277260695815 
2490	 4.73232297924279E-02 
2491	 4.72572207897433E-02 
2492	 0.046978488194832 
2493	 4.71371852271955E-02 
2494	 4.75292534912204E-02 
2495	 0.047658171136772 
2496	 4.76363351883806E-02 
2497	 0.047647330141975 
2498	 4.75713154618382E-02 
2499	 0.047442478555467 
2500	 4.77263785540477E-02 
