Wavelength	spectrum00022.asd
350	 3.52708749358991E-02 
351	 0.034383523057199 
352	 3.38612249431635E-02 
353	 3.44829997137632E-02 
354	 3.55311704332017E-02 
355	 3.61885920230061E-02 
356	 3.64166472490947E-02 
357	 3.59883229054603E-02 
358	 3.29754805720085E-02 
359	 3.24155392253427E-02 
360	 3.37806358965288E-02 
361	 3.38892986444458E-02 
362	 3.41886139297783E-02 
363	 3.41084776726143E-02 
364	 3.33497589933568E-02 
365	 3.21331901718119E-02 
366	 3.31420191848814E-02 
367	 0.034249959260343 
368	 3.36153533228706E-02 
369	 3.44788504030717E-02 
370	 3.38827782387804E-02 
371	 3.30006600463274E-02 
372	 3.47266027706639E-02 
373	 3.47127705485971E-02 
374	 3.48284765260139E-02 
375	 3.57051476548038E-02 
376	 3.52665763061597E-02 
377	 3.48752450637468E-02 
378	 3.47363769935827E-02 
379	 3.47476789728412E-02 
380	 3.47081728065468E-02 
381	 3.58261647729606E-02 
382	 3.67041609169728E-02 
383	 3.49979997307638E-02 
384	 3.50833036573632E-02 
385	 3.57390217841236E-02 
386	 3.58807114173532E-02 
387	 3.56692141934157E-02 
388	 3.54977938857791E-02 
389	 3.56870757849875E-02 
390	 3.61692500274788E-02 
391	 3.56218562853475E-02 
392	 3.54026600205894E-02 
393	 3.56314778460064E-02 
394	 3.56250659262781E-02 
395	 3.59223802312133E-02 
396	 3.62182823391382E-02 
397	 3.63396211000607E-02 
398	 3.65014432772751E-02 
399	 3.65455100820236E-02 
400	 3.65696321155615E-02 
401	 3.66253659381445E-02 
402	 3.61440007142619E-02 
403	 3.65476577355586E-02 
404	 3.73236717810372E-02 
405	 3.67012941580071E-02 
406	 3.69058385844856E-02 
407	 3.70739628020561E-02 
408	 0.036681347588859 
409	 3.67264612840258E-02 
410	 0.036762804124616 
411	 3.67952512361382E-02 
412	 3.69293186315964E-02 
413	 3.71310613695127E-02 
414	 3.69581480059637E-02 
415	 3.66995267319171E-02 
416	 3.72284816701595E-02 
417	 3.73437886149389E-02 
418	 3.72935779371005E-02 
419	 3.73698894546031E-02 
420	 3.73294780043034E-02 
421	 0.037283189281233 
422	 0.037352156102066 
423	 3.75943716490996E-02 
424	 3.76571770095428E-02 
425	 3.77372185032079E-02 
426	 0.037823519075992 
427	 3.76243505163115E-02 
428	 3.76145352494988E-02 
429	 3.77667486426201E-02 
430	 3.79117968605761E-02 
431	 0.037792521889528 
432	 3.80033236399212E-02 
433	 3.82714683261144E-02 
434	 3.79662601979912E-02 
435	 3.80179579471858E-02 
436	 3.82326183057781E-02 
437	 3.83426089245075E-02 
438	 3.81564517978936E-02 
439	 3.81876918251347E-02 
440	 3.83465847292029E-02 
441	 3.84116429719772E-02 
442	 3.84373963588163E-02 
443	 3.84658788080056E-02 
444	 3.85450192983251E-02 
445	 3.87065300394437E-02 
446	 3.86910075216044E-02 
447	 3.85886818481159E-02 
448	 3.85335233724269E-02 
449	 3.86317544635884E-02 
450	 3.87116107184727E-02 
451	 0.038783557449292 
452	 0.038886981006513 
453	 0.03875863384582 
454	 3.87675846067106E-02 
455	 3.89591889394894E-02 
456	 3.89798642087258E-02 
457	 3.90076184334823E-02 
458	 3.89432407338936E-02 
459	 3.87917976883563E-02 
460	 3.90556996295578E-02 
461	 3.92336924671635E-02 
462	 3.91988238605612E-02 
463	 3.90796139221095E-02 
464	 3.91906516231812E-02 
465	 3.93030399841073E-02 
466	 3.92694765734419E-02 
467	 3.91608029991724E-02 
468	 3.91824387090784E-02 
469	 3.92640661939541E-02 
470	 0.039314779017998 
471	 3.95860284222814E-02 
472	 3.96463719716967E-02 
473	 3.94985934532594E-02 
474	 3.94946601537725E-02 
475	 3.94923027985301E-02 
476	 3.95284582324791E-02 
477	 3.96059610354273E-02 
478	 3.95882061117801E-02 
479	 3.96528113811077E-02 
480	 3.97275500255462E-02 
481	 0.039682272563686 
482	 3.96800585071167E-02 
483	 3.97195898038321E-02 
484	 3.97766655492608E-02 
485	 3.98166343494493E-02 
486	 3.99502269381677E-02 
487	 4.00382066689889E-02 
488	 3.99787550239294E-02 
489	 3.99453676695839E-02 
490	 4.00243626950883E-02 
491	 4.01519112724453E-02 
492	 4.01918962642095E-02 
493	 4.02885199202198E-02 
494	 4.03129265659694E-02 
495	 4.02445064060198E-02 
496	 0.040292415737705 
497	 4.03297761761597E-02 
498	 4.04037136587223E-02 
499	 4.05419259528253E-02 
500	 4.04422645860006E-02 
501	 4.03909252292661E-02 
502	 4.04537308080104E-02 
503	 4.04854626307391E-02 
504	 4.05865600643536E-02 
505	 4.06087802484703E-02 
506	 0.040516773133651 
507	 4.06606202639021E-02 
508	 4.07210427176876E-02 
509	 4.07256672140919E-02 
510	 4.08247507333302E-02 
511	 4.08604448543779E-02 
512	 4.08930998401123E-02 
513	 4.09535566912208E-02 
514	 4.10118303027411E-02 
515	 4.10026515915209E-02 
516	 4.09831902128794E-02 
517	 4.10146915245969E-02 
518	 4.10547164421779E-02 
519	 4.10614028930925E-02 
520	 4.10781794815473E-02 
521	 4.11909683880142E-02 
522	 4.12432563145164E-02 
523	 4.12545916726902E-02 
524	 4.12594592852715E-02 
525	 4.12624245403941E-02 
526	 4.13074898145254E-02 
527	 4.13768809556146E-02 
528	 4.14320094820991E-02 
529	 4.14682726782884E-02 
530	 4.14885714690157E-02 
531	 4.15116823482795E-02 
532	 4.15694266925932E-02 
533	 4.15579952543795E-02 
534	 4.15449090369411E-02 
535	 4.15953996789746E-02 
536	 4.16615542959011E-02 
537	 4.16988446093881E-02 
538	 4.17166639652234E-02 
539	 4.17551491100224E-02 
540	 4.18208533845914E-02 
541	 4.18733929290789E-02 
542	 4.18913571062993E-02 
543	 4.18888948055083E-02 
544	 4.19190989625195E-02 
545	 4.19561625227062E-02 
546	 4.19681798253968E-02 
547	 4.20234997167452E-02 
548	 4.20680001402336E-02 
549	 4.20931805375693E-02 
550	 4.21342810211474E-02 
551	 0.042174105421282 
552	 4.22140211315556E-02 
553	 4.22523711388939E-02 
554	 4.22679383906816E-02 
555	 4.23069381440564E-02 
556	 4.23556896766675E-02 
557	 4.23802483570158E-02 
558	 4.24326583714379E-02 
559	 4.24862312561551E-02 
560	 4.25259423973595E-02 
561	 0.042563770096192 
562	 4.25598559084683E-02 
563	 4.25614737453038E-02 
564	 4.26104625375373E-02 
565	 4.26346110484779E-02 
566	 4.26436881012081E-02 
567	 4.26624824141231E-02 
568	 0.042720701317722 
569	 4.27663548699262E-02 
570	 4.28047646853233E-02 
571	 4.28497938711189E-02 
572	 4.29164824016579E-02 
573	 4.29638164365386E-02 
574	 4.29887004123798E-02 
575	 4.30089392002258E-02 
576	 4.30685965831572E-02 
577	 4.30810980325473E-02 
578	 4.30524555082559E-02 
579	 4.31004231497779E-02 
580	 4.31404609845464E-02 
581	 4.31756702561513E-02 
582	 4.32146938050487E-02 
583	 4.32164957718392E-02 
584	 4.32492374975444E-02 
585	 4.32881921799257E-02 
586	 4.32717932941358E-02 
587	 4.33567438398668E-02 
588	 4.34255915456665E-02 
589	 4.34200142585621E-02 
590	 4.34291840568927E-02 
591	 4.34532357382413E-02 
592	 4.35029317475715E-02 
593	 4.35715530808167E-02 
594	 4.35806323297987E-02 
595	 4.35775012511204E-02 
596	 4.35806973117964E-02 
597	 4.35801830207763E-02 
598	 4.35921690635592E-02 
599	 4.36237348713133E-02 
600	 4.36657581931446E-02 
601	 4.36721819862205E-02 
602	 4.36994491841482E-02 
603	 4.37350531230693E-02 
604	 4.37456738714899E-02 
605	 4.37803652944348E-02 
606	 4.38002683769278E-02 
607	 4.38071920952046E-02 
608	 4.38610132593784E-02 
609	 4.38646409341236E-02 
610	 4.38683238681646E-02 
611	 4.39198905066165E-02 
612	 4.39299690456895E-02 
613	 4.39459786632947E-02 
614	 4.39815390653254E-02 
615	 4.40236013037136E-02 
616	 4.40305640214132E-02 
617	 4.40424041842927E-02 
618	 4.40763517607727E-02 
619	 4.40889730534666E-02 
620	 4.41075550147041E-02 
621	 4.41353569471496E-02 
622	 4.41639694423221E-02 
623	 4.41692103528134E-02 
624	 4.41649194936513E-02 
625	 4.41810241072095E-02 
626	 4.42534258101039E-02 
627	 4.42755848280614E-02 
628	 4.42679213790636E-02 
629	 4.42708156065349E-02 
630	 4.43122739834319E-02 
631	 4.43376917733541E-02 
632	 4.43580676243541E-02 
633	 4.44049360823517E-02 
634	 4.44316239586882E-02 
635	 4.44367628519748E-02 
636	 4.44486378129956E-02 
637	 4.45253788575935E-02 
638	 4.45349448587198E-02 
639	 4.45199724327175E-02 
640	 0.044536658453148 
641	 4.45303043692871E-02 
642	 4.45362257685952E-02 
643	 4.45678159618593E-02 
644	 4.46177591471852E-02 
645	 4.46321017849933E-02 
646	 4.46203569506857E-02 
647	 4.46135542747526E-02 
648	 4.46651266750764E-02 
649	 4.46876966412123E-02 
650	 0.044693271653437 
651	 0.044715717322853 
652	 4.47407610204092E-02 
653	 4.47545013907548E-02 
654	 4.47627185237704E-02 
655	 4.47850891068395E-02 
656	 0.044799117099005 
657	 4.48115698023267E-02 
658	 4.48295021820412E-02 
659	 4.48487779016142E-02 
660	 4.48924323248524E-02 
661	 4.49367136057985E-02 
662	 4.49485142111402E-02 
663	 4.49477407485131E-02 
664	 4.49590377587202E-02 
665	 4.49849795066119E-02 
666	 4.50054696066617E-02 
667	 4.50116744919123E-02 
668	 4.50237959309187E-02 
669	 4.50546475085887E-02 
670	 4.50849453912162E-02 
671	 4.50977014390963E-02 
672	 4.51042202540152E-02 
673	 4.51268833099168E-02 
674	 0.045159919930315 
675	 4.51812107679162E-02 
676	 4.51956078073029E-02 
677	 4.52406863329395E-02 
678	 0.045243964981127 
679	 4.52361321939482E-02 
680	 0.045255176797195 
681	 0.045283120311404 
682	 0.045322861915996 
683	 4.53438227998063E-02 
684	 4.53134951659936E-02 
685	 4.53337424876744E-02 
686	 4.53594152359031E-02 
687	 4.53717821826722E-02 
688	 4.54118971217017E-02 
689	 4.54237710882316E-02 
690	 4.54239915988371E-02 
691	 4.54410127912927E-02 
692	 4.54751446939624E-02 
693	 4.54939857737299E-02 
694	 4.55004319791889E-02 
695	 4.55181133971471E-02 
696	 4.55332891332818E-02 
697	 4.55374991143045E-02 
698	 4.55364295108932E-02 
699	 4.55566998614287E-02 
700	 4.55733109564346E-02 
701	 4.55932718044148E-02 
702	 4.56206433263252E-02 
703	 4.56093144259671E-02 
704	 4.56267805930916E-02 
705	 4.56629985924108E-02 
706	 4.56604596060086E-02 
707	 4.56817629811256E-02 
708	 4.57004960219354E-02 
709	 4.56983548007988E-02 
710	 4.56873994895801E-02 
711	 4.57206202244847E-02 
712	 4.57556070339536E-02 
713	 4.57471310235655E-02 
714	 4.57661369906375E-02 
715	 4.57737507384764E-02 
716	 4.57693170918054E-02 
717	 4.57805398953454E-02 
718	 4.58106182309356E-02 
719	 4.58381979713579E-02 
720	 4.58499583564158E-02 
721	 4.58511978024514E-02 
722	 4.58649007411359E-02 
723	 4.58777896585748E-02 
724	 4.58761796816757E-02 
725	 4.58939198310575E-02 
726	 4.59060258515312E-02 
727	 4.59175067474727E-02 
728	 4.59507423716537E-02 
729	 4.59695676768262E-02 
730	 4.59638644748664E-02 
731	 0.045948613890801 
732	 4.59730871887139E-02 
733	 4.59837955150632E-02 
734	 4.59963218676728E-02 
735	 4.60280088390805E-02 
736	 0.046023882136782 
737	 4.60246224702756E-02 
738	 4.60346427332024E-02 
739	 4.60357995057809E-02 
740	 4.60488579838078E-02 
741	 4.60723910915522E-02 
742	 4.60927445384239E-02 
743	 4.60823953066913E-02 
744	 4.60951517480744E-02 
745	 4.61145614279355E-02 
746	 4.61180579948243E-02 
747	 4.61323525093855E-02 
748	 4.61353225841936E-02 
749	 0.046133712296411 
750	 4.61472090005983E-02 
751	 4.61546059352178E-02 
752	 4.61593506013032E-02 
753	 0.046168171881841 
754	 4.61882484373836E-02 
755	 4.61992369355557E-02 
756	 4.61969811170507E-02 
757	 4.61900854337495E-02 
758	 4.62114335080205E-02 
759	 4.62258120544881E-02 
760	 4.62278949835911E-02 
761	 4.62285358338846E-02 
762	 4.62409229980989E-02 
763	 4.62455447970323E-02 
764	 4.62477530449268E-02 
765	 4.62784778849429E-02 
766	 4.62786734461956E-02 
767	 4.62719005784136E-02 
768	 4.62803931922477E-02 
769	 4.62841749691376E-02 
770	 4.62977642558044E-02 
771	 4.63111382758952E-02 
772	 4.63119501186645E-02 
773	 4.63223307048287E-02 
774	 4.63317491823729E-02 
775	 4.63311728970287E-02 
776	 4.63177583526505E-02 
777	 0.046327488899812 
778	 4.63560126455839E-02 
779	 4.63803163694245E-02 
780	 4.63573466391756E-02 
781	 4.63509874619501E-02 
782	 4.63574439491838E-02 
783	 4.63591478665532E-02 
784	 0.046363971673843 
785	 4.63787362302572E-02 
786	 4.63918820726048E-02 
787	 4.63869240688508E-02 
788	 4.63953584311387E-02 
789	 4.63989227409439E-02 
790	 4.63928199585405E-02 
791	 4.63931761331224E-02 
792	 4.63941835840919E-02 
793	 4.64018045895788E-02 
794	 4.64148832053324E-02 
795	 4.64107483908803E-02 
796	 4.63937272238416E-02 
797	 4.63914152541312E-02 
798	 4.64211751371551E-02 
799	 4.64065025776103E-02 
800	 0.046404014124769 
801	 4.64150312983176E-02 
802	 4.63996219409355E-02 
803	 4.64032014872959E-02 
804	 4.64045703447901E-02 
805	 4.63945292634898E-02 
806	 4.63944501434437E-02 
807	 4.64207326285088E-02 
808	 4.64307613742793E-02 
809	 0.046401854175002 
810	 4.64161593356899E-02 
811	 4.64136515151485E-02 
812	 0.046413629293917 
813	 4.64520485852418E-02 
814	 4.64493930181216E-02 
815	 4.64337207251112E-02 
816	 4.64224642454859E-02 
817	 4.64181183147317E-02 
818	 4.64378170955968E-02 
819	 4.64474732811898E-02 
820	 4.64335580949362E-02 
821	 4.64284229618604E-02 
822	 4.64214637705489E-02 
823	 4.64162083161279E-02 
824	 4.64187544471526E-02 
825	 4.64352074727584E-02 
826	 4.64383099296062E-02 
827	 4.64382911033288E-02 
828	 4.64561834843348E-02 
829	 4.64661394385605E-02 
830	 4.64601754825018E-02 
831	 4.64417281268634E-02 
832	 4.64247113809611E-02 
833	 4.64305070856002E-02 
834	 4.64482191021896E-02 
835	 4.64632892408667E-02 
836	 4.64649351590089E-02 
837	 0.046462025661649 
838	 4.64596159193262E-02 
839	 4.64624870098253E-02 
840	 4.64805174603254E-02 
841	 0.046474799059802 
842	 4.64504861429621E-02 
843	 4.64326767180891E-02 
844	 4.64397555806134E-02 
845	 0.046448960016385 
846	 4.64516312366961E-02 
847	 4.64510774543158E-02 
848	 4.64412344698232E-02 
849	 4.64355658035091E-02 
850	 4.64357077105635E-02 
851	 4.64270798718436E-02 
852	 4.64355361796867E-02 
853	 4.64565191845528E-02 
854	 4.64705998166148E-02 
855	 4.64402959192825E-02 
856	 4.64260520926675E-02 
857	 4.64262207594695E-02 
858	 4.64251575144146E-02 
859	 4.64374678136603E-02 
860	 4.64384065556982E-02 
861	 4.64269402344536E-02 
862	 4.64191304800241E-02 
863	 4.64479491766029E-02 
864	 4.64583383899804E-02 
865	 4.64448242314541E-02 
866	 4.64465614743908E-02 
867	 4.64360212027455E-02 
868	 4.64431720805348E-02 
869	 0.046466271235369 
870	 4.64533413473198E-02 
871	 4.64442034430542E-02 
872	 4.64328384852596E-02 
873	 4.64161937182605E-02 
874	 4.64175724400481E-02 
875	 4.64474178915937E-02 
876	 4.64713268978073E-02 
877	 4.64610575615467E-02 
878	 4.64624432665734E-02 
879	 4.64701330533551E-02 
880	 4.64748498885366E-02 
881	 4.64654278772524E-02 
882	 4.64321452124118E-02 
883	 4.64143337326753E-02 
884	 4.64159968381921E-02 
885	 4.64135502877838E-02 
886	 4.64180859601489E-02 
887	 4.64268063731674E-02 
888	 4.64270299503332E-02 
889	 4.64016558215797E-02 
890	 4.64238285096434E-02 
891	 4.64299300481837E-02 
892	 4.63894912981474E-02 
893	 4.63695779824018E-02 
894	 4.63711579233102E-02 
895	 4.63937066286154E-02 
896	 4.64204240363962E-02 
897	 4.63970355728307E-02 
898	 4.64120640250749E-02 
899	 4.64148695913813E-02 
900	 4.63513352049296E-02 
901	 4.63405324032537E-02 
902	 0.046353411038743 
903	 4.63635699542126E-02 
904	 4.63518063617902E-02 
905	 4.63217244079917E-02 
906	 4.63522538941024E-02 
907	 0.046409459641371 
908	 4.63911165830785E-02 
909	 4.63564166504506E-02 
910	 4.63339882077981E-02 
911	 4.63366440268756E-02 
912	 4.63583318497318E-02 
913	 4.63536392641908E-02 
914	 4.63404206984592E-02 
915	 4.63392062595732E-02 
916	 4.63575044391518E-02 
917	 4.63750153147101E-02 
918	 4.63799228011367E-02 
919	 0.046376892306027 
920	 4.63960150277469E-02 
921	 4.63678869701372E-02 
922	 4.63245530695917E-02 
923	 0.046310018415583 
924	 4.63254544528801E-02 
925	 4.63589362314266E-02 
926	 4.63760139150578E-02 
927	 4.63555220785492E-02 
928	 4.63353298521323E-02 
929	 4.63671357544478E-02 
930	 4.64158495178366E-02 
931	 4.64190674152317E-02 
932	 4.63755383791199E-02 
933	 4.63593151112992E-02 
934	 4.63679947969388E-02 
935	 4.63609295900706E-02 
936	 4.63520325798213E-02 
937	 4.63713327055473E-02 
938	 4.63870171359882E-02 
939	 4.63461668625006E-02 
940	 4.63543615454348E-02 
941	 4.63912161796829E-02 
942	 4.64225443383176E-02 
943	 4.64165310756166E-02 
944	 4.63678859684425E-02 
945	 4.63587561528497E-02 
946	 4.63935795726571E-02 
947	 4.63898705089694E-02 
948	 4.63621939786976E-02 
949	 4.63294966977425E-02 
950	 4.63209150888921E-02 
951	 4.63657577321722E-02 
952	 4.63587240428806E-02 
953	 4.63605909469152E-02 
954	 4.63787588941825E-02 
955	 4.63079954249318E-02 
956	 0.046324286661953 
957	 4.63797219002779E-02 
958	 4.63926475168198E-02 
959	 4.63164960567467E-02 
960	 4.63176413630079E-02 
961	 4.63583625018984E-02 
962	 4.63821128768262E-02 
963	 4.64019974314077E-02 
964	 4.63805921727146E-02 
965	 4.63325001374136E-02 
966	 4.62995297587574E-02 
967	 4.63476188864195E-02 
968	 4.63500861901427E-02 
969	 4.63440383693432E-02 
970	 4.63558059964523E-02 
971	 0.046253305479458 
972	 4.62815623844299E-02 
973	 4.63499816051836E-02 
974	 4.63364606705767E-02 
975	 4.63404030964996E-02 
976	 4.63491307140372E-02 
977	 4.63910393615887E-02 
978	 4.64412425998213E-02 
979	 4.62769840758283E-02 
980	 4.62379828901193E-02 
981	 0.046259968199309 
982	 4.62182886466816E-02 
983	 4.62766952283039E-02 
984	 4.63197365025465E-02 
985	 4.63373864292083E-02 
986	 4.63527207032995E-02 
987	 4.63678843610242E-02 
988	 4.63430096142286E-02 
989	 4.63304523721794E-02 
990	 4.63648745957534E-02 
991	 4.63066395211417E-02 
992	 4.62437862811938E-02 
993	 4.62841431592651E-02 
994	 4.64364370048787E-02 
995	 4.63733678926141E-02 
996	 4.64199096163815E-02 
997	 4.64252674016268E-02 
998	 4.62451154928832E-02 
999	 4.63488006680293E-02 
1000	 4.63418058462668E-02 
1001	 4.74142061378273E-02 
1002	 4.74297568430496E-02 
1003	 4.74361408228429E-02 
1004	 4.74461835642822E-02 
1005	 4.74364510259391E-02 
1006	 4.74449736765652E-02 
1007	 4.74803911002565E-02 
1008	 4.74789815210542E-02 
1009	 4.74602494451406E-02 
1010	 4.74527990102513E-02 
1011	 4.74303863774786E-02 
1012	 0.047417687429436 
1013	 0.047411047987203 
1014	 4.74096826062052E-02 
1015	 4.74146790619986E-02 
1016	 0.047411123581261 
1017	 4.74222991484091E-02 
1018	 4.74317553120061E-02 
1019	 4.73905864410932E-02 
1020	 0.047382504112785 
1021	 4.73984401519662E-02 
1022	 4.74375451376002E-02 
1023	 4.74422819230914E-02 
1024	 4.74693864035881E-02 
1025	 4.74666473553343E-02 
1026	 0.047418333490611 
1027	 4.74033101398573E-02 
1028	 4.73990205717713E-02 
1029	 4.73935947431621E-02 
1030	 4.73957401408097E-02 
1031	 4.73853137006555E-02 
1032	 4.73751579691783E-02 
1033	 4.73762560326637E-02 
1034	 0.047407348157383 
1035	 4.74239733947623E-02 
1036	 4.74199982296789E-02 
1037	 4.74198467616433E-02 
1038	 4.73938130063642E-02 
1039	 4.73118148437333E-02 
1040	 0.047280580564528 
1041	 4.72619928943626E-02 
1042	 4.72552008722238E-02 
1043	 4.72756701486493E-02 
1044	 4.72835481506764E-02 
1045	 4.73027315590624E-02 
1046	 4.73209536965476E-02 
1047	 4.73118775129788E-02 
1048	 0.047306436325038 
1049	 4.73019548152186E-02 
1050	 4.72786513594333E-02 
1051	 4.72805078395871E-02 
1052	 4.73178677693094E-02 
1053	 4.73292161967393E-02 
1054	 4.73299967528566E-02 
1055	 4.73358654165087E-02 
1056	 4.73287105539896E-02 
1057	 4.73259528876713E-02 
1058	 4.73245491806733E-02 
1059	 0.04735042519344 
1060	 4.73517341125305E-02 
1061	 4.73520120769335E-02 
1062	 4.73640579131377E-02 
1063	 4.73625385350564E-02 
1064	 4.73633620929306E-02 
1065	 4.73858943408859E-02 
1066	 4.73821716089426E-02 
1067	 4.73676406581409E-02 
1068	 4.73699057114227E-02 
1069	 4.73562847434678E-02 
1070	 0.04735644793727 
1071	 4.73682036590939E-02 
1072	 0.047392761173118 
1073	 4.74081465542169E-02 
1074	 4.74172615037608E-02 
1075	 4.74129019466315E-02 
1076	 4.74164951976931E-02 
1077	 0.047434257584353 
1078	 4.74379065081539E-02 
1079	 0.047452043041834 
1080	 4.74797757220613E-02 
1081	 4.74840573968542E-02 
1082	 4.74859481644087E-02 
1083	 4.74895447762417E-02 
1084	 4.74811349555555E-02 
1085	 4.74765467948706E-02 
1086	 4.74825339535825E-02 
1087	 4.75009478011637E-02 
1088	 4.75230766213577E-02 
1089	 4.75355002122761E-02 
1090	 4.75246179863616E-02 
1091	 4.75072133034943E-02 
1092	 4.75147080704897E-02 
1093	 4.75326915038655E-02 
1094	 4.75487691756205E-02 
1095	 4.75603450788028E-02 
1096	 4.75625640776608E-02 
1097	 4.75512927275623E-02 
1098	 4.75425708067278E-02 
1099	 4.75406023767444E-02 
1100	 4.75403054580439E-02 
1101	 4.75520057092192E-02 
1102	 4.75607411614021E-02 
1103	 4.75612446463365E-02 
1104	 4.75616797678156E-02 
1105	 4.75562178066386E-02 
1106	 4.75486587538581E-02 
1107	 4.75528262373974E-02 
1108	 0.047565468836053 
1109	 4.75742351108722E-02 
1110	 0.047567948524019 
1111	 0.047560569328442 
1112	 4.75547950586438E-02 
1113	 4.75535257251637E-02 
1114	 0.047547816920141 
1115	 4.75331307158285E-02 
1116	 4.75279353128055E-02 
1117	 4.75093010494276E-02 
1118	 0.047506687074324 
1119	 4.75282243131652E-02 
1120	 4.75362775336174E-02 
1121	 0.047542609339603 
1122	 4.75442333647743E-02 
1123	 4.75480837633284E-02 
1124	 4.75413992931807E-02 
1125	 4.75254438142511E-02 
1126	 0.047534287065691 
1127	 4.75563335256384E-02 
1128	 0.047550376508135 
1129	 0.047540392857999 
1130	 4.75399400622511E-02 
1131	 4.75153714912381E-02 
1132	 4.74880742941077E-02 
1133	 4.74845659700304E-02 
1134	 4.74797732050649E-02 
1135	 0.047478516272666 
1136	 4.74925368790747E-02 
1137	 4.74926537314127E-02 
1138	 0.047485547837989 
1139	 4.74770170954781E-02 
1140	 4.74616748420458E-02 
1141	 4.74495108925797E-02 
1142	 4.74371491613904E-02 
1143	 4.74349653018162E-02 
1144	 4.74310156702962E-02 
1145	 4.74281912490177E-02 
1146	 4.74236888209368E-02 
1147	 4.74212251883001E-02 
1148	 0.047430224844036 
1149	 4.74253110095237E-02 
1150	 4.74040043716826E-02 
1151	 4.73891414943263E-02 
1152	 4.73849766316375E-02 
1153	 4.73823044218889E-02 
1154	 4.73767443392432E-02 
1155	 4.73812569844546E-02 
1156	 4.73859830071743E-02 
1157	 4.73893836174322E-02 
1158	 4.73857748620373E-02 
1159	 4.73829005782157E-02 
1160	 4.73864577115407E-02 
1161	 4.73755956449472E-02 
1162	 4.73644633382728E-02 
1163	 4.73705838997953E-02 
1164	 4.73681059420475E-02 
1165	 4.73707147717372E-02 
1166	 4.73776137439031E-02 
1167	 4.73755533445412E-02 
1168	 4.73725870701013E-02 
1169	 4.73665167455429E-02 
1170	 4.73431634589386E-02 
1171	 4.73407984082917E-02 
1172	 4.73536238712688E-02 
1173	 4.73592526347775E-02 
1174	 4.73737050210198E-02 
1175	 4.73774884587941E-02 
1176	 4.73700474472413E-02 
1177	 4.73645002578354E-02 
1178	 4.73562796981923E-02 
1179	 4.73507805380396E-02 
1180	 4.73399949180347E-02 
1181	 4.73459766388846E-02 
1182	 4.73605730479884E-02 
1183	 4.73733067162085E-02 
1184	 4.73819165863624E-02 
1185	 4.73770352622055E-02 
1186	 4.73725613107796E-02 
1187	 0.047349291741385 
1188	 4.73469355322962E-02 
1189	 4.73549422078525E-02 
1190	 4.73622817650956E-02 
1191	 4.73850223640573E-02 
1192	 4.73882123345829E-02 
1193	 4.73792614911928E-02 
1194	 4.73760053349079E-02 
1195	 4.73561390060887E-02 
1196	 4.73535551481392E-02 
1197	 4.73642219691276E-02 
1198	 4.73807963266477E-02 
1199	 4.73839949736886E-02 
1200	 4.73906708468541E-02 
1201	 4.73851894380292E-02 
1202	 4.73669703061989E-02 
1203	 0.047360548006403 
1204	 4.73637559679347E-02 
1205	 4.73666717333071E-02 
1206	 4.73781942325551E-02 
1207	 0.047382225524061 
1208	 4.73860801965476E-02 
1209	 4.73847094932041E-02 
1210	 4.73779474008674E-02 
1211	 0.047374716482586 
1212	 4.73681038822418E-02 
1213	 4.73660008770041E-02 
1214	 4.73627443031512E-02 
1215	 4.73666226118134E-02 
1216	 4.73846245069133E-02 
1217	 0.047389297471015 
1218	 4.73921686447253E-02 
1219	 4.73923629944177E-02 
1220	 4.73871828307684E-02 
1221	 0.047380419831133 
1222	 4.73859593889322E-02 
1223	 4.73992664626504E-02 
1224	 4.74015703110668E-02 
1225	 4.73999198982415E-02 
1226	 4.74007895000649E-02 
1227	 4.73970800966281E-02 
1228	 0.047397520223969 
1229	 4.73992499217139E-02 
1230	 4.74063161653259E-02 
1231	 4.74178074548217E-02 
1232	 4.74244185811348E-02 
1233	 4.74437467357092E-02 
1234	 4.74456163167532E-02 
1235	 4.74286559607301E-02 
1236	 4.74201490292082E-02 
1237	 4.73971692933866E-02 
1238	 0.047391891764011 
1239	 4.73977318238464E-02 
1240	 0.047414917356132 
1241	 4.74273402995785E-02 
1242	 4.74254672782885E-02 
1243	 4.74270107228237E-02 
1244	 4.74189620326933E-02 
1245	 4.74165638999572E-02 
1246	 4.74144149869267E-02 
1247	 4.74201308895496E-02 
1248	 0.0474313099871 
1249	 4.74330613159775E-02 
1250	 4.74400383315473E-02 
1251	 4.74420525265979E-02 
1252	 0.047426341391232 
1253	 4.74265589990742E-02 
1254	 4.74443789882771E-02 
1255	 4.74462953310898E-02 
1256	 4.74458486151826E-02 
1257	 4.74423421887165E-02 
1258	 4.74256226077526E-02 
1259	 4.74145100056686E-02 
1260	 4.73990888461967E-02 
1261	 0.047395694417432 
1262	 4.74004898084913E-02 
1263	 4.74071184826942E-02 
1264	 4.74125901614051E-02 
1265	 4.74296589769756E-02 
1266	 4.74304237156624E-02 
1267	 4.74177013200734E-02 
1268	 4.74178052599685E-02 
1269	 4.74171382558496E-02 
1270	 4.74207938878613E-02 
1271	 0.047438231940224 
1272	 4.74384670385399E-02 
1273	 4.74255091681894E-02 
1274	 0.047425462799839 
1275	 4.74250379002806E-02 
1276	 4.74238511228203E-02 
1277	 4.74291502421143E-02 
1278	 4.74347053501609E-02 
1279	 4.74326123157703E-02 
1280	 0.047438779280283 
1281	 4.74562655392017E-02 
1282	 4.74698829094733E-02 
1283	 4.74845507320131E-02 
1284	 0.047498132624973 
1285	 4.75112037858096E-02 
1286	 4.75259558979483E-02 
1287	 4.75323450947993E-02 
1288	 4.75354556651183E-02 
1289	 4.75360692997564E-02 
1290	 4.75234684301381E-02 
1291	 4.75317557432878E-02 
1292	 4.75495133994856E-02 
1293	 0.047562380321161 
1294	 4.75903842240807E-02 
1295	 4.75993887615107E-02 
1296	 4.75909847032347E-02 
1297	 4.75952107436617E-02 
1298	 4.75966088372995E-02 
1299	 4.76031031736173E-02 
1300	 0.047620734959403 
1301	 4.76307028396222E-02 
1302	 4.76415622461524E-02 
1303	 4.76456548484349E-02 
1304	 4.76345363083567E-02 
1305	 4.76387460823536E-02 
1306	 4.76484121047225E-02 
1307	 4.76567295790705E-02 
1308	 4.76798300091759E-02 
1309	 4.76959317968728E-02 
1310	 4.76988294236806E-02 
1311	 4.76869105026128E-02 
1312	 4.76893927628755E-02 
1313	 4.76854617474283E-02 
1314	 4.76944265974038E-02 
1315	 4.77234043759712E-02 
1316	 0.047727437330681 
1317	 4.77246167214457E-02 
1318	 4.77209532254349E-02 
1319	 4.76985449851779E-02 
1320	 4.76955558513416E-02 
1321	 0.047704169820256 
1322	 4.77076373411059E-02 
1323	 4.77209442314576E-02 
1324	 4.77217398071179E-02 
1325	 4.77096218836364E-02 
1326	 4.77075465953149E-02 
1327	 4.77057018059115E-02 
1328	 4.77034269897034E-02 
1329	 4.77086659931929E-02 
1330	 4.77089625331424E-02 
1331	 0.04770623092991 
1332	 4.77003251761871E-02 
1333	 4.76926768364323E-02 
1334	 4.76809054634504E-02 
1335	 4.76757051664557E-02 
1336	 4.76676556122081E-02 
1337	 4.76657852992935E-02 
1338	 4.76739085073797E-02 
1339	 0.047671077049927 
1340	 4.76632930314831E-02 
1341	 4.76609565328469E-02 
1342	 4.76583101178472E-02 
1343	 4.76535171065383E-02 
1344	 4.76481462752259E-02 
1345	 4.76476190315781E-02 
1346	 0.04765103205105 
1347	 4.76456200332589E-02 
1348	 4.76414305414519E-02 
1349	 0.047634939255233 
1350	 4.76120323783048E-02 
1351	 4.76052859208156E-02 
1352	 4.76172218271573E-02 
1353	 4.76127261074896E-02 
1354	 4.76018830760988E-02 
1355	 4.75964947677454E-02 
1356	 4.75835559296337E-02 
1357	 4.75743096064516E-02 
1358	 4.75710154440507E-02 
1359	 4.75703188946193E-02 
1360	 4.75698911831927E-02 
1361	 4.75733980579792E-02 
1362	 4.75646871618767E-02 
1363	 4.75586457469382E-02 
1364	 4.75588842804252E-02 
1365	 4.75525009387819E-02 
1366	 4.75561876612576E-02 
1367	 0.04758118576581 
1368	 4.75781559852802E-02 
1369	 4.75600245154407E-02 
1370	 4.75516513619313E-02 
1371	 4.75336290112732E-02 
1372	 4.75269462149509E-02 
1373	 4.75322175402153E-02 
1374	 4.75295358446684E-02 
1375	 4.75250334375143E-02 
1376	 4.75215112465055E-02 
1377	 4.75156565325361E-02 
1378	 4.75136193844132E-02 
1379	 4.75158296213112E-02 
1380	 4.75137625924595E-02 
1381	 4.75098241396982E-02 
1382	 4.75075121172082E-02 
1383	 0.047506851753336 
1384	 4.75025411306456E-02 
1385	 0.047496960014911 
1386	 4.74922992377477E-02 
1387	 4.74803387777275E-02 
1388	 4.74749332335754E-02 
1389	 4.74774103106654E-02 
1390	 4.74768816967856E-02 
1391	 4.74796627246195E-02 
1392	 4.74785129964947E-02 
1393	 4.74712045169736E-02 
1394	 4.74716066522895E-02 
1395	 4.74664961753485E-02 
1396	 4.74580860025814E-02 
1397	 4.74545993767227E-02 
1398	 4.74542183595594E-02 
1399	 0.047446231421157 
1400	 4.74363556129208E-02 
1401	 4.74294882294729E-02 
1402	 4.74133274555374E-02 
1403	 4.74128452116679E-02 
1404	 4.74258515052415E-02 
1405	 0.047430578189729 
1406	 4.74419974369602E-02 
1407	 4.74432912945585E-02 
1408	 4.74334546705097E-02 
1409	 4.74324469776222E-02 
1410	 4.74296263053391E-02 
1411	 4.74314386830533E-02 
1412	 4.74431510227245E-02 
1413	 4.74473873476986E-02 
1414	 4.74475663467424E-02 
1415	 4.74511132385863E-02 
1416	 4.74527978501604E-02 
1417	 4.74552357471255E-02 
1418	 4.74625062576007E-02 
1419	 4.74660450745677E-02 
1420	 4.74650044010779E-02 
1421	 4.74681759214735E-02 
1422	 4.74719871826842E-02 
1423	 4.74765054648592E-02 
1424	 4.74853782883966E-02 
1425	 4.74910818523283E-02 
1426	 0.047494587350495 
1427	 4.75011875026408E-02 
1428	 4.74901140661146E-02 
1429	 4.74883875490058E-02 
1430	 4.74917437130386E-02 
1431	 4.74963905442312E-02 
1432	 4.74976756780249E-02 
1433	 4.75070240675613E-02 
1434	 0.047509061417759 
1435	 4.74998317386922E-02 
1436	 0.047502196439166 
1437	 4.75136169726711E-02 
1438	 4.75162158635733E-02 
1439	 4.75169826669804E-02 
1440	 4.75181989890623E-02 
1441	 0.047514973712716 
1442	 4.75157886881314E-02 
1443	 0.047522645232346 
1444	 4.75220595531758E-02 
1445	 4.75150555729602E-02 
1446	 4.75147762759408E-02 
1447	 4.75159247788597E-02 
1448	 4.75139130061215E-02 
1449	 4.75133372993956E-02 
1450	 4.75157447857906E-02 
1451	 4.75146159559146E-02 
1452	 4.75158473276889E-02 
1453	 4.75233171652976E-02 
1454	 4.75289719067255E-02 
1455	 4.75321937385314E-02 
1456	 4.75377577850845E-02 
1457	 4.75507665174479E-02 
1458	 4.75554977990512E-02 
1459	 0.047551608827951 
1460	 4.75536727225357E-02 
1461	 4.75585342242155E-02 
1462	 4.75569861940585E-02 
1463	 4.75550176011745E-02 
1464	 4.75538746032151E-02 
1465	 4.75468362709996E-02 
1466	 0.047538166474509 
1467	 4.75410085594935E-02 
1468	 4.75475228837633E-02 
1469	 0.047549530523774 
1470	 4.75566981322293E-02 
1471	 0.047560923498891 
1472	 4.75620495531861E-02 
1473	 4.75678226149179E-02 
1474	 4.75777066487922E-02 
1475	 4.75822467772148E-02 
1476	 4.75876366054506E-02 
1477	 4.75892538262565E-02 
1478	 4.75827090970154E-02 
1479	 4.75864545036614E-02 
1480	 4.75961382538555E-02 
1481	 4.75984617740015E-02 
1482	 4.76050699268854E-02 
1483	 4.76042331881386E-02 
1484	 4.75890863250436E-02 
1485	 4.75889281343642E-02 
1486	 4.75953727292056E-02 
1487	 4.75984203312512E-02 
1488	 4.76082689364584E-02 
1489	 4.76118234558165E-02 
1490	 4.76091528019618E-02 
1491	 4.76091979411744E-02 
1492	 4.76103613632481E-02 
1493	 4.76095717814414E-02 
1494	 4.76068486338218E-02 
1495	 0.0476058024417 
1496	 4.76026801125278E-02 
1497	 4.76035555841585E-02 
1498	 4.76108074281775E-02 
1499	 4.76116862871826E-02 
1500	 4.76073100682842E-02 
1501	 4.76096434245508E-02 
1502	 0.047609738488059 
1503	 4.76153112699964E-02 
1504	 4.76379214730304E-02 
1505	 4.76440504524116E-02 
1506	 4.76399524243537E-02 
1507	 4.76397848724412E-02 
1508	 4.76297916079941E-02 
1509	 0.047626796750167 
1510	 4.76286210527575E-02 
1511	 4.76345199582334E-02 
1512	 4.76518064850097E-02 
1513	 0.047656661686203 
1514	 4.76551585153556E-02 
1515	 4.76583533439484E-02 
1516	 0.047658353129224 
1517	 4.76541388182854E-02 
1518	 4.76432405155658E-02 
1519	 0.047647276773071 
1520	 4.76561278552457E-02 
1521	 0.04766501628884 
1522	 0.047679008655924 
1523	 4.76924943865582E-02 
1524	 4.76967734764685E-02 
1525	 4.76831813932426E-02 
1526	 4.76870095884523E-02 
1527	 4.76986887533749E-02 
1528	 4.77041011374762E-02 
1529	 0.047710586607319 
1530	 0.047714753885895 
1531	 4.77181664024366E-02 
1532	 4.77164442336237E-02 
1533	 4.77087494826342E-02 
1534	 4.77113575142957E-02 
1535	 0.047713985034138 
1536	 4.77176384629724E-02 
1537	 4.77301028090355E-02 
1538	 4.77356387544804E-02 
1539	 4.77375986642063E-02 
1540	 4.77367244603452E-02 
1541	 4.77355399266309E-02 
1542	 4.77318343574501E-02 
1543	 4.77162962037427E-02 
1544	 0.047718449235124 
1545	 4.77344997857118E-02 
1546	 4.77343278588941E-02 
1547	 4.77322878183665E-02 
1548	 4.77354415099621E-02 
1549	 4.77291726919095E-02 
1550	 4.77313109722574E-02 
1551	 4.77475370697532E-02 
1552	 4.77549926097519E-02 
1553	 0.047763167111343 
1554	 4.77578558801348E-02 
1555	 4.77368372813812E-02 
1556	 4.77373317241504E-02 
1557	 4.77355263596693E-02 
1558	 4.77403155299796E-02 
1559	 4.77724840378481E-02 
1560	 0.047780903879995 
1561	 4.77729584406361E-02 
1562	 4.77720341332285E-02 
1563	 4.77659702310381E-02 
1564	 4.77661573006616E-02 
1565	 4.77742797472671E-02 
1566	 4.77729736737463E-02 
1567	 4.77652735342955E-02 
1568	 4.77660741863675E-02 
1569	 4.77692153171522E-02 
1570	 4.77663899074324E-02 
1571	 4.77668582905308E-02 
1572	 4.77661895198286E-02 
1573	 4.77493244069401E-02 
1574	 4.77520252579743E-02 
1575	 4.77770061261172E-02 
1576	 4.77842657953715E-02 
1577	 4.77927055202453E-02 
1578	 4.77956667848878E-02 
1579	 4.77808728613819E-02 
1580	 4.77786669333488E-02 
1581	 4.77851965753003E-02 
1582	 4.77862034683216E-02 
1583	 4.77882518002328E-02 
1584	 4.77892328898741E-02 
1585	 4.77843519820939E-02 
1586	 4.77851932214085E-02 
1587	 4.77933488725486E-02 
1588	 4.77945269529215E-02 
1589	 4.77931883324014E-02 
1590	 4.77931427021433E-02 
1591	 4.77861314633358E-02 
1592	 4.77867460351024E-02 
1593	 4.77978820468177E-02 
1594	 4.78002557105131E-02 
1595	 4.77979930914705E-02 
1596	 4.78010324830253E-02 
1597	 4.78092029006903E-02 
1598	 4.78048620166536E-02 
1599	 4.77945938539197E-02 
1600	 4.77887792759847E-02 
1601	 4.77669356001347E-02 
1602	 4.77623707790971E-02 
1603	 4.77792602271291E-02 
1604	 4.77843993640752E-02 
1605	 4.77885810305784E-02 
1606	 4.77934334614445E-02 
1607	 4.78009260129466E-02 
1608	 4.77979009466653E-02 
1609	 4.77820862020535E-02 
1610	 4.77805434730805E-02 
1611	 4.77774260972376E-02 
1612	 4.77768842553778E-02 
1613	 4.77946735122089E-02 
1614	 0.047801373247546 
1615	 4.77975506195557E-02 
1616	 4.77968899516245E-02 
1617	 4.77979716120281E-02 
1618	 0.04779598049895 
1619	 4.77847805215196E-02 
1620	 4.77842913604308E-02 
1621	 4.77871233735931E-02 
1622	 4.77937065389538E-02 
1623	 4.78156262773848E-02 
1624	 4.78273486335125E-02 
1625	 4.78375561879317E-02 
1626	 4.78426271383721E-02 
1627	 4.78399235441693E-02 
1628	 4.78369037770336E-02 
1629	 4.78263779582671E-02 
1630	 4.78218966411591E-02 
1631	 4.78167478111868E-02 
1632	 4.78172494414705E-02 
1633	 0.047834565968408 
1634	 4.78350619917115E-02 
1635	 0.047822426531792 
1636	 4.78189979614342E-02 
1637	 4.78042273069074E-02 
1638	 4.78032403211993E-02 
1639	 0.047821820935951 
1640	 4.78332820502891E-02 
1641	 4.78540736514273E-02 
1642	 4.78575903091667E-02 
1643	 4.78368103660151E-02 
1644	 4.78412404449319E-02 
1645	 4.78550491234558E-02 
1646	 4.78607302620168E-02 
1647	 0.047884952556684 
1648	 4.78937136606311E-02 
1649	 4.78809496530799E-02 
1650	 0.047875454875898 
1651	 4.78654298117454E-02 
1652	 4.78663153755507E-02 
1653	 4.78749916633159E-02 
1654	 4.78777200101927E-02 
1655	 4.78907383295892E-02 
1656	 4.78947581313183E-02 
1657	 4.78791009300748E-02 
1658	 4.78798322694535E-02 
1659	 4.78940740406949E-02 
1660	 4.78957336879027E-02 
1661	 4.78990350450448E-02 
1662	 4.79015077042261E-02 
1663	 4.78890335319171E-02 
1664	 4.78917688409007E-02 
1665	 4.79079458910873E-02 
1666	 4.79167401047675E-02 
1667	 4.79294736901667E-02 
1668	 4.79356705127976E-02 
1669	 4.79367307175516E-02 
1670	 4.79386145106025E-02 
1671	 4.79358699969788E-02 
1672	 4.79354845057745E-02 
1673	 4.79340494795784E-02 
1674	 4.79355778744984E-02 
1675	 0.047940486814455 
1676	 4.79477808790859E-02 
1677	 4.79582748337515E-02 
1678	 4.79636310003684E-02 
1679	 4.79717365770661E-02 
1680	 4.79713498486105E-02 
1681	 4.79666113297556E-02 
1682	 0.047959210619202 
1683	 4.79375076505842E-02 
1684	 0.047934398553584 
1685	 4.79331777376352E-02 
1686	 4.79415865031372E-02 
1687	 4.79734888832163E-02 
1688	 4.79853197382517E-02 
1689	 4.79920347429063E-02 
1690	 4.80011379026501E-02 
1691	 4.80018941811451E-02 
1692	 4.80045500189902E-02 
1693	 4.80123577813655E-02 
1694	 0.048013081004246 
1695	 0.048007945967298 
1696	 0.04800504567367 
1697	 4.79962821932849E-02 
1698	 4.80008020211151E-02 
1699	 4.80114315900804E-02 
1700	 4.80193630482011E-02 
1701	 4.80404108416021E-02 
1702	 4.80474895122004E-02 
1703	 4.80411141878173E-02 
1704	 4.80465884428542E-02 
1705	 4.80556158312259E-02 
1706	 4.80554172896661E-02 
1707	 4.80514350668686E-02 
1708	 4.80417804595551E-02 
1709	 4.80442504020896E-02 
1710	 4.80326134200033E-02 
1711	 0.048021867633973 
1712	 4.80250383199467E-02 
1713	 4.80132334672425E-02 
1714	 4.80172542446607E-02 
1715	 0.048034637160483 
1716	 4.80207661127098E-02 
1717	 4.80016557203574E-02 
1718	 4.79965612661594E-02 
1719	 4.79901949651044E-02 
1720	 4.79946822379387E-02 
1721	 0.04801155394915 
1722	 4.80317555764153E-02 
1723	 4.80367844824019E-02 
1724	 4.80157152117717E-02 
1725	 4.80069526678859E-02 
1726	 0.048004553703764 
1727	 4.80034857582225E-02 
1728	 4.80314750148888E-02 
1729	 4.80500614082199E-02 
1730	 4.80319245736117E-02 
1731	 4.80107508090397E-02 
1732	 4.80060345992255E-02 
1733	 4.79945352431878E-02 
1734	 4.79778469487266E-02 
1735	 4.79751700899311E-02 
1736	 4.79671815990601E-02 
1737	 4.79592272747634E-02 
1738	 4.79882483814669E-02 
1739	 4.79902532908177E-02 
1740	 4.79801647108352E-02 
1741	 4.79829144130888E-02 
1742	 4.79829172099999E-02 
1743	 4.79737762558617E-02 
1744	 4.79593641428368E-02 
1745	 4.79513644972356E-02 
1746	 4.79324940926119E-02 
1747	 4.79350520100316E-02 
1748	 4.79654596821913E-02 
1749	 4.79767088610696E-02 
1750	 4.79861228790828E-02 
1751	 4.79822952711543E-02 
1752	 4.79613140828342E-02 
1753	 4.79635853014297E-02 
1754	 4.79746384999458E-02 
1755	 4.79736557128075E-02 
1756	 4.79804454262376E-02 
1757	 4.79649416978486E-02 
1758	 4.79443498759421E-02 
1759	 4.79290612983266E-02 
1760	 4.79396013771231E-02 
1761	 4.79594520176089E-02 
1762	 4.79654778725594E-02 
1763	 4.79614124894064E-02 
1764	 4.79534386558653E-02 
1765	 4.79481294923355E-02 
1766	 4.79437181724317E-02 
1767	 4.79645174638236E-02 
1768	 4.79840954359511E-02 
1769	 4.79670746326589E-02 
1770	 4.79551619632774E-02 
1771	 4.79425197981691E-02 
1772	 4.79279034957011E-02 
1773	 4.79384199831444E-02 
1774	 4.79566704194595E-02 
1775	 4.79693311022805E-02 
1776	 4.79878623393369E-02 
1777	 4.80073755338971E-02 
1778	 4.80111210925429E-02 
1779	 4.79959751192367E-02 
1780	 4.79848803315055E-02 
1781	 0.047985631609502 
1782	 0.047976072873237 
1783	 4.79802384444185E-02 
1784	 4.79827902533298E-02 
1785	 4.79755575538651E-02 
1786	 4.79798360362656E-02 
1787	 4.80030482846462E-02 
1788	 4.80079310455978E-02 
1789	 4.79916966664493E-02 
1790	 4.79907745731943E-02 
1791	 0.047997445340983 
1792	 0.047996772800152 
1793	 4.80008570254522E-02 
1794	 0.04800660894873 
1795	 4.80053297093518E-02 
1796	 4.80182905491161E-02 
1797	 4.80245757170597E-02 
1798	 0.048023229544533 
1799	 4.80287332973071E-02 
1800	 4.80221660890964E-02 
1801	 4.82255533066934E-02 
1802	 4.82468949111672E-02 
1803	 0.048256158974051 
1804	 4.82587363518606E-02 
1805	 4.82519344848441E-02 
1806	 4.82610741983367E-02 
1807	 4.82832979551881E-02 
1808	 4.82876414159915E-02 
1809	 4.82838603679398E-02 
1810	 4.82955727372767E-02 
1811	 4.83037426381152E-02 
1812	 4.83109220249542E-02 
1813	 4.83313153828094E-02 
1814	 4.83566759877904E-02 
1815	 4.83536968743912E-02 
1816	 0.048339532166046 
1817	 4.83381754845903E-02 
1818	 4.83318789180443E-02 
1819	 4.83352630400306E-02 
1820	 4.83518200763772E-02 
1821	 4.83647279064174E-02 
1822	 4.83868767411024E-02 
1823	 4.83961528363811E-02 
1824	 4.83894709142825E-02 
1825	 4.83872118876676E-02 
1826	 0.048387455782971 
1827	 4.83742125958242E-02 
1828	 4.83787061881468E-02 
1829	 4.84012001722437E-02 
1830	 4.84100797485521E-02 
1831	 4.84135910442962E-02 
1832	 4.84290239204517E-02 
1833	 4.84337678531089E-02 
1834	 4.84355642200725E-02 
1835	 4.84429217739614E-02 
1836	 4.84398323017863E-02 
1837	 4.84425563687968E-02 
1838	 4.84460979482637E-02 
1839	 4.84522371075414E-02 
1840	 4.84667435578576E-02 
1841	 4.84732590510443E-02 
1842	 4.84800109901066E-02 
1843	 4.84740171323801E-02 
1844	 4.84778246304196E-02 
1845	 4.84772311283185E-02 
1846	 4.84744907392377E-02 
1847	 4.84874252843764E-02 
1848	 4.84972242354769E-02 
1849	 4.85070324549268E-02 
1850	 4.85144785521778E-02 
1851	 4.85250882444437E-02 
1852	 4.85329429461521E-02 
1853	 4.85379705189492E-02 
1854	 4.85379056967558E-02 
1855	 4.85350517533255E-02 
1856	 4.85371240079434E-02 
1857	 4.85407506950138E-02 
1858	 0.048548232768861 
1859	 4.85566225107733E-02 
1860	 4.85710844857189E-02 
1861	 4.85812980037751E-02 
1862	 4.85925389849163E-02 
1863	 4.85990259498526E-02 
1864	 4.85990061844967E-02 
1865	 4.86068674886301E-02 
1866	 0.048607090327734 
1867	 0.048611156904574 
1868	 4.86179466540993E-02 
1869	 4.86091414780497E-02 
1870	 0.048610579185388 
1871	 4.86127234625592E-02 
1872	 4.86177029887268E-02 
1873	 4.86247478469235E-02 
1874	 4.86444043642256E-02 
1875	 4.86598612127007E-02 
1876	 4.86596477617668E-02 
1877	 4.86531475813652E-02 
1878	 4.86447690559362E-02 
1879	 4.86343338749149E-02 
1880	 4.86334141775899E-02 
1881	 4.86284465378648E-02 
1882	 4.86233015474102E-02 
1883	 4.86205551052983E-02 
1884	 4.86300644958268E-02 
1885	 4.86358631342986E-02 
1886	 4.86382850956331E-02 
1887	 4.86307009352627E-02 
1888	 4.86183563486041E-02 
1889	 4.86045268977674E-02 
1890	 4.85859626971807E-02 
1891	 4.85851200483584E-02 
1892	 4.85767704712012E-02 
1893	 4.85654810179204E-02 
1894	 4.85424835209774E-02 
1895	 4.85407749485999E-02 
1896	 0.048546404949239 
1897	 4.85497571713737E-02 
1898	 4.85481345475067E-02 
1899	 4.85362933829672E-02 
1900	 4.85198434077307E-02 
1901	 4.85056526057201E-02 
1902	 4.84985716841004E-02 
1903	 4.85062508536951E-02 
1904	 0.048505873877187 
1905	 4.85049897774169E-02 
1906	 4.84939438927396E-02 
1907	 4.84847693117577E-02 
1908	 4.84722297667482E-02 
1909	 4.84667667780855E-02 
1910	 0.048464011988543 
1911	 4.84593602148523E-02 
1912	 4.84600348430395E-02 
1913	 4.84528643975447E-02 
1914	 4.84519401576397E-02 
1915	 4.84513731597204E-02 
1916	 4.84610003921733E-02 
1917	 4.84472342687935E-02 
1918	 4.84313692760843E-02 
1919	 4.84343349582502E-02 
1920	 4.84353050618747E-02 
1921	 4.84462589017369E-02 
1922	 4.84655241296788E-02 
1923	 4.84632077600393E-02 
1924	 4.84564682324699E-02 
1925	 4.84523882328767E-02 
1926	 4.84488148352281E-02 
1927	 4.84461837931353E-02 
1928	 4.84493353946185E-02 
1929	 4.84554885829088E-02 
1930	 4.84580718219295E-02 
1931	 4.84662559261381E-02 
1932	 4.84639470885964E-02 
1933	 4.84595192291242E-02 
1934	 4.84676972667559E-02 
1935	 4.84632367542369E-02 
1936	 4.84546551061491E-02 
1937	 4.84544406885157E-02 
1938	 4.84497310706099E-02 
1939	 4.84491253064918E-02 
1940	 4.84520876934309E-02 
1941	 4.84702083778345E-02 
1942	 4.84874525819417E-02 
1943	 4.84970920695362E-02 
1944	 4.84950424487373E-02 
1945	 4.84949287191044E-02 
1946	 4.85018011560885E-02 
1947	 0.048503111271707 
1948	 4.85147028254547E-02 
1949	 4.85343674522504E-02 
1950	 4.85457282720928E-02 
1951	 4.85400352444518E-02 
1952	 4.85486816286414E-02 
1953	 4.85629013406954E-02 
1954	 4.85852250983188E-02 
1955	 4.86002954440935E-02 
1956	 4.86062281446762E-02 
1957	 4.86140301197071E-02 
1958	 4.86186520100508E-02 
1959	 4.86140593941405E-02 
1960	 4.86234754514316E-02 
1961	 4.86323681044407E-02 
1962	 4.86368684493723E-02 
1963	 4.86462210749456E-02 
1964	 4.86702328852105E-02 
1965	 4.86803255420642E-02 
1966	 4.86838039470451E-02 
1967	 4.86881112479171E-02 
1968	 4.86979956668217E-02 
1969	 4.87112338785913E-02 
1970	 4.87284629468132E-02 
1971	 4.87534684356274E-02 
1972	 4.87731524478886E-02 
1973	 4.87831363857281E-02 
1974	 4.87941391438516E-02 
1975	 4.88047254573915E-02 
1976	 4.88156035701495E-02 
1977	 4.88201612540006E-02 
1978	 4.88320206732325E-02 
1979	 4.88460383983889E-02 
1980	 4.88638829197681E-02 
1981	 4.88968800564204E-02 
1982	 4.89165503972007E-02 
1983	 4.89286687869224E-02 
1984	 4.89425510612229E-02 
1985	 4.89437984655625E-02 
1986	 4.89596734224532E-02 
1987	 4.89783423932341E-02 
1988	 0.049011354950813 
1989	 4.90312908806164E-02 
1990	 4.90505152442511E-02 
1991	 4.90654233575996E-02 
1992	 4.90697444056387E-02 
1993	 4.90843142977883E-02 
1994	 4.90982951829358E-02 
1995	 4.91160193116678E-02 
1996	 4.91492357687679E-02 
1997	 4.91624024729234E-02 
1998	 0.049177776207154 
1999	 4.91933259975031E-02 
2000	 4.92101800777243E-02 
2001	 4.92156222866853E-02 
2002	 4.92388291035391E-02 
2003	 4.92844932564303E-02 
2004	 4.93066826813533E-02 
2005	 0.049322327275302 
2006	 4.93403398079371E-02 
2007	 4.93513226481885E-02 
2008	 4.93506709355721E-02 
2009	 4.93593681417994E-02 
2010	 4.93926252181476E-02 
2011	 4.94292656868178E-02 
2012	 4.94533341751528E-02 
2013	 0.049477245655272 
2014	 4.95028694071924E-02 
2015	 4.95239423994789E-02 
2016	 4.95341570204379E-02 
2017	 4.95521645292602E-02 
2018	 0.049574334487168 
2019	 4.95942307348249E-02 
2020	 4.96115478610355E-02 
2021	 4.96367658855588E-02 
2022	 4.96521335204312E-02 
2023	 4.96795322254667E-02 
2024	 4.97036778280762E-02 
2025	 4.97165616165928E-02 
2026	 4.97317381336713E-02 
2027	 0.049743982605661 
2028	 4.97568546233975E-02 
2029	 4.97658853936445E-02 
2030	 4.97824312872605E-02 
2031	 0.049801929022616 
2032	 4.98234373142026E-02 
2033	 4.98517406332714E-02 
2034	 4.98747332723884E-02 
2035	 4.99017291161966E-02 
2036	 4.99206302239671E-02 
2037	 4.99293602814398E-02 
2038	 4.99472522540602E-02 
2039	 4.99658357981824E-02 
2040	 4.99843361456641E-02 
2041	 5.00047708868692E-02 
2042	 5.00336555881256E-02 
2043	 5.00514982972668E-02 
2044	 5.00600755325116E-02 
2045	 5.00762366319463E-02 
2046	 0.050088520314288 
2047	 5.01078639760744E-02 
2048	 0.050140738828399 
2049	 5.01630328089149E-02 
2050	 0.050184506561269 
2051	 5.01992933554419E-02 
2052	 5.02172227201948E-02 
2053	 5.02411268027582E-02 
2054	 5.02508764044562E-02 
2055	 5.02573750963603E-02 
2056	 5.02686790543693E-02 
2057	 5.02645831710028E-02 
2058	 0.050271780802712 
2059	 5.02963099897261E-02 
2060	 5.03096339379611E-02 
2061	 0.050314682356724 
2062	 5.03276971851067E-02 
2063	 5.03430732458861E-02 
2064	 5.03572033361564E-02 
2065	 5.03663461891567E-02 
2066	 5.03913480815215E-02 
2067	 5.04181320536822E-02 
2068	 5.04349141931995E-02 
2069	 5.04499322633236E-02 
2070	 5.04651465071544E-02 
2071	 5.04759418842995E-02 
2072	 5.04785545608493E-02 
2073	 5.04851452228947E-02 
2074	 5.04828098297975E-02 
2075	 5.05011511410567E-02 
2076	 5.05322838387487E-02 
2077	 5.05567144601118E-02 
2078	 5.06034999746378E-02 
2079	 5.06278783772838E-02 
2080	 0.050623378495083 
2081	 0.050639327424967 
2082	 0.050666544761954 
2083	 5.06804824908577E-02 
2084	 0.050692152746845 
2085	 0.05070282526218 
2086	 5.07234274897334E-02 
2087	 5.07399623311287E-02 
2088	 5.07539493657015E-02 
2089	 5.07811142484814E-02 
2090	 5.08020976750123E-02 
2091	 5.08081124473063E-02 
2092	 5.08215128813574E-02 
2093	 5.08441955515835E-02 
2094	 5.08645048036952E-02 
2095	 5.08816268035269E-02 
2096	 0.050897076078059 
2097	 5.09103190075371E-02 
2098	 5.09314209923539E-02 
2099	 5.09621682380031E-02 
2100	 5.09835519582278E-02 
2101	 5.09957168528757E-02 
2102	 5.10077402189729E-02 
2103	 5.10202083252517E-02 
2104	 5.10126103008681E-02 
2105	 0.051029619390387 
2106	 5.10712608837106E-02 
2107	 5.10953704119262E-02 
2108	 5.11103914715179E-02 
2109	 5.11360050860266E-02 
2110	 5.11681276155756E-02 
2111	 0.051191804189359 
2112	 5.12204360287558E-02 
2113	 5.12443804147584E-02 
2114	 5.12617685957227E-02 
2115	 5.12747844310842E-02 
2116	 5.12805917166563E-02 
2117	 5.12860479358705E-02 
2118	 5.13126297000275E-02 
2119	 5.13426193198582E-02 
2120	 5.13739539151321E-02 
2121	 5.14348298117768E-02 
2122	 5.14626091856441E-02 
2123	 0.0514693287611 
2124	 5.14825350958184E-02 
2125	 5.14870531197407E-02 
2126	 5.14965518098903E-02 
2127	 5.15043001381192E-02 
2128	 5.15172726398939E-02 
2129	 5.15358920517682E-02 
2130	 5.15502575908305E-02 
2131	 5.15695787206134E-02 
2132	 5.15813158766383E-02 
2133	 5.15877347450188E-02 
2134	 5.15894721794583E-02 
2135	 5.15876353954663E-02 
2136	 5.15932643633516E-02 
2137	 5.15935411041551E-02 
2138	 5.15920688995885E-02 
2139	 5.15882299261093E-02 
2140	 5.15802471037452E-02 
2141	 5.15756520142356E-02 
2142	 5.15761865745741E-02 
2143	 5.15675444824426E-02 
2144	 5.15588286864128E-02 
2145	 0.051542902485477 
2146	 5.15105359252707E-02 
2147	 5.14886739453729E-02 
2148	 0.051470534171016 
2149	 5.14505382415218E-02 
2150	 0.051435970458411 
2151	 5.14156058385348E-02 
2152	 5.13899922496429E-02 
2153	 5.13633688041496E-02 
2154	 5.13400662461591E-02 
2155	 5.13193990961425E-02 
2156	 5.12936784144002E-02 
2157	 5.12681866794122E-02 
2158	 5.12416414371162E-02 
2159	 5.12128106937084E-02 
2160	 5.11791223259085E-02 
2161	 5.11518783676787E-02 
2162	 0.051107496558876 
2163	 5.10324611802603E-02 
2164	 0.050994370294721 
2165	 5.09738498659174E-02 
2166	 5.09372559122011E-02 
2167	 5.09153310155755E-02 
2168	 5.08861873908721E-02 
2169	 5.08333658771997E-02 
2170	 5.07929037421798E-02 
2171	 5.07659368205466E-02 
2172	 5.07351483455369E-02 
2173	 5.06980594928565E-02 
2174	 5.06682372154325E-02 
2175	 5.06464034407404E-02 
2176	 5.06283000059115E-02 
2177	 5.06016385944145E-02 
2178	 5.05777092306968E-02 
2179	 5.05440138072253E-02 
2180	 5.04982419833591E-02 
2181	 5.04594465844731E-02 
2182	 5.04138457330207E-02 
2183	 5.03833049125089E-02 
2184	 5.03635996251288E-02 
2185	 5.03383611075157E-02 
2186	 5.03183484326047E-02 
2187	 5.02984120550741E-02 
2188	 5.02731394498358E-02 
2189	 5.02539899633968E-02 
2190	 5.02488585915215E-02 
2191	 5.02299495559826E-02 
2192	 5.02068654720438E-02 
2193	 5.01799188066196E-02 
2194	 5.01461912225352E-02 
2195	 5.01096261826521E-02 
2196	 5.00603434823658E-02 
2197	 5.00200368616763E-02 
2198	 4.99978864483581E-02 
2199	 0.04997672573176 
2200	 0.049973226115508 
2201	 5.00005892468066E-02 
2202	 0.05000101557963 
2203	 5.00031281275357E-02 
2204	 4.99917093561702E-02 
2205	 4.99652692184716E-02 
2206	 4.99443559518765E-02 
2207	 4.99130966312304E-02 
2208	 4.98952771048758E-02 
2209	 4.98779771314574E-02 
2210	 0.049874372149043 
2211	 4.98894543614485E-02 
2212	 4.98905244238027E-02 
2213	 4.98915098642982E-02 
2214	 4.98987558680343E-02 
2215	 4.99070222277128E-02 
2216	 4.99082754774756E-02 
2217	 4.99147680745775E-02 
2218	 0.049915551602911 
2219	 4.98984280571085E-02 
2220	 4.98927475517823E-02 
2221	 4.98953087278697E-02 
2222	 0.049893025733812 
2223	 4.99084749453387E-02 
2224	 4.99294194653097E-02 
2225	 0.049926466564387 
2226	 4.99378908919231E-02 
2227	 4.99264003290735E-02 
2228	 4.98747600027344E-02 
2229	 4.98799910004396E-02 
2230	 4.99056570021042E-02 
2231	 4.99255029418701E-02 
2232	 4.99863019556246E-02 
2233	 4.99990139760252E-02 
2234	 4.99800754250702E-02 
2235	 4.99747341869146E-02 
2236	 4.99494707906473E-02 
2237	 4.99464531400624E-02 
2238	 4.99693874017782E-02 
2239	 4.99651568415698E-02 
2240	 4.99443718566845E-02 
2241	 4.99454221952163E-02 
2242	 4.99425910335827E-02 
2243	 4.99424833123347E-02 
2244	 4.99684361596224E-02 
2245	 4.99803584682288E-02 
2246	 4.99751432946544E-02 
2247	 4.99775409862358E-02 
2248	 4.99811359476081E-02 
2249	 4.99871258227761E-02 
2250	 5.00046036566285E-02 
2251	 5.00051426095774E-02 
2252	 4.99944429895045E-02 
2253	 5.00014506469888E-02 
2254	 4.99900787873568E-02 
2255	 4.99938509357668E-02 
2256	 5.00035868062679E-02 
2257	 4.99963103103031E-02 
2258	 5.00076562147427E-02 
2259	 5.00235136975907E-02 
2260	 5.00365287415082E-02 
2261	 5.00658099520338E-02 
2262	 5.00726173168143E-02 
2263	 5.00597885787522E-02 
2264	 5.00620391222512E-02 
2265	 5.00609955535498E-02 
2266	 5.00675070276965E-02 
2267	 5.00905584070342E-02 
2268	 5.00948285415518E-02 
2269	 5.00809387821421E-02 
2270	 0.050089126051965 
2271	 5.01069719384956E-02 
2272	 5.01133462587212E-02 
2273	 5.01280140700854E-02 
2274	 5.01406146066412E-02 
2275	 5.01340749826159E-02 
2276	 5.01427761471908E-02 
2277	 0.050174528508203 
2278	 5.01904593116876E-02 
2279	 5.01974962324391E-02 
2280	 5.02076182346657E-02 
2281	 5.02171963705194E-02 
2282	 5.02195440485224E-02 
2283	 5.02235130992419E-02 
2284	 0.050215261238249 
2285	 5.02139845749452E-02 
2286	 5.02342889375528E-02 
2287	 5.02363875330853E-02 
2288	 5.02424459359323E-02 
2289	 5.02303290704353E-02 
2290	 0.050197638888236 
2291	 5.02059368038795E-02 
2292	 0.050226029587746 
2293	 5.02459807567026E-02 
2294	 5.02664471894917E-02 
2295	 5.02557509922051E-02 
2296	 5.02589241459622E-02 
2297	 5.02733044993247E-02 
2298	 5.02898331910901E-02 
2299	 5.03240869213185E-02 
2300	 5.03910867951126E-02 
2301	 5.04132180681287E-02 
2302	 5.04247691437886E-02 
2303	 5.04435434948632E-02 
2304	 5.04424279365761E-02 
2305	 5.04514888487718E-02 
2306	 5.04757874324302E-02 
2307	 5.04854397984106E-02 
2308	 5.04775703548321E-02 
2309	 5.04869422158844E-02 
2310	 5.04925691878478E-02 
2311	 0.050520939946915 
2312	 5.05688936342339E-02 
2313	 5.06044893565755E-02 
2314	 5.06664734158952E-02 
2315	 5.07098495759884E-02 
2316	 5.07349950478519E-02 
2317	 0.050752969985324 
2318	 0.050749459659437 
2319	 5.07660060463439E-02 
2320	 5.07889066058161E-02 
2321	 5.08146020212744E-02 
2322	 5.08602938498626E-02 
2323	 5.08883948610443E-02 
2324	 5.08986481106472E-02 
2325	 5.09192865235394E-02 
2326	 5.09458637238268E-02 
2327	 0.050965405094266 
2328	 5.09750450788467E-02 
2329	 5.09943831310806E-02 
2330	 5.10174564107507E-02 
2331	 5.10388400416604E-02 
2332	 5.10616787493967E-02 
2333	 5.10977901132295E-02 
2334	 5.11092454561201E-02 
2335	 5.11199780169649E-02 
2336	 5.11224705225502E-02 
2337	 5.11471315348195E-02 
2338	 5.11920617572344E-02 
2339	 5.12108019038585E-02 
2340	 5.12325643273004E-02 
2341	 5.12182709427294E-02 
2342	 5.12059126704856E-02 
2343	 5.12177501234681E-02 
2344	 5.12277948069042E-02 
2345	 5.12657279030638E-02 
2346	 5.12825316805621E-02 
2347	 5.12698256836784E-02 
2348	 5.12730879061609E-02 
2349	 5.12792833900199E-02 
2350	 5.12646292037918E-02 
2351	 5.12815992557942E-02 
2352	 5.13447560454072E-02 
2353	 5.14139907344022E-02 
2354	 5.15093174915247E-02 
2355	 5.15798799437355E-02 
2356	 5.15522651578324E-02 
2357	 5.14874401324835E-02 
2358	 5.14446257103219E-02 
2359	 5.14221261777198E-02 
2360	 5.14340848609718E-02 
2361	 5.14741976424834E-02 
2362	 5.14970171215074E-02 
2363	 5.14845060186842E-02 
2364	 5.14942348566885E-02 
2365	 5.15261828461477E-02 
2366	 5.15417779725684E-02 
2367	 5.15935445864305E-02 
2368	 5.16458252096119E-02 
2369	 5.16415715054319E-02 
2370	 5.16563660506755E-02 
2371	 5.17184485303657E-02 
2372	 5.17200856075497E-02 
2373	 5.17019149975027E-02 
2374	 5.17515447182652E-02 
2375	 5.17407294980052E-02 
2376	 5.17037574730067E-02 
2377	 5.17122717104278E-02 
2378	 5.16512360571605E-02 
2379	 5.15599456130497E-02 
2380	 5.15510438432725E-02 
2381	 5.16165014116344E-02 
2382	 5.16371852330505E-02 
2383	 5.16760514963284E-02 
2384	 5.16626446501099E-02 
2385	 5.15859842148241E-02 
2386	 5.15981430191451E-02 
2387	 5.16632841900211E-02 
2388	 5.16729845706321E-02 
2389	 5.16820170126339E-02 
2390	 5.16961013350007E-02 
2391	 5.16743826639715E-02 
2392	 5.16561130179968E-02 
2393	 5.16802500441287E-02 
2394	 5.16655724918314E-02 
2395	 5.15792064500648E-02 
2396	 5.15537841636433E-02 
2397	 5.15639039994565E-02 
2398	 5.16024381434882E-02 
2399	 0.051669240348551 
2400	 5.17161900393508E-02 
2401	 5.18074989635212E-02 
2402	 5.18131175836844E-02 
2403	 5.17724807885691E-02 
2404	 5.16813421408722E-02 
2405	 5.16436244603051E-02 
2406	 5.16537170158011E-02 
2407	 5.17003293557802E-02 
2408	 5.18039224218637E-02 
2409	 5.18572706719765E-02 
2410	 5.18406143796608E-02 
2411	 0.051790401360031 
2412	 5.17120553514536E-02 
2413	 5.16526554937376E-02 
2414	 5.16032662700615E-02 
2415	 5.15765120540192E-02 
2416	 5.16174549911706E-02 
2417	 5.16491384677127E-02 
2418	 5.16797671477405E-02 
2419	 5.17464086851071E-02 
2420	 5.17158208490364E-02 
2421	 5.16390982250582E-02 
2422	 5.16572526410525E-02 
2423	 5.16411260986468E-02 
2424	 5.16378106764088E-02 
2425	 5.17398003420329E-02 
2426	 5.17926665479477E-02 
2427	 5.18216876729439E-02 
2428	 5.18639189599399E-02 
2429	 5.18348809138208E-02 
2430	 0.051809755739714 
2431	 5.17644669013082E-02 
2432	 5.16379942883218E-02 
2433	 5.15979661158592E-02 
2434	 5.15695370544423E-02 
2435	 5.15240052054219E-02 
2436	 5.15449513947798E-02 
2437	 5.15538444791917E-02 
2438	 5.16708135616082E-02 
2439	 5.18081782711941E-02 
2440	 0.05179623923073 
2441	 5.17889839932953E-02 
2442	 5.16827891350912E-02 
2443	 5.15345057813159E-02 
2444	 5.16135628312082E-02 
2445	 0.051642000374373 
2446	 5.16011019460539E-02 
2447	 5.16260173327916E-02 
2448	 5.15712650597558E-02 
2449	 5.15913238491075E-02 
2450	 5.16356672525353E-02 
2451	 5.15104321783287E-02 
2452	 5.14750592766245E-02 
2453	 5.14893662253994E-02 
2454	 0.051407925809025 
2455	 5.14902520796099E-02 
2456	 5.16385571102152E-02 
2457	 5.16439392516115E-02 
2458	 5.16697658739608E-02 
2459	 5.16926066907368E-02 
2460	 5.15774299483248E-02 
2461	 5.15681762706815E-02 
2462	 5.16182299153718E-02 
2463	 5.16029316568245E-02 
2464	 5.16814521119828E-02 
2465	 5.17124561499097E-02 
2466	 5.18033898969212E-02 
2467	 5.19829053504667E-02 
2468	 5.18970905700407E-02 
2469	 5.17277661582444E-02 
2470	 5.16418132657569E-02 
2471	 5.15131188087943E-02 
2472	 0.051522398113355 
2473	 5.16383524194194E-02 
2474	 5.16023515152395E-02 
2475	 5.15121467582262E-02 
2476	 0.051465132342489 
2477	 5.14415539175976E-02 
2478	 5.13495313369074E-02 
2479	 0.051232797457601 
2480	 5.13235309218708E-02 
2481	 5.14226527335032E-02 
2482	 5.17363352196576E-02 
2483	 5.18534628257316E-02 
2484	 5.18044824290731E-02 
2485	 5.15711621761663E-02 
2486	 5.15007359411153E-02 
2487	 5.15352543615254E-02 
2488	 5.15348818189344E-02 
2489	 5.16198760808404E-02 
2490	 0.051497505661038 
2491	 5.14384511822685E-02 
2492	 5.16501791882001E-02 
2493	 5.17515787441421E-02 
2494	 5.18226886300091E-02 
2495	 0.051798232812819 
2496	 5.14804615127661E-02 
2497	 5.12568182568223E-02 
2498	 5.11582632185785E-02 
2499	 5.10958008267062E-02 
2500	 5.12268669478445E-02 
