Wavelength	spectrum00016.asd
350	 3.16414068881564E-02 
351	 2.99836679903261E-02 
352	 0.028813670437923 
353	 2.95245418518412E-02 
354	 0.03156299657804 
355	 3.16832145685439E-02 
356	 3.09567386300111E-02 
357	 3.06207641456156E-02 
358	 2.90329925655903E-02 
359	 2.79275848840781E-02 
360	 2.82191514866927E-02 
361	 2.99107992203909E-02 
362	 3.01858345425507E-02 
363	 2.98886558363588E-02 
364	 2.94097397090765E-02 
365	 2.79882197078738E-02 
366	 2.88621989639948E-02 
367	 3.00131772706702E-02 
368	 2.95856181343855E-02 
369	 3.08199876036031E-02 
370	 3.03902971952703E-02 
371	 2.89113020944273E-02 
372	 2.90052567442695E-02 
373	 2.91807504965931E-02 
374	 0.029510220782259 
375	 3.00354069601427E-02 
376	 3.05472288311923E-02 
377	 0.031028292233479 
378	 3.02324267447151E-02 
379	 2.80279316967463E-02 
380	 2.89595237079851E-02 
381	 3.01217734863925E-02 
382	 3.01237742690927E-02 
383	 2.88924952380333E-02 
384	 2.81995922227703E-02 
385	 2.89836652506322E-02 
386	 3.06192357894764E-02 
387	 3.04463390870741E-02 
388	 2.96822790973107E-02 
389	 2.93972962328475E-02 
390	 2.99891811905602E-02 
391	 2.95376229605872E-02 
392	 2.92141370815516E-02 
393	 2.93593414252295E-02 
394	 2.96540944715182E-02 
395	 2.94102908678452E-02 
396	 2.99413878167014E-02 
397	 3.12415447294782E-02 
398	 3.07472330480697E-02 
399	 2.99145350431396E-02 
400	 0.029582239473563 
401	 3.00099748250844E-02 
402	 2.98641698126117E-02 
403	 2.99819400596018E-02 
404	 3.01700623943268E-02 
405	 2.95609387145266E-02 
406	 2.97696445300972E-02 
407	 2.99304683869484E-02 
408	 2.96195978581479E-02 
409	 3.00194387367098E-02 
410	 3.00373119027774E-02 
411	 2.98524401854549E-02 
412	 2.99225081862408E-02 
413	 2.99163994910599E-02 
414	 2.96070191172341E-02 
415	 2.93219290815852E-02 
416	 2.97966027353848E-02 
417	 2.98097982838673E-02 
418	 2.96398112242118E-02 
419	 2.96391831686865E-02 
420	 2.96834739562536E-02 
421	 2.96947221523668E-02 
422	 2.97022325211971E-02 
423	 2.97647031516681E-02 
424	 2.98104994623963E-02 
425	 0.029771382169263 
426	 2.96470478173716E-02 
427	 2.95094535980825E-02 
428	 0.029576789478715 
429	 2.97397922015159E-02 
430	 2.98170218107125E-02 
431	 2.96339570740417E-02 
432	 0.029602708367007 
433	 2.96589819967132E-02 
434	 2.95170201073391E-02 
435	 2.95681572317164E-02 
436	 2.96763375398233E-02 
437	 2.97202251701658E-02 
438	 2.96949021591063E-02 
439	 2.96363435695141E-02 
440	 2.96167740148069E-02 
441	 2.96666409016551E-02 
442	 2.95887222343075E-02 
443	 2.96760782372781E-02 
444	 2.98358578731742E-02 
445	 2.96945407094861E-02 
446	 2.96905526796814E-02 
447	 2.96901357358647E-02 
448	 2.95973434182624E-02 
449	 2.95949399930871E-02 
450	 2.97348588114642E-02 
451	 2.98226352454205E-02 
452	 2.96495225848301E-02 
453	 2.95535047378244E-02 
454	 2.96608262034358E-02 
455	 2.98508736357027E-02 
456	 2.97619426894767E-02 
457	 2.96532699669606E-02 
458	 2.95849933264591E-02 
459	 2.95864762744567E-02 
460	 2.97551294959153E-02 
461	 2.97996594591415E-02 
462	 2.97310186870762E-02 
463	 2.97218490141817E-02 
464	 0.029677633237527 
465	 2.97257240194671E-02 
466	 2.98486661897598E-02 
467	 0.029774444704117 
468	 2.96505789814752E-02 
469	 2.96105304563514E-02 
470	 2.97088064176824E-02 
471	 2.96920317007726E-02 
472	 2.97056881229084E-02 
473	 2.97490455477791E-02 
474	 2.97042865163422E-02 
475	 2.96487868011149E-02 
476	 2.96961615394169E-02 
477	 2.98311733744477E-02 
478	 2.97365160574674E-02 
479	 2.96673717128741E-02 
480	 2.96786811955035E-02 
481	 2.97301032222263E-02 
482	 2.97105838815551E-02 
483	 2.96757828253936E-02 
484	 2.96707658712588E-02 
485	 0.029712006396403 
486	 2.98541362411585E-02 
487	 2.98539422179442E-02 
488	 2.96202031433131E-02 
489	 2.97407090776395E-02 
490	 2.97879897114498E-02 
491	 2.97407216693049E-02 
492	 2.98002012287229E-02 
493	 2.98042085239636E-02 
494	 2.97892374798991E-02 
495	 2.97957791587711E-02 
496	 2.98346661446611E-02 
497	 2.98515901372615E-02 
498	 2.98245321453748E-02 
499	 2.97756009180815E-02 
500	 2.98779416350526E-02 
501	 2.98746499169421E-02 
502	 2.97630679815678E-02 
503	 2.97707375984292E-02 
504	 2.98277071711189E-02 
505	 2.98265820874147E-02 
506	 0.029743289486052 
507	 2.97729014860602E-02 
508	 2.97977664761793E-02 
509	 0.029816657970875 
510	 2.98642458359137E-02 
511	 2.98594976721473E-02 
512	 2.98162292214807E-02 
513	 2.97734286481539E-02 
514	 2.97902368072451E-02 
515	 2.97726727708136E-02 
516	 2.97312121881582E-02 
517	 2.97036183550958E-02 
518	 2.97159117396987E-02 
519	 2.97695587015519E-02 
520	 2.98281432055127E-02 
521	 2.98358897000733E-02 
522	 0.029832742082243 
523	 2.98243960938857E-02 
524	 2.98163179608669E-02 
525	 2.98256142178267E-02 
526	 2.98202934250276E-02 
527	 0.02981309114231 
528	 2.98252963028909E-02 
529	 2.98296366371568E-02 
530	 2.98234793458741E-02 
531	 2.98232802607967E-02 
532	 2.98614162488563E-02 
533	 2.98364433925282E-02 
534	 2.98226585799706E-02 
535	 2.98724228095142E-02 
536	 2.98589060875038E-02 
537	 2.98512339627473E-02 
538	 2.98592866726483E-02 
539	 2.98569928590161E-02 
540	 2.98064854033721E-02 
541	 2.97996098860781E-02 
542	 2.98517643687995E-02 
543	 2.98308732128729E-02 
544	 2.98499999899018E-02 
545	 2.98633598159497E-02 
546	 2.98117512818551E-02 
547	 2.97945710218625E-02 
548	 2.98165930014222E-02 
549	 2.98509411086807E-02 
550	 2.98493130654712E-02 
551	 2.98559482929975E-02 
552	 2.98579894870083E-02 
553	 2.98508564242168E-02 
554	 2.98827426821155E-02 
555	 2.98812411408959E-02 
556	 2.98545385620092E-02 
557	 2.98494888437373E-02 
558	 2.98830542059506E-02 
559	 2.99006660953638E-02 
560	 2.98912734437816E-02 
561	 2.99140154391589E-02 
562	 2.98856420160539E-02 
563	 2.98596441009032E-02 
564	 2.98949910710076E-02 
565	 2.99279205316259E-02 
566	 2.99297835032605E-02 
567	 2.99077500791286E-02 
568	 2.98970959093527E-02 
569	 2.99176220592905E-02 
570	 2.99353699793148E-02 
571	 2.99256213279774E-02 
572	 2.98941570419178E-02 
573	 0.029932218854441 
574	 2.99713923592747E-02 
575	 2.99183917353694E-02 
576	 2.99524390226292E-02 
577	 2.99452617604434E-02 
578	 2.98787530320077E-02 
579	 2.98806108242593E-02 
580	 2.99128125455496E-02 
581	 2.99317676208631E-02 
582	 2.99178772548164E-02 
583	 2.99339588962092E-02 
584	 2.99636525885881E-02 
585	 2.99654502487123E-02 
586	 2.99038015860343E-02 
587	 2.99407499448607E-02 
588	 3.00015298465796E-02 
589	 3.00209220500145E-02 
590	 0.029996325324169 
591	 2.99792003167125E-02 
592	 2.99942682211799E-02 
593	 3.00339968615215E-02 
594	 2.99974995745168E-02 
595	 0.029976619954803 
596	 2.99887153519765E-02 
597	 2.99814395729113E-02 
598	 2.99731560392717E-02 
599	 2.99728165285135E-02 
600	 2.99810613325027E-02 
601	 2.99808606426291E-02 
602	 2.99902200402974E-02 
603	 2.99918137256325E-02 
604	 2.99651812558802E-02 
605	 2.99774088831886E-02 
606	 2.99892242619233E-02 
607	 2.99932190074311E-02 
608	 3.00322207851514E-02 
609	 2.99918090384827E-02 
610	 2.99572106382434E-02 
611	 3.00070559734845E-02 
612	 3.00280111293195E-02 
613	 3.00266357693545E-02 
614	 3.00179821645763E-02 
615	 0.03002012150022 
616	 3.00076518488454E-02 
617	 3.00112810745948E-02 
618	 3.00328001311413E-02 
619	 3.00076603591984E-02 
620	 0.030011043808199 
621	 3.00374480981834E-02 
622	 3.00523297604765E-02 
623	 3.00199448654715E-02 
624	 3.00166398874437E-02 
625	 3.00416064488153E-02 
626	 3.00225826308777E-02 
627	 3.00393152206683E-02 
628	 3.00488480309857E-02 
629	 3.00272458713261E-02 
630	 3.00617809934628E-02 
631	 0.030042469032477 
632	 3.00137241940137E-02 
633	 3.00638991017624E-02 
634	 3.00681696964669E-02 
635	 3.00568507068931E-02 
636	 3.00527470189399E-02 
637	 3.00525435608384E-02 
638	 3.00555632218755E-02 
639	 3.00484174415876E-02 
640	 3.00289715960524E-02 
641	 3.00436796811436E-02 
642	 3.00356270390228E-02 
643	 3.00139611611522E-02 
644	 3.00256908475513E-02 
645	 3.00554542652756E-02 
646	 3.00755048121065E-02 
647	 3.00760150599172E-02 
648	 3.00783738505555E-02 
649	 3.00871325471816E-02 
650	 3.00908515628036E-02 
651	 3.00788982612177E-02 
652	 3.00681180253297E-02 
653	 3.00605273488216E-02 
654	 3.00534059306137E-02 
655	 3.00428722631105E-02 
656	 3.00637718555709E-02 
657	 3.00840372838742E-02 
658	 3.00806190740015E-02 
659	 3.00685214406694E-02 
660	 3.00900264464052E-02 
661	 3.01064376380903E-02 
662	 3.00715612560394E-02 
663	 3.00836592193262E-02 
664	 3.00917698230965E-02 
665	 0.030087777549282 
666	 3.01125121221463E-02 
667	 3.01040632751624E-02 
668	 3.00959245896844E-02 
669	 3.01145555850166E-02 
670	 3.01196595474517E-02 
671	 3.01162967520692E-02 
672	 3.01040290839738E-02 
673	 3.00878455687813E-02 
674	 3.01186836696092E-02 
675	 0.03013450519059 
676	 3.01208684864113E-02 
677	 3.01311174988104E-02 
678	 3.01169889061247E-02 
679	 3.01077176806524E-02 
680	 3.01269589191788E-02 
681	 3.01258491236386E-02 
682	 3.01384762029942E-02 
683	 3.01500704239683E-02 
684	 3.01282877107172E-02 
685	 3.01289329901403E-02 
686	 3.01382567393393E-02 
687	 3.01466880346043E-02 
688	 0.030161809296599 
689	 3.01468403673859E-02 
690	 3.01215420443719E-02 
691	 3.01177480140621E-02 
692	 3.01563869975157E-02 
693	 3.01686553451648E-02 
694	 3.01499246166982E-02 
695	 3.01391843818472E-02 
696	 3.01577326556231E-02 
697	 3.01600008232535E-02 
698	 0.030139931560234 
699	 3.01666570730697E-02 
700	 3.01754245927356E-02 
701	 3.01734741972685E-02 
702	 3.01816285036058E-02 
703	 3.01895920784057E-02 
704	 3.02010578155989E-02 
705	 0.030205482656589 
706	 3.01872524592003E-02 
707	 3.01815435860427E-02 
708	 3.01926781840692E-02 
709	 3.02100905409519E-02 
710	 3.02060274037886E-02 
711	 3.02156648865125E-02 
712	 3.02194841420912E-02 
713	 3.02004397352514E-02 
714	 3.02189948813034E-02 
715	 3.02336891864727E-02 
716	 0.030231262548338 
717	 3.02228032964442E-02 
718	 3.02271206433696E-02 
719	 3.02399937511742E-02 
720	 3.02547903851159E-02 
721	 3.02676971922582E-02 
722	 3.02738133423919E-02 
723	 3.02723055098084E-02 
724	 3.02639448975858E-02 
725	 3.02446947510081E-02 
726	 3.02500514763063E-02 
727	 3.02743406654126E-02 
728	 3.02837055020083E-02 
729	 3.02883639985051E-02 
730	 3.02775782028017E-02 
731	 0.030263669449665 
732	 3.03000671673973E-02 
733	 0.030337197286923 
734	 3.03482279319738E-02 
735	 3.03295777881386E-02 
736	 3.03341058665255E-02 
737	 3.03361021816376E-02 
738	 3.03362797161321E-02 
739	 3.03510253930832E-02 
740	 3.03657635878228E-02 
741	 3.03685723779509E-02 
742	 3.03618319250585E-02 
743	 3.03679946354085E-02 
744	 3.03710668215035E-02 
745	 3.03810757804977E-02 
746	 3.04037449632844E-02 
747	 3.04088693961292E-02 
748	 3.04066342470391E-02 
749	 3.04061613033363E-02 
750	 3.04143902788728E-02 
751	 3.04266034794578E-02 
752	 3.04377756329636E-02 
753	 3.04469401289468E-02 
754	 3.04582928185932E-02 
755	 3.04645849449461E-02 
756	 3.04585416112821E-02 
757	 0.030445187114076 
758	 3.04646089910668E-02 
759	 3.04773168893527E-02 
760	 3.04774151551517E-02 
761	 3.04773477895238E-02 
762	 3.04938515746541E-02 
763	 3.05034082638799E-02 
764	 3.05042704079964E-02 
765	 3.05196554346215E-02 
766	 0.030525755299509 
767	 3.05237287043529E-02 
768	 3.05243070250835E-02 
769	 3.05508671065457E-02 
770	 3.05661521707527E-02 
771	 3.05639146518418E-02 
772	 3.05540867622358E-02 
773	 3.05589246323736E-02 
774	 3.05749760741456E-02 
775	 3.05881747321428E-02 
776	 0.030581102058749 
777	 3.05871032192356E-02 
778	 3.06017087882234E-02 
779	 3.06129990734732E-02 
780	 3.06061428300494E-02 
781	 3.06166703468702E-02 
782	 3.06303764847688E-02 
783	 3.06299526558907E-02 
784	 3.06412416622118E-02 
785	 3.06512705998864E-02 
786	 3.06621554256981E-02 
787	 3.06794796199843E-02 
788	 3.06650603411921E-02 
789	 3.06619254674207E-02 
790	 3.06788497358986E-02 
791	 3.06770178898629E-02 
792	 3.06940273297073E-02 
793	 3.07121201549623E-02 
794	 0.030716982286015 
795	 3.07307836394863E-02 
796	 3.07390434187009E-02 
797	 3.07440553892916E-02 
798	 3.07497820099206E-02 
799	 3.07369209602022E-02 
800	 3.07273220402944E-02 
801	 3.07349312112358E-02 
802	 3.07607960114099E-02 
803	 3.07617296133564E-02 
804	 3.07578843251085E-02 
805	 3.07708872552858E-02 
806	 3.08101562619321E-02 
807	 3.08237341123606E-02 
808	 3.08205608864729E-02 
809	 3.08207427974622E-02 
810	 3.08237906474103E-02 
811	 3.08418948153995E-02 
812	 0.030862318511859 
813	 3.08670619933619E-02 
814	 0.030879177269161 
815	 3.08905622927726E-02 
816	 3.08967287774015E-02 
817	 3.08987522105414E-02 
818	 3.09046400288913E-02 
819	 3.09050419636956E-02 
820	 3.09031380361268E-02 
821	 3.09265377286271E-02 
822	 3.09347948611851E-02 
823	 3.09358360356234E-02 
824	 3.09426818343254E-02 
825	 3.09404727573005E-02 
826	 3.09393439143291E-02 
827	 3.09415278080983E-02 
828	 3.09491764357772E-02 
829	 3.09882100242774E-02 
830	 3.10130259605713E-02 
831	 3.10135466647001E-02 
832	 3.10156099777884E-02 
833	 3.10318616240694E-02 
834	 3.10478354952181E-02 
835	 0.031056812754607 
836	 3.10710063615563E-02 
837	 0.031071284518448 
838	 3.10688358094962E-02 
839	 3.10809546281874E-02 
840	 3.11240743476107E-02 
841	 3.11383774838492E-02 
842	 3.11248466467607E-02 
843	 3.11140601060791E-02 
844	 3.11369987499346E-02 
845	 3.11551977538831E-02 
846	 3.11562309857343E-02 
847	 3.11526291773734E-02 
848	 3.11701194454231E-02 
849	 3.11745608456609E-02 
850	 3.11626259171725E-02 
851	 0.031176435260574 
852	 3.11982563253715E-02 
853	 3.12215861889049E-02 
854	 3.12394304956765E-02 
855	 3.12392341109872E-02 
856	 3.12483644454455E-02 
857	 3.12579383668942E-02 
858	 3.12555659348216E-02 
859	 3.12607590803539E-02 
860	 0.031266561647541 
861	 0.031277568014928 
862	 3.12989541855308E-02 
863	 3.13033204791344E-02 
864	 3.13164823659655E-02 
865	 3.13359713724668E-02 
866	 3.13345358439277E-02 
867	 0.031321477695995 
868	 0.031326600833072 
869	 3.13503370561345E-02 
870	 3.13514703647918E-02 
871	 0.031370878375536 
872	 3.13737639918776E-02 
873	 3.13483648511004E-02 
874	 3.13668322240014E-02 
875	 3.14090077029346E-02 
876	 3.14418667403264E-02 
877	 3.14438609039282E-02 
878	 3.14508770352986E-02 
879	 3.14595808555164E-02 
880	 3.14738713745225E-02 
881	 3.14929303947379E-02 
882	 3.14754835251334E-02 
883	 3.14623480933403E-02 
884	 3.14748157341653E-02 
885	 0.031508826334366 
886	 3.15247860993245E-02 
887	 3.15283885174039E-02 
888	 3.15351829663296E-02 
889	 0.031562260278989 
890	 3.15859028159881E-02 
891	 3.15843435557544E-02 
892	 3.15667554430737E-02 
893	 3.15905100374697E-02 
894	 3.16096034742017E-02 
895	 3.16317632773221E-02 
896	 3.16589142096348E-02 
897	 3.16420875328529E-02 
898	 3.16324681001095E-02 
899	 3.16300681951414E-02 
900	 3.16245933872227E-02 
901	 3.16385930585801E-02 
902	 3.16493167210294E-02 
903	 3.16723707071898E-02 
904	 3.17201777000276E-02 
905	 3.16788658486367E-02 
906	 3.16781192681679E-02 
907	 0.031718552226761 
908	 3.17101034614604E-02 
909	 3.17085965656811E-02 
910	 3.17271473765458E-02 
911	 3.17453085071401E-02 
912	 3.17247339030187E-02 
913	 3.17817883792028E-02 
914	 0.031799572719991 
915	 3.17592360569152E-02 
916	 3.18126856827947E-02 
917	 3.18079078784564E-02 
918	 3.18160510872977E-02 
919	 3.18779121761881E-02 
920	 3.18978093890039E-02 
921	 3.18769941124075E-02 
922	 3.18651908109698E-02 
923	 3.18899788446104E-02 
924	 3.18857224966569E-02 
925	 3.18976627877632E-02 
926	 3.19111919096714E-02 
927	 0.031910369689362 
928	 3.19406745179724E-02 
929	 0.031972944522322 
930	 3.19882677493781E-02 
931	 0.031980000823428 
932	 3.19667746099887E-02 
933	 3.19667846737802E-02 
934	 3.20041399217407E-02 
935	 3.20772054735206E-02 
936	 3.20478430232342E-02 
937	 3.20252736486774E-02 
938	 3.20227193809266E-02 
939	 3.19952155576861E-02 
940	 3.20577219503102E-02 
941	 3.21217647342822E-02 
942	 3.21475610201732E-02 
943	 3.21600560032507E-02 
944	 0.032211532301685 
945	 3.22200855618826E-02 
946	 3.21880775389448E-02 
947	 3.22116554411953E-02 
948	 3.22237469913414E-02 
949	 3.22499566101856E-02 
950	 3.22713961842051E-02 
951	 3.22120907929066E-02 
952	 3.22105518653035E-02 
953	 3.22540879695023E-02 
954	 0.032302162898792 
955	 3.23197891980263E-02 
956	 3.23032622333309E-02 
957	 3.22918760892246E-02 
958	 3.23111873251482E-02 
959	 3.23453901245952E-02 
960	 3.23693612516127E-02 
961	 3.23781621547474E-02 
962	 3.23868887005294E-02 
963	 3.24364635666239E-02 
964	 3.23879526218328E-02 
965	 3.23704744060733E-02 
966	 3.24672617557486E-02 
967	 3.25014642488688E-02 
968	 3.24872659693499E-02 
969	 3.24823016513432E-02 
970	 3.25134710905637E-02 
971	 3.24882468544204E-02 
972	 3.25014758308802E-02 
973	 3.25232215077374E-02 
974	 3.25243848968642E-02 
975	 3.25952783890294E-02 
976	 3.25703420538531E-02 
977	 0.03254826536839 
978	 3.26098915334123E-02 
979	 3.24935530684664E-02 
980	 3.25787757414254E-02 
981	 3.27042955690451E-02 
982	 3.26439381600111E-02 
983	 3.25827557355609E-02 
984	 3.26133397664205E-02 
985	 3.26950206012669E-02 
986	 3.27568544064353E-02 
987	 3.28347663400788E-02 
988	 3.28302406639197E-02 
989	 3.27996891949998E-02 
990	 3.28104863711563E-02 
991	 3.27600463133414E-02 
992	 3.26964210939853E-02 
993	 3.26875258288375E-02 
994	 3.27695209190543E-02 
995	 3.28689644268538E-02 
996	 3.28669423001181E-02 
997	 3.28130633097956E-02 
998	 3.28116767219452E-02 
999	 0.032906511900544 
1000	 3.30024243208854E-02 
1001	 3.32543840725343E-02 
1002	 3.32928247116818E-02 
1003	 3.32896638455322E-02 
1004	 3.32900657207885E-02 
1005	 3.32847955723532E-02 
1006	 3.32976027398479E-02 
1007	 3.33077669976053E-02 
1008	 3.33303577575378E-02 
1009	 3.33833063597117E-02 
1010	 3.34098457906084E-02 
1011	 3.34174176854219E-02 
1012	 3.34264443724639E-02 
1013	 0.033419791753857 
1014	 3.34336260363246E-02 
1015	 3.34579121984994E-02 
1016	 0.033494776168986 
1017	 3.34868162618015E-02 
1018	 3.35130645554664E-02 
1019	 3.35316618881877E-02 
1020	 3.35356419201773E-02 
1021	 0.033556194565247 
1022	 3.36142734271206E-02 
1023	 3.36258892341959E-02 
1024	 3.36064118832921E-02 
1025	 3.36100688466162E-02 
1026	 0.033601716046765 
1027	 3.36116033536296E-02 
1028	 3.36394815092344E-02 
1029	 3.36660108598227E-02 
1030	 3.37024555568273E-02 
1031	 3.37255237687781E-02 
1032	 3.37154890477374E-02 
1033	 3.37189114279878E-02 
1034	 3.36925814743069E-02 
1035	 0.033658263396855 
1036	 3.36671549135688E-02 
1037	 3.37193470833116E-02 
1038	 3.37278710763367E-02 
1039	 3.37383461369718E-02 
1040	 3.37547358089098E-02 
1041	 3.37402186999449E-02 
1042	 3.37518206158602E-02 
1043	 3.37918312289812E-02 
1044	 3.38310576523354E-02 
1045	 3.38451541193693E-02 
1046	 3.38383039035655E-02 
1047	 3.38197318235049E-02 
1048	 3.38105831459944E-02 
1049	 3.38113608029788E-02 
1050	 3.38309939443461E-02 
1051	 0.033866483714177 
1052	 3.38873562742461E-02 
1053	 0.033903436041813 
1054	 0.03391164051531 
1055	 0.03392750297012 
1056	 3.39349315482615E-02 
1057	 3.39505560840781E-02 
1058	 0.033968800239522 
1059	 3.40132432656633E-02 
1060	 3.40494239011728E-02 
1061	 3.40785300176053E-02 
1062	 3.41003087485303E-02 
1063	 3.40980533837347E-02 
1064	 3.40934621679279E-02 
1065	 3.41056705225946E-02 
1066	 3.41437112668747E-02 
1067	 3.42007821405045E-02 
1068	 3.42280709055746E-02 
1069	 3.42301566757099E-02 
1070	 3.42488333607297E-02 
1071	 3.42627387911247E-02 
1072	 3.42734722614307E-02 
1073	 0.034309352405008 
1074	 3.43588289969738E-02 
1075	 3.43759507691116E-02 
1076	 3.43928320306088E-02 
1077	 3.44058071179309E-02 
1078	 3.44043326940738E-02 
1079	 3.44255830131564E-02 
1080	 3.44362230281664E-02 
1081	 3.44311951771312E-02 
1082	 3.44489322137058E-02 
1083	 3.44783028441742E-02 
1084	 3.45144902359685E-02 
1085	 3.45546431973777E-02 
1086	 0.034586144905776 
1087	 3.46168175005531E-02 
1088	 3.46416506742278E-02 
1089	 3.46510753475632E-02 
1090	 0.034670756856819 
1091	 3.46961888813875E-02 
1092	 3.47096129712781E-02 
1093	 3.47297570426689E-02 
1094	 3.47356313159562E-02 
1095	 3.47511359925369E-02 
1096	 3.47873992016394E-02 
1097	 3.48110772591825E-02 
1098	 3.48228453155122E-02 
1099	 3.48391890955107E-02 
1100	 0.034855479739842 
1101	 3.48540381250291E-02 
1102	 3.48688134041047E-02 
1103	 3.48858122761857E-02 
1104	 3.49052585748228E-02 
1105	 3.48980410793858E-02 
1106	 3.49196810711754E-02 
1107	 3.49592036858633E-02 
1108	 3.49814092648777E-02 
1109	 3.50077583954172E-02 
1110	 3.50299646922861E-02 
1111	 3.50367697525841E-02 
1112	 3.50479900715608E-02 
1113	 3.50719665590524E-02 
1114	 3.51048287333094E-02 
1115	 3.51328770313316E-02 
1116	 3.51479421028041E-02 
1117	 3.51473695716711E-02 
1118	 3.51543898967421E-02 
1119	 3.51526128875707E-02 
1120	 3.51650972021249E-02 
1121	 3.51866462980205E-02 
1122	 3.52074018012025E-02 
1123	 3.52331222131729E-02 
1124	 3.52478415296471E-02 
1125	 3.52562642755836E-02 
1126	 3.52772353185265E-02 
1127	 3.52864362194914E-02 
1128	 3.52921589632103E-02 
1129	 3.53012204212146E-02 
1130	 3.53048469658438E-02 
1131	 3.53180852237921E-02 
1132	 3.53246824384595E-02 
1133	 3.53407280468155E-02 
1134	 3.53649326281669E-02 
1135	 3.53800220624276E-02 
1136	 3.53975953627651E-02 
1137	 3.54139485553998E-02 
1138	 3.54143523735113E-02 
1139	 3.54262127934154E-02 
1140	 3.54485548740926E-02 
1141	 0.035466770042082 
1142	 3.54714901631553E-02 
1143	 3.54834525151025E-02 
1144	 3.54944029085537E-02 
1145	 3.54971781988437E-02 
1146	 3.55028988125375E-02 
1147	 3.55148459463929E-02 
1148	 3.55171325038296E-02 
1149	 3.55205464418979E-02 
1150	 3.55376247194249E-02 
1151	 3.55537590502168E-02 
1152	 3.55634769212951E-02 
1153	 0.035573232657014 
1154	 3.55816719461286E-02 
1155	 3.55775218389156E-02 
1156	 3.55838878056526E-02 
1157	 3.56011380169416E-02 
1158	 3.56113038305491E-02 
1159	 3.56143140613935E-02 
1160	 3.56357228782326E-02 
1161	 3.56425747042537E-02 
1162	 3.56426325027668E-02 
1163	 3.56600957189935E-02 
1164	 3.56687857078423E-02 
1165	 3.56837246640275E-02 
1166	 3.57070474756934E-02 
1167	 3.57288869111244E-02 
1168	 3.57406251973221E-02 
1169	 3.57444060649997E-02 
1170	 3.57363262870116E-02 
1171	 3.57442001146755E-02 
1172	 3.57473203081812E-02 
1173	 3.57594700533955E-02 
1174	 3.57910140085398E-02 
1175	 0.035805117407042 
1176	 3.58127430870506E-02 
1177	 3.58187789901185E-02 
1178	 3.58133939430332E-02 
1179	 3.58240449038006E-02 
1180	 0.03583000009319 
1181	 3.58306069848728E-02 
1182	 3.58449649036982E-02 
1183	 3.58603333937573E-02 
1184	 3.58722977250787E-02 
1185	 3.58918718296929E-02 
1186	 3.59052798469961E-02 
1187	 3.59101342129425E-02 
1188	 3.59188247951505E-02 
1189	 3.59345125510337E-02 
1190	 3.59407496641896E-02 
1191	 3.59355959214233E-02 
1192	 0.035949191475992 
1193	 3.59620241406228E-02 
1194	 3.59817390067321E-02 
1195	 3.60281003209536E-02 
1196	 3.60500046393994E-02 
1197	 3.60583765119244E-02 
1198	 0.036073335299125 
1199	 3.60825261560387E-02 
1200	 3.60954377779831E-02 
1201	 3.61228701336611E-02 
1202	 3.61551334933577E-02 
1203	 0.036174561956691 
1204	 3.61915023463911E-02 
1205	 3.62118600555356E-02 
1206	 3.62314046912598E-02 
1207	 3.62449322896774E-02 
1208	 3.62559969315735E-02 
1209	 3.62751281276133E-02 
1210	 0.036283212436533 
1211	 3.63112596923052E-02 
1212	 3.63645544684759E-02 
1213	 3.64004493918811E-02 
1214	 3.64359862105126E-02 
1215	 3.64716826808389E-02 
1216	 3.65000780981318E-02 
1217	 3.65299834742294E-02 
1218	 3.65554903331684E-02 
1219	 3.65976865126519E-02 
1220	 3.66307192386311E-02 
1221	 3.66667451788503E-02 
1222	 3.67166692104583E-02 
1223	 3.67540457328208E-02 
1224	 3.67934130980029E-02 
1225	 3.68332409432641E-02 
1226	 3.68718193394262E-02 
1227	 0.036907536668214 
1228	 3.69425551859273E-02 
1229	 3.69808891456825E-02 
1230	 3.70112761295135E-02 
1231	 3.70305683318545E-02 
1232	 3.70608281372239E-02 
1233	 3.70934122474655E-02 
1234	 3.71229713416839E-02 
1235	 3.71516629152294E-02 
1236	 3.71883685775708E-02 
1237	 0.037233466841578 
1238	 3.72697622129065E-02 
1239	 3.73096681512004E-02 
1240	 3.73468906624296E-02 
1241	 3.73824021208726E-02 
1242	 3.73964592351459E-02 
1243	 3.74130387072491E-02 
1244	 0.037423045105175 
1245	 3.74464250174884E-02 
1246	 3.74642048247247E-02 
1247	 3.74947348130294E-02 
1248	 3.75477571294495E-02 
1249	 3.75815715751814E-02 
1250	 3.76141184699606E-02 
1251	 3.76353567350073E-02 
1252	 3.76380967710071E-02 
1253	 3.76576417735486E-02 
1254	 3.76744005791575E-02 
1255	 3.76988130867315E-02 
1256	 3.77460679348028E-02 
1257	 3.77743846907982E-02 
1258	 0.037791032057066 
1259	 3.78127985071061E-02 
1260	 3.78309504674618E-02 
1261	 3.78467896764259E-02 
1262	 3.78566726524322E-02 
1263	 0.037880671146251 
1264	 3.79003227827108E-02 
1265	 3.79145848830076E-02 
1266	 0.037935143159398 
1267	 3.79633646245736E-02 
1268	 3.79895671306346E-02 
1269	 3.80188946246646E-02 
1270	 3.80398730337752E-02 
1271	 3.80540252236585E-02 
1272	 3.80777605736298E-02 
1273	 3.81008671259661E-02 
1274	 3.81244101234177E-02 
1275	 3.81573735048128E-02 
1276	 0.038185301569954 
1277	 3.82066963943763E-02 
1278	 3.82296858307527E-02 
1279	 3.82542617661368E-02 
1280	 3.82800679415844E-02 
1281	 3.82982801604686E-02 
1282	 0.03832705632708 
1283	 3.83723880739306E-02 
1284	 3.84052668367743E-02 
1285	 3.84353309328533E-02 
1286	 3.84654872751441E-02 
1287	 3.84964137788513E-02 
1288	 3.85175323730508E-02 
1289	 3.85507266506807E-02 
1290	 3.85954230452166E-02 
1291	 0.038630637571016 
1292	 3.86615936380245E-02 
1293	 3.86980703713749E-02 
1294	 3.87401738008684E-02 
1295	 3.87707142047052E-02 
1296	 3.87958922759181E-02 
1297	 3.88266162912782E-02 
1298	 3.88534917039263E-02 
1299	 3.88786884989401E-02 
1300	 3.89049680093487E-02 
1301	 3.89362700023358E-02 
1302	 3.89665267979439E-02 
1303	 3.89949386260132E-02 
1304	 0.039032359891277 
1305	 3.90636439608031E-02 
1306	 3.90845299174496E-02 
1307	 3.91090235085047E-02 
1308	 3.91325699315493E-02 
1309	 3.91611657806032E-02 
1310	 3.91885322879733E-02 
1311	 3.92172226193293E-02 
1312	 3.92424107427264E-02 
1313	 3.92655337053853E-02 
1314	 3.92938764149729E-02 
1315	 3.93218215094362E-02 
1316	 3.93511218235255E-02 
1317	 3.93911646062965E-02 
1318	 3.94147850364468E-02 
1319	 3.94235851849326E-02 
1320	 0.039447456198212 
1321	 3.94725743852212E-02 
1322	 3.94957720847958E-02 
1323	 3.95292839472065E-02 
1324	 3.95544499946588E-02 
1325	 3.95682768820526E-02 
1326	 3.95885410419766E-02 
1327	 3.96128270119397E-02 
1328	 3.96344824163502E-02 
1329	 3.96563714683733E-02 
1330	 3.96767054917513E-02 
1331	 3.96897498369854E-02 
1332	 3.97118075707225E-02 
1333	 3.97410451427795E-02 
1334	 3.97678732255308E-02 
1335	 3.97897183425146E-02 
1336	 3.98171239666461E-02 
1337	 3.98320414627851E-02 
1338	 3.98338170283602E-02 
1339	 3.98437647057701E-02 
1340	 3.98497770273404E-02 
1341	 0.039865687728175 
1342	 3.98875340009347E-02 
1343	 3.99075081035629E-02 
1344	 0.039936815811633 
1345	 0.039953578357263 
1346	 3.99632040320349E-02 
1347	 3.99742797780043E-02 
1348	 3.99771559997514E-02 
1349	 3.99887465044913E-02 
1350	 4.00068362935411E-02 
1351	 4.00196172978972E-02 
1352	 4.00290759408095E-02 
1353	 4.00462780539407E-02 
1354	 4.00683345695185E-02 
1355	 4.00847464207803E-02 
1356	 0.040109048011746 
1357	 4.01242146149308E-02 
1358	 4.01279784157583E-02 
1359	 4.01335536114749E-02 
1360	 4.01384663388962E-02 
1361	 4.01383898452652E-02 
1362	 4.01424815627009E-02 
1363	 4.01502864174845E-02 
1364	 0.040161161752854 
1365	 4.01772554441773E-02 
1366	 4.01912788149283E-02 
1367	 4.02097230361392E-02 
1368	 4.02182057844043E-02 
1369	 4.02205574277013E-02 
1370	 4.02305130266744E-02 
1371	 4.02380557730128E-02 
1372	 4.02467625860309E-02 
1373	 4.02636437502817E-02 
1374	 4.02724029485664E-02 
1375	 4.02769239088557E-02 
1376	 4.02786383202589E-02 
1377	 4.02799158344024E-02 
1378	 4.02753740293069E-02 
1379	 4.02595805200661E-02 
1380	 4.02529303530796E-02 
1381	 4.02440555361202E-02 
1382	 4.02416277963821E-02 
1383	 4.02469471447274E-02 
1384	 4.02517614151823E-02 
1385	 4.02649637434502E-02 
1386	 4.02692199871906E-02 
1387	 4.02709462480945E-02 
1388	 4.02705402737521E-02 
1389	 4.02579857933602E-02 
1390	 4.02533429171814E-02 
1391	 4.02500694526067E-02 
1392	 4.02538277703805E-02 
1393	 4.02501389488687E-02 
1394	 0.040256578732581 
1395	 4.02596908830309E-02 
1396	 4.02623918608703E-02 
1397	 4.02607794679121E-02 
1398	 4.02620745648852E-02 
1399	 4.02568991951359E-02 
1400	 4.02450183616189E-02 
1401	 4.02331618021906E-02 
1402	 4.02191120040171E-02 
1403	 4.02052094923738E-02 
1404	 4.01889928585577E-02 
1405	 0.040172914617141 
1406	 0.040158815002905 
1407	 4.01395580714576E-02 
1408	 0.040118028101731 
1409	 4.00937118391441E-02 
1410	 4.00580127899099E-02 
1411	 4.00373700264272E-02 
1412	 4.00180329638026E-02 
1413	 4.00068904751647E-02 
1414	 4.00100226685323E-02 
1415	 4.00116372614426E-02 
1416	 4.00141657519561E-02 
1417	 4.00211151966293E-02 
1418	 4.00364985227244E-02 
1419	 4.00457833337827E-02 
1420	 4.00535676521058E-02 
1421	 4.00645503259539E-02 
1422	 4.00765735506354E-02 
1423	 4.00853686413026E-02 
1424	 4.00943681054502E-02 
1425	 4.01032992546574E-02 
1426	 4.01137091829055E-02 
1427	 4.01236724106415E-02 
1428	 4.01404591153779E-02 
1429	 4.01566874852184E-02 
1430	 4.01702812133971E-02 
1431	 4.01816565496564E-02 
1432	 4.01923585096273E-02 
1433	 4.01977768504291E-02 
1434	 4.02155557224283E-02 
1435	 0.040238597922781 
1436	 4.02571986910402E-02 
1437	 4.02795708029037E-02 
1438	 4.03069971027931E-02 
1439	 0.040330787360773 
1440	 4.03607337857744E-02 
1441	 4.04052326671378E-02 
1442	 4.04374535289261E-02 
1443	 4.04625021426036E-02 
1444	 4.04930598369116E-02 
1445	 4.05232746564933E-02 
1446	 4.05542597011975E-02 
1447	 4.05907029290651E-02 
1448	 4.06191959324799E-02 
1449	 4.06417754612082E-02 
1450	 4.06678763293134E-02 
1451	 4.06868565335034E-02 
1452	 4.07163587525426E-02 
1453	 4.07552944378776E-02 
1454	 4.07908134882813E-02 
1455	 4.08340126571325E-02 
1456	 4.08689107982958E-02 
1457	 4.08939925387277E-02 
1458	 0.04092600112561 
1459	 4.09617648238911E-02 
1460	 4.09929425648292E-02 
1461	 4.10233795446625E-02 
1462	 4.10554735765935E-02 
1463	 4.10836709661373E-02 
1464	 4.11119632081039E-02 
1465	 4.11360451341179E-02 
1466	 4.11757578963287E-02 
1467	 4.12116028499835E-02 
1468	 4.12431494211883E-02 
1469	 4.12777313998524E-02 
1470	 0.041317697665765 
1471	 4.13521995940423E-02 
1472	 4.13830215286562E-02 
1473	 4.14163690504438E-02 
1474	 4.14501329204298E-02 
1475	 0.041482293922025 
1476	 4.15151990703176E-02 
1477	 4.15446878193917E-02 
1478	 4.15723465078105E-02 
1479	 4.15981413082492E-02 
1480	 4.16182848542741E-02 
1481	 4.16474782430056E-02 
1482	 4.16806199839677E-02 
1483	 4.17101752800117E-02 
1484	 4.17434901970228E-02 
1485	 4.17733123096823E-02 
1486	 0.041794749689589 
1487	 0.041826838707532 
1488	 4.18714145783672E-02 
1489	 0.041900126871215 
1490	 4.19210407752233E-02 
1491	 4.19504905824256E-02 
1492	 4.19711741375278E-02 
1493	 4.20025250641797E-02 
1494	 4.20540193014144E-02 
1495	 4.20884786229042E-02 
1496	 0.042114976869906 
1497	 4.21434919786148E-02 
1498	 4.21628579080567E-02 
1499	 4.21907572074308E-02 
1500	 4.22246110545053E-02 
1501	 4.22576045534903E-02 
1502	 4.22966284926181E-02 
1503	 4.23292289983317E-02 
1504	 4.23551396147726E-02 
1505	 4.23869077197817E-02 
1506	 4.24143417856887E-02 
1507	 4.24500614096931E-02 
1508	 4.24995537220481E-02 
1509	 4.25405934112572E-02 
1510	 4.25863957236666E-02 
1511	 4.26224089177742E-02 
1512	 4.26367471422397E-02 
1513	 4.26702403370434E-02 
1514	 4.27171735034294E-02 
1515	 4.27530378843607E-02 
1516	 4.27981222580443E-02 
1517	 4.28359640642324E-02 
1518	 4.28513549197109E-02 
1519	 4.28787040074552E-02 
1520	 4.29143259847917E-02 
1521	 4.29483638861325E-02 
1522	 4.29860360070558E-02 
1523	 4.30299703302548E-02 
1524	 4.30700432533976E-02 
1525	 4.31109247339173E-02 
1526	 4.31497841932326E-02 
1527	 4.31888781719313E-02 
1528	 4.32232269038931E-02 
1529	 4.32533519694477E-02 
1530	 4.32877515727964E-02 
1531	 4.33200945305404E-02 
1532	 4.33560120594665E-02 
1533	 4.33972141959488E-02 
1534	 4.34332054342301E-02 
1535	 4.34668131901252E-02 
1536	 4.35022317512547E-02 
1537	 0.043537655125047 
1538	 4.35719044635684E-02 
1539	 4.36049475646224E-02 
1540	 4.36420234650969E-02 
1541	 4.36776095451857E-02 
1542	 4.37189294446243E-02 
1543	 4.37704424666003E-02 
1544	 4.38093721543222E-02 
1545	 4.38434796146898E-02 
1546	 4.38814611671254E-02 
1547	 4.39152053058613E-02 
1548	 4.39504694296896E-02 
1549	 4.39930856119139E-02 
1550	 4.40258135211993E-02 
1551	 4.40505012967558E-02 
1552	 4.40781680767932E-02 
1553	 4.40970001791694E-02 
1554	 0.044132607521056 
1555	 4.41839974177932E-02 
1556	 0.044217201468363 
1557	 4.42543693941715E-02 
1558	 4.42821876256532E-02 
1559	 4.42810813283545E-02 
1560	 4.43113822114023E-02 
1561	 0.04436397719272 
1562	 4.43992298478185E-02 
1563	 4.44400473720114E-02 
1564	 4.44758667604259E-02 
1565	 4.44924922022982E-02 
1566	 4.45271641062615E-02 
1567	 4.45813142104187E-02 
1568	 4.46176081531964E-02 
1569	 4.46471490008516E-02 
1570	 4.46822951048564E-02 
1571	 4.47120628877934E-02 
1572	 4.47428839073938E-02 
1573	 4.47806366388578E-02 
1574	 4.48144086477662E-02 
1575	 4.48398164480175E-02 
1576	 4.48715608576082E-02 
1577	 4.49081706679366E-02 
1578	 4.49438587554969E-02 
1579	 0.044977426145625 
1580	 4.50167438461456E-02 
1581	 4.50680430322993E-02 
1582	 4.51037119940077E-02 
1583	 4.51335304278381E-02 
1584	 4.51645844294051E-02 
1585	 0.045181371100448 
1586	 4.52090630295984E-02 
1587	 4.52436283616101E-02 
1588	 4.52806582591653E-02 
1589	 4.53265683988755E-02 
1590	 4.53632774438207E-02 
1591	 4.53955777526691E-02 
1592	 4.54338476229704E-02 
1593	 4.54652751398487E-02 
1594	 4.55057214272544E-02 
1595	 4.55712279100787E-02 
1596	 4.56095127009686E-02 
1597	 4.56282116825633E-02 
1598	 4.56591094953853E-02 
1599	 4.56760675647186E-02 
1600	 4.57048904834879E-02 
1601	 4.57532642994656E-02 
1602	 4.57937304825724E-02 
1603	 4.58337704029427E-02 
1604	 4.58698586904704E-02 
1605	 4.59008038663198E-02 
1606	 4.59362347815472E-02 
1607	 4.59722064162154E-02 
1608	 4.60062629444379E-02 
1609	 4.60422009935074E-02 
1610	 4.60781707145079E-02 
1611	 4.61101781006427E-02 
1612	 4.61435436552442E-02 
1613	 4.61795882548906E-02 
1614	 4.62164749721727E-02 
1615	 4.62615390971717E-02 
1616	 0.04629116388677 
1617	 4.63072964553484E-02 
1618	 4.63335310881125E-02 
1619	 4.63517832613158E-02 
1620	 0.04637609263172 
1621	 4.64118265205178E-02 
1622	 4.64475358246449E-02 
1623	 4.64872019839054E-02 
1624	 4.65195042167074E-02 
1625	 4.65541099063055E-02 
1626	 0.046583063208559 
1627	 4.65915251969023E-02 
1628	 4.66179519326178E-02 
1629	 4.66642166743202E-02 
1630	 4.66947279020986E-02 
1631	 4.67256104606422E-02 
1632	 4.67527569695474E-02 
1633	 4.67555352451726E-02 
1634	 4.67791025730528E-02 
1635	 4.68228553203915E-02 
1636	 4.68544158214102E-02 
1637	 4.68891165363925E-02 
1638	 4.69227253159208E-02 
1639	 4.69501298517476E-02 
1640	 4.69755370994154E-02 
1641	 4.70084967017475E-02 
1642	 4.70274856010646E-02 
1643	 4.70234089237936E-02 
1644	 4.70384995776091E-02 
1645	 4.70531593146359E-02 
1646	 4.70784416933081E-02 
1647	 4.71302246669306E-02 
1648	 4.71600770833644E-02 
1649	 4.71796977582669E-02 
1650	 4.72039839123743E-02 
1651	 4.72207267763425E-02 
1652	 4.72401867417122E-02 
1653	 4.72708497872586E-02 
1654	 4.72912225622901E-02 
1655	 4.73032437933365E-02 
1656	 0.047312099025582 
1657	 4.73136320766203E-02 
1658	 4.73168810804576E-02 
1659	 4.73099187779389E-02 
1660	 4.73183922077889E-02 
1661	 4.73519654319968E-02 
1662	 4.73552143014693E-02 
1663	 4.73535337459972E-02 
1664	 4.73434053079884E-02 
1665	 4.72977223031098E-02 
1666	 4.72740851740274E-02 
1667	 4.72690581107404E-02 
1668	 4.72460800341286E-02 
1669	 4.72169731786667E-02 
1670	 4.71925841126225E-02 
1671	 4.71648452892056E-02 
1672	 4.71296833270686E-02 
1673	 4.70969548866969E-02 
1674	 4.70575397051425E-02 
1675	 4.70071344017842E-02 
1676	 4.69558603936554E-02 
1677	 4.69003059641232E-02 
1678	 4.68468985075894E-02 
1679	 4.67941704047612E-02 
1680	 4.67327369028328E-02 
1681	 4.66722715794797E-02 
1682	 4.66051657782093E-02 
1683	 4.65258941844534E-02 
1684	 4.64455623869527E-02 
1685	 4.63614264196398E-02 
1686	 4.62812015935637E-02 
1687	 4.61948352355684E-02 
1688	 4.61126973854566E-02 
1689	 4.60387035950867E-02 
1690	 4.59602019889355E-02 
1691	 4.58795627529868E-02 
1692	 4.58022030027847E-02 
1693	 4.57289268739533E-02 
1694	 4.56448846688619E-02 
1695	 0.045556742665803 
1696	 4.54631243074902E-02 
1697	 4.53600053879381E-02 
1698	 4.52654055860959E-02 
1699	 4.51698999336152E-02 
1700	 4.50791950610358E-02 
1701	 0.04499606512619 
1702	 4.49020628540525E-02 
1703	 4.47991074866775E-02 
1704	 4.47148250984977E-02 
1705	 4.46325611101632E-02 
1706	 4.45520823174249E-02 
1707	 4.44960569413089E-02 
1708	 4.44296322975515E-02 
1709	 4.43590944166907E-02 
1710	 4.43137496469628E-02 
1711	 4.42532684478105E-02 
1712	 4.41954399880185E-02 
1713	 4.41502527914721E-02 
1714	 4.40860066588979E-02 
1715	 4.40317835958801E-02 
1716	 0.043998531376448 
1717	 4.39611180119235E-02 
1718	 4.39393020497085E-02 
1719	 4.39284950232944E-02 
1720	 0.043898525755648 
1721	 4.38753139755193E-02 
1722	 4.38564033511685E-02 
1723	 4.38549098508358E-02 
1724	 4.38869998098452E-02 
1725	 4.38974482156941E-02 
1726	 4.39250953150718E-02 
1727	 4.39747968769903E-02 
1728	 4.40094101070764E-02 
1729	 4.40991816302119E-02 
1730	 4.42102780877848E-02 
1731	 4.43010091751133E-02 
1732	 4.44255668535832E-02 
1733	 4.45636656953759E-02 
1734	 4.46872982158666E-02 
1735	 4.48186597428493E-02 
1736	 4.49443478856876E-02 
1737	 0.045035853484893 
1738	 4.51281877802136E-02 
1739	 4.52067790434083E-02 
1740	 4.52599040736197E-02 
1741	 0.045317112617373 
1742	 4.53774359886595E-02 
1743	 4.54204369179559E-02 
1744	 0.045451579570473 
1745	 4.54845852688028E-02 
1746	 4.54964055901864E-02 
1747	 4.55123635072637E-02 
1748	 4.55380304744666E-02 
1749	 4.55512688057877E-02 
1750	 4.55617206616447E-02 
1751	 0.04556672383258 
1752	 4.55502016236289E-02 
1753	 4.55591825958348E-02 
1754	 4.55678867763282E-02 
1755	 0.045598114378406 
1756	 0.045662909464128 
1757	 4.56997590156669E-02 
1758	 4.57392844219177E-02 
1759	 4.57909935964762E-02 
1760	 4.58474043784467E-02 
1761	 4.59143144263573E-02 
1762	 4.59999252734159E-02 
1763	 4.60977283777214E-02 
1764	 4.61832708327415E-02 
1765	 4.62948048740544E-02 
1766	 4.64300421678018E-02 
1767	 4.65505723938594E-02 
1768	 4.66791548222074E-02 
1769	 4.68007100619012E-02 
1770	 4.69096239750608E-02 
1771	 4.70079783057843E-02 
1772	 4.70933383941751E-02 
1773	 4.71935929374233E-02 
1774	 0.047289696387409 
1775	 4.73778592878486E-02 
1776	 4.74836407625628E-02 
1777	 4.75690296164124E-02 
1778	 4.76341885483548E-02 
1779	 4.77039673918901E-02 
1780	 4.77664508290076E-02 
1781	 4.78417691115285E-02 
1782	 4.79059127253077E-02 
1783	 4.79560147529771E-02 
1784	 4.80283599557025E-02 
1785	 4.80851428347188E-02 
1786	 4.81290715232285E-02 
1787	 4.81616949875797E-02 
1788	 4.82043149312442E-02 
1789	 4.82417746835269E-02 
1790	 4.82830290062245E-02 
1791	 4.83445536527906E-02 
1792	 4.83883905423864E-02 
1793	 4.84077885113719E-02 
1794	 4.84323172101111E-02 
1795	 4.84765524647042E-02 
1796	 4.85310148912078E-02 
1797	 4.85921609700587E-02 
1798	 4.86639958010865E-02 
1799	 4.87047766377845E-02 
1800	 4.87095310894425E-02 
1801	 4.93025375713973E-02 
1802	 4.93514424265069E-02 
1803	 4.93937581252875E-02 
1804	 4.94230410794826E-02 
1805	 4.94619488186327E-02 
1806	 4.95068351483682E-02 
1807	 4.95579420312959E-02 
1808	 4.96012266253952E-02 
1809	 4.96448104256411E-02 
1810	 4.96940252334118E-02 
1811	 4.97463170288615E-02 
1812	 4.97907615441488E-02 
1813	 4.98335890965438E-02 
1814	 4.98842645268688E-02 
1815	 4.99252667740524E-02 
1816	 4.99734845108221E-02 
1817	 5.00203264290893E-02 
1818	 5.00704934910827E-02 
1819	 5.01232126463992E-02 
1820	 5.01858028611775E-02 
1821	 5.02301867602177E-02 
1822	 5.02661725651712E-02 
1823	 5.03152558078262E-02 
1824	 5.03420499023136E-02 
1825	 5.03624073695327E-02 
1826	 5.04023195135178E-02 
1827	 5.04556408139485E-02 
1828	 5.05048739645269E-02 
1829	 5.05632263172472E-02 
1830	 0.050612979761278 
1831	 5.06609820699375E-02 
1832	 5.07064503916643E-02 
1833	 5.07494233753915E-02 
1834	 0.050802248176283 
1835	 5.08529224148531E-02 
1836	 5.09017321585684E-02 
1837	 5.09513607870358E-02 
1838	 5.10001313364033E-02 
1839	 5.10474705274173E-02 
1840	 5.10913020658722E-02 
1841	 5.11413759907024E-02 
1842	 5.11895583673553E-02 
1843	 5.12458436955046E-02 
1844	 0.051312365418877 
1845	 5.13781760454346E-02 
1846	 5.14338885157134E-02 
1847	 5.14802805778647E-02 
1848	 5.15247432644801E-02 
1849	 5.15568902009143E-02 
1850	 5.15947709273862E-02 
1851	 5.16296357657586E-02 
1852	 5.16729914315464E-02 
1853	 0.051728096834136 
1854	 5.17650916735335E-02 
1855	 5.18005869226897E-02 
1856	 5.18424732165656E-02 
1857	 0.051866002713019 
1858	 5.18926500413531E-02 
1859	 5.19188422693132E-02 
1860	 5.19481746301884E-02 
1861	 0.051972320914096 
1862	 5.19956611801294E-02 
1863	 5.20090288687558E-02 
1864	 0.052026633187625 
1865	 5.20389723809236E-02 
1866	 5.20317049084328E-02 
1867	 5.20330207548612E-02 
1868	 5.20327114374123E-02 
1869	 5.20197703232446E-02 
1870	 5.20127173580013E-02 
1871	 5.20181707202757E-02 
1872	 5.20043208211427E-02 
1873	 5.19788595997913E-02 
1874	 5.19590164080245E-02 
1875	 5.19373907517481E-02 
1876	 5.18913465771098E-02 
1877	 5.18610480654312E-02 
1878	 5.18239862225764E-02 
1879	 0.051762561678111 
1880	 5.17100975312847E-02 
1881	 0.051643706670048 
1882	 5.15645737620126E-02 
1883	 5.14783313892855E-02 
1884	 5.14020266379665E-02 
1885	 5.13150976928596E-02 
1886	 5.12144918376217E-02 
1887	 5.10978691024088E-02 
1888	 5.09511454823066E-02 
1889	 5.07878064164504E-02 
1890	 5.06298699483261E-02 
1891	 5.04815674576723E-02 
1892	 5.03305780944765E-02 
1893	 5.01706745731205E-02 
1894	 5.00090410004709E-02 
1895	 4.98388948933844E-02 
1896	 4.96494755566674E-02 
1897	 4.94674361263348E-02 
1898	 4.93048999621552E-02 
1899	 0.049135356968468 
1900	 4.89764339731337E-02 
1901	 4.88263281048006E-02 
1902	 4.86655903360242E-02 
1903	 4.85137901759016E-02 
1904	 4.83636777146783E-02 
1905	 4.82181115168401E-02 
1906	 4.80691076183006E-02 
1907	 4.79291128430537E-02 
1908	 4.77948192904358E-02 
1909	 4.76663283235139E-02 
1910	 0.047554514647408 
1911	 4.74459835967374E-02 
1912	 4.73418534118686E-02 
1913	 4.72453184422578E-02 
1914	 4.71480512819819E-02 
1915	 0.047059694292114 
1916	 4.69800149551919E-02 
1917	 4.69013094131702E-02 
1918	 4.68191018428644E-02 
1919	 4.67378764774634E-02 
1920	 4.66567851144939E-02 
1921	 4.65797847632889E-02 
1922	 4.65069073776926E-02 
1923	 0.046449242488472 
1924	 4.63960150352085E-02 
1925	 4.63431131212654E-02 
1926	 4.63013809696027E-02 
1927	 4.62756502613094E-02 
1928	 4.62423342495624E-02 
1929	 4.62102492523961E-02 
1930	 4.61852801762958E-02 
1931	 4.61551684118892E-02 
1932	 0.046123150425404 
1933	 0.046109055873314 
1934	 4.61094847538693E-02 
1935	 0.046113374710347 
1936	 4.61239041055363E-02 
1937	 4.61347995624445E-02 
1938	 4.61422419756263E-02 
1939	 4.61596958213433E-02 
1940	 4.61789212747406E-02 
1941	 0.046214961775675 
1942	 4.62607100237064E-02 
1943	 4.63047573067454E-02 
1944	 0.046349327105835 
1945	 4.64001675764613E-02 
1946	 4.64484019016623E-02 
1947	 4.64954035827094E-02 
1948	 4.65562128603281E-02 
1949	 4.66128297903968E-02 
1950	 4.66681686599297E-02 
1951	 4.67229878639767E-02 
1952	 4.67841480385823E-02 
1953	 4.68451040560699E-02 
1954	 4.69061801636229E-02 
1955	 0.046978345484537 
1956	 0.047053076213454 
1957	 0.047125058886211 
1958	 4.71908953724854E-02 
1959	 4.72560541987953E-02 
1960	 4.73277350236126E-02 
1961	 4.74015661490444E-02 
1962	 4.74826361730472E-02 
1963	 4.75563898281287E-02 
1964	 4.76260697499191E-02 
1965	 4.77003200462416E-02 
1966	 4.77703504742643E-02 
1967	 4.78477022229218E-02 
1968	 4.79339985380958E-02 
1969	 4.80158044681881E-02 
1970	 4.80847706997875E-02 
1971	 4.81496191509059E-02 
1972	 4.82132929172085E-02 
1973	 4.82723283032086E-02 
1974	 4.83459515517849E-02 
1975	 4.84384583474902E-02 
1976	 4.85163226226775E-02 
1977	 4.85937515735273E-02 
1978	 4.86714101063372E-02 
1979	 4.87443021312022E-02 
1980	 4.88133007300612E-02 
1981	 4.88873333634316E-02 
1982	 4.89587770468399E-02 
1983	 4.90353617590194E-02 
1984	 4.91015998527338E-02 
1985	 4.91609363840713E-02 
1986	 0.049229283565088 
1987	 4.92970063018637E-02 
1988	 4.93625465434407E-02 
1989	 4.94277408692473E-02 
1990	 4.94959335854345E-02 
1991	 4.95646029948308E-02 
1992	 4.96327641380285E-02 
1993	 4.96980016608263E-02 
1994	 4.97667193599982E-02 
1995	 4.98226791640539E-02 
1996	 0.049872475535316 
1997	 4.99284874178418E-02 
1998	 4.99919307186977E-02 
1999	 5.00632150261908E-02 
2000	 5.01321782335918E-02 
2001	 5.02120843398887E-02 
2002	 0.050273683170878 
2003	 5.03252515015361E-02 
2004	 5.03786108936749E-02 
2005	 5.04263134338059E-02 
2006	 5.04722868148469E-02 
2007	 5.05133952677992E-02 
2008	 5.05560634269812E-02 
2009	 0.050607854287357 
2010	 5.06609441507409E-02 
2011	 5.07116473467373E-02 
2012	 5.07598542598992E-02 
2013	 5.08010086528904E-02 
2014	 5.08284881332203E-02 
2015	 5.08594275953489E-02 
2016	 5.08902460264876E-02 
2017	 5.09181424303763E-02 
2018	 5.09457614445901E-02 
2019	 5.09650404545026E-02 
2020	 5.09786979199619E-02 
2021	 5.09913370969191E-02 
2022	 5.10028870250263E-02 
2023	 5.10097967355208E-02 
2024	 5.10096447595696E-02 
2025	 5.09999429307087E-02 
2026	 0.050985377525113 
2027	 5.09514533982227E-02 
2028	 5.09313236341912E-02 
2029	 5.09126774877618E-02 
2030	 5.08969421621958E-02 
2031	 0.050885321428654 
2032	 5.08731405994407E-02 
2033	 5.08641758575381E-02 
2034	 5.08528469374348E-02 
2035	 5.08418712049982E-02 
2036	 5.08268627939021E-02 
2037	 5.08144808908059E-02 
2038	 5.08072095202126E-02 
2039	 5.08081217901427E-02 
2040	 5.08187170839099E-02 
2041	 5.08262022037728E-02 
2042	 5.08358482062764E-02 
2043	 5.08536633331954E-02 
2044	 5.08678868558669E-02 
2045	 5.08989084967918E-02 
2046	 5.09509194151822E-02 
2047	 5.09951851891913E-02 
2048	 5.10508341100147E-02 
2049	 5.10956694885365E-02 
2050	 5.11338807213471E-02 
2051	 5.11663554777229E-02 
2052	 0.051201536345527 
2053	 5.12524402240301E-02 
2054	 5.13095793187153E-02 
2055	 5.13811586626377E-02 
2056	 5.14474635650078E-02 
2057	 5.15215115580989E-02 
2058	 0.051587908475876 
2059	 5.16533604636406E-02 
2060	 5.17167116908573E-02 
2061	 5.17718362839665E-02 
2062	 5.18348228570892E-02 
2063	 5.19064311685542E-02 
2064	 5.19704021072195E-02 
2065	 5.20309066270794E-02 
2066	 5.20943436408605E-02 
2067	 0.05216134759852 
2068	 5.22148110019774E-02 
2069	 5.22766772462342E-02 
2070	 5.23436138980382E-02 
2071	 5.24109187924441E-02 
2072	 5.24823616888106E-02 
2073	 5.25436222327926E-02 
2074	 5.26019002812034E-02 
2075	 5.26608401365095E-02 
2076	 5.27107159088799E-02 
2077	 5.27654231544355E-02 
2078	 5.28314539148989E-02 
2079	 5.28860846851112E-02 
2080	 5.29323026099802E-02 
2081	 5.29802962871058E-02 
2082	 5.30257498748194E-02 
2083	 5.30650118084471E-02 
2084	 5.31174243679854E-02 
2085	 5.31562716134253E-02 
2086	 5.31955624289269E-02 
2087	 5.32260884451622E-02 
2088	 0.053274866447136 
2089	 5.33283792273795E-02 
2090	 5.33811892180265E-02 
2091	 5.34542376514311E-02 
2092	 0.053505363500754 
2093	 5.35436474386494E-02 
2094	 5.35812370772228E-02 
2095	 5.36085562298041E-02 
2096	 5.36397575024091E-02 
2097	 5.36705316704906E-02 
2098	 0.053697755222335 
2099	 5.37278477000177E-02 
2100	 0.053759524565091 
2101	 5.37857082798682E-02 
2102	 5.38077349620132E-02 
2103	 5.38347431005445E-02 
2104	 5.38621857360202E-02 
2105	 5.38851946169029E-02 
2106	 5.39119728659097E-02 
2107	 0.053930058955665 
2108	 5.39372733042404E-02 
2109	 5.39504449868725E-02 
2110	 5.39607459281342E-02 
2111	 5.39751881293486E-02 
2112	 5.39987551364623E-02 
2113	 5.40123427321713E-02 
2114	 5.40265625402637E-02 
2115	 5.40330675577423E-02 
2116	 5.40285349045415E-02 
2117	 5.40230318575523E-02 
2118	 5.40180602042308E-02 
2119	 5.40071234783306E-02 
2120	 5.40072583077572E-02 
2121	 5.40086331532036E-02 
2122	 5.40171895841284E-02 
2123	 5.40399699701839E-02 
2124	 0.054049637701918 
2125	 5.40540395279238E-02 
2126	 5.40664551041031E-02 
2127	 5.40809981286712E-02 
2128	 5.40873328673532E-02 
2129	 5.40985979471005E-02 
2130	 5.41045979606311E-02 
2131	 5.40977145524983E-02 
2132	 5.40958618686209E-02 
2133	 5.41037209631641E-02 
2134	 5.40988725960932E-02 
2135	 5.40830510770417E-02 
2136	 5.40628569944904E-02 
2137	 5.40600269306966E-02 
2138	 5.40626155223231E-02 
2139	 5.40577615145362E-02 
2140	 5.40707888059285E-02 
2141	 5.40577595075793E-02 
2142	 5.40203580048097E-02 
2143	 5.39935293874917E-02 
2144	 0.053961471826036 
2145	 5.39345840080874E-02 
2146	 5.39030376893208E-02 
2147	 5.38834689624372E-02 
2148	 5.38720205912877E-02 
2149	 5.38615724613441E-02 
2150	 5.38623057293629E-02 
2151	 5.38592157218247E-02 
2152	 5.38523125417721E-02 
2153	 5.38550271343327E-02 
2154	 5.38456056247684E-02 
2155	 5.38244858588061E-02 
2156	 5.38157437124063E-02 
2157	 5.38117717120047E-02 
2158	 0.053783133371868 
2159	 0.053753411245398 
2160	 5.37189539477765E-02 
2161	 5.36451965690489E-02 
2162	 5.36182001162245E-02 
2163	 5.36290673095364E-02 
2164	 5.36058785780122E-02 
2165	 5.35839839827949E-02 
2166	 5.35599086694651E-02 
2167	 5.35099361159743E-02 
2168	 5.34805939965101E-02 
2169	 0.053465306288458 
2170	 5.34514351792177E-02 
2171	 5.34406906923252E-02 
2172	 5.34327569584701E-02 
2173	 5.34221564855558E-02 
2174	 5.34332102971744E-02 
2175	 5.34361623499984E-02 
2176	 5.34578426975537E-02 
2177	 5.34780797413645E-02 
2178	 5.35037752960454E-02 
2179	 5.35360173869061E-02 
2180	 5.35838546831658E-02 
2181	 0.053605951263541 
2182	 5.36199701621901E-02 
2183	 5.36460592246306E-02 
2184	 0.053659223318036 
2185	 5.36820148248191E-02 
2186	 5.37229286253121E-02 
2187	 5.37577925991154E-02 
2188	 5.37803694380976E-02 
2189	 5.38157149537218E-02 
2190	 5.38713992973663E-02 
2191	 5.39111838417928E-02 
2192	 5.39397540162659E-02 
2193	 5.39793563614168E-02 
2194	 5.40184240403006E-02 
2195	 5.40578433261055E-02 
2196	 5.41030811747765E-02 
2197	 5.41521852166986E-02 
2198	 5.42038214357508E-02 
2199	 5.42516591698238E-02 
2200	 5.42921568631236E-02 
2201	 5.43394693409036E-02 
2202	 0.054367881639474 
2203	 5.43716380213675E-02 
2204	 5.43954581435888E-02 
2205	 5.44232551531295E-02 
2206	 5.44433863350568E-02 
2207	 5.44730039062637E-02 
2208	 5.44862420778488E-02 
2209	 5.44726481060977E-02 
2210	 5.44864302579691E-02 
2211	 5.45104194271884E-02 
2212	 5.45304395946575E-02 
2213	 5.45697751108653E-02 
2214	 0.054589785964567 
2215	 5.45862344886485E-02 
2216	 5.45983247711206E-02 
2217	 0.054623168723489 
2218	 5.46316546942646E-02 
2219	 5.46390183585138E-02 
2220	 5.46427983783555E-02 
2221	 5.46354166802952E-02 
2222	 5.46161120169939E-02 
2223	 5.46184837775713E-02 
2224	 5.46200538534702E-02 
2225	 5.46044238741367E-02 
2226	 5.45819321613225E-02 
2227	 5.45435799330092E-02 
2228	 5.44815874155496E-02 
2229	 5.44307503295725E-02 
2230	 5.43787721852715E-02 
2231	 5.43141964192186E-02 
2232	 5.42477084432004E-02 
2233	 5.41674438491604E-02 
2234	 5.40829589941226E-02 
2235	 5.39716809866444E-02 
2236	 5.38428928240377E-02 
2237	 5.37059477570726E-02 
2238	 5.35407220582735E-02 
2239	 5.33747739161583E-02 
2240	 5.32079617472385E-02 
2241	 5.30278153820733E-02 
2242	 5.28339376264907E-02 
2243	 5.26297689690337E-02 
2244	 5.24366400109695E-02 
2245	 5.21979423779863E-02 
2246	 5.18966432935093E-02 
2247	 5.16383126001327E-02 
2248	 5.13831452764898E-02 
2249	 5.11066599178698E-02 
2250	 5.08493007188827E-02 
2251	 5.05829143447104E-02 
2252	 0.050258254400525 
2253	 0.049937911433216 
2254	 4.96165695972485E-02 
2255	 4.93048331202488E-02 
2256	 4.90227062626631E-02 
2257	 4.87406270345493E-02 
2258	 4.84707345645852E-02 
2259	 4.82253131787578E-02 
2260	 4.79728779060886E-02 
2261	 0.047718947153548 
2262	 4.74729593426599E-02 
2263	 4.72287120596452E-02 
2264	 4.70027269849065E-02 
2265	 4.67883750431823E-02 
2266	 4.65754035948424E-02 
2267	 4.63724385956342E-02 
2268	 0.046184614330142 
2269	 4.60075238806137E-02 
2270	 4.58247139614282E-02 
2271	 4.56491092435922E-02 
2272	 4.54878968026215E-02 
2273	 4.53310238629663E-02 
2274	 4.51736932020073E-02 
2275	 4.50548860549612E-02 
2276	 4.48921786874581E-02 
2277	 4.46956037636169E-02 
2278	 4.45053198422889E-02 
2279	 4.42743456506151E-02 
2280	 4.40880925557163E-02 
2281	 4.39430859367789E-02 
2282	 4.37673001729953E-02 
2283	 4.35994935114845E-02 
2284	 4.34377967696197E-02 
2285	 4.32170982186417E-02 
2286	 4.29946932871265E-02 
2287	 4.27901894716519E-02 
2288	 4.25710424240128E-02 
2289	 4.23505047689749E-02 
2290	 4.21507755088782E-02 
2291	 4.19366365148449E-02 
2292	 4.16939753742854E-02 
2293	 0.041479953082488 
2294	 4.12622360861459E-02 
2295	 4.10304234735833E-02 
2296	 4.08336269919651E-02 
2297	 4.06388604966613E-02 
2298	 4.04329791920621E-02 
2299	 4.02681922499622E-02 
2300	 4.01224397311015E-02 
2301	 4.00219314150894E-02 
2302	 3.99594879897669E-02 
2303	 3.99175263046103E-02 
2304	 3.99190894856528E-02 
2305	 3.99301753571579E-02 
2306	 3.99349264302767E-02 
2307	 4.00108118219002E-02 
2308	 4.01338047041187E-02 
2309	 0.04029199513671 
2310	 4.05223709557405E-02 
2311	 0.040746733976663 
2312	 4.10072279700726E-02 
2313	 4.12580259692088E-02 
2314	 4.15394582854639E-02 
2315	 4.17758613766947E-02 
2316	 4.19914490835006E-02 
2317	 4.22027626593125E-02 
2318	 4.23982718511771E-02 
2319	 4.25676102151627E-02 
2320	 0.042733104625357 
2321	 4.28673698177773E-02 
2322	 0.042965972740171 
2323	 4.30471279248837E-02 
2324	 4.31085750850081E-02 
2325	 4.31473029078704E-02 
2326	 4.31503141780229E-02 
2327	 4.31375934515993E-02 
2328	 4.30982467132729E-02 
2329	 4.30633782030649E-02 
2330	 4.30156112786092E-02 
2331	 4.29590848119764E-02 
2332	 4.29045785142686E-02 
2333	 4.28084291874321E-02 
2334	 4.26598322761015E-02 
2335	 4.24711157104969E-02 
2336	 4.22675547000597E-02 
2337	 4.20804670143821E-02 
2338	 4.19148089299957E-02 
2339	 4.17858406122059E-02 
2340	 4.16765651917876E-02 
2341	 4.15461319536542E-02 
2342	 4.14196844767284E-02 
2343	 4.12965163436154E-02 
2344	 4.12078910050845E-02 
2345	 4.11757065969747E-02 
2346	 4.11573961923196E-02 
2347	 4.11851547200132E-02 
2348	 4.12359305063616E-02 
2349	 4.12910945273621E-02 
2350	 4.14077800537501E-02 
2351	 4.16075726756258E-02 
2352	 4.18137080464326E-02 
2353	 4.20166268131593E-02 
2354	 4.22132159040627E-02 
2355	 4.23857254670688E-02 
2356	 0.042576576280888 
2357	 0.042764925660154 
2358	 4.29208759630208E-02 
2359	 0.043018552971922 
2360	 4.30511392001629E-02 
2361	 4.30694163618663E-02 
2362	 4.31369826588058E-02 
2363	 4.32328477100136E-02 
2364	 0.043300277446479 
2365	 4.33269910838945E-02 
2366	 4.33266030657036E-02 
2367	 0.043301328048831 
2368	 4.32849525123106E-02 
2369	 4.33379910424622E-02 
2370	 4.34063017065518E-02 
2371	 4.34298994577351E-02 
2372	 4.34935983686599E-02 
2373	 4.35526084973075E-02 
2374	 4.35377010469888E-02 
2375	 4.35489110278812E-02 
2376	 4.35796928310157E-02 
2377	 4.35864311675527E-02 
2378	 4.35905012608701E-02 
2379	 4.36058706766085E-02 
2380	 4.36294526816835E-02 
2381	 4.36585121420372E-02 
2382	 4.36726570076555E-02 
2383	 4.37136938433053E-02 
2384	 4.37118301459482E-02 
2385	 4.36309516442411E-02 
2386	 4.36573027986122E-02 
2387	 4.37532168583307E-02 
2388	 4.37958417488997E-02 
2389	 4.38532209459615E-02 
2390	 4.39110692695562E-02 
2391	 0.043945659551082 
2392	 4.39728611154554E-02 
2393	 4.40166237195702E-02 
2394	 4.40647939167443E-02 
2395	 4.40949208209591E-02 
2396	 4.41095722722264E-02 
2397	 4.41411757241231E-02 
2398	 4.41584312513349E-02 
2399	 4.41193553889123E-02 
2400	 4.41178658212945E-02 
2401	 4.41788553455008E-02 
2402	 4.40922465224518E-02 
2403	 0.044073557654061 
2404	 4.40818715479262E-02 
2405	 4.41052665423472E-02 
2406	 4.42694825667441E-02 
2407	 4.43504184969451E-02 
2408	 4.44324804516898E-02 
2409	 0.044450797821445 
2410	 4.43590464160087E-02 
2411	 0.044373874182701 
2412	 4.43749231946685E-02 
2413	 4.43989325089917E-02 
2414	 4.44378745421224E-02 
2415	 4.44190227876922E-02 
2416	 4.44069113264481E-02 
2417	 4.44145081212622E-02 
2418	 4.44832705511081E-02 
2419	 4.44942015263509E-02 
2420	 4.44621340856842E-02 
2421	 4.44681445094383E-02 
2422	 4.44413558653146E-02 
2423	 4.44502796975557E-02 
2424	 4.44726979595473E-02 
2425	 4.45094463053016E-02 
2426	 4.45291023596672E-02 
2427	 4.45179689685337E-02 
2428	 4.45818225160376E-02 
2429	 4.45599131312005E-02 
2430	 4.45581093289937E-02 
2431	 0.044713995311641 
2432	 4.48039021277896E-02 
2433	 4.47976740744135E-02 
2434	 4.46686292109848E-02 
2435	 4.44460005179823E-02 
2436	 4.43188468473793E-02 
2437	 4.43003985399658E-02 
2438	 4.43740972160218E-02 
2439	 4.44430608619898E-02 
2440	 4.43654959816492E-02 
2441	 4.42976102459014E-02 
2442	 4.43655201714331E-02 
2443	 4.44943906810378E-02 
2444	 4.46006384037607E-02 
2445	 0.044571060134052 
2446	 4.44527680278256E-02 
2447	 0.04432664178184 
2448	 4.42232327968124E-02 
2449	 4.41107952686706E-02 
2450	 4.40286959353495E-02 
2451	 4.39785431117317E-02 
2452	 4.37915067477545E-02 
2453	 4.38360022436412E-02 
2454	 0.043921190873143 
2455	 4.37388216432803E-02 
2456	 4.38333466237571E-02 
2457	 4.38649039003214E-02 
2458	 4.37476676519285E-02 
2459	 4.38892766027607E-02 
2460	 4.38691314407129E-02 
2461	 4.37783711522928E-02 
2462	 4.38192198977779E-02 
2463	 4.37458856416492E-02 
2464	 4.37775061765306E-02 
2465	 4.38209080561407E-02 
2466	 4.37741742585835E-02 
2467	 4.38073651770036E-02 
2468	 4.36636439074265E-02 
2469	 4.35837690395726E-02 
2470	 4.35878498156269E-02 
2471	 4.34359225512219E-02 
2472	 4.34068616325871E-02 
2473	 4.34362072923847E-02 
2474	 0.043459039955908 
2475	 4.35321600248473E-02 
2476	 4.35538406924021E-02 
2477	 4.34341689064731E-02 
2478	 4.33613127845047E-02 
2479	 0.043438731194296 
2480	 4.35743804558597E-02 
2481	 4.37006815557562E-02 
2482	 4.38140652312673E-02 
2483	 4.37242071709871E-02 
2484	 4.37369403114347E-02 
2485	 4.36646243028406E-02 
2486	 4.35182563818849E-02 
2487	 4.34438336809503E-02 
2488	 0.043506798784603 
2489	 4.36462487024545E-02 
2490	 4.38507987247955E-02 
2491	 4.39619303651176E-02 
2492	 4.38021936006801E-02 
2493	 4.35936026091145E-02 
2494	 4.35417228246657E-02 
2495	 4.36404600622356E-02 
2496	 0.043894484290595 
2497	 4.41112244332256E-02 
2498	 4.39287681511952E-02 
2499	 4.37111502350214E-02 
2500	 4.37508790817552E-02 
