Wavelength	spectrum00012.asd
350	 4.70124110915152E-02 
351	 4.44136553651266E-02 
352	 4.21292883328192E-02 
353	 4.20084896548666E-02 
354	 4.19713183887541E-02 
355	 4.35130892252949E-02 
356	 0.044375735998135 
357	 4.28522086411225E-02 
358	 4.07643894929476E-02 
359	 4.03847760795142E-02 
360	 0.04097472536009 
361	 0.040573109177587 
362	 0.04156844221452 
363	 4.14859175682924E-02 
364	 4.00319906905707E-02 
365	 4.02554700956292E-02 
366	 4.08884332389191E-02 
367	 4.09568572128644E-02 
368	 4.03256117265571E-02 
369	 0.041460755468414 
370	 4.16694855389085E-02 
371	 4.15490231904235E-02 
372	 0.043134753651322 
373	 4.30934376386458E-02 
374	 4.35702946629858E-02 
375	 4.48934418562195E-02 
376	 4.40031932603421E-02 
377	 0.043378278833117 
378	 4.31964886740428E-02 
379	 4.31828961240169E-02 
380	 0.04366251010983 
381	 4.46853947959442E-02 
382	 4.53647462310305E-02 
383	 4.46818663346685E-02 
384	 4.59089947869938E-02 
385	 4.66965629833618E-02 
386	 4.61810528055207E-02 
387	 4.67201429399928E-02 
388	 0.046332670734461 
389	 4.62193041764698E-02 
390	 4.74667762321866E-02 
391	 4.77229776977298E-02 
392	 4.70877420148877E-02 
393	 4.66543698670939E-02 
394	 4.77750184745115E-02 
395	 0.047595301154224 
396	 4.79458415031835E-02 
397	 4.93482525951111E-02 
398	 4.91457317223594E-02 
399	 4.97130091723762E-02 
400	 5.00017417274087E-02 
401	 4.89916817035751E-02 
402	 5.00003518635086E-02 
403	 5.05995161154111E-02 
404	 5.02703261115389E-02 
405	 5.00838969751732E-02 
406	 5.02299789342342E-02 
407	 5.04650099269694E-02 
408	 5.06758413507753E-02 
409	 5.12118079022842E-02 
410	 5.13651023791355E-02 
411	 5.14511823803392E-02 
412	 5.19293625902362E-02 
413	 5.22243633221561E-02 
414	 5.20001307612847E-02 
415	 0.051725697314499 
416	 0.052472783094912 
417	 5.30031264746225E-02 
418	 5.33131736283831E-02 
419	 5.35392797121316E-02 
420	 5.35355475276598E-02 
421	 5.38042897007848E-02 
422	 5.42007114844028E-02 
423	 5.43863866121096E-02 
424	 5.47318317862775E-02 
425	 5.49009233839373E-02 
426	 5.49740172594319E-02 
427	 0.05554771898672 
428	 5.60043775438287E-02 
429	 5.62980149300278E-02 
430	 5.65282569050668E-02 
431	 5.67887854218165E-02 
432	 5.71843796025467E-02 
433	 5.77007772337006E-02 
434	 5.82343187607229E-02 
435	 5.85631252395434E-02 
436	 5.89303367395373E-02 
437	 5.94156446570823E-02 
438	 5.97544875334649E-02 
439	 6.02201915569295E-02 
440	 6.06915871975669E-02 
441	 6.10085906786049E-02 
442	 6.13268775661085E-02 
443	 6.18141601584624E-02 
444	 6.23754619523785E-02 
445	 6.27263905919001E-02 
446	 6.30223439494253E-02 
447	 6.33408828161268E-02 
448	 0.063720184557709 
449	 6.41391118769654E-02 
450	 6.46431884577954E-02 
451	 6.50354898706482E-02 
452	 6.51454667075646E-02 
453	 6.55292911469098E-02 
454	 6.60148245856474E-02 
455	 6.64233946464711E-02 
456	 6.66406934004947E-02 
457	 6.69443512545383E-02 
458	 6.72928293427009E-02 
459	 6.76287754374189E-02 
460	 6.81102009234141E-02 
461	 6.84006780946708E-02 
462	 6.85305195474158E-02 
463	 6.87344419451196E-02 
464	 6.90056302604784E-02 
465	 6.93432858188135E-02 
466	 6.96733578256578E-02 
467	 6.98095026333246E-02 
468	 7.00402289404417E-02 
469	 7.02930889246253E-02 
470	 7.04565406763108E-02 
471	 7.07251532542973E-02 
472	 7.10422427658455E-02 
473	 7.13116689316642E-02 
474	 7.14356324910307E-02 
475	 7.16930158258974E-02 
476	 7.19501475243096E-02 
477	 0.072113252636875 
478	 7.23275470379222E-02 
479	 7.25622079841634E-02 
480	 7.28132205104839E-02 
481	 7.30821837787611E-02 
482	 7.33641102934975E-02 
483	 7.36663757154988E-02 
484	 7.39639379095014E-02 
485	 7.41964395228605E-02 
486	 7.46035869295475E-02 
487	 7.49452265006304E-02 
488	 7.50662959528886E-02 
489	 7.54228705127823E-02 
490	 7.57986309625456E-02 
491	 7.61255966788166E-02 
492	 7.64345616128415E-02 
493	 7.67997394509385E-02 
494	 7.71473066596536E-02 
495	 7.74711935891839E-02 
496	 0.077910231748938 
497	 7.83347771139414E-02 
498	 7.87640363264562E-02 
499	 7.92406667724954E-02 
500	 7.97073326254806E-02 
501	 8.00990604519656E-02 
502	 8.05049084517207E-02 
503	 8.11257931104966E-02 
504	 8.16394102638967E-02 
505	 8.20685356555786E-02 
506	 8.25038480933813E-02 
507	 8.30454453439072E-02 
508	 8.35103723534515E-02 
509	 8.39765853715154E-02 
510	 8.45879353532145E-02 
511	 8.50588047784446E-02 
512	 8.55613334825427E-02 
513	 8.61441647591603E-02 
514	 0.086647345259505 
515	 8.72020089449304E-02 
516	 8.77161726080109E-02 
517	 8.81190169611829E-02 
518	 8.86100702342049E-02 
519	 8.91108088464215E-02 
520	 8.96013965659481E-02 
521	 9.01044811017149E-02 
522	 9.06139928859233E-02 
523	 9.10774415972405E-02 
524	 9.14913944649495E-02 
525	 9.19643676658683E-02 
526	 9.23998903282178E-02 
527	 9.28154987877164E-02 
528	 9.32528924681089E-02 
529	 9.36467626932544E-02 
530	 9.40465391872582E-02 
531	 9.44822247345392E-02 
532	 9.49524205550763E-02 
533	 9.53489595787892E-02 
534	 9.56951519652835E-02 
535	 9.60347893692899E-02 
536	 9.63637977161769E-02 
537	 9.67853792829618E-02 
538	 9.72375191072421E-02 
539	 9.75809139570829E-02 
540	 9.78992918394551E-02 
541	 9.82103783183808E-02 
542	 9.85234438214089E-02 
543	 9.88455253833487E-02 
544	 9.91777495025671E-02 
545	 9.94902000768203E-02 
546	 9.97628140324957E-02 
547	 0.10006719581484 
548	 0.100339141735131 
549	 0.10059285257365 
550	 0.100908912419002 
551	 0.101149816848097 
552	 0.10138208642607 
553	 0.101657055289638 
554	 0.101889415515374 
555	 0.102099108592621 
556	 0.102293057645197 
557	 0.102478578191909 
558	 0.102695233572153 
559	 0.102917974001453 
560	 0.103117670512426 
561	 0.103268782406111 
562	 0.10342232072432 
563	 0.103607740537076 
564	 0.103822098051581 
565	 0.103971188174788 
566	 0.104122364772574 
567	 0.104280472695135 
568	 0.104404138584322 
569	 0.104527991971549 
570	 0.104657696733923 
571	 0.104787075175838 
572	 0.10488973266613 
573	 0.105031806086484 
574	 0.105182854559346 
575	 0.105290611355347 
576	 0.105423254222525 
577	 0.105531011768263 
578	 0.105625529213587 
579	 0.105792402625014 
580	 0.10586932398133 
581	 0.105934093554772 
582	 0.106058672358139 
583	 0.106112996538869 
584	 0.106165907552275 
585	 0.106230711747902 
586	 0.106290567812427 
587	 0.106366502168748 
588	 0.106488522059813 
589	 0.106632295748623 
590	 0.10668454599487 
591	 0.106735479126521 
592	 0.106802613906825 
593	 0.106876186789514 
594	 0.106926338554649 
595	 0.10699242766155 
596	 0.107074815293815 
597	 0.107138411336184 
598	 0.107189287003934 
599	 0.107244040557463 
600	 0.10731073529983 
601	 0.107369808532307 
602	 0.1074418129701 
603	 0.107523097928798 
604	 0.107598700837728 
605	 0.10765964334023 
606	 0.107706477683327 
607	 0.107751146894634 
608	 0.107817516015499 
609	 0.107851993883695 
610	 0.10789427981434 
611	 0.107978695720166 
612	 0.108042593148511 
613	 0.108098683317717 
614	 0.108147974844312 
615	 0.108186766689508 
616	 0.108237839241652 
617	 0.108305413772749 
618	 0.108376522131349 
619	 0.108411936150039 
620	 0.108454522922693 
621	 0.108506873267926 
622	 0.108560859502978 
623	 0.108627891481041 
624	 0.108684772326448 
625	 0.108730027855911 
626	 0.108783485862657 
627	 0.108844006844028 
628	 0.108908557997067 
629	 0.108969180441711 
630	 0.109005824634408 
631	 0.109041056539662 
632	 0.109106771572757 
633	 0.10921656634344 
634	 0.109236392137375 
635	 0.109265801486078 
636	 0.109343906341318 
637	 0.109409563681076 
638	 0.109455454679573 
639	 0.109479663085199 
640	 0.109494235566999 
641	 0.109542808553173 
642	 0.109600661894361 
643	 0.1096511813234 
644	 0.10968886824512 
645	 0.109762643615928 
646	 0.109811193762078 
647	 0.109827364953909 
648	 0.109915355394318 
649	 0.109993210669316 
650	 0.110038773282342 
651	 0.11005910403701 
652	 0.110101349353733 
653	 0.110138081415422 
654	 0.110175797029003 
655	 0.110244769532183 
656	 0.110283647540712 
657	 0.11031486411379 
658	 0.110357098408537 
659	 0.11039023381753 
660	 0.110429838427536 
661	 0.110495392402258 
662	 0.11058821700792 
663	 0.11060934267374 
664	 0.110620046380414 
665	 0.11066391927078 
666	 0.110752095300981 
667	 0.110808871275687 
668	 0.110840494817927 
669	 0.11087345593664 
670	 0.110940967196612 
671	 0.110995176348615 
672	 0.111031064898598 
673	 0.111068065607137 
674	 0.111139871270821 
675	 0.111214347528069 
676	 0.111277457549409 
677	 0.111343990880922 
678	 0.111386442450883 
679	 0.111430352257402 
680	 0.111493838756351 
681	 0.111529981807693 
682	 0.111598667491464 
683	 0.111681006426928 
684	 0.111725590882731 
685	 0.11180286872944 
686	 0.111873598246364 
687	 0.111926492313404 
688	 0.11200504521573 
689	 0.112067857194492 
690	 0.112131375048486 
691	 0.112219358625898 
692	 0.112329381111052 
693	 0.112427520550788 
694	 0.112507627052326 
695	 0.112583903170338 
696	 0.11267404517791 
697	 0.112758140425544 
698	 0.112836686717516 
699	 0.11295007254008 
700	 0.113055736068934 
701	 0.113151925157944 
702	 0.113253104521636 
703	 0.113388256148242 
704	 0.113515483184319 
705	 0.113623144883598 
706	 0.113725291977179 
707	 0.113851814178829 
708	 0.113980953619091 
709	 0.114101986293474 
710	 0.11423412016133 
711	 0.114383290073024 
712	 0.114530820919285 
713	 0.114660752095904 
714	 0.11479908761801 
715	 0.11494707200468 
716	 0.115100626300726 
717	 0.115255449050766 
718	 0.115454403385561 
719	 0.115643359328288 
720	 0.115797352746872 
721	 0.115959968345119 
722	 0.11617408908926 
723	 0.116378784458048 
724	 0.116524610227241 
725	 0.116744345974104 
726	 0.116985297969395 
727	 0.11722079939517 
728	 0.117444885689355 
729	 0.117631183020043 
730	 0.117816214786388 
731	 0.118032647785181 
732	 0.118293753601022 
733	 0.118556513168388 
734	 0.118805003239972 
735	 0.119042830679491 
736	 0.119310710770627 
737	 0.119553097645994 
738	 0.119787076922341 
739	 0.120070976301374 
740	 0.120365487864099 
741	 0.120624230141933 
742	 0.120868228403745 
743	 0.121219103796922 
744	 0.121539392497755 
745	 0.121820854161442 
746	 0.122095177448343 
747	 0.122396659323616 
748	 0.122708093148438 
749	 0.123030851546603 
750	 0.123374039093175 
751	 0.123723105880411 
752	 0.124053629942175 
753	 0.124372725946464 
754	 0.12472699195003 
755	 0.125083277314965 
756	 0.125440582196895 
757	 0.125801978855205 
758	 0.126159132003121 
759	 0.126509259742086 
760	 0.126859268433699 
761	 0.127221992325796 
762	 0.127614143060417 
763	 0.128013865144532 
764	 0.128401733136572 
765	 0.128768184929134 
766	 0.129139524503542 
767	 0.129524316332751 
768	 0.129922125177519 
769	 0.130321932968095 
770	 0.130723249162098 
771	 0.131119968083412 
772	 0.131510092196787 
773	 0.131919670514957 
774	 0.13232254407598 
775	 0.132700283501998 
776	 0.133050431429144 
777	 0.133439273194396 
778	 0.133851892896902 
779	 0.134262678585481 
780	 0.134651124052368 
781	 0.13500836611163 
782	 0.135355057831156 
783	 0.135718250765811 
784	 0.136110940959857 
785	 0.136519903599577 
786	 0.136901023166251 
787	 0.137212702179463 
788	 0.137556433922743 
789	 0.137915255346666 
790	 0.138262961128836 
791	 0.138579963230685 
792	 0.138922514426732 
793	 0.13926437417356 
794	 0.139585158305843 
795	 0.139925662287087 
796	 0.140228344869668 
797	 0.140517363699509 
798	 0.14082977357463 
799	 0.141106737073273 
800	 0.141369030262784 
801	 0.141635934010985 
802	 0.141917175843259 
803	 0.142164325519394 
804	 0.14241952621858 
805	 0.142685002541028 
806	 0.142886815412439 
807	 0.14310162329476 
808	 0.143329742860199 
809	 0.143553626555269 
810	 0.143763480169677 
811	 0.143977016748775 
812	 0.144178051290003 
813	 0.14434898586248 
814	 0.144558885367713 
815	 0.144725980997204 
816	 0.144848461664744 
817	 0.144996657779177 
818	 0.145114544585408 
819	 0.145218845883452 
820	 0.145337223615207 
821	 0.145497186890196 
822	 0.145612832841803 
823	 0.145721808726376 
824	 0.145857153206221 
825	 0.145928091670246 
826	 0.145987058774488 
827	 0.146031361442726 
828	 0.146054557726998 
829	 0.146174413884478 
830	 0.146305185901293 
831	 0.146382983517128 
832	 0.146387951792935 
833	 0.146411996319011 
834	 0.146447140324 
835	 0.146485187922575 
836	 0.146541964619423 
837	 0.146591291118832 
838	 0.146610247813825 
839	 0.146599455848631 
840	 0.146614203291338 
841	 0.146666689239916 
842	 0.146712305133849 
843	 0.146701560554673 
844	 0.146689126490456 
845	 0.14668800523127 
846	 0.146689807084404 
847	 0.146675996148204 
848	 0.146678818373387 
849	 0.146690701586787 
850	 0.146699777465041 
851	 0.146695031843887 
852	 0.146648736692445 
853	 0.146606487266379 
854	 0.146607436750241 
855	 0.146646688150901 
856	 0.146660950998762 
857	 0.146635516798109 
858	 0.146591379109554 
859	 0.14660608749463 
860	 0.146595581765344 
861	 0.146559835871172 
862	 0.146546290097825 
863	 0.146592481197437 
864	 0.146610105496937 
865	 0.146583345254906 
866	 0.146565642510816 
867	 0.14655087848946 
868	 0.146544117073896 
869	 0.146541562908407 
870	 0.146528097246482 
871	 0.146542023730259 
872	 0.146546501410309 
873	 0.146522369090998 
874	 0.146523265176033 
875	 0.146560306792394 
876	 0.146594807953403 
877	 0.146598343135036 
878	 0.146644980135387 
879	 0.146653450471775 
880	 0.146655448301763 
881	 0.146718882042313 
882	 0.146786280149129 
883	 0.146825275789012 
884	 0.146837157090297 
885	 0.146849734370906 
886	 0.146877240802173 
887	 0.146916419096319 
888	 0.146969159066644 
889	 0.147044625739941 
890	 0.147127114682461 
891	 0.147208183171285 
892	 0.147280450240281 
893	 0.147335635812966 
894	 0.147448508840949 
895	 0.147527680635683 
896	 0.147533415824978 
897	 0.147673353017139 
898	 0.147774129515989 
899	 0.147841352246071 
900	 0.147931678035244 
901	 0.148042811931019 
902	 0.148187805536258 
903	 0.148345810703489 
904	 0.148474952535006 
905	 0.148513601153554 
906	 0.148640952125894 
907	 0.148825772573163 
908	 0.14890579948074 
909	 0.14903572577319 
910	 0.149157920371512 
911	 0.149291083311947 
912	 0.149529408637857 
913	 0.149706205238555 
914	 0.149835581530886 
915	 0.149965150538178 
916	 0.150142463137672 
917	 0.15031126503453 
918	 0.150496592580798 
919	 0.150708498157321 
920	 0.150901372894946 
921	 0.151072662094059 
922	 0.151228736833082 
923	 0.151394372384543 
924	 0.151630850376179 
925	 0.151854384666574 
926	 0.15205605195761 
927	 0.152254341932026 
928	 0.152469140035296 
929	 0.152650747659953 
930	 0.152850295774978 
931	 0.153116886679973 
932	 0.15329829609644 
933	 0.153517047834457 
934	 0.153781880455894 
935	 0.154027467713878 
936	 0.154178628915361 
937	 0.15441113260213 
938	 0.154705542638038 
939	 0.154927893598436 
940	 0.155237424094379 
941	 0.155481320525995 
942	 0.155674951050623 
943	 0.155974522166087 
944	 0.156253771526631 
945	 0.156474965205765 
946	 0.156662372866437 
947	 0.156884114763736 
948	 0.157062741252336 
949	 0.157287041523091 
950	 0.157554534248314 
951	 0.157736250282951 
952	 0.157999951190851 
953	 0.158255625222256 
954	 0.158460992304112 
955	 0.158707199942851 
956	 0.158904645996929 
957	 0.159137004441814 
958	 0.159430656785482 
959	 0.159659333628121 
960	 0.159803530597007 
961	 0.159962632306278 
962	 0.160222493838795 
963	 0.160578920549523 
964	 0.160775677720181 
965	 0.160898608464082 
966	 0.161072951293283 
967	 0.161280519267316 
968	 0.161530770367752 
969	 0.161797577419702 
970	 0.162049375084998 
971	 0.162272266427918 
972	 0.162441020641862 
973	 0.162628643415023 
974	 0.162874034229223 
975	 0.163034037791925 
976	 0.163248544062435 
977	 0.163505062590459 
978	 0.163734675055714 
979	 0.163852072818971 
980	 0.164081016860711 
981	 0.164290936458898 
982	 0.164363563849065 
983	 0.164633506038505 
984	 0.164790587296651 
985	 0.165024873805952 
986	 0.165486507977611 
987	 0.165606221685652 
988	 0.165761601689167 
989	 0.165984027820728 
990	 0.166193405020872 
991	 0.166394273422652 
992	 0.166530823598229 
993	 0.166657647905756 
994	 0.166842472156531 
995	 0.167063470962518 
996	 0.167124599631597 
997	 0.167170465467324 
998	 0.167390750294222 
999	 0.167691523046211 
1000	 0.167815706575084 
1001	 0.168931904935627 
1002	 0.169080405217686 
1003	 0.169201751708285 
1004	 0.169311244537409 
1005	 0.16939739373805 
1006	 0.169517628766162 
1007	 0.169609484140953 
1008	 0.169754183260536 
1009	 0.169969933643078 
1010	 0.170124885775378 
1011	 0.170290757831664 
1012	 0.170427895590211 
1013	 0.170500362392489 
1014	 0.170614409411082 
1015	 0.170750526486139 
1016	 0.170859460375086 
1017	 0.170970510258934 
1018	 0.171109190471675 
1019	 0.171271011944611 
1020	 0.171399982925029 
1021	 0.171530895207347 
1022	 0.171675853208804 
1023	 0.171818583416848 
1024	 0.171947276992199 
1025	 0.172075486414904 
1026	 0.172207771829603 
1027	 0.172340310571557 
1028	 0.172456086836454 
1029	 0.172589671026677 
1030	 0.172754741367017 
1031	 0.172883336034826 
1032	 0.172982600359288 
1033	 0.173109016439329 
1034	 0.173191205299846 
1035	 0.173283898587485 
1036	 0.173408604088267 
1037	 0.173560484350012 
1038	 0.173678780532142 
1039	 0.173805154082168 
1040	 0.173937350549205 
1041	 0.174052653698233 
1042	 0.17417808473213 
1043	 0.174331609197708 
1044	 0.174459500709324 
1045	 0.174552138079595 
1046	 0.174659279651899 
1047	 0.174770821794653 
1048	 0.174884924493804 
1049	 0.17499455896093 
1050	 0.175100782500812 
1051	 0.175209337824146 
1052	 0.175318432807778 
1053	 0.175448530661505 
1054	 0.175620013249277 
1055	 0.175752224944513 
1056	 0.175875418404409 
1057	 0.176004602912197 
1058	 0.176116032299412 
1059	 0.176237289503333 
1060	 0.176406313487913 
1061	 0.176560184957404 
1062	 0.176690680789473 
1063	 0.176830056213105 
1064	 0.176943709079019 
1065	 0.17705707164158 
1066	 0.177201833699118 
1067	 0.177368220609995 
1068	 0.177521244336867 
1069	 0.177644413294926 
1070	 0.177790072200098 
1071	 0.177937356780955 
1072	 0.178092434863618 
1073	 0.178256136559476 
1074	 0.178423721275566 
1075	 0.178586154467152 
1076	 0.178741276566361 
1077	 0.178920880594779 
1078	 0.179129402746747 
1079	 0.179327732117426 
1080	 0.179533147490506 
1081	 0.179674833148105 
1082	 0.179777751006962 
1083	 0.179918783262644 
1084	 0.180047579164495 
1085	 0.18021307475736 
1086	 0.180382688137114 
1087	 0.180581787410852 
1088	 0.18075865758007 
1089	 0.180934466674613 
1090	 0.181095853275696 
1091	 0.18127994979141 
1092	 0.181480619867269 
1093	 0.181666683500788 
1094	 0.181873568091998 
1095	 0.182095093392248 
1096	 0.182289673843732 
1097	 0.182484475597371 
1098	 0.182680835126516 
1099	 0.1828525770704 
1100	 0.183041706461755 
1101	 0.18327145154751 
1102	 0.183502957094309 
1103	 0.183720312878296 
1104	 0.183935542764393 
1105	 0.184162503403246 
1106	 0.184386894434155 
1107	 0.184593705565778 
1108	 0.18482221666956 
1109	 0.185049046736306 
1110	 0.185241411191617 
1111	 0.185450267715218 
1112	 0.185692495164876 
1113	 0.185939120049252 
1114	 0.186185034021323 
1115	 0.186425042181067 
1116	 0.186640473267799 
1117	 0.186830912625301 
1118	 0.187045426113089 
1119	 0.187265019107664 
1120	 0.187503761709016 
1121	 0.187757887547611 
1122	 0.188019760299962 
1123	 0.188276730311669 
1124	 0.188514075165148 
1125	 0.188759848454586 
1126	 0.189003721366032 
1127	 0.189258942506651 
1128	 0.189508450644798 
1129	 0.189730092875647 
1130	 0.189963879058568 
1131	 0.190194161618977 
1132	 0.19042101252609 
1133	 0.190664866314058 
1134	 0.190891940951148 
1135	 0.191124983925005 
1136	 0.191372073546611 
1137	 0.19159845969932 
1138	 0.191808118042783 
1139	 0.192034111621023 
1140	 0.192269534218299 
1141	 0.192460122103415 
1142	 0.192685321328401 
1143	 0.192907292926461 
1144	 0.193091739285703 
1145	 0.193302485443359 
1146	 0.193493347097803 
1147	 0.193684399906082 
1148	 0.193920816860898 
1149	 0.194149312496349 
1150	 0.194375004094613 
1151	 0.194607995037682 
1152	 0.194826218585801 
1153	 0.195015573991433 
1154	 0.195222687635959 
1155	 0.1954398409639 
1156	 0.195652443153462 
1157	 0.195861043258993 
1158	 0.196071517532851 
1159	 0.196287823874998 
1160	 0.196493386835552 
1161	 0.19669602549153 
1162	 0.196912068484277 
1163	 0.197106809045055 
1164	 0.197315462195148 
1165	 0.197537732158419 
1166	 0.197748031638484 
1167	 0.197986797607001 
1168	 0.198222367975855 
1169	 0.198466890247342 
1170	 0.198728966103564 
1171	 0.198975744326759 
1172	 0.199223210907623 
1173	 0.199467767775401 
1174	 0.199699130993199 
1175	 0.199929255645821 
1176	 0.200154190794036 
1177	 0.200391401857092 
1178	 0.200627364395701 
1179	 0.200879752198643 
1180	 0.201118254808323 
1181	 0.201348353290111 
1182	 0.201575691309633 
1183	 0.201789615114897 
1184	 0.202014637470856 
1185	 0.202245906245214 
1186	 0.2024821797538 
1187	 0.202713099368307 
1188	 0.202963067509501 
1189	 0.203224773654226 
1190	 0.203498701795098 
1191	 0.203782542334814 
1192	 0.204072850822681 
1193	 0.204378484124126 
1194	 0.204685845211024 
1195	 0.204996275043898 
1196	 0.20532162642345 
1197	 0.205660488416237 
1198	 0.205999298340492 
1199	 0.206348509410608 
1200	 0.20668608739524 
1201	 0.207042693144541 
1202	 0.207405729867075 
1203	 0.207780659444984 
1204	 0.208190565929562 
1205	 0.208603841619869 
1206	 0.20901981646616 
1207	 0.209474223266042 
1208	 0.209939650344265 
1209	 0.210445895321111 
1210	 0.210984216789531 
1211	 0.211549583271429 
1212	 0.21215422725814 
1213	 0.212785660869422 
1214	 0.21344263742619 
1215	 0.214131910093729 
1216	 0.214853285860897 
1217	 0.215591667289417 
1218	 0.216363339009898 
1219	 0.217152093911484 
1220	 0.21794773216641 
1221	 0.218790332504281 
1222	 0.219602966924058 
1223	 0.220447882493557 
1224	 0.221286453928017 
1225	 0.222132840068712 
1226	 0.222954345155079 
1227	 0.223780414938231 
1228	 0.224584940225567 
1229	 0.225376374783706 
1230	 0.226148023587837 
1231	 0.226893103284735 
1232	 0.227654990334934 
1233	 0.228411828070195 
1234	 0.229145704009103 
1235	 0.229883831385797 
1236	 0.230606540976664 
1237	 0.231298732958455 
1238	 0.231991755145049 
1239	 0.232678577350808 
1240	 0.233370417226913 
1241	 0.23407519506219 
1242	 0.234713700662919 
1243	 0.235363753392014 
1244	 0.236003502550933 
1245	 0.236653796488684 
1246	 0.237291571388109 
1247	 0.237938399082473 
1248	 0.238608004346077 
1249	 0.239254040299572 
1250	 0.239880374111601 
1251	 0.240512913740464 
1252	 0.241141340280764 
1253	 0.241773766496687 
1254	 0.24241716393816 
1255	 0.243048591344146 
1256	 0.243675972695803 
1257	 0.244303590501597 
1258	 0.244924257487807 
1259	 0.245540487133696 
1260	 0.246160755252324 
1261	 0.246773516088662 
1262	 0.247363675283167 
1263	 0.247980850909171 
1264	 0.248580480236772 
1265	 0.249180567505126 
1266	 0.249768309131329 
1267	 0.250340067788955 
1268	 0.250927564362557 
1269	 0.251504599683666 
1270	 0.252103879738135 
1271	 0.252730736345116 
1272	 0.253335544470094 
1273	 0.253941285141868 
1274	 0.254540931301885 
1275	 0.255131178053221 
1276	 0.255712648207571 
1277	 0.256266605768912 
1278	 0.256857046165095 
1279	 0.257459953323305 
1280	 0.258058484426583 
1281	 0.258678229076434 
1282	 0.259295158983955 
1283	 0.259894672894613 
1284	 0.260502957360964 
1285	 0.261117405861875 
1286	 0.261744706280018 
1287	 0.262367245395684 
1288	 0.262994977672093 
1289	 0.263603850017556 
1290	 0.264195479650796 
1291	 0.264818790019853 
1292	 0.265446095892876 
1293	 0.266063962535713 
1294	 0.266709428111211 
1295	 0.267323867749789 
1296	 0.267895545221513 
1297	 0.268499770792801 
1298	 0.269112216251854 
1299	 0.269726794681663 
1300	 0.270364043313952 
1301	 0.270974925452105 
1302	 0.271571242669794 
1303	 0.272171037651057 
1304	 0.272752790825778 
1305	 0.273344886610358 
1306	 0.273945082059876 
1307	 0.27454458824058 
1308	 0.275133830648135 
1309	 0.275745922998083 
1310	 0.276345879274029 
1311	 0.276950387440733 
1312	 0.277541879433575 
1313	 0.278120120156596 
1314	 0.278718604447033 
1315	 0.279316742508095 
1316	 0.279920318781842 
1317	 0.280546581158132 
1318	 0.281148832923266 
1319	 0.281734090505022 
1320	 0.282331869790999 
1321	 0.282932931228336 
1322	 0.28352332197463 
1323	 0.2841254011305 
1324	 0.284701037663413 
1325	 0.285256551995209 
1326	 0.285807247214104 
1327	 0.286335503949171 
1328	 0.286874225393464 
1329	 0.287416939554303 
1330	 0.287948527638584 
1331	 0.288484500139856 
1332	 0.289006104931924 
1333	 0.289500311719523 
1334	 0.290016594565705 
1335	 0.290506337049579 
1336	 0.290983897155856 
1337	 0.291462223161573 
1338	 0.291935983444015 
1339	 0.292392080860937 
1340	 0.292844149337257 
1341	 0.293282000671 
1342	 0.293709894794765 
1343	 0.294111619592796 
1344	 0.294498489636194 
1345	 0.294874638947384 
1346	 0.295235349560208 
1347	 0.295568911414595 
1348	 0.295887613009021 
1349	 0.296194271737715 
1350	 0.29646872873047 
1351	 0.296744333445237 
1352	 0.297012468590773 
1353	 0.297282174079227 
1354	 0.297543322372169 
1355	 0.297801573128076 
1356	 0.298059793539892 
1357	 0.298319028304404 
1358	 0.298577560298834 
1359	 0.298828524963034 
1360	 0.299083429121498 
1361	 0.299333138362286 
1362	 0.29956713660577 
1363	 0.299766690715438 
1364	 0.299947752034945 
1365	 0.300110279730901 
1366	 0.300244541744119 
1367	 0.300354508281026 
1368	 0.300439871332073 
1369	 0.300502670176003 
1370	 0.300538666168068 
1371	 0.300547492129 
1372	 0.300537435957691 
1373	 0.300517100026025 
1374	 0.300445331707897 
1375	 0.300345114420527 
1376	 0.300207050349812 
1377	 0.300039016634857 
1378	 0.299811221385825 
1379	 0.299560773775879 
1380	 0.299231497921521 
1381	 0.29886319736959 
1382	 0.298384561558023 
1383	 0.297852482454554 
1384	 0.297195614682788 
1385	 0.296420848992626 
1386	 0.295568407021451 
1387	 0.294544697814421 
1388	 0.293569862627403 
1389	 0.292476525630223 
1390	 0.291492458921216 
1391	 0.29055000262652 
1392	 0.289630420550256 
1393	 0.288886978171057 
1394	 0.288232268184904 
1395	 0.287700524426 
1396	 0.287342038240673 
1397	 0.286953393819788 
1398	 0.286673660540945 
1399	 0.286302745371067 
1400	 0.285968706894313 
1401	 0.285513634038548 
1402	 0.285029049820341 
1403	 0.284417345542069 
1404	 0.283703858322375 
1405	 0.282945507150465 
1406	 0.28205954964342 
1407	 0.281211532842297 
1408	 0.280261877176302 
1409	 0.27945100703038 
1410	 0.278605288827227 
1411	 0.277958650232174 
1412	 0.277409594355451 
1413	 0.27702566196936 
1414	 0.276794579090532 
1415	 0.276681738771254 
1416	 0.2767466885863 
1417	 0.276863991799823 
1418	 0.277124493051546 
1419	 0.277400445384001 
1420	 0.277758287639917 
1421	 0.27812383791509 
1422	 0.278533292745107 
1423	 0.27894840018381 
1424	 0.279381808773573 
1425	 0.279834484098002 
1426	 0.280275600255779 
1427	 0.280735989647962 
1428	 0.281224869123014 
1429	 0.281703711365491 
1430	 0.282197614100188 
1431	 0.282704236531713 
1432	 0.283235198245748 
1433	 0.283769141024527 
1434	 0.284338283655547 
1435	 0.284936772967962 
1436	 0.285563650326614 
1437	 0.286215055688874 
1438	 0.286879469466612 
1439	 0.287579609444635 
1440	 0.288282796923337 
1441	 0.288999710676106 
1442	 0.289723273754669 
1443	 0.290457942081362 
1444	 0.291212566956307 
1445	 0.291984376667304 
1446	 0.292748196777001 
1447	 0.293529486502571 
1448	 0.294306891161335 
1449	 0.295082977663726 
1450	 0.295854237110853 
1451	 0.296636376762994 
1452	 0.297405752917928 
1453	 0.298174128537561 
1454	 0.29891026065476 
1455	 0.299632667331373 
1456	 0.300340451326017 
1457	 0.301012381584631 
1458	 0.301689787961988 
1459	 0.302353094537776 
1460	 0.303028880418938 
1461	 0.303712038649547 
1462	 0.304381759941807 
1463	 0.30504929705198 
1464	 0.305721913059668 
1465	 0.306368882554952 
1466	 0.307055177450293 
1467	 0.307717359456145 
1468	 0.308395490567159 
1469	 0.309106773206574 
1470	 0.309772389721869 
1471	 0.310472213829237 
1472	 0.311204022964555 
1473	 0.311905907224327 
1474	 0.312604049136767 
1475	 0.313284026908803 
1476	 0.313954146591943 
1477	 0.314612775687577 
1478	 0.315254922190971 
1479	 0.31588744720634 
1480	 0.316505562492422 
1481	 0.317127040764221 
1482	 0.317742925715446 
1483	 0.318349042952417 
1484	 0.318953928925471 
1485	 0.319551429711613 
1486	 0.320140416597084 
1487	 0.320709773466387 
1488	 0.321266886889358 
1489	 0.321825305608764 
1490	 0.322357859130682 
1491	 0.322911988721608 
1492	 0.323472350225484 
1493	 0.324046389930857 
1494	 0.324636182744856 
1495	 0.325214653426703 
1496	 0.325800808554572 
1497	 0.326385771665518 
1498	 0.326963589964827 
1499	 0.327543893402041 
1500	 0.328126382368014 
1501	 0.32871612357854 
1502	 0.32931023077244 
1503	 0.32989465974515 
1504	 0.330480543084654 
1505	 0.331068676362184 
1506	 0.331656263785717 
1507	 0.332234166581463 
1508	 0.332805757469433 
1509	 0.333386968974103 
1510	 0.333959454481107 
1511	 0.334534759012497 
1512	 0.3351270809254 
1513	 0.335712350081107 
1514	 0.336291783413633 
1515	 0.336868860074032 
1516	 0.337431083768949 
1517	 0.338015078181857 
1518	 0.338628068187469 
1519	 0.339208767500061 
1520	 0.339791596024584 
1521	 0.340362116100004 
1522	 0.340892390341525 
1523	 0.341441543761634 
1524	 0.341987926118473 
1525	 0.342543413967394 
1526	 0.343092570467157 
1527	 0.343634658070814 
1528	 0.344184120441797 
1529	 0.344736463040237 
1530	 0.345292517939903 
1531	 0.345850363788435 
1532	 0.346414001751891 
1533	 0.346979900631393 
1534	 0.347560295661378 
1535	 0.348159057693301 
1536	 0.348729519552203 
1537	 0.349298590432249 
1538	 0.349865458944337 
1539	 0.350416096522078 
1540	 0.350967862863085 
1541	 0.351527484501007 
1542	 0.35207733229005 
1543	 0.352622936066604 
1544	 0.35314200286008 
1545	 0.353660464939024 
1546	 0.354147833827748 
1547	 0.354599881427531 
1548	 0.355046807261098 
1549	 0.355477831963182 
1550	 0.355903044161462 
1551	 0.356307572503778 
1552	 0.35671668472715 
1553	 0.357123929701224 
1554	 0.357525780361376 
1555	 0.357914999457945 
1556	 0.358318977484829 
1557	 0.358721648430618 
1558	 0.359136387813686 
1559	 0.359564647602307 
1560	 0.35999239918596 
1561	 0.360416259889705 
1562	 0.360863223449033 
1563	 0.361328035178723 
1564	 0.361788419790378 
1565	 0.36225446685703 
1566	 0.362737519784773 
1567	 0.363224524363789 
1568	 0.363720912022586 
1569	 0.364234830094819 
1570	 0.36475893428864 
1571	 0.365295215268443 
1572	 0.365824317873034 
1573	 0.366367402073259 
1574	 0.366904550948604 
1575	 0.367436576196129 
1576	 0.367960982496584 
1577	 0.368479271776379 
1578	 0.36900792163345 
1579	 0.369534609064837 
1580	 0.370056230196256 
1581	 0.370592744169508 
1582	 0.371113043425484 
1583	 0.371616240700168 
1584	 0.372118637062845 
1585	 0.372612119059901 
1586	 0.373113677853831 
1587	 0.373614481949582 
1588	 0.374112174328001 
1589	 0.374616773956401 
1590	 0.375114557699909 
1591	 0.375595783972069 
1592	 0.37609434446187 
1593	 0.376596247746161 
1594	 0.377108916187787 
1595	 0.377648594070092 
1596	 0.378162688259563 
1597	 0.378671433896574 
1598	 0.379176759485485 
1599	 0.379673192647302 
1600	 0.380158895967043 
1601	 0.380642949510619 
1602	 0.381115132613059 
1603	 0.381567348341953 
1604	 0.382016560911594 
1605	 0.382467318021007 
1606	 0.382900834606821 
1607	 0.383313407416425 
1608	 0.383732378900063 
1609	 0.384137985044029 
1610	 0.384553360615248 
1611	 0.384998373939719 
1612	 0.385398790330585 
1613	 0.385786298916982 
1614	 0.386152217303481 
1615	 0.386481817168144 
1616	 0.38680469782984 
1617	 0.38711619201215 
1618	 0.38741292117344 
1619	 0.387679726999514 
1620	 0.387951933253202 
1621	 0.388212862188712 
1622	 0.388480777885067 
1623	 0.388762606151161 
1624	 0.389025805664268 
1625	 0.389285629614427 
1626	 0.38953433921729 
1627	 0.38975394214919 
1628	 0.389988670309755 
1629	 0.390233490587674 
1630	 0.390463847778954 
1631	 0.390700763567863 
1632	 0.390921072503428 
1633	 0.391112522954838 
1634	 0.39131860307569 
1635	 0.391523492125634 
1636	 0.391728027962664 
1637	 0.391954702394802 
1638	 0.392151828041746 
1639	 0.392337384089852 
1640	 0.392505289410187 
1641	 0.392658693998586 
1642	 0.392783867710766 
1643	 0.392889857979845 
1644	 0.392974082866712 
1645	 0.393028433961914 
1646	 0.393067938667669 
1647	 0.393095566569059 
1648	 0.393092467135616 
1649	 0.393060071938977 
1650	 0.393011325560083 
1651	 0.392932255407634 
1652	 0.392843186868339 
1653	 0.39277522121512 
1654	 0.392624941112282 
1655	 0.392443891735841 
1656	 0.392194105330254 
1657	 0.391871212219526 
1658	 0.39149051679618 
1659	 0.391056619988855 
1660	 0.390565321479279 
1661	 0.390013487303951 
1662	 0.389392270141927 
1663	 0.388712301863124 
1664	 0.38795602892106 
1665	 0.387127628170867 
1666	 0.386218120027537 
1667	 0.385243794614179 
1668	 0.384184755767585 
1669	 0.383040175120729 
1670	 0.381817073415228 
1671	 0.380496986487122 
1672	 0.379113895753635 
1673	 0.377666371094218 
1674	 0.376117358143615 
1675	 0.374501398508799 
1676	 0.372804057548578 
1677	 0.370991745564296 
1678	 0.369136314938134 
1679	 0.367192854491651 
1680	 0.365198582914024 
1681	 0.363150355872077 
1682	 0.361023438983644 
1683	 0.358836612058556 
1684	 0.356615156719999 
1685	 0.354320250682582 
1686	 0.351980242780808 
1687	 0.349557946401751 
1688	 0.347139442573137 
1689	 0.344666104391458 
1690	 0.342201091847643 
1691	 0.339765075159927 
1692	 0.337316602018926 
1693	 0.334855098118698 
1694	 0.332367682014951 
1695	 0.329851489301784 
1696	 0.327308681437856 
1697	 0.324736411916116 
1698	 0.322126973074204 
1699	 0.319473303561757 
1700	 0.316929783253064 
1701	 0.314354403363725 
1702	 0.311925740566169 
1703	 0.309554982722646 
1704	 0.307347771528003 
1705	 0.305225385705043 
1706	 0.303249779882925 
1707	 0.301546404289674 
1708	 0.299921362852607 
1709	 0.298423579640626 
1710	 0.29708115102883 
1711	 0.295761335235316 
1712	 0.29454705459877 
1713	 0.293383201330164 
1714	 0.292243637982856 
1715	 0.291254154819369 
1716	 0.290299972036087 
1717	 0.289395456557357 
1718	 0.288584031934897 
1719	 0.287799007713578 
1720	 0.287122063786428 
1721	 0.286592162991399 
1722	 0.286204558622292 
1723	 0.286008075565041 
1724	 0.285992517067611 
1725	 0.28615454801765 
1726	 0.286566204209962 
1727	 0.287218681672326 
1728	 0.288062945470819 
1729	 0.289176726887615 
1730	 0.290524822404362 
1731	 0.291967538395272 
1732	 0.293595360750317 
1733	 0.295235632750387 
1734	 0.296873815509218 
1735	 0.298545380646523 
1736	 0.300057024553587 
1737	 0.301467144994792 
1738	 0.302654920943153 
1739	 0.303653526112083 
1740	 0.30450084967039 
1741	 0.30515557566871 
1742	 0.305588122000448 
1743	 0.305906468474392 
1744	 0.306009246296921 
1745	 0.306053946986956 
1746	 0.305940377088371 
1747	 0.305841491884505 
1748	 0.305644352502036 
1749	 0.305499609177096 
1750	 0.305317972491978 
1751	 0.305218129406939 
1752	 0.305128463621304 
1753	 0.305166578367829 
1754	 0.305257837074726 
1755	 0.305502626677867 
1756	 0.305848912745023 
1757	 0.306341072272231 
1758	 0.307014735313101 
1759	 0.307794193903562 
1760	 0.308742095561116 
1761	 0.30987323656907 
1762	 0.311086229602345 
1763	 0.312501706931553 
1764	 0.314043199107967 
1765	 0.315680405784039 
1766	 0.317525658604909 
1767	 0.319382515830154 
1768	 0.321283957231059 
1769	 0.323217491170384 
1770	 0.324997237986093 
1771	 0.326765019091053 
1772	 0.328445696337033 
1773	 0.33001256327718 
1774	 0.331576250522889 
1775	 0.33296963370499 
1776	 0.334307777943481 
1777	 0.335580030932733 
1778	 0.336687823936302 
1779	 0.337799787516068 
1780	 0.338818036308885 
1781	 0.339703012731876 
1782	 0.340552543809193 
1783	 0.341277592329087 
1784	 0.341934126903653 
1785	 0.342522770333261 
1786	 0.343061001217725 
1787	 0.343535408912475 
1788	 0.344009396586974 
1789	 0.344453652604683 
1790	 0.344858207088203 
1791	 0.345236395117752 
1792	 0.345598758671013 
1793	 0.345879677872197 
1794	 0.346244330613813 
1795	 0.346606659333825 
1796	 0.34692492151216 
1797	 0.347274341713043 
1798	 0.347605274988859 
1799	 0.347958015132427 
1800	 0.348358493770213 
1801	 0.345361139762498 
1802	 0.345724322637564 
1803	 0.346076388374747 
1804	 0.346413983389359 
1805	 0.346778822354746 
1806	 0.347126790531481 
1807	 0.347475397477892 
1808	 0.347816649765562 
1809	 0.348149808699208 
1810	 0.348487012868053 
1811	 0.348815062935247 
1812	 0.349155052139615 
1813	 0.349488413470908 
1814	 0.349854522173309 
1815	 0.350221771223101 
1816	 0.350616960165004 
1817	 0.351026409086414 
1818	 0.351458839976866 
1819	 0.351893267334616 
1820	 0.352342452002875 
1821	 0.352797763723914 
1822	 0.353262307404555 
1823	 0.353745595441628 
1824	 0.354210617456924 
1825	 0.354674160753153 
1826	 0.355119581754075 
1827	 0.355541608174913 
1828	 0.355971503287256 
1829	 0.356395643273619 
1830	 0.35681648875313 
1831	 0.357223435937979 
1832	 0.35765754709638 
1833	 0.358092627703394 
1834	 0.358523169531578 
1835	 0.358955119046666 
1836	 0.35935909928242 
1837	 0.359768779068039 
1838	 0.360152671793074 
1839	 0.360568501253391 
1840	 0.361007166551507 
1841	 0.361432121399439 
1842	 0.361856116891393 
1843	 0.362291128013262 
1844	 0.362730061187564 
1845	 0.363120998668469 
1846	 0.363499632633383 
1847	 0.363841153401202 
1848	 0.364172712075806 
1849	 0.364486849475153 
1850	 0.364771964136819 
1851	 0.36504913875924 
1852	 0.365295379953357 
1853	 0.365467030343187 
1854	 0.365582983969713 
1855	 0.365656693904633 
1856	 0.365682723933988 
1857	 0.365688031688714 
1858	 0.365654590488787 
1859	 0.365587361253155 
1860	 0.365503344106116 
1861	 0.365347990076612 
1862	 0.365142042361836 
1863	 0.364908021026042 
1864	 0.364595473582097 
1865	 0.364247590691692 
1866	 0.363856054481995 
1867	 0.363352464782522 
1868	 0.36280081912702 
1869	 0.362160423643414 
1870	 0.361440270811014 
1871	 0.360658248121355 
1872	 0.359792398975547 
1873	 0.358847916026159 
1874	 0.357835222785057 
1875	 0.356736621556143 
1876	 0.355459651178722 
1877	 0.354125227228477 
1878	 0.352616094480151 
1879	 0.350931809376725 
1880	 0.349232398918347 
1881	 0.347336725547282 
1882	 0.345271986598793 
1883	 0.343100208674246 
1884	 0.340744476360833 
1885	 0.338035829959117 
1886	 0.335240173852554 
1887	 0.332155530006167 
1888	 0.32877337838896 
1889	 0.325480197602011 
1890	 0.321918159134882 
1891	 0.318289416549189 
1892	 0.314630202164516 
1893	 0.310784232900257 
1894	 0.306696813287151 
1895	 0.302719188073239 
1896	 0.29861904634 
1897	 0.294464759677574 
1898	 0.290663308746793 
1899	 0.286751291096928 
1900	 0.282942266334477 
1901	 0.279363435058888 
1902	 0.275634183115465 
1903	 0.272160300046278 
1904	 0.268878052987729 
1905	 0.265725723843027 
1906	 0.262740756332074 
1907	 0.260173711333518 
1908	 0.257705049189122 
1909	 0.255433439213639 
1910	 0.253423931259573 
1911	 0.251470373714902 
1912	 0.249762029885022 
1913	 0.248222334603084 
1914	 0.246829030460323 
1915	 0.245630558310103 
1916	 0.244662807223182 
1917	 0.243775722514809 
1918	 0.243013536635204 
1919	 0.242387573124464 
1920	 0.241803110938158 
1921	 0.241324836727979 
1922	 0.240944070759894 
1923	 0.24061393974049 
1924	 0.240379787039485 
1925	 0.24020136732687 
1926	 0.240061114884348 
1927	 0.239977544263426 
1928	 0.239934448631684 
1929	 0.23994123439299 
1930	 0.23997230389243 
1931	 0.240046546898093 
1932	 0.240163009392873 
1933	 0.240315621820077 
1934	 0.240521636477567 
1935	 0.240750567005042 
1936	 0.241020039726671 
1937	 0.241330742705796 
1938	 0.241667989246252 
1939	 0.242043360924106 
1940	 0.242467284212118 
1941	 0.242933828439799 
1942	 0.24339329470565 
1943	 0.243895111084753 
1944	 0.244397203819633 
1945	 0.244900626543865 
1946	 0.245454599404398 
1947	 0.245996184982321 
1948	 0.246585590215121 
1949	 0.247210410879019 
1950	 0.247805109208881 
1951	 0.248396939457417 
1952	 0.249005205677872 
1953	 0.249608397967394 
1954	 0.250196553265368 
1955	 0.250862861539326 
1956	 0.251484959499455 
1957	 0.252127315868391 
1958	 0.252804528436693 
1959	 0.253408084172681 
1960	 0.25403569543472 
1961	 0.254660803895541 
1962	 0.255260642806521 
1963	 0.255885517621105 
1964	 0.256535978411049 
1965	 0.257170386283423 
1966	 0.257817319320992 
1967	 0.258453287971671 
1968	 0.259029758750776 
1969	 0.259630168287312 
1970	 0.26023066672492 
1971	 0.260822222452286 
1972	 0.26147327395591 
1973	 0.262107428668041 
1974	 0.262719378903142 
1975	 0.263325897361002 
1976	 0.263913343003676 
1977	 0.26447550450906 
1978	 0.265039867271138 
1979	 0.265593608648468 
1980	 0.266131945015144 
1981	 0.266698825142219 
1982	 0.267238634523489 
1983	 0.267782923274224 
1984	 0.268334720925898 
1985	 0.268841945710337 
1986	 0.26934152836446 
1987	 0.269820399337165 
1988	 0.270270329391463 
1989	 0.270721716249917 
1990	 0.271167679142178 
1991	 0.271585688538445 
1992	 0.271986107584707 
1993	 0.272391122959538 
1994	 0.272737246675582 
1995	 0.273087537266799 
1996	 0.273442985572137 
1997	 0.273782624925439 
1998	 0.274130395159522 
1999	 0.27449379421514 
2000	 0.274824615314031 
2001	 0.275150427236512 
2002	 0.275449860309574 
2003	 0.275726407833046 
2004	 0.275991766260949 
2005	 0.276241457222004 
2006	 0.276475636163798 
2007	 0.276695884331229 
2008	 0.276893333286467 
2009	 0.277081196477649 
2010	 0.277247342600782 
2011	 0.277385088686745 
2012	 0.277504786814609 
2013	 0.277597835555259 
2014	 0.277669358028645 
2015	 0.277703408720588 
2016	 0.277714751518425 
2017	 0.277690716244221 
2018	 0.277626381941698 
2019	 0.27753393905537 
2020	 0.277416594349591 
2021	 0.277259540805183 
2022	 0.277065757481407 
2023	 0.27683995860222 
2024	 0.276560106124387 
2025	 0.27624461916031 
2026	 0.275899938272275 
2027	 0.275484166290343 
2028	 0.275113825085934 
2029	 0.274730659716123 
2030	 0.274347853250736 
2031	 0.27399587245267 
2032	 0.273608489251559 
2033	 0.273151582136006 
2034	 0.27277130266507 
2035	 0.272394228340785 
2036	 0.272054329242421 
2037	 0.27178585313062 
2038	 0.271565048445729 
2039	 0.271369098483325 
2040	 0.271207719912923 
2041	 0.271082234933424 
2042	 0.270993863214645 
2043	 0.270941461700671 
2044	 0.270936715598304 
2045	 0.270945887931721 
2046	 0.270984271416174 
2047	 0.271050482500395 
2048	 0.271130460055731 
2049	 0.271255599425921 
2050	 0.271425011710642 
2051	 0.271625396421526 
2052	 0.271830772954213 
2053	 0.272068099794478 
2054	 0.272304279685434 
2055	 0.272541936299414 
2056	 0.272795576191829 
2057	 0.27306466614947 
2058	 0.273347980258266 
2059	 0.273651338969982 
2060	 0.273948682932374 
2061	 0.274279796874133 
2062	 0.274572248398609 
2063	 0.274844207420722 
2064	 0.275113314057587 
2065	 0.275366853289815 
2066	 0.275607850256302 
2067	 0.275860262772164 
2068	 0.276105319789979 
2069	 0.276335443762382 
2070	 0.276570405962333 
2071	 0.276760463399663 
2072	 0.276918950054703 
2073	 0.277075900911237 
2074	 0.277208561549114 
2075	 0.277330617760329 
2076	 0.277456778058844 
2077	 0.277546633029904 
2078	 0.277606497547224 
2079	 0.277649897176371 
2080	 0.277664001876655 
2081	 0.277670581593737 
2082	 0.277660465707121 
2083	 0.277639752819231 
2084	 0.277599419636376 
2085	 0.277543698007327 
2086	 0.277473173141422 
2087	 0.277377636445272 
2088	 0.277281182574346 
2089	 0.277180149199772 
2090	 0.277057706662159 
2091	 0.276925540510115 
2092	 0.2767736677297 
2093	 0.276604396894762 
2094	 0.276416013153439 
2095	 0.276208759514677 
2096	 0.275982214013451 
2097	 0.275732341245011 
2098	 0.27546760306426 
2099	 0.275202171750735 
2100	 0.274916882885323 
2101	 0.274607801671479 
2102	 0.27428908667721 
2103	 0.2739416416297 
2104	 0.27355002239669 
2105	 0.273174609187672 
2106	 0.272791666241254 
2107	 0.272393913757335 
2108	 0.271997087608798 
2109	 0.271578805039128 
2110	 0.271137139592552 
2111	 0.270693630973356 
2112	 0.270232250528179 
2113	 0.269771199455023 
2114	 0.269308535939649 
2115	 0.268831639334422 
2116	 0.268328215483137 
2117	 0.267853624626845 
2118	 0.267376711175946 
2119	 0.266887607950189 
2120	 0.266433798982739 
2121	 0.265996534348567 
2122	 0.265574966665197 
2123	 0.265166317477587 
2124	 0.264782161674637 
2125	 0.26442408129609 
2126	 0.264072973559575 
2127	 0.2637276698769 
2128	 0.263423981263597 
2129	 0.263156534945625 
2130	 0.262885440902253 
2131	 0.262657183022749 
2132	 0.262409414442633 
2133	 0.262140647805939 
2134	 0.261891559276394 
2135	 0.261652350619175 
2136	 0.261409934706804 
2137	 0.261160996693636 
2138	 0.26090109885331 
2139	 0.260669440161035 
2140	 0.260432502833461 
2141	 0.260228848200634 
2142	 0.260051502802282 
2143	 0.259892789846892 
2144	 0.259749140670574 
2145	 0.259628332545807 
2146	 0.259536045045553 
2147	 0.259458512174966 
2148	 0.259398729167918 
2149	 0.25935877676903 
2150	 0.259338470988343 
2151	 0.259337430804268 
2152	 0.25937341029727 
2153	 0.259402359568578 
2154	 0.259435631809697 
2155	 0.259454083163801 
2156	 0.259437224071101 
2157	 0.259385276875444 
2158	 0.259339894055147 
2159	 0.259278692003846 
2160	 0.259205093380656 
2161	 0.259115409983125 
2162	 0.259034317519945 
2163	 0.258939072881513 
2164	 0.258852443516038 
2165	 0.258774901009531 
2166	 0.258693735910043 
2167	 0.258596983568244 
2168	 0.258522111834942 
2169	 0.258458681719182 
2170	 0.258404995164902 
2171	 0.258342426898702 
2172	 0.258323641006356 
2173	 0.258325339124479 
2174	 0.258353752685533 
2175	 0.258420277300443 
2176	 0.258507237208162 
2177	 0.258609776212468 
2178	 0.258732156138658 
2179	 0.258861653582316 
2180	 0.25903069459242 
2181	 0.259156358489847 
2182	 0.259269941150837 
2183	 0.259391963037671 
2184	 0.259484644846415 
2185	 0.259611748690646 
2186	 0.259778027309472 
2187	 0.259909325334394 
2188	 0.260049182799237 
2189	 0.260162172901244 
2190	 0.260245069845221 
2191	 0.260330043971297 
2192	 0.260402935945659 
2193	 0.260469846865731 
2194	 0.260547577037747 
2195	 0.260589937315084 
2196	 0.260611889717216 
2197	 0.260619044346477 
2198	 0.260592348993682 
2199	 0.260540877514235 
2200	 0.260474530147554 
2201	 0.260386029746597 
2202	 0.260281893899298 
2203	 0.260158766213539 
2204	 0.260019319708556 
2205	 0.259848651638617 
2206	 0.259696666669775 
2207	 0.259541428273678 
2208	 0.259373458923909 
2209	 0.259217501133845 
2210	 0.259028360418686 
2211	 0.258830618899677 
2212	 0.258592260866809 
2213	 0.25831730892778 
2214	 0.258034245096653 
2215	 0.257729579825201 
2216	 0.257387637689999 
2217	 0.257038722816535 
2218	 0.256645784344602 
2219	 0.25621555879506 
2220	 0.255740235038824 
2221	 0.255226312443766 
2222	 0.254668941399292 
2223	 0.254094145441115 
2224	 0.253443972036807 
2225	 0.252765286222214 
2226	 0.252041112633137 
2227	 0.251187630923374 
2228	 0.250250040441634 
2229	 0.249210183535448 
2230	 0.248024682682222 
2231	 0.246842896402604 
2232	 0.245605880616246 
2233	 0.244278954988352 
2234	 0.242942254802931 
2235	 0.241431485028952 
2236	 0.239770647298503 
2237	 0.238059640490437 
2238	 0.236181187564617 
2239	 0.234338101037217 
2240	 0.232459985224614 
2241	 0.23053513614597 
2242	 0.228633831900777 
2243	 0.226601637398899 
2244	 0.224441783676612 
2245	 0.222293841864851 
2246	 0.219995745041106 
2247	 0.21779627535814 
2248	 0.215670037381614 
2249	 0.213495192263666 
2250	 0.211309480739155 
2251	 0.209198252678856 
2252	 0.206924772547971 
2253	 0.204719835429283 
2254	 0.202542803759757 
2255	 0.200370369392748 
2256	 0.198424084698129 
2257	 0.196484385469726 
2258	 0.194590061925224 
2259	 0.192805194832642 
2260	 0.190979815681087 
2261	 0.189122115863568 
2262	 0.187392718526839 
2263	 0.185698947783326 
2264	 0.184101034362709 
2265	 0.182621221539844 
2266	 0.181130184563964 
2267	 0.179730614167728 
2268	 0.178272765559163 
2269	 0.176815054841641 
2270	 0.17537379029995 
2271	 0.173875102998846 
2272	 0.172474002875009 
2273	 0.17114776045398 
2274	 0.169798590320751 
2275	 0.168537234681243 
2276	 0.167199350202156 
2277	 0.165836101837229 
2278	 0.164440602185892 
2279	 0.162952916078658 
2280	 0.161515304376941 
2281	 0.160096270471424 
2282	 0.158645722280572 
2283	 0.157200218572248 
2284	 0.15577958796272 
2285	 0.154221484431806 
2286	 0.152707718584101 
2287	 0.151175429170579 
2288	 0.149610891755842 
2289	 0.148194334877413 
2290	 0.146739336507514 
2291	 0.14530821460266 
2292	 0.143969739034785 
2293	 0.142571674764189 
2294	 0.141236002440756 
2295	 0.139980018068086 
2296	 0.138807277883849 
2297	 0.137817182890816 
2298	 0.136957985895241 
2299	 0.136250417455148 
2300	 0.135726853475646 
2301	 0.135298510111275 
2302	 0.134987335446553 
2303	 0.134853708350784 
2304	 0.13488645287951 
2305	 0.135033604284325 
2306	 0.135354808256166 
2307	 0.13578012593807 
2308	 0.136319109897643 
2309	 0.137001546100959 
2310	 0.137883631508616 
2311	 0.138771411121253 
2312	 0.139825249363296 
2313	 0.14082141049785 
2314	 0.141885346949513 
2315	 0.14287199103015 
2316	 0.143854931465927 
2317	 0.144747174099395 
2318	 0.145603462254459 
2319	 0.146338813403115 
2320	 0.147002363980878 
2321	 0.147549329551577 
2322	 0.147966757624653 
2323	 0.148300024183967 
2324	 0.148510316703423 
2325	 0.148667719522931 
2326	 0.148755191645525 
2327	 0.148733136222413 
2328	 0.148615562760572 
2329	 0.148411638654969 
2330	 0.148091219804545 
2331	 0.147681692175204 
2332	 0.14724261267046 
2333	 0.146686395904555 
2334	 0.146031581317434 
2335	 0.145347508281408 
2336	 0.144533519263457 
2337	 0.143698177114865 
2338	 0.142905584804392 
2339	 0.142040063365782 
2340	 0.141238425649713 
2341	 0.140512141828765 
2342	 0.139834631915407 
2343	 0.139286125553163 
2344	 0.138855915404498 
2345	 0.138583995563504 
2346	 0.138462028154795 
2347	 0.138515601291164 
2348	 0.138722001253924 
2349	 0.139139676370505 
2350	 0.139706485562879 
2351	 0.140354536095522 
2352	 0.141151137630391 
2353	 0.141986964740879 
2354	 0.142750850744055 
2355	 0.143515810687888 
2356	 0.144203516986535 
2357	 0.144744478203062 
2358	 0.145253791823129 
2359	 0.145679368098196 
2360	 0.145990274376934 
2361	 0.146254028175419 
2362	 0.146479027223197 
2363	 0.146624194482215 
2364	 0.146665435619715 
2365	 0.146659030919556 
2366	 0.14669071286688 
2367	 0.146665474619315 
2368	 0.146653441886304 
2369	 0.146718927859335 
2370	 0.146712387827689 
2371	 0.146732530584102 
2372	 0.146814971830292 
2373	 0.14683479331984 
2374	 0.14681399275638 
2375	 0.146832389107086 
2376	 0.14683723870484 
2377	 0.14680446475078 
2378	 0.146832150166334 
2379	 0.146843372285285 
2380	 0.146874999062454 
2381	 0.146946709285847 
2382	 0.146983405894637 
2383	 0.147011068579342 
2384	 0.147080931017824 
2385	 0.147146308163951 
2386	 0.147211555419371 
2387	 0.147313087180025 
2388	 0.14736504336941 
2389	 0.147374654935725 
2390	 0.147410594497905 
2391	 0.1474733011762 
2392	 0.147488196204098 
2393	 0.1474751517733 
2394	 0.147479940616219 
2395	 0.147442352357944 
2396	 0.147472347328281 
2397	 0.147552983319787 
2398	 0.147583015996481 
2399	 0.147628052593655 
2400	 0.147657123322563 
2401	 0.147647947957917 
2402	 0.147643846933693 
2403	 0.147701076479113 
2404	 0.147837571874997 
2405	 0.14795469489024 
2406	 0.14795545336625 
2407	 0.14788537507472 
2408	 0.147860029300813 
2409	 0.147814042349195 
2410	 0.147906541638332 
2411	 0.148121885205502 
2412	 0.148141251808254 
2413	 0.148071884681672 
2414	 0.148046737614647 
2415	 0.147956613857317 
2416	 0.147926832869912 
2417	 0.147978927778905 
2418	 0.14799149272244 
2419	 0.148023627567291 
2420	 0.148042774727488 
2421	 0.148059023556046 
2422	 0.14805858014378 
2423	 0.147990030871404 
2424	 0.147935246559796 
2425	 0.147846175293061 
2426	 0.147754643728412 
2427	 0.147726441051673 
2428	 0.147645918105416 
2429	 0.147566396670157 
2430	 0.147523480953735 
2431	 0.147458144247262 
2432	 0.147451056720764 
2433	 0.14738829098005 
2434	 0.147217656831038 
2435	 0.147052161480768 
2436	 0.146747009241543 
2437	 0.146413592690876 
2438	 0.146281424345441 
2439	 0.146145371937888 
2440	 0.145973430137308 
2441	 0.145897533027582 
2442	 0.145751462078101 
2443	 0.145488555495914 
2444	 0.145318350714034 
2445	 0.1451396539905 
2446	 0.144748126287726 
2447	 0.144427571230014 
2448	 0.14409395131307 
2449	 0.143659091268535 
2450	 0.143484679548967 
2451	 0.143258062895017 
2452	 0.14289097004758 
2453	 0.142617137693883 
2454	 0.142260333234784 
2455	 0.141840213753788 
2456	 0.141537659152594 
2457	 0.141347089641611 
2458	 0.141128252975625 
2459	 0.140870671158598 
2460	 0.140647604330996 
2461	 0.140403147326262 
2462	 0.140102416380735 
2463	 0.139854906842066 
2464	 0.13962599540775 
2465	 0.139317887873681 
2466	 0.139019764107861 
2467	 0.138776047919657 
2468	 0.13864808685559 
2469	 0.138590388948311 
2470	 0.138492821752316 
2471	 0.138484747776758 
2472	 0.138423845693201 
2473	 0.138145440038629 
2474	 0.138038777237423 
2475	 0.138056550849844 
2476	 0.137777082159482 
2477	 0.137757120321733 
2478	 0.13791413987855 
2479	 0.137638343276828 
2480	 0.137648834663829 
2481	 0.137644305366891 
2482	 0.137458787881416 
2483	 0.137404568938626 
2484	 0.137389636728159 
2485	 0.137344387073931 
2486	 0.137317857516692 
2487	 0.137398543340149 
2488	 0.137558458889757 
2489	 0.137579305793408 
2490	 0.137583222309487 
2491	 0.137683660328527 
2492	 0.137798842771606 
2493	 0.137916197060196 
2494	 0.138043131205661 
2495	 0.138125888113682 
2496	 0.138129673081022 
2497	 0.138206277423297 
2498	 0.138362795156253 
2499	 0.138684193705791 
2500	 0.139002763416333 
