Wavelength	spectrum00018.asd
350	 3.64951848043208E-02 
351	 3.48891198705048E-02 
352	 3.28775564469536E-02 
353	 3.23554810643917E-02 
354	 3.38231687657275E-02 
355	 3.44126672156191E-02 
356	 3.50592920107835E-02 
357	 3.59633357748316E-02 
358	 3.18525753439996E-02 
359	 3.06836407549346E-02 
360	 3.26271611127305E-02 
361	 3.37536124086102E-02 
362	 3.37277141209526E-02 
363	 3.27248238362314E-02 
364	 3.17255651903945E-02 
365	 3.25764278831561E-02 
366	 3.35704964632802E-02 
367	 3.36464480478954E-02 
368	 3.26440078728499E-02 
369	 3.25632574109428E-02 
370	 3.26944252620753E-02 
371	 3.27816072091679E-02 
372	 3.29112500425719E-02 
373	 3.38402828120112E-02 
374	 3.39784257075429E-02 
375	 3.32727305784817E-02 
376	 3.41671355474397E-02 
377	 3.43967455312938E-02 
378	 3.41849792310982E-02 
379	 3.41272157005382E-02 
380	 3.36204037401023E-02 
381	 3.39598604637634E-02 
382	 3.46039048970922E-02 
383	 3.40836269624688E-02 
384	 3.35403701105917E-02 
385	 3.39253366957739E-02 
386	 3.48224101805858E-02 
387	 3.38266739780317E-02 
388	 3.36361901887096E-02 
389	 3.41091722776789E-02 
390	 0.034429254031614 
391	 3.44232390724288E-02 
392	 3.43268797159139E-02 
393	 3.42940989001288E-02 
394	 3.43673813069142E-02 
395	 3.40626680148411E-02 
396	 0.034231213619242 
397	 3.50611399327807E-02 
398	 3.54693999104539E-02 
399	 3.49175714919744E-02 
400	 3.43505875072873E-02 
401	 3.46573534734789E-02 
402	 3.44209738361338E-02 
403	 3.47701852058902E-02 
404	 3.54494451391443E-02 
405	 3.52385680797907E-02 
406	 3.52162489806255E-02 
407	 3.51183472016164E-02 
408	 3.48642489768853E-02 
409	 3.51847592531961E-02 
410	 3.48566173662723E-02 
411	 3.45722153040613E-02 
412	 3.52352637709911E-02 
413	 3.55868342950961E-02 
414	 3.51509027421478E-02 
415	 3.44819529386999E-02 
416	 3.48990431214926E-02 
417	 3.50985196920431E-02 
418	 3.51427991095883E-02 
419	 0.035209832320616 
420	 3.51357891216168E-02 
421	 3.50941489018885E-02 
422	 3.51984726661543E-02 
423	 3.54545336479192E-02 
424	 3.54129624470886E-02 
425	 3.52684548918709E-02 
426	 3.52138939661297E-02 
427	 0.035371621585308 
428	 3.52758373872709E-02 
429	 3.52094725856748E-02 
430	 3.53855877616847E-02 
431	 3.52442827165284E-02 
432	 3.53668361722949E-02 
433	 3.55359106255794E-02 
434	 3.52084774158633E-02 
435	 3.53135300824404E-02 
436	 3.54664801540769E-02 
437	 3.54026211436478E-02 
438	 3.52610558147322E-02 
439	 3.53957928278568E-02 
440	 3.55040028069317E-02 
441	 0.035290043441562 
442	 3.53707993302368E-02 
443	 3.54419131515719E-02 
444	 3.54677080331394E-02 
445	 3.56282415301679E-02 
446	 3.56580854761679E-02 
447	 3.55020102316826E-02 
448	 3.52816107443815E-02 
449	 3.54382512620656E-02 
450	 3.55690172111226E-02 
451	 3.56241310992001E-02 
452	 3.56760702562863E-02 
453	 3.56652331182409E-02 
454	 0.035661518256559 
455	 0.035680042885908 
456	 3.56682199784874E-02 
457	 3.57685896308747E-02 
458	 3.58537054967558E-02 
459	 3.58103303722044E-02 
460	 3.57365827981777E-02 
461	 3.57409666727065E-02 
462	 3.58133885661493E-02 
463	 3.58670093685283E-02 
464	 3.58288653207376E-02 
465	 3.57922461866908E-02 
466	 0.035797775165607 
467	 3.57724783903567E-02 
468	 3.57897654790481E-02 
469	 3.57962428348298E-02 
470	 3.57641085053835E-02 
471	 3.59502546202081E-02 
472	 0.035989005278186 
473	 3.58796114866964E-02 
474	 3.59101829299085E-02 
475	 3.58618385127731E-02 
476	 3.58335122313419E-02 
477	 3.58891853972539E-02 
478	 0.035904637496274 
479	 3.59634319589316E-02 
480	 3.60419648029915E-02 
481	 3.60806760946615E-02 
482	 3.60796699987986E-02 
483	 3.60136567972006E-02 
484	 3.59545170657059E-02 
485	 3.60786144241121E-02 
486	 3.61758867173564E-02 
487	 0.03613819033136 
488	 3.59923447258333E-02 
489	 0.03609167110209 
490	 3.61611501128328E-02 
491	 3.61448946551437E-02 
492	 3.61257034038242E-02 
493	 3.61367321103233E-02 
494	 3.62383245961905E-02 
495	 3.63770726440267E-02 
496	 3.63054504037297E-02 
497	 3.62763683932776E-02 
498	 0.036302658015174 
499	 3.63250189177684E-02 
500	 3.63308034098784E-02 
501	 3.62831565632196E-02 
502	 0.036228817784373 
503	 3.62776701088541E-02 
504	 3.63007137473833E-02 
505	 3.62997062066036E-02 
506	 3.63047623865598E-02 
507	 0.036361437212026 
508	 0.036362966496902 
509	 3.63504854584072E-02 
510	 3.64091200219581E-02 
511	 3.64226327274938E-02 
512	 3.64191765258834E-02 
513	 3.64339617810254E-02 
514	 3.64957958131658E-02 
515	 0.036468910982625 
516	 3.64142240891935E-02 
517	 3.64109573680556E-02 
518	 0.036405048381821 
519	 3.64157893414706E-02 
520	 3.64404306421125E-02 
521	 3.64618158301503E-02 
522	 3.64975646797503E-02 
523	 3.65003330855665E-02 
524	 3.64711355362253E-02 
525	 0.036532776836269 
526	 3.65137210298199E-02 
527	 3.64851072991472E-02 
528	 3.65612870946253E-02 
529	 3.65802186106874E-02 
530	 3.65639516901712E-02 
531	 3.65546819297015E-02 
532	 3.66001477077097E-02 
533	 3.66216647449793E-02 
534	 0.036624041485216 
535	 3.66200600075018E-02 
536	 3.65779084634488E-02 
537	 3.66049559730145E-02 
538	 3.66423119876029E-02 
539	 3.65663353583549E-02 
540	 3.65901099181004E-02 
541	 3.66139642422187E-02 
542	 3.65963485399167E-02 
543	 3.66525219471245E-02 
544	 3.66479502709547E-02 
545	 3.66046260756939E-02 
546	 3.65879723915449E-02 
547	 3.66234076081018E-02 
548	 3.66490114701844E-02 
549	 3.66498029974708E-02 
550	 3.66554822202311E-02 
551	 3.66448766136967E-02 
552	 3.66539090430248E-02 
553	 3.66974047500178E-02 
554	 3.67139249627094E-02 
555	 3.67154797252916E-02 
556	 3.67278917003128E-02 
557	 3.67745446699078E-02 
558	 3.67938036260268E-02 
559	 3.68307636275291E-02 
560	 0.036891549891398 
561	 0.036915827615644 
562	 3.69125918988619E-02 
563	 3.68986242851605E-02 
564	 3.68882216511103E-02 
565	 3.68698170227196E-02 
566	 3.68558848714947E-02 
567	 3.68437357198445E-02 
568	 3.68220160124686E-02 
569	 3.68308084801989E-02 
570	 3.68354408652983E-02 
571	 3.68176213129851E-02 
572	 3.68164179473178E-02 
573	 3.68443526154375E-02 
574	 3.68708982933569E-02 
575	 3.68602881498468E-02 
576	 3.68682239227809E-02 
577	 0.036851599162526 
578	 3.68128152314346E-02 
579	 3.68115224527222E-02 
580	 3.68056924560989E-02 
581	 3.68011691258141E-02 
582	 3.68125456595529E-02 
583	 3.68514275087909E-02 
584	 3.68770853124584E-02 
585	 3.68776291861856E-02 
586	 3.68663354280379E-02 
587	 3.69026067395753E-02 
588	 3.69392559251941E-02 
589	 3.69562699024186E-02 
590	 0.037002407625041 
591	 3.69999354253048E-02 
592	 3.69748400187055E-02 
593	 3.69702696115196E-02 
594	 3.69522843285839E-02 
595	 3.69197134141678E-02 
596	 3.68882958261898E-02 
597	 3.68848403294538E-02 
598	 3.68703887576563E-02 
599	 3.68798314405574E-02 
600	 3.69180373975865E-02 
601	 3.68792785997656E-02 
602	 3.68818676909896E-02 
603	 3.69153044957127E-02 
604	 3.69219230421173E-02 
605	 3.69407033188624E-02 
606	 3.69616470546581E-02 
607	 3.69798465403925E-02 
608	 3.70012960497488E-02 
609	 3.69972569138831E-02 
610	 3.70062437486123E-02 
611	 3.70528527727956E-02 
612	 3.70604442772849E-02 
613	 3.70480375356608E-02 
614	 3.70398276525131E-02 
615	 3.70563456332309E-02 
616	 3.70402272480058E-02 
617	 3.70337031223041E-02 
618	 3.70584440040876E-02 
619	 3.70778365368453E-02 
620	 3.70879334172148E-02 
621	 3.70769215361597E-02 
622	 3.70442869866846E-02 
623	 0.03704203124958 
624	 3.70581825528511E-02 
625	 0.037076666826631 
626	 3.70820803179584E-02 
627	 3.70966552705358E-02 
628	 3.71020252623436E-02 
629	 3.70887011706685E-02 
630	 3.70874274506521E-02 
631	 3.70845324858019E-02 
632	 3.70909796473374E-02 
633	 3.71185857547255E-02 
634	 3.71106028122462E-02 
635	 3.71118798808002E-02 
636	 3.71298748567348E-02 
637	 3.71155676419377E-02 
638	 3.71356288342543E-02 
639	 0.037130383683622 
640	 3.70673787435151E-02 
641	 3.71082495547345E-02 
642	 3.71259503443087E-02 
643	 3.71115797315606E-02 
644	 3.71265479937853E-02 
645	 3.71453628384877E-02 
646	 0.037151704550389 
647	 0.037143359637362 
648	 3.71389105246021E-02 
649	 3.71432503591564E-02 
650	 3.71513112467408E-02 
651	 0.037152743944237 
652	 3.71302097930394E-02 
653	 3.71257990696758E-02 
654	 3.71373167902919E-02 
655	 3.71281380419034E-02 
656	 3.71305786916798E-02 
657	 3.71314077218692E-02 
658	 3.71241240701565E-02 
659	 3.71299507000291E-02 
660	 3.71584248889732E-02 
661	 3.71811640261357E-02 
662	 3.71680659799089E-02 
663	 3.71691379253172E-02 
664	 3.71553979969261E-02 
665	 3.71308513279814E-02 
666	 3.71356207210597E-02 
667	 3.71608245622766E-02 
668	 3.71788366277203E-02 
669	 3.71764406076546E-02 
670	 3.71898808728316E-02 
671	 3.71782919026614E-02 
672	 3.71599928090634E-02 
673	 3.71734612292502E-02 
674	 3.71961271248803E-02 
675	 3.72013278429566E-02 
676	 3.71869958731347E-02 
677	 3.71805480068907E-02 
678	 3.71838717757717E-02 
679	 0.037189316218254 
680	 3.71902465296309E-02 
681	 3.71922372275532E-02 
682	 3.71985526860265E-02 
683	 3.71977004322388E-02 
684	 3.71775828094913E-02 
685	 3.71913407950701E-02 
686	 3.72006759668704E-02 
687	 3.71906992019325E-02 
688	 3.71930878353295E-02 
689	 3.71703509288477E-02 
690	 0.037148200316582 
691	 3.71548929646583E-02 
692	 3.71704199623633E-02 
693	 0.037175191045997 
694	 3.71692677058664E-02 
695	 3.71660595300932E-02 
696	 3.71715492630373E-02 
697	 3.71725633329324E-02 
698	 3.71632341346078E-02 
699	 3.71518770764046E-02 
700	 3.71664862408704E-02 
701	 3.71776342535347E-02 
702	 3.71603457659271E-02 
703	 0.037174292589154 
704	 3.71895598055865E-02 
705	 0.037188424388194 
706	 3.71689176598025E-02 
707	 0.037185080758979 
708	 3.71992231008312E-02 
709	 3.71895631447993E-02 
710	 3.71809183419241E-02 
711	 3.71825047586543E-02 
712	 3.71820277769139E-02 
713	 3.71715994353474E-02 
714	 3.71928436256789E-02 
715	 3.72042419523042E-02 
716	 3.71967742106647E-02 
717	 3.71871054057229E-02 
718	 3.71784050486969E-02 
719	 0.03719281205798 
720	 0.037219342037898 
721	 3.71866148336027E-02 
722	 0.037183978775038 
723	 3.71979171746196E-02 
724	 3.71929353259431E-02 
725	 3.71762127637889E-02 
726	 0.03718628796685 
727	 3.72078662897361E-02 
728	 3.71935449270084E-02 
729	 3.71930361993462E-02 
730	 3.71934171948122E-02 
731	 3.71918606065503E-02 
732	 3.72163354515641E-02 
733	 3.72259946313333E-02 
734	 3.72256804184225E-02 
735	 3.72265045792886E-02 
736	 3.72035936877893E-02 
737	 3.72126673927324E-02 
738	 3.72393844947409E-02 
739	 3.72304507531108E-02 
740	 3.72459214025761E-02 
741	 3.72512641485385E-02 
742	 3.72385656467663E-02 
743	 0.037255853579862 
744	 3.72631685538256E-02 
745	 3.72619580183046E-02 
746	 3.72634752634076E-02 
747	 3.72739059632397E-02 
748	 3.72769744757212E-02 
749	 3.72735820792688E-02 
750	 3.72735676074274E-02 
751	 0.037267568342219 
752	 3.72712266369052E-02 
753	 3.72899398947863E-02 
754	 3.73127803638526E-02 
755	 3.73070508184958E-02 
756	 3.72919132949861E-02 
757	 3.72874311928977E-02 
758	 3.72753261686946E-02 
759	 3.72776977072854E-02 
760	 3.72819709014981E-02 
761	 3.72674922121888E-02 
762	 3.72769749243861E-02 
763	 3.72729600412208E-02 
764	 3.72587837637833E-02 
765	 3.72832160975085E-02 
766	 3.72833841832691E-02 
767	 3.72766030638484E-02 
768	 3.72871911830505E-02 
769	 3.73239637232599E-02 
770	 3.73209977103312E-02 
771	 3.73012465834469E-02 
772	 3.73085132550517E-02 
773	 3.73068720348054E-02 
774	 3.72986472553838E-02 
775	 3.72906082597248E-02 
776	 3.72916532323406E-02 
777	 3.73047696650436E-02 
778	 3.73223766947607E-02 
779	 3.73316826189238E-02 
780	 3.73139763588578E-02 
781	 3.73013707989173E-02 
782	 3.72970690696512E-02 
783	 3.72978789891448E-02 
784	 3.73120147390318E-02 
785	 3.73234105394075E-02 
786	 3.73300412806249E-02 
787	 3.73371001729573E-02 
788	 3.73345285929647E-02 
789	 3.73343254021035E-02 
790	 3.73418485880486E-02 
791	 0.037351739747099 
792	 3.73508931316256E-02 
793	 3.73494146107057E-02 
794	 3.73552819538024E-02 
795	 0.037359002246849 
796	 3.73604338222556E-02 
797	 3.73630216464809E-02 
798	 3.73680621052661E-02 
799	 3.73578696119847E-02 
800	 3.73547156072521E-02 
801	 3.73556241099097E-02 
802	 3.73407346577933E-02 
803	 0.037343680697304 
804	 3.73373633047444E-02 
805	 3.73166779009299E-02 
806	 3.73203047594012E-02 
807	 3.73352494208818E-02 
808	 3.73399129918075E-02 
809	 3.73274973898133E-02 
810	 3.73428105609887E-02 
811	 3.73472332000642E-02 
812	 3.73374173649144E-02 
813	 3.73296844318386E-02 
814	 3.73509050021256E-02 
815	 3.73685356057845E-02 
816	 3.73711240570482E-02 
817	 3.73710766079217E-02 
818	 3.73889130402141E-02 
819	 3.73866555398663E-02 
820	 3.73597212092905E-02 
821	 3.73714727646656E-02 
822	 3.73701416698091E-02 
823	 3.73706847388991E-02 
824	 3.73884064943936E-02 
825	 3.73846287114789E-02 
826	 0.037380419658582 
827	 3.73716710234783E-02 
828	 3.73539210033988E-02 
829	 3.73879919248164E-02 
830	 3.74151391662222E-02 
831	 3.74124068386826E-02 
832	 3.73985676041268E-02 
833	 3.74089933560196E-02 
834	 3.74124445508259E-02 
835	 3.74031288220891E-02 
836	 3.74290467072099E-02 
837	 3.74467720904175E-02 
838	 3.74513566491049E-02 
839	 3.74503344943267E-02 
840	 3.74563992561747E-02 
841	 3.74690006206371E-02 
842	 3.74790169971994E-02 
843	 3.74774574253099E-02 
844	 3.74760476162721E-02 
845	 3.74701802881268E-02 
846	 3.74627718553436E-02 
847	 3.74625530010115E-02 
848	 3.74768162853047E-02 
849	 3.74779007442034E-02 
850	 3.74599604796365E-02 
851	 3.74492514589822E-02 
852	 3.74584004701765E-02 
853	 3.74687228035471E-02 
854	 3.74670605586766E-02 
855	 0.037468339224954 
856	 3.74520603379723E-02 
857	 3.74350706030017E-02 
858	 0.037439125309939 
859	 3.74634164539539E-02 
860	 3.74454498460825E-02 
861	 0.037418662336147 
862	 3.74492022981967E-02 
863	 3.74738363477069E-02 
864	 3.74742132544433E-02 
865	 3.74590063773721E-02 
866	 3.74559009933749E-02 
867	 3.74549209844308E-02 
868	 3.74667158282305E-02 
869	 3.74830235665531E-02 
870	 3.74697753756688E-02 
871	 3.74920760615858E-02 
872	 3.75047652834368E-02 
873	 3.74792991553876E-02 
874	 3.74772185961881E-02 
875	 0.037470512626034 
876	 3.74731920667976E-02 
877	 0.03750154758498 
878	 3.75425126528076E-02 
879	 3.75348319412944E-02 
880	 3.75062831872964E-02 
881	 3.75142964949303E-02 
882	 3.75110103271023E-02 
883	 3.75019483817478E-02 
884	 3.75104468131243E-02 
885	 3.75571983848317E-02 
886	 0.037547325751996 
887	 3.75174409826753E-02 
888	 3.75009991565958E-02 
889	 3.75073036141864E-02 
890	 3.75405161071716E-02 
891	 3.75509045535605E-02 
892	 3.75281302005739E-02 
893	 3.75425672755173E-02 
894	 3.75385621660303E-02 
895	 3.75396054417966E-02 
896	 3.75641108625122E-02 
897	 3.75656899296881E-02 
898	 3.75837082597702E-02 
899	 3.75762982649804E-02 
900	 3.75169719564705E-02 
901	 3.75408286046984E-02 
902	 3.75438132560453E-02 
903	 3.75415903238187E-02 
904	 0.037584094260561 
905	 3.75514976300499E-02 
906	 3.75398604441125E-02 
907	 3.75682312007654E-02 
908	 3.75872887187013E-02 
909	 3.75568278094946E-02 
910	 3.75215386519437E-02 
911	 3.75108153016653E-02 
912	 3.75242955394756E-02 
913	 3.75324419574539E-02 
914	 3.75408132925515E-02 
915	 3.75434899573134E-02 
916	 3.75150503338721E-02 
917	 3.75205931403881E-02 
918	 3.75395688644089E-02 
919	 3.75520853731927E-02 
920	 3.75751039329866E-02 
921	 0.03755311683548 
922	 3.75394772121785E-02 
923	 3.75672884777094E-02 
924	 3.75434849372327E-02 
925	 3.75369755270765E-02 
926	 3.75597120828609E-02 
927	 3.75923844388718E-02 
928	 3.75802285435437E-02 
929	 3.75666438453051E-02 
930	 3.75622919740987E-02 
931	 3.75621712082124E-02 
932	 3.75598604886215E-02 
933	 3.75694652179931E-02 
934	 3.75867818851284E-02 
935	 3.75971562808984E-02 
936	 3.75874851612389E-02 
937	 3.76173023355608E-02 
938	 3.76478675706096E-02 
939	 3.76004402796184E-02 
940	 3.76259021636088E-02 
941	 3.76531446693594E-02 
942	 3.76523872281934E-02 
943	 3.76485459515389E-02 
944	 3.76582695024455E-02 
945	 3.76719056967042E-02 
946	 3.76976673540271E-02 
947	 3.77545671120359E-02 
948	 0.037731099802538 
949	 3.76701772161256E-02 
950	 0.037640485357949 
951	 3.76944166719931E-02 
952	 3.76476469779623E-02 
953	 3.76600101597472E-02 
954	 3.77596757573211E-02 
955	 3.77075019437587E-02 
956	 3.77161597923658E-02 
957	 3.77710140782591E-02 
958	 0.037805408335203 
959	 3.77537516474466E-02 
960	 0.037706448586554 
961	 0.037694328198195 
962	 3.77142737230527E-02 
963	 3.77298600132369E-02 
964	 3.77251031611257E-02 
965	 3.77086856556983E-02 
966	 3.76971368993956E-02 
967	 3.77038745460766E-02 
968	 3.77255244150937E-02 
969	 3.77341968304202E-02 
970	 3.77092287404035E-02 
971	 3.76609346869707E-02 
972	 0.037693859303519 
973	 0.037676842698677 
974	 0.037550718605465 
975	 3.76672442071165E-02 
976	 3.76682893030481E-02 
977	 3.76449942990969E-02 
978	 0.037726690671265 
979	 3.76961530579906E-02 
980	 3.76805656890886E-02 
981	 3.76987478102356E-02 
982	 3.77117331063244E-02 
983	 3.76061992244201E-02 
984	 3.76564333923914E-02 
985	 3.77525491317532E-02 
986	 3.77311519355671E-02 
987	 3.77480927953737E-02 
988	 0.037726867348774 
989	 3.77041956264429E-02 
990	 3.77228147986344E-02 
991	 3.77091047072947E-02 
992	 3.76902096121908E-02 
993	 3.76793483455269E-02 
994	 3.76924705861604E-02 
995	 3.77831481863545E-02 
996	 3.77310071875237E-02 
997	 0.03767606466059 
998	 0.037774663070632 
999	 3.77745770966451E-02 
1000	 3.77630577737175E-02 
1001	 3.92991296126112E-02 
1002	 3.93202728802942E-02 
1003	 3.93423739604593E-02 
1004	 3.93522084716194E-02 
1005	 3.93622758132018E-02 
1006	 3.93637316414208E-02 
1007	 3.93475962863557E-02 
1008	 3.93531105303926E-02 
1009	 3.93525541723193E-02 
1010	 3.93682292980082E-02 
1011	 0.039421375166522 
1012	 3.94418498941125E-02 
1013	 3.94696487226327E-02 
1014	 0.039476398569933 
1015	 3.94665376406605E-02 
1016	 3.94082920743503E-02 
1017	 3.93959842482548E-02 
1018	 3.94149170298288E-02 
1019	 3.94424608055934E-02 
1020	 3.94697497547971E-02 
1021	 3.94711840393804E-02 
1022	 3.94341476945146E-02 
1023	 3.94331914500406E-02 
1024	 3.94388552976994E-02 
1025	 3.94348820003941E-02 
1026	 3.94639413245585E-02 
1027	 3.94582122679077E-02 
1028	 3.94212717535064E-02 
1029	 3.93805471546366E-02 
1030	 3.93786915974338E-02 
1031	 3.93595805839972E-02 
1032	 3.93281511035672E-02 
1033	 3.93440051044634E-02 
1034	 3.93382406505668E-02 
1035	 3.92952343819051E-02 
1036	 3.92987908014911E-02 
1037	 3.93433840906203E-02 
1038	 3.93418750654596E-02 
1039	 3.93423089248482E-02 
1040	 3.93449423978744E-02 
1041	 3.93176961391206E-02 
1042	 3.93024418552179E-02 
1043	 3.93004199200473E-02 
1044	 3.93000529238398E-02 
1045	 3.92859407701635E-02 
1046	 3.92747506682515E-02 
1047	 3.92778029980586E-02 
1048	 3.93011128166198E-02 
1049	 3.93099377005762E-02 
1050	 3.93082746475016E-02 
1051	 3.93255122775088E-02 
1052	 3.93296599528713E-02 
1053	 3.93288575929747E-02 
1054	 3.93149451525014E-02 
1055	 3.93291457971643E-02 
1056	 3.93519868932259E-02 
1057	 3.93740118407316E-02 
1058	 3.94083212258782E-02 
1059	 3.94487402995581E-02 
1060	 3.94857441794659E-02 
1061	 3.94823513266237E-02 
1062	 3.94700297270217E-02 
1063	 3.94867979342058E-02 
1064	 3.95014567798106E-02 
1065	 0.039523733797824 
1066	 3.95491539476968E-02 
1067	 3.95585942087509E-02 
1068	 0.039591194371174 
1069	 3.96104453551089E-02 
1070	 3.96194934672545E-02 
1071	 3.96266499761876E-02 
1072	 3.96506394316981E-02 
1073	 3.96368429140017E-02 
1074	 3.96433910145597E-02 
1075	 3.96887598068511E-02 
1076	 3.97293853243983E-02 
1077	 3.97625342541265E-02 
1078	 3.97542613450884E-02 
1079	 3.97560446849545E-02 
1080	 0.03979253093912 
1081	 3.98190750457587E-02 
1082	 3.98661035855001E-02 
1083	 3.99072608949653E-02 
1084	 0.039902634025788 
1085	 3.98941543679953E-02 
1086	 3.99033386791988E-02 
1087	 3.99276041405103E-02 
1088	 3.99414429395714E-02 
1089	 3.99397245557386E-02 
1090	 3.99632430353303E-02 
1091	 3.99861169671801E-02 
1092	 4.00011738054812E-02 
1093	 4.00371871230632E-02 
1094	 4.00553921709104E-02 
1095	 4.00565103373748E-02 
1096	 4.00693955632846E-02 
1097	 4.00790666650229E-02 
1098	 4.00916277381534E-02 
1099	 4.01032628713502E-02 
1100	 4.00966019884599E-02 
1101	 4.00863351976552E-02 
1102	 4.00910275114103E-02 
1103	 4.01020337903887E-02 
1104	 4.01196520136453E-02 
1105	 4.01399921145008E-02 
1106	 4.01640545487875E-02 
1107	 4.01715631619148E-02 
1108	 4.01556396803643E-02 
1109	 4.01368942810045E-02 
1110	 4.01379186300705E-02 
1111	 4.01468083505395E-02 
1112	 0.040145574187948 
1113	 4.01630028799503E-02 
1114	 4.01914962747481E-02 
1115	 4.01950592316601E-02 
1116	 4.01872131655533E-02 
1117	 4.01785913875906E-02 
1118	 4.01696657906589E-02 
1119	 4.01349309473232E-02 
1120	 0.040124257299731 
1121	 4.01294680318042E-02 
1122	 4.01362129938887E-02 
1123	 4.01402858291259E-02 
1124	 4.01434430752973E-02 
1125	 4.01481605248319E-02 
1126	 4.01478449894783E-02 
1127	 4.01510843894752E-02 
1128	 4.01434922091921E-02 
1129	 4.01274994396919E-02 
1130	 4.01324316823721E-02 
1131	 4.01190487579727E-02 
1132	 4.01022817473254E-02 
1133	 4.01121456776478E-02 
1134	 0.040094839668508 
1135	 0.040087169382936 
1136	 4.00913306584702E-02 
1137	 4.00930836545928E-02 
1138	 4.00886560479229E-02 
1139	 4.00917428862382E-02 
1140	 4.01073758690107E-02 
1141	 4.01001858789552E-02 
1142	 4.00998992371225E-02 
1143	 0.040094292977029 
1144	 4.00736692395022E-02 
1145	 4.00771094506511E-02 
1146	 4.00728251087887E-02 
1147	 4.00638102497498E-02 
1148	 4.00736613129868E-02 
1149	 4.00618153483176E-02 
1150	 4.00463725396147E-02 
1151	 4.00311644348179E-02 
1152	 4.00205709872968E-02 
1153	 4.00053000177388E-02 
1154	 4.00083985799095E-02 
1155	 4.00348176223021E-02 
1156	 4.00368365350164E-02 
1157	 4.00358156870677E-02 
1158	 4.00312532946449E-02 
1159	 4.00057552835684E-02 
1160	 3.99918075412513E-02 
1161	 4.00046287239566E-02 
1162	 4.00092088369328E-02 
1163	 4.00091118953554E-02 
1164	 0.04002130506375 
1165	 4.00079145113927E-02 
1166	 3.99927176700724E-02 
1167	 3.99945388693419E-02 
1168	 3.99680050976551E-02 
1169	 3.99612130125528E-02 
1170	 3.99691743210187E-02 
1171	 3.99699964754763E-02 
1172	 3.99746611683963E-02 
1173	 0.039976885542826 
1174	 3.99736664810333E-02 
1175	 3.99717831088043E-02 
1176	 3.99638630705435E-02 
1177	 3.99671653369148E-02 
1178	 3.99754385529074E-02 
1179	 0.039989802070505 
1180	 4.00093207063975E-02 
1181	 4.00190396096935E-02 
1182	 4.00225814701924E-02 
1183	 4.00254518260548E-02 
1184	 4.00189185713252E-02 
1185	 4.00183559343231E-02 
1186	 4.00278635745105E-02 
1187	 4.00485108100971E-02 
1188	 4.00563080303639E-02 
1189	 4.00666541946814E-02 
1190	 4.00755854644246E-02 
1191	 4.00772577930033E-02 
1192	 4.00768739819622E-02 
1193	 4.00766113501769E-02 
1194	 0.040081011334444 
1195	 4.00752775447805E-02 
1196	 4.00815670973159E-02 
1197	 4.00997329926667E-02 
1198	 4.01230981953631E-02 
1199	 4.01381501481885E-02 
1200	 4.01452878233098E-02 
1201	 4.01482977858209E-02 
1202	 4.01438848401972E-02 
1203	 4.01420711703906E-02 
1204	 4.01489695612751E-02 
1205	 4.01541378443244E-02 
1206	 0.040160126516655 
1207	 4.01722073251422E-02 
1208	 4.01876785860244E-02 
1209	 4.02013858140745E-02 
1210	 4.02261620441009E-02 
1211	 4.02359753305619E-02 
1212	 4.02324137242723E-02 
1213	 4.02392737855674E-02 
1214	 4.02394601227634E-02 
1215	 4.02483582504164E-02 
1216	 4.02724511698469E-02 
1217	 4.02893885638542E-02 
1218	 4.03067180786058E-02 
1219	 4.03207287740422E-02 
1220	 4.03369498413403E-02 
1221	 4.03434492279328E-02 
1222	 4.03564045480203E-02 
1223	 4.03768233688903E-02 
1224	 0.040394035764169 
1225	 0.040412924907154 
1226	 4.04335430468244E-02 
1227	 4.04542776117049E-02 
1228	 4.04741289523706E-02 
1229	 4.04988263606277E-02 
1230	 4.05171333379441E-02 
1231	 4.05273000922641E-02 
1232	 4.05448627716119E-02 
1233	 4.05691860405078E-02 
1234	 4.05848836677361E-02 
1235	 4.05997607830188E-02 
1236	 0.040612674729133 
1237	 4.06132289618492E-02 
1238	 4.06205726043838E-02 
1239	 0.040628850807894 
1240	 4.06454248114206E-02 
1241	 4.06546046466542E-02 
1242	 4.06764566908768E-02 
1243	 4.06904705438247E-02 
1244	 4.07029346679042E-02 
1245	 4.07142967360048E-02 
1246	 4.07244544170192E-02 
1247	 4.07325783370819E-02 
1248	 4.07412769189907E-02 
1249	 4.07456588330131E-02 
1250	 4.07459062998895E-02 
1251	 4.07482567112838E-02 
1252	 4.07488758648733E-02 
1253	 4.07478890604632E-02 
1254	 4.07445375006115E-02 
1255	 4.07449786787401E-02 
1256	 4.07493184643996E-02 
1257	 4.07462479294555E-02 
1258	 0.040744951013032 
1259	 4.07393599882131E-02 
1260	 4.07189592793754E-02 
1261	 4.07081875383127E-02 
1262	 4.07074276815307E-02 
1263	 4.06905334945223E-02 
1264	 4.06973457439505E-02 
1265	 4.07201972374613E-02 
1266	 4.07279870820268E-02 
1267	 4.07420671727157E-02 
1268	 4.07478720005153E-02 
1269	 4.07366707895237E-02 
1270	 4.07424990762701E-02 
1271	 4.07533236256984E-02 
1272	 4.07705073335771E-02 
1273	 4.07973778370513E-02 
1274	 4.08208369911793E-02 
1275	 4.08571671696589E-02 
1276	 4.08748262765276E-02 
1277	 4.08808311079463E-02 
1278	 4.08896743559825E-02 
1279	 4.08730243104558E-02 
1280	 0.040887125498593 
1281	 4.09283044690872E-02 
1282	 4.09561633733579E-02 
1283	 4.09993726953737E-02 
1284	 4.10317074561371E-02 
1285	 4.10562953105268E-02 
1286	 4.10611793299949E-02 
1287	 4.10890804534273E-02 
1288	 4.11243082430062E-02 
1289	 4.11538395635747E-02 
1290	 4.11887116835439E-02 
1291	 4.12210128081635E-02 
1292	 0.04125308183486 
1293	 4.12755767580387E-02 
1294	 0.041293503023677 
1295	 4.13159397964648E-02 
1296	 4.13240542120759E-02 
1297	 4.13502518181653E-02 
1298	 4.14000826000748E-02 
1299	 4.14295661034325E-02 
1300	 4.14540938213067E-02 
1301	 4.14790598171044E-02 
1302	 4.14948559807067E-02 
1303	 4.15124378504364E-02 
1304	 4.15305269326562E-02 
1305	 4.15516694294419E-02 
1306	 4.15747955540873E-02 
1307	 0.041593357181805 
1308	 0.041609724269453 
1309	 4.16305941437636E-02 
1310	 4.16533559539708E-02 
1311	 4.16768429647065E-02 
1312	 4.16905418093061E-02 
1313	 4.17070673471025E-02 
1314	 4.17166540478446E-02 
1315	 0.041711475014413 
1316	 0.041714979400351 
1317	 4.17196738523557E-02 
1318	 4.17305539776705E-02 
1319	 4.17480031902953E-02 
1320	 4.17553834025116E-02 
1321	 4.17660949080261E-02 
1322	 0.041770676460847 
1323	 4.17533169957216E-02 
1324	 4.17598255578044E-02 
1325	 4.17885843537271E-02 
1326	 4.17981257443222E-02 
1327	 4.18111914519524E-02 
1328	 4.18168796112262E-02 
1329	 4.18031843965864E-02 
1330	 0.041797013272997 
1331	 4.17929988532885E-02 
1332	 4.17912733902275E-02 
1333	 4.17923373385284E-02 
1334	 4.17911360244661E-02 
1335	 4.17894147691395E-02 
1336	 4.17876369892266E-02 
1337	 4.17910435493439E-02 
1338	 4.17967473071995E-02 
1339	 4.17967436025782E-02 
1340	 4.18034293433724E-02 
1341	 4.17961674772615E-02 
1342	 4.17709488365579E-02 
1343	 4.17637349044998E-02 
1344	 4.17613181467982E-02 
1345	 4.17563754492639E-02 
1346	 4.17621331295655E-02 
1347	 0.041755287208049 
1348	 4.17358496132294E-02 
1349	 4.17244300533783E-02 
1350	 4.17114717773705E-02 
1351	 4.17026313692219E-02 
1352	 4.17041235478352E-02 
1353	 4.16946105276614E-02 
1354	 0.041673154318132 
1355	 4.16644763189861E-02 
1356	 4.16587970559976E-02 
1357	 4.16517065490913E-02 
1358	 4.16525889077177E-02 
1359	 4.16533585184135E-02 
1360	 0.041656726003073 
1361	 4.16510545414889E-02 
1362	 4.16398648989594E-02 
1363	 4.16236373713281E-02 
1364	 0.041612522973772 
1365	 4.15872686028777E-02 
1366	 4.15839130054716E-02 
1367	 4.16024396977404E-02 
1368	 4.15982488745813E-02 
1369	 4.15909643027823E-02 
1370	 4.15820305475506E-02 
1371	 4.15615553131716E-02 
1372	 4.15491364459475E-02 
1373	 4.15366017377607E-02 
1374	 4.15337172280134E-02 
1375	 4.15395345349025E-02 
1376	 4.15367592957632E-02 
1377	 4.15438609016662E-02 
1378	 4.15365173145138E-02 
1379	 4.15085673786198E-02 
1380	 4.14959201878938E-02 
1381	 4.14860391555721E-02 
1382	 4.14765856100256E-02 
1383	 4.14763935222986E-02 
1384	 4.14697461159856E-02 
1385	 4.14580378605197E-02 
1386	 4.14478367690738E-02 
1387	 4.14311038002387E-02 
1388	 4.14246337829456E-02 
1389	 4.14279996409191E-02 
1390	 4.14252991216371E-02 
1391	 4.14257733324472E-02 
1392	 4.14267801724103E-02 
1393	 4.14117418584612E-02 
1394	 4.14091521492591E-02 
1395	 4.14063567028253E-02 
1396	 0.041407413193977 
1397	 4.14040668904796E-02 
1398	 4.14059594902388E-02 
1399	 4.13940332642436E-02 
1400	 4.13705612708173E-02 
1401	 4.13574041727416E-02 
1402	 4.13386655154127E-02 
1403	 4.13302842187383E-02 
1404	 4.13369368298435E-02 
1405	 4.13288698651156E-02 
1406	 4.13178506972698E-02 
1407	 4.13046152095497E-02 
1408	 4.12812328213253E-02 
1409	 4.12662432639236E-02 
1410	 4.12546634304824E-02 
1411	 4.12422275265148E-02 
1412	 4.12315224012491E-02 
1413	 4.12212118578497E-02 
1414	 4.12041143492453E-02 
1415	 4.12011047418423E-02 
1416	 4.12089218583627E-02 
1417	 4.12136297981562E-02 
1418	 4.12312283104458E-02 
1419	 4.12379451384517E-02 
1420	 4.12363578771304E-02 
1421	 4.12352456281041E-02 
1422	 4.12244588146496E-02 
1423	 4.12240396753535E-02 
1424	 4.12292985308184E-02 
1425	 4.12350292770004E-02 
1426	 4.12469405429577E-02 
1427	 4.12476117229454E-02 
1428	 4.12486496452971E-02 
1429	 4.12526640292162E-02 
1430	 4.12635689446598E-02 
1431	 4.12840880688409E-02 
1432	 4.12954139196153E-02 
1433	 4.13084276866861E-02 
1434	 4.13167240323435E-02 
1435	 4.13174755735917E-02 
1436	 4.13236647227538E-02 
1437	 4.13270394682311E-02 
1438	 4.13407911097539E-02 
1439	 4.13676671392558E-02 
1440	 4.13766797924763E-02 
1441	 4.13802432531421E-02 
1442	 4.13910929513806E-02 
1443	 4.13902716564323E-02 
1444	 0.041401621625018 
1445	 0.041434128463489 
1446	 4.14482679351449E-02 
1447	 4.14510319534705E-02 
1448	 4.14613542564898E-02 
1449	 4.14710169391539E-02 
1450	 0.041479735913667 
1451	 4.14915387901125E-02 
1452	 4.15017851675109E-02 
1453	 4.15078596608301E-02 
1454	 4.15149361881065E-02 
1455	 0.041521830816924 
1456	 4.15323433704904E-02 
1457	 0.041544611628894 
1458	 4.15569342920991E-02 
1459	 4.15743231108917E-02 
1460	 4.15877491709155E-02 
1461	 4.15978190330645E-02 
1462	 4.16074251798297E-02 
1463	 4.16164566015811E-02 
1464	 4.16251193944019E-02 
1465	 4.16336686641876E-02 
1466	 4.16395410930305E-02 
1467	 4.16444813204365E-02 
1468	 4.16515804654615E-02 
1469	 4.16667904288818E-02 
1470	 4.16791190225334E-02 
1471	 4.16857217179202E-02 
1472	 4.16886601982197E-02 
1473	 4.17014184806201E-02 
1474	 4.17142599690717E-02 
1475	 4.17224525412761E-02 
1476	 4.17376097801125E-02 
1477	 0.04174818577429 
1478	 4.17490936254577E-02 
1479	 4.17536808262175E-02 
1480	 4.17599564498497E-02 
1481	 0.041773077083917 
1482	 4.17887421279486E-02 
1483	 4.17986637500314E-02 
1484	 4.18170801314144E-02 
1485	 4.18256351790745E-02 
1486	 4.18163188268996E-02 
1487	 4.18227439910539E-02 
1488	 4.18402725236678E-02 
1489	 4.18479708477021E-02 
1490	 4.18588924089194E-02 
1491	 4.18611464369021E-02 
1492	 4.18466931602326E-02 
1493	 4.18497982860312E-02 
1494	 4.18543215368954E-02 
1495	 4.18674481171768E-02 
1496	 4.18974159523901E-02 
1497	 4.19181330564085E-02 
1498	 4.19424479392764E-02 
1499	 4.19596175584429E-02 
1500	 4.19700614416838E-02 
1501	 0.041982536161739 
1502	 4.19900852909442E-02 
1503	 4.20007488397776E-02 
1504	 4.20170415987574E-02 
1505	 4.20269659714985E-02 
1506	 4.20348235173818E-02 
1507	 4.20413185487954E-02 
1508	 4.20370924636888E-02 
1509	 4.20434843846508E-02 
1510	 0.042059326882174 
1511	 0.042068995192076 
1512	 4.20774699568627E-02 
1513	 4.20909153708739E-02 
1514	 4.21069715495474E-02 
1515	 4.21173363323587E-02 
1516	 4.21307863177379E-02 
1517	 4.21423446660056E-02 
1518	 4.21404767160408E-02 
1519	 4.21479807665217E-02 
1520	 0.042168481783333 
1521	 4.21813600424288E-02 
1522	 4.21896130630431E-02 
1523	 4.21925961479426E-02 
1524	 4.21975911013557E-02 
1525	 4.21915067257868E-02 
1526	 4.22029225693278E-02 
1527	 4.22254249819762E-02 
1528	 4.22408608582352E-02 
1529	 0.0422611998592 
1530	 4.22726295964519E-02 
1531	 4.22807015235671E-02 
1532	 4.22837366939368E-02 
1533	 4.22751030168356E-02 
1534	 4.22863011101712E-02 
1535	 4.23020530442794E-02 
1536	 4.23171980902353E-02 
1537	 4.23470836281156E-02 
1538	 4.23632171287653E-02 
1539	 0.042369482960181 
1540	 4.23802673544072E-02 
1541	 4.23903398284221E-02 
1542	 4.24022241470662E-02 
1543	 4.24149000097862E-02 
1544	 0.042425457554856 
1545	 4.24357439556507E-02 
1546	 4.24484008937851E-02 
1547	 4.24597377959783E-02 
1548	 4.24723381690132E-02 
1549	 0.042492648270452 
1550	 4.25010487388383E-02 
1551	 4.24984036414958E-02 
1552	 4.25072674686719E-02 
1553	 4.25181001715796E-02 
1554	 4.25249862415922E-02 
1555	 4.25369304621565E-02 
1556	 4.25458106856501E-02 
1557	 4.25476087944286E-02 
1558	 4.25522428303135E-02 
1559	 4.25604334191809E-02 
1560	 4.25673541668579E-02 
1561	 0.042569159333392 
1562	 4.25772400990286E-02 
1563	 4.25926108700954E-02 
1564	 4.26019951966718E-02 
1565	 0.042610857125135 
1566	 4.26188232449317E-02 
1567	 4.26220276841337E-02 
1568	 4.26294307554064E-02 
1569	 4.26398268617065E-02 
1570	 4.26484644100159E-02 
1571	 4.26559796729988E-02 
1572	 4.26665338272019E-02 
1573	 4.26816384407555E-02 
1574	 4.26895596775095E-02 
1575	 4.26940105852763E-02 
1576	 4.27020526774495E-02 
1577	 4.27042543845451E-02 
1578	 4.27126127063168E-02 
1579	 4.27319344107054E-02 
1580	 4.27429502652137E-02 
1581	 4.27446808724599E-02 
1582	 4.27583524081399E-02 
1583	 4.27823605768181E-02 
1584	 4.27935607913124E-02 
1585	 4.28060399741702E-02 
1586	 4.28159541150665E-02 
1587	 4.28105254041519E-02 
1588	 4.28141220248761E-02 
1589	 4.28269502614365E-02 
1590	 4.28349711894399E-02 
1591	 4.28387741525325E-02 
1592	 4.28472433969307E-02 
1593	 4.28594022102243E-02 
1594	 4.28686292982684E-02 
1595	 4.28790512043326E-02 
1596	 0.042888098422168 
1597	 4.28896913057626E-02 
1598	 4.29007589233332E-02 
1599	 4.29191090481596E-02 
1600	 4.29348780796705E-02 
1601	 0.042957377400131 
1602	 4.29729191608382E-02 
1603	 4.29922698894763E-02 
1604	 4.29948645222111E-02 
1605	 4.29723651173845E-02 
1606	 4.29726293769737E-02 
1607	 4.29730236528074E-02 
1608	 4.29756240192018E-02 
1609	 4.30016159829801E-02 
1610	 4.30139861424351E-02 
1611	 4.30042378013352E-02 
1612	 4.30142365229376E-02 
1613	 4.30433205778577E-02 
1614	 4.30559907244537E-02 
1615	 4.30675603280305E-02 
1616	 4.30806763498398E-02 
1617	 4.30751756330138E-02 
1618	 4.30851574982841E-02 
1619	 4.31207233417325E-02 
1620	 4.31355039205684E-02 
1621	 4.31435455093344E-02 
1622	 4.31515542767239E-02 
1623	 4.31433349509233E-02 
1624	 4.31435517897405E-02 
1625	 4.31503089169738E-02 
1626	 4.31567716945947E-02 
1627	 4.31581666012918E-02 
1628	 4.31714085776981E-02 
1629	 4.32018593994313E-02 
1630	 4.32162408887664E-02 
1631	 4.32339075007772E-02 
1632	 4.32434264031427E-02 
1633	 4.32288956171907E-02 
1634	 4.32296395461309E-02 
1635	 0.043235175379349 
1636	 4.32423333359722E-02 
1637	 4.32587677786941E-02 
1638	 4.32735532894774E-02 
1639	 4.32981018823119E-02 
1640	 4.33041768990321E-02 
1641	 4.32910142765174E-02 
1642	 4.32931643537988E-02 
1643	 4.32893710557355E-02 
1644	 4.32919201038366E-02 
1645	 4.33123725735327E-02 
1646	 4.33259315214676E-02 
1647	 4.33382021912136E-02 
1648	 0.043343917203128 
1649	 4.33491324681205E-02 
1650	 4.33498716027197E-02 
1651	 4.33359268007223E-02 
1652	 4.33318144786254E-02 
1653	 4.33311495756827E-02 
1654	 4.33332230091717E-02 
1655	 4.33432000186755E-02 
1656	 4.33458882623033E-02 
1657	 4.33488809431025E-02 
1658	 4.33488288419935E-02 
1659	 4.33397688497898E-02 
1660	 4.33364075754698E-02 
1661	 4.33359754854144E-02 
1662	 4.33336516486019E-02 
1663	 4.33356550995974E-02 
1664	 4.33331393222607E-02 
1665	 4.33261966467864E-02 
1666	 4.33180511729923E-02 
1667	 4.33107742352066E-02 
1668	 4.32940335397507E-02 
1669	 4.32624444205761E-02 
1670	 4.32502418548932E-02 
1671	 4.32472963779616E-02 
1672	 4.32340137895518E-02 
1673	 0.043226442979455 
1674	 4.32182323203103E-02 
1675	 0.043200969580474 
1676	 0.043181448660166 
1677	 4.31739558109247E-02 
1678	 4.31516558551314E-02 
1679	 4.31124487951061E-02 
1680	 4.30772130835784E-02 
1681	 0.043032066939096 
1682	 4.30012814347469E-02 
1683	 4.29760325695681E-02 
1684	 4.29515898280165E-02 
1685	 4.29384825420955E-02 
1686	 4.29173576214074E-02 
1687	 4.28916144626772E-02 
1688	 4.28654378150102E-02 
1689	 0.042844154358406 
1690	 4.28153182863754E-02 
1691	 4.27789787269247E-02 
1692	 4.27388451943691E-02 
1693	 4.26892908228622E-02 
1694	 4.26522983304389E-02 
1695	 4.26170116353396E-02 
1696	 4.25856278134469E-02 
1697	 4.25669983338168E-02 
1698	 4.25266083745664E-02 
1699	 4.24777829906872E-02 
1700	 4.24352533862743E-02 
1701	 0.042382931523242 
1702	 4.23427279727829E-02 
1703	 4.23072191269029E-02 
1704	 4.22771913861864E-02 
1705	 0.042254787427511 
1706	 4.22213686398334E-02 
1707	 4.21953403972672E-02 
1708	 4.21704057737787E-02 
1709	 4.21464137018043E-02 
1710	 4.21190333764269E-02 
1711	 4.21079454695427E-02 
1712	 4.20966079448435E-02 
1713	 4.20683546997549E-02 
1714	 4.20651486825339E-02 
1715	 4.20513689488578E-02 
1716	 4.20092832708555E-02 
1717	 4.19894286688796E-02 
1718	 4.19640292936096E-02 
1719	 4.19327065194288E-02 
1720	 4.19364066210316E-02 
1721	 4.19407505940968E-02 
1722	 4.19357908627119E-02 
1723	 4.19346816165231E-02 
1724	 4.19187989528638E-02 
1725	 4.19092558110835E-02 
1726	 4.19362398270097E-02 
1727	 4.19616058676914E-02 
1728	 0.041978824857077 
1729	 4.20040935362641E-02 
1730	 4.20100684598092E-02 
1731	 4.20267899036266E-02 
1732	 4.20660332684802E-02 
1733	 4.21095982099411E-02 
1734	 4.21609433627921E-02 
1735	 4.22000035927269E-02 
1736	 4.22362797449909E-02 
1737	 4.22619466171821E-02 
1738	 0.042244018788306 
1739	 4.22644218385899E-02 
1740	 4.23094494425916E-02 
1741	 0.042335459260737 
1742	 4.23789442615661E-02 
1743	 4.24047528208419E-02 
1744	 4.23962629200308E-02 
1745	 4.23975841125918E-02 
1746	 4.24088496671989E-02 
1747	 0.042409487433171 
1748	 4.24077985830763E-02 
1749	 4.23973551367143E-02 
1750	 4.23648809123342E-02 
1751	 0.042356814714712 
1752	 4.23490133923691E-02 
1753	 4.23556867577295E-02 
1754	 4.23977993667406E-02 
1755	 4.24046804496999E-02 
1756	 4.24001478230202E-02 
1757	 4.23799395708687E-02 
1758	 4.23654783132192E-02 
1759	 4.24024836006599E-02 
1760	 4.24327844793221E-02 
1761	 4.24632928158263E-02 
1762	 4.24938235089543E-02 
1763	 4.25007936128597E-02 
1764	 4.25241745080331E-02 
1765	 4.25773015784296E-02 
1766	 4.26345264467537E-02 
1767	 0.042682996588176 
1768	 4.27182245655649E-02 
1769	 4.27555161971425E-02 
1770	 4.28015061950292E-02 
1771	 4.28386919626923E-02 
1772	 4.28745772401913E-02 
1773	 4.29149208375744E-02 
1774	 4.29480006256417E-02 
1775	 4.29799825918448E-02 
1776	 0.043017101192328 
1777	 4.30284164614134E-02 
1778	 4.30188753205775E-02 
1779	 4.30258833305084E-02 
1780	 0.043036357776755 
1781	 4.30622397024721E-02 
1782	 4.31130277693305E-02 
1783	 4.31423619640241E-02 
1784	 0.043164514134547 
1785	 4.32020122957572E-02 
1786	 4.32154022128277E-02 
1787	 4.32301106248858E-02 
1788	 0.043241643045816 
1789	 4.32288842640582E-02 
1790	 4.32267423559407E-02 
1791	 4.32302110152544E-02 
1792	 4.32245367204077E-02 
1793	 4.32080036336325E-02 
1794	 4.32168927009713E-02 
1795	 4.32289693837755E-02 
1796	 4.32575624633571E-02 
1797	 4.32778671183689E-02 
1798	 4.32477590214779E-02 
1799	 4.32337946804113E-02 
1800	 4.32485435111119E-02 
1801	 4.30333162624657E-02 
1802	 4.30666563205451E-02 
1803	 4.30897257977889E-02 
1804	 4.31166029617097E-02 
1805	 4.31428973837461E-02 
1806	 4.31609735799717E-02 
1807	 4.31684220886446E-02 
1808	 4.31823120046904E-02 
1809	 0.043193923781926 
1810	 4.32078564122901E-02 
1811	 4.32303909545239E-02 
1812	 4.32413365192173E-02 
1813	 4.32363750989713E-02 
1814	 4.32497999957417E-02 
1815	 4.32703277534774E-02 
1816	 4.32769869968523E-02 
1817	 4.32941461203252E-02 
1818	 4.33262745455683E-02 
1819	 4.33462777944232E-02 
1820	 4.33586255370332E-02 
1821	 4.33777949780745E-02 
1822	 4.33985517974175E-02 
1823	 4.34196233058737E-02 
1824	 0.043445609073692 
1825	 4.34604475246249E-02 
1826	 0.043477412678546 
1827	 4.34937394647186E-02 
1828	 4.35092918984964E-02 
1829	 4.35183568854824E-02 
1830	 4.35395765464726E-02 
1831	 0.043568424310333 
1832	 4.35907149220736E-02 
1833	 4.36182910851245E-02 
1834	 4.36344611775811E-02 
1835	 4.36422656304049E-02 
1836	 4.36489350738556E-02 
1837	 0.043665805616109 
1838	 4.36870911371797E-02 
1839	 4.37122472446183E-02 
1840	 4.37539043961125E-02 
1841	 4.37779338404415E-02 
1842	 4.37950642931466E-02 
1843	 4.38116177130985E-02 
1844	 0.043825570662325 
1845	 4.38416066925374E-02 
1846	 4.38570654762248E-02 
1847	 4.38753947804729E-02 
1848	 4.39016108535337E-02 
1849	 4.39357172847835E-02 
1850	 4.39543205284236E-02 
1851	 4.39698815844641E-02 
1852	 4.39969407174369E-02 
1853	 4.40080741207973E-02 
1854	 0.044020308271106 
1855	 4.40495317235732E-02 
1856	 4.40711073840595E-02 
1857	 4.40805073391384E-02 
1858	 4.41018581218794E-02 
1859	 4.41103714241178E-02 
1860	 4.41103744596817E-02 
1861	 4.41071356088468E-02 
1862	 4.40988461088989E-02 
1863	 4.40801031176581E-02 
1864	 4.40747331324629E-02 
1865	 4.40812004942157E-02 
1866	 4.40905503389603E-02 
1867	 4.41029341272318E-02 
1868	 4.41111249041031E-02 
1869	 4.41170983803154E-02 
1870	 4.41133870962541E-02 
1871	 0.044099195651553 
1872	 4.40931782546076E-02 
1873	 4.40866733649882E-02 
1874	 4.40673190175813E-02 
1875	 4.40590357657835E-02 
1876	 4.40613310006317E-02 
1877	 4.40424251587194E-02 
1878	 4.40337533011222E-02 
1879	 4.40353644084553E-02 
1880	 4.40155867244871E-02 
1881	 4.39901311509306E-02 
1882	 4.39599636710317E-02 
1883	 4.39225976195549E-02 
1884	 4.38780672086849E-02 
1885	 4.38432809789266E-02 
1886	 4.38165496993121E-02 
1887	 4.37837285980851E-02 
1888	 4.37434799741256E-02 
1889	 4.37062740076586E-02 
1890	 0.043651951366166 
1891	 4.35920561211614E-02 
1892	 4.35279883481614E-02 
1893	 4.34631888156041E-02 
1894	 4.33835585540902E-02 
1895	 4.33266817717793E-02 
1896	 4.32734309718876E-02 
1897	 4.32140289001432E-02 
1898	 4.31733553642886E-02 
1899	 4.31237670810057E-02 
1900	 0.04307187197616 
1901	 4.30309834755368E-02 
1902	 4.29691321737111E-02 
1903	 4.29157957006589E-02 
1904	 4.28691630840515E-02 
1905	 4.28256085157928E-02 
1906	 4.27794159270672E-02 
1907	 4.27514945056425E-02 
1908	 0.042709018040358 
1909	 4.26572439557478E-02 
1910	 4.26264689180348E-02 
1911	 0.042600774090629 
1912	 4.25757202071801E-02 
1913	 4.25480430176506E-02 
1914	 4.25069135293482E-02 
1915	 4.24786495404121E-02 
1916	 4.24479662675554E-02 
1917	 0.042428690308383 
1918	 4.24169944295081E-02 
1919	 4.24129595318317E-02 
1920	 4.23942480079425E-02 
1921	 4.23658612162587E-02 
1922	 0.042349728516408 
1923	 4.23333546039821E-02 
1924	 4.23142234719978E-02 
1925	 4.23027716871284E-02 
1926	 4.22893949284571E-02 
1927	 4.22662172883181E-02 
1928	 4.22552893065927E-02 
1929	 4.22534794732554E-02 
1930	 4.22502715878521E-02 
1931	 4.22465754571754E-02 
1932	 4.22516824134467E-02 
1933	 4.22589977518184E-02 
1934	 4.22670160740994E-02 
1935	 4.22708968419768E-02 
1936	 4.22719118908067E-02 
1937	 0.042278975288869 
1938	 4.22803558101626E-02 
1939	 4.22933633501832E-02 
1940	 4.23156158076229E-02 
1941	 4.23440450672887E-02 
1942	 0.042363769050055 
1943	 4.23874943802222E-02 
1944	 4.24176829052052E-02 
1945	 4.24297443244444E-02 
1946	 4.24467050627336E-02 
1947	 4.24710184666939E-02 
1948	 4.24844780625469E-02 
1949	 4.25159414594684E-02 
1950	 4.25429092590051E-02 
1951	 4.25706673002425E-02 
1952	 4.25987980974581E-02 
1953	 4.26286023382531E-02 
1954	 4.26559210362477E-02 
1955	 0.042687407539379 
1956	 4.27272999828824E-02 
1957	 4.27639665768563E-02 
1958	 4.27883289341517E-02 
1959	 4.28067123060371E-02 
1960	 4.28257396058837E-02 
1961	 4.28464445449203E-02 
1962	 4.28559636068493E-02 
1963	 4.28883967968282E-02 
1964	 4.29409558515931E-02 
1965	 0.04297868642401 
1966	 4.30216575843047E-02 
1967	 4.30633951476752E-02 
1968	 4.30900115270104E-02 
1969	 4.31146745779474E-02 
1970	 4.31448795556983E-02 
1971	 4.31762975921677E-02 
1972	 4.32077404988231E-02 
1973	 0.043239977631506 
1974	 4.32704735967611E-02 
1975	 4.32962798943743E-02 
1976	 4.33311461962124E-02 
1977	 4.33760563493352E-02 
1978	 0.043408778560147 
1979	 4.34390465319369E-02 
1980	 4.34707789481278E-02 
1981	 0.043502205461937 
1982	 4.35306829043798E-02 
1983	 4.35638364563819E-02 
1984	 0.043597803693863 
1985	 4.36258011955771E-02 
1986	 4.36548091419179E-02 
1987	 4.36864376951277E-02 
1988	 4.37237856585303E-02 
1989	 4.37585004077523E-02 
1990	 4.37890721559917E-02 
1991	 4.38247113554391E-02 
1992	 4.38584138882735E-02 
1993	 4.39104005837563E-02 
1994	 4.39474503599985E-02 
1995	 4.39755796763091E-02 
1996	 4.40134313395438E-02 
1997	 4.40357857535005E-02 
1998	 4.40644212089434E-02 
1999	 4.40990676893539E-02 
2000	 0.044128628809902 
2001	 4.41547435730865E-02 
2002	 4.41835123305141E-02 
2003	 4.42115987003462E-02 
2004	 4.42429963246776E-02 
2005	 0.04427667701254 
2006	 0.044302878269161 
2007	 4.43255195547272E-02 
2008	 4.43554843690782E-02 
2009	 4.43720273651164E-02 
2010	 4.43991277873455E-02 
2011	 4.44258589001916E-02 
2012	 4.44422989511139E-02 
2013	 0.044465775714422 
2014	 4.44903759242276E-02 
2015	 4.45136637309795E-02 
2016	 4.45417339435239E-02 
2017	 4.45664910810733E-02 
2018	 4.45885052441442E-02 
2019	 4.46112553911918E-02 
2020	 4.46392813507926E-02 
2021	 4.46504752137386E-02 
2022	 4.46701498889425E-02 
2023	 4.46911155555688E-02 
2024	 4.46998988078381E-02 
2025	 4.47080955923869E-02 
2026	 4.47123378180363E-02 
2027	 4.47074206000313E-02 
2028	 0.044709134654569 
2029	 4.47080565776874E-02 
2030	 4.47136375880161E-02 
2031	 4.47281094785353E-02 
2032	 4.47333624483596E-02 
2033	 4.47401438810881E-02 
2034	 4.47441708222001E-02 
2035	 0.044744785549899 
2036	 4.47342645438459E-02 
2037	 4.47361986322209E-02 
2038	 4.47479338837025E-02 
2039	 4.47538768161619E-02 
2040	 4.47624362540732E-02 
2041	 4.47719688761684E-02 
2042	 4.47787824318435E-02 
2043	 4.47889200028939E-02 
2044	 4.48055190120716E-02 
2045	 0.044821223230013 
2046	 4.48354579920267E-02 
2047	 4.48486030728312E-02 
2048	 4.48629653404153E-02 
2049	 4.48768626399048E-02 
2050	 0.044887152319058 
2051	 4.49028704123766E-02 
2052	 4.49208978345134E-02 
2053	 4.49390165099441E-02 
2054	 4.49590502139923E-02 
2055	 4.49851914213004E-02 
2056	 4.50021307617772E-02 
2057	 4.50090665868345E-02 
2058	 4.50337454760218E-02 
2059	 4.50655034303036E-02 
2060	 4.50913041861452E-02 
2061	 4.51205126320494E-02 
2062	 4.51534410582442E-02 
2063	 4.51838553200092E-02 
2064	 4.52158372876924E-02 
2065	 4.52495268315979E-02 
2066	 4.53054570611731E-02 
2067	 0.045343678042188 
2068	 4.53512936648399E-02 
2069	 4.53735464612442E-02 
2070	 4.53868312310786E-02 
2071	 4.54164300773392E-02 
2072	 4.54591614641422E-02 
2073	 4.54934679782798E-02 
2074	 4.55331849584483E-02 
2075	 4.55641648317082E-02 
2076	 4.55817093831236E-02 
2077	 4.56104275254387E-02 
2078	 4.56455923131447E-02 
2079	 4.56775855667328E-02 
2080	 4.57206871445983E-02 
2081	 4.57467403447001E-02 
2082	 4.57525092007761E-02 
2083	 4.57724447538821E-02 
2084	 4.57868977036582E-02 
2085	 4.57994501709511E-02 
2086	 4.58213228251011E-02 
2087	 4.58553147734037E-02 
2088	 4.58798899808145E-02 
2089	 4.58996190758185E-02 
2090	 4.59296917185373E-02 
2091	 4.59766877024698E-02 
2092	 4.59985165947096E-02 
2093	 4.60082903932096E-02 
2094	 4.60246314789042E-02 
2095	 0.0460213406672 
2096	 4.60301365009244E-02 
2097	 4.60497398506617E-02 
2098	 4.60764078874558E-02 
2099	 4.61014049764934E-02 
2100	 4.61291829186725E-02 
2101	 4.61538815400606E-02 
2102	 4.61869710408471E-02 
2103	 4.62081363467794E-02 
2104	 4.62174935908366E-02 
2105	 4.62340850736082E-02 
2106	 4.62466410302895E-02 
2107	 4.62662008304418E-02 
2108	 4.62926208935258E-02 
2109	 0.046315028541393 
2110	 4.63442143773308E-02 
2111	 4.63646510273646E-02 
2112	 4.63765742885913E-02 
2113	 4.63918026830402E-02 
2114	 4.64047921157776E-02 
2115	 4.64156390853455E-02 
2116	 4.64205202043311E-02 
2117	 4.64375027227131E-02 
2118	 4.64523685657714E-02 
2119	 4.64622791589097E-02 
2120	 0.046484687354728 
2121	 4.65253148125319E-02 
2122	 4.65437340576951E-02 
2123	 4.65557454018666E-02 
2124	 4.65695869645532E-02 
2125	 4.65695481865428E-02 
2126	 4.65787868948147E-02 
2127	 0.046595960327097 
2128	 4.66135130398991E-02 
2129	 4.66338540251733E-02 
2130	 0.04664940086382 
2131	 4.66731094995903E-02 
2132	 4.66829432130723E-02 
2133	 4.66801710104927E-02 
2134	 4.66758800556203E-02 
2135	 0.046674980230273 
2136	 4.66697871194002E-02 
2137	 4.66659179072778E-02 
2138	 4.66693949171412E-02 
2139	 4.66607789123655E-02 
2140	 4.66401669211896E-02 
2141	 4.66306796066152E-02 
2142	 4.66216731540034E-02 
2143	 4.66131802057005E-02 
2144	 4.66147259316511E-02 
2145	 4.66043096227988E-02 
2146	 4.65871714956789E-02 
2147	 4.65699429377374E-02 
2148	 4.65416194201939E-02 
2149	 4.65226555408856E-02 
2150	 4.65173331133821E-02 
2151	 4.64957635291286E-02 
2152	 4.64619941051935E-02 
2153	 4.64413824803915E-02 
2154	 4.64070410040375E-02 
2155	 4.63749490653238E-02 
2156	 4.63548637391578E-02 
2157	 4.63488403958562E-02 
2158	 4.63309229264267E-02 
2159	 4.63209068517758E-02 
2160	 4.62928504262687E-02 
2161	 4.62503535040374E-02 
2162	 4.62182071473922E-02 
2163	 4.61791934333669E-02 
2164	 4.61421185473189E-02 
2165	 4.61072090852745E-02 
2166	 4.60798436968254E-02 
2167	 0.046052756646502 
2168	 4.60280688842676E-02 
2169	 4.60205960821779E-02 
2170	 4.59995756920842E-02 
2171	 4.59563002813026E-02 
2172	 4.59359263378453E-02 
2173	 4.59343426957722E-02 
2174	 4.59159866102398E-02 
2175	 4.58976610216887E-02 
2176	 4.58919591849887E-02 
2177	 4.58778971206859E-02 
2178	 4.58452400394525E-02 
2179	 4.58382434775973E-02 
2180	 4.58510501551614E-02 
2181	 4.58486956314745E-02 
2182	 4.58485644684029E-02 
2183	 4.58420350090627E-02 
2184	 4.58246174474835E-02 
2185	 4.58187852983906E-02 
2186	 4.58193011438606E-02 
2187	 4.58142542961884E-02 
2188	 4.58122943352084E-02 
2189	 4.58051770257219E-02 
2190	 4.57909839611408E-02 
2191	 4.57792129407008E-02 
2192	 4.57636387219197E-02 
2193	 0.045756260578924 
2194	 4.57465951203067E-02 
2195	 4.57465405003043E-02 
2196	 4.57636797099025E-02 
2197	 4.57738862090413E-02 
2198	 0.045762748056375 
2199	 4.57766172220584E-02 
2200	 4.57956474275012E-02 
2201	 4.58170810013047E-02 
2202	 4.58326475170516E-02 
2203	 4.58641588796221E-02 
2204	 0.045881272752766 
2205	 0.04588648502421 
2206	 4.58865692920725E-02 
2207	 4.58863093895656E-02 
2208	 4.58838795586426E-02 
2209	 4.58488078782333E-02 
2210	 4.58584272656311E-02 
2211	 0.045910348831075 
2212	 4.59246516165699E-02 
2213	 4.59491613802879E-02 
2214	 4.59567639170399E-02 
2215	 4.59197792889378E-02 
2216	 4.59133632195515E-02 
2217	 4.59231973714169E-02 
2218	 4.59262305697911E-02 
2219	 0.045936216600573 
2220	 4.59425462278758E-02 
2221	 4.59358013989723E-02 
2222	 4.59481829548768E-02 
2223	 4.59631817295695E-02 
2224	 4.59710236860868E-02 
2225	 4.59921973055541E-02 
2226	 4.60029831506742E-02 
2227	 4.60064197391753E-02 
2228	 4.60057080503011E-02 
2229	 4.59992750948081E-02 
2230	 4.59854270653295E-02 
2231	 4.59639975763533E-02 
2232	 4.59330197391345E-02 
2233	 4.59070947119043E-02 
2234	 4.58774285383134E-02 
2235	 4.58399079416805E-02 
2236	 4.58013283600076E-02 
2237	 4.57626547691565E-02 
2238	 4.57180417467485E-02 
2239	 4.56683479701941E-02 
2240	 4.56320988132991E-02 
2241	 4.55635855964493E-02 
2242	 4.54535800256718E-02 
2243	 4.53745997941261E-02 
2244	 0.045300302330372 
2245	 4.52195673915416E-02 
2246	 4.51600725921879E-02 
2247	 4.50803986210202E-02 
2248	 4.49665556135561E-02 
2249	 4.48701647609064E-02 
2250	 4.47732956239596E-02 
2251	 4.46880985149819E-02 
2252	 4.46154205712407E-02 
2253	 4.45557473183158E-02 
2254	 4.44609164213515E-02 
2255	 4.43605720114679E-02 
2256	 4.42661963250063E-02 
2257	 4.41565637505535E-02 
2258	 4.40717386924069E-02 
2259	 4.40212996218237E-02 
2260	 4.39394717945384E-02 
2261	 4.38449983328982E-02 
2262	 4.37589352458866E-02 
2263	 0.043667556998441 
2264	 4.35758283807168E-02 
2265	 4.34797301309717E-02 
2266	 4.34107730670623E-02 
2267	 4.33533008082225E-02 
2268	 4.32872647582271E-02 
2269	 4.32332704984964E-02 
2270	 4.31851657995698E-02 
2271	 4.31184271298338E-02 
2272	 4.30815246200965E-02 
2273	 4.31005815435459E-02 
2274	 4.30702988380611E-02 
2275	 4.30251763364941E-02 
2276	 4.29787519463318E-02 
2277	 4.29006030377578E-02 
2278	 0.042836079651894 
2279	 4.27903357674295E-02 
2280	 4.27263155585657E-02 
2281	 4.26480843934422E-02 
2282	 4.25722421597008E-02 
2283	 4.24862045418895E-02 
2284	 4.23976003378624E-02 
2285	 0.042335390150311 
2286	 4.22884277331996E-02 
2287	 4.22255636785787E-02 
2288	 4.21657216516567E-02 
2289	 4.20993927706425E-02 
2290	 4.20080985805435E-02 
2291	 4.19138357754658E-02 
2292	 4.18228620878077E-02 
2293	 4.17261243234314E-02 
2294	 4.16591679629768E-02 
2295	 4.16209833809168E-02 
2296	 4.15848781095537E-02 
2297	 4.15380210577873E-02 
2298	 4.14884382002344E-02 
2299	 4.14331241590616E-02 
2300	 4.13662185024626E-02 
2301	 4.13188392929796E-02 
2302	 4.12681026691264E-02 
2303	 4.12453091820053E-02 
2304	 0.041233032165276 
2305	 4.12526930010903E-02 
2306	 4.13126379015298E-02 
2307	 4.13555080309467E-02 
2308	 4.14149486524576E-02 
2309	 4.14695946606511E-02 
2310	 0.041487622838058 
2311	 4.15747681562675E-02 
2312	 4.17203482715929E-02 
2313	 4.18483986286603E-02 
2314	 4.20212529870357E-02 
2315	 4.21508457778077E-02 
2316	 4.22527827199051E-02 
2317	 4.23493013448104E-02 
2318	 4.24368994915641E-02 
2319	 4.25120979410941E-02 
2320	 4.25717303242717E-02 
2321	 4.26248551952564E-02 
2322	 4.26608937581487E-02 
2323	 4.26996326842461E-02 
2324	 4.27276446936174E-02 
2325	 4.27680033541693E-02 
2326	 4.28313551003436E-02 
2327	 4.28545733406372E-02 
2328	 0.042862405496505 
2329	 4.28664786822887E-02 
2330	 0.042835099114003 
2331	 4.28128440528675E-02 
2332	 4.28301985575126E-02 
2333	 4.27898606374478E-02 
2334	 4.27174195085883E-02 
2335	 4.26710640550456E-02 
2336	 4.25885372678067E-02 
2337	 4.25311293204489E-02 
2338	 4.25050238063438E-02 
2339	 4.23988480332363E-02 
2340	 4.23041434977936E-02 
2341	 4.22950269613447E-02 
2342	 4.22750958101615E-02 
2343	 4.22629893739388E-02 
2344	 4.22889190834127E-02 
2345	 4.22559416025369E-02 
2346	 4.21851658995106E-02 
2347	 4.22200534556387E-02 
2348	 4.22801907472184E-02 
2349	 4.22805695248033E-02 
2350	 4.23472910312211E-02 
2351	 4.24367412369127E-02 
2352	 4.25026714600373E-02 
2353	 4.25940509651813E-02 
2354	 4.26542116854331E-02 
2355	 4.27337145818704E-02 
2356	 4.28237390475738E-02 
2357	 4.29151987763224E-02 
2358	 4.30322513850648E-02 
2359	 4.30626906889512E-02 
2360	 4.30807160490722E-02 
2361	 4.31090338672691E-02 
2362	 4.30983718196056E-02 
2363	 4.31190113964506E-02 
2364	 4.31181920914179E-02 
2365	 4.30782083071906E-02 
2366	 4.30742098908906E-02 
2367	 4.31099691976467E-02 
2368	 4.31229986563451E-02 
2369	 4.31516453774776E-02 
2370	 4.32536186108646E-02 
2371	 4.33179952501352E-02 
2372	 4.33674978186199E-02 
2373	 4.34119175545435E-02 
2374	 4.33822369667837E-02 
2375	 4.33906304515774E-02 
2376	 4.34220248628948E-02 
2377	 4.34006382055911E-02 
2378	 4.33395543246837E-02 
2379	 4.32565970716651E-02 
2380	 4.31940113449608E-02 
2381	 4.31962655793734E-02 
2382	 4.31981974975437E-02 
2383	 4.32674562617519E-02 
2384	 4.32830895276172E-02 
2385	 4.32644687939172E-02 
2386	 4.32602706612224E-02 
2387	 4.32545780714511E-02 
2388	 4.32665143242593E-02 
2389	 4.32996579180775E-02 
2390	 4.32782459890649E-02 
2391	 4.32424176896152E-02 
2392	 4.32184544703738E-02 
2393	 4.31422658312775E-02 
2394	 4.31394610085081E-02 
2395	 4.31854645217789E-02 
2396	 4.32640008010226E-02 
2397	 4.34051041520818E-02 
2398	 4.34336398498537E-02 
2399	 4.34552135782589E-02 
2400	 4.34442339657713E-02 
2401	 4.33259818276779E-02 
2402	 4.33467464510997E-02 
2403	 4.33681861042139E-02 
2404	 4.34232682803257E-02 
2405	 4.34393059042793E-02 
2406	 4.34175928849126E-02 
2407	 4.34259164148326E-02 
2408	 0.043397738286144 
2409	 4.33581373799935E-02 
2410	 4.33848967166681E-02 
2411	 0.04337543960328 
2412	 4.33431236294604E-02 
2413	 4.33428102202838E-02 
2414	 4.33359852308925E-02 
2415	 4.33450975735069E-02 
2416	 4.33559715811019E-02 
2417	 4.33846971695302E-02 
2418	 4.34081992825362E-02 
2419	 0.043418278251772 
2420	 4.34976741109105E-02 
2421	 4.35095682943844E-02 
2422	 4.34260296629755E-02 
2423	 4.33997852364041E-02 
2424	 4.33232675624609E-02 
2425	 4.32359410896804E-02 
2426	 4.33282903316557E-02 
2427	 0.043363700513104 
2428	 4.32438120777948E-02 
2429	 4.31683990189171E-02 
2430	 4.31106764796556E-02 
2431	 4.30211574984263E-02 
2432	 4.30654548685762E-02 
2433	 4.32107880140801E-02 
2434	 4.32058138019797E-02 
2435	 0.043212316741094 
2436	 4.32775406196512E-02 
2437	 4.33107463748441E-02 
2438	 4.33032985820575E-02 
2439	 4.33133192662703E-02 
2440	 4.33299651193493E-02 
2441	 4.31792778207665E-02 
2442	 4.31445844724081E-02 
2443	 4.31116481196886E-02 
2444	 4.29531649837362E-02 
2445	 4.29738478680061E-02 
2446	 4.30609865244864E-02 
2447	 4.30963780875773E-02 
2448	 4.31070176296146E-02 
2449	 4.31414509143711E-02 
2450	 4.31215644960941E-02 
2451	 4.30649123798443E-02 
2452	 4.30436138719356E-02 
2453	 4.29932495623778E-02 
2454	 4.29463054454116E-02 
2455	 0.042961008078184 
2456	 4.30722468197368E-02 
2457	 4.31075108455851E-02 
2458	 4.31137022088016E-02 
2459	 4.31225135268482E-02 
2460	 4.30592644647789E-02 
2461	 0.043011258972132 
2462	 4.29098329081383E-02 
2463	 4.29084951276682E-02 
2464	 4.29009140228787E-02 
2465	 4.27852058401745E-02 
2466	 4.27557744566087E-02 
2467	 4.27169520005037E-02 
2468	 4.27083947204651E-02 
2469	 4.29218069353704E-02 
2470	 4.31988846804894E-02 
2471	 0.043078554682905 
2472	 4.29651712868075E-02 
2473	 4.30862248304347E-02 
2474	 4.30167773287953E-02 
2475	 4.31716298036767E-02 
2476	 4.32979374423346E-02 
2477	 4.30145270688281E-02 
2478	 4.28347594838978E-02 
2479	 0.042738785606938 
2480	 4.26488601535834E-02 
2481	 4.26376028471149E-02 
2482	 4.27194757581261E-02 
2483	 4.27343926202651E-02 
2484	 4.27851336226357E-02 
2485	 4.28646157641514E-02 
2486	 4.27210780248573E-02 
2487	 4.27333902182682E-02 
2488	 4.28873947306513E-02 
2489	 4.28364694532276E-02 
2490	 4.28627168391808E-02 
2491	 4.28547393774819E-02 
2492	 4.26910147439285E-02 
2493	 4.26126475790447E-02 
2494	 4.24362718610822E-02 
2495	 4.23733050577576E-02 
2496	 4.26508238038672E-02 
2497	 0.042889507067171 
2498	 4.30924012432473E-02 
2499	 4.30155150737049E-02 
2500	 4.27944729150687E-02 
