Wavelength	spectrum00013.asd
350	 5.26071244173191E-02 
351	 5.25662188478453E-02 
352	 5.30948465589765E-02 
353	 5.24775055021225E-02 
354	 4.98082760013218E-02 
355	 4.96064907192213E-02 
356	 5.00883815945098E-02 
357	 0.049209735540221 
358	 4.85345610226218E-02 
359	 4.85233753989992E-02 
360	 4.90502354536751E-02 
361	 4.95283712587697E-02 
362	 4.86469117275262E-02 
363	 4.72175937731237E-02 
364	 4.58740224550282E-02 
365	 4.46820182663438E-02 
366	 4.57194523946554E-02 
367	 4.68201860222475E-02 
368	 4.62141325061783E-02 
369	 4.68210205144089E-02 
370	 0.047882222340719 
371	 4.82848093347733E-02 
372	 4.71733809267395E-02 
373	 4.76662005825998E-02 
374	 4.80542552517053E-02 
375	 4.75347565655535E-02 
376	 4.73140056745263E-02 
377	 4.85016973171545E-02 
378	 4.91804104702152E-02 
379	 4.79900357917152E-02 
380	 4.83430937720026E-02 
381	 4.85682893240235E-02 
382	 4.85716670669761E-02 
383	 4.91555288383803E-02 
384	 4.96506269521211E-02 
385	 4.99016223129457E-02 
386	 4.98958301168651E-02 
387	 4.97128743246383E-02 
388	 4.95937830758635E-02 
389	 5.00262189684018E-02 
390	 5.09570984057493E-02 
391	 5.01890077361177E-02 
392	 4.99193215744419E-02 
393	 5.04912338961053E-02 
394	 0.050950281698314 
395	 5.12678944085083E-02 
396	 0.0517645500474 
397	 5.23264667151118E-02 
398	 5.20392003013112E-02 
399	 5.13891373033106E-02 
400	 0.05116833112107 
401	 5.18247587640714E-02 
402	 5.20471104309565E-02 
403	 5.29525839873508E-02 
404	 5.36516366163906E-02 
405	 0.052094460214903 
406	 0.052159727315765 
407	 5.27204310583523E-02 
408	 5.28076367907844E-02 
409	 5.33027118435682E-02 
410	 5.33132312516623E-02 
411	 0.053184834863674 
412	 0.053498112421044 
413	 5.39048305381728E-02 
414	 5.38425915285481E-02 
415	 5.36811747998726E-02 
416	 5.45141615935621E-02 
417	 5.45225922309982E-02 
418	 5.43851849014247E-02 
419	 5.47485684627311E-02 
420	 5.51679830319686E-02 
421	 5.53299392939733E-02 
422	 5.55538829583515E-02 
423	 5.62077330715357E-02 
424	 5.60542474321756E-02 
425	 5.60742079229054E-02 
426	 5.65771033971619E-02 
427	 5.69205776942903E-02 
428	 5.72970180473738E-02 
429	 5.76914864491988E-02 
430	 5.80205331132808E-02 
431	 5.80325188428503E-02 
432	 5.85643778927864E-02 
433	 5.93373502524437E-02 
434	 5.95481904876581E-02 
435	 5.99059248350745E-02 
436	 6.02998653758569E-02 
437	 6.06573858433735E-02 
438	 6.11132722238979E-02 
439	 6.14988348085118E-02 
440	 6.19052149592103E-02 
441	 6.24293380236708E-02 
442	 6.28520673374567E-02 
443	 6.33794946189098E-02 
444	 6.39582766965115E-02 
445	 6.43376134604364E-02 
446	 6.46529906750997E-02 
447	 6.51049462272092E-02 
448	 6.57114918652028E-02 
449	 6.60734379293727E-02 
450	 6.63751722989198E-02 
451	 6.67802710558884E-02 
452	 6.73730877556367E-02 
453	 6.77663649553454E-02 
454	 6.82487105516819E-02 
455	 6.88038522231446E-02 
456	 6.90436869798457E-02 
457	 6.95390111815508E-02 
458	 0.070064811587559 
459	 7.03875116408711E-02 
460	 7.08035861340902E-02 
461	 7.11686061821912E-02 
462	 7.15003037717203E-02 
463	 7.18949825478945E-02 
464	 7.22975758875458E-02 
465	 7.26889459263151E-02 
466	 7.30269407790764E-02 
467	 7.32184603399378E-02 
468	 0.073576556849291 
469	 7.39943511366233E-02 
470	 7.43159960386143E-02 
471	 7.47686151044954E-02 
472	 7.51049490308447E-02 
473	 7.53627289662332E-02 
474	 7.57936103440384E-02 
475	 7.61087179306294E-02 
476	 7.64713860070464E-02 
477	 0.076935563502032 
478	 7.71279276185498E-02 
479	 7.74633116511995E-02 
480	 0.077928045065349 
481	 0.078352580008223 
482	 7.87473286011907E-02 
483	 7.91701426376248E-02 
484	 7.96165030820077E-02 
485	 8.00071290690832E-02 
486	 8.05481886578251E-02 
487	 8.10138542562065E-02 
488	 0.081262604893267 
489	 8.17035261189983E-02 
490	 8.23089502994492E-02 
491	 8.29190654851777E-02 
492	 8.33441960610397E-02 
493	 8.39502472203759E-02 
494	 8.45094715560909E-02 
495	 0.084939628907234 
496	 8.55130461179017E-02 
497	 8.61410834912957E-02 
498	 8.67917476309338E-02 
499	 8.74531240919741E-02 
500	 8.81595806450736E-02 
501	 8.88451385951653E-02 
502	 8.95254666260564E-02 
503	 9.02842687336771E-02 
504	 9.10115726857578E-02 
505	 9.17504006587659E-02 
506	 9.25350966545866E-02 
507	 9.33096979929117E-02 
508	 9.41009584833897E-02 
509	 9.49065681332884E-02 
510	 9.57094283061705E-02 
511	 0.0964757235291 
512	 9.73144997619882E-02 
513	 9.82213104702627E-02 
514	 9.90363858780205E-02 
515	 9.98195333696153E-02 
516	 0.100610151359487 
517	 0.10143684964383 
518	 0.102309340451016 
519	 0.103158701832098 
520	 0.103961444496743 
521	 0.104731220702519 
522	 0.105489515879882 
523	 0.106304669432026 
524	 0.107178411579162 
525	 0.107977805899845 
526	 0.108736880285911 
527	 0.10948832263974 
528	 0.110258926070719 
529	 0.111016464892808 
530	 0.111787681331397 
531	 0.112584292440257 
532	 0.113394749970189 
533	 0.114088275822642 
534	 0.114750052229965 
535	 0.115469715452434 
536	 0.116206023377916 
537	 0.116951121502962 
538	 0.117670949074076 
539	 0.118328821375841 
540	 0.118982747384737 
541	 0.119654201701538 
542	 0.120340442284528 
543	 0.121010184723007 
544	 0.121637553903963 
545	 0.122237465680442 
546	 0.122836345829481 
547	 0.123445219622369 
548	 0.124032512025263 
549	 0.124594193817418 
550	 0.125150608095702 
551	 0.125663773748814 
552	 0.126186839652442 
553	 0.126740230847175 
554	 0.127213412107005 
555	 0.127700274828894 
556	 0.128197610581723 
557	 0.128665041589876 
558	 0.129160896090559 
559	 0.129626321140268 
560	 0.130046940808817 
561	 0.130484218621984 
562	 0.130913539754071 
563	 0.131332374170863 
564	 0.131740268802442 
565	 0.132130404915563 
566	 0.132464411485715 
567	 0.132770791904124 
568	 0.133124563638912 
569	 0.133500442251194 
570	 0.133868265030744 
571	 0.134207737146825 
572	 0.134513238917759 
573	 0.134877635571248 
574	 0.135248826325154 
575	 0.135545775770975 
576	 0.135900863246591 
577	 0.136190602227907 
578	 0.136413862823442 
579	 0.136722403402622 
580	 0.13699612636592 
581	 0.137234100323726 
582	 0.137466006057981 
583	 0.137725028699016 
584	 0.138004902273119 
585	 0.138271527191184 
586	 0.138491059303146 
587	 0.138794212597251 
588	 0.139088236253834 
589	 0.139333005365876 
590	 0.139620807412808 
591	 0.139851076740705 
592	 0.140060773331435 
593	 0.140306146376248 
594	 0.14053018794921 
595	 0.14075432276792 
596	 0.141001504517497 
597	 0.14128625075227 
598	 0.141504285057398 
599	 0.141709633337103 
600	 0.141945151445624 
601	 0.142146975427215 
602	 0.142385079568404 
603	 0.142649534488725 
604	 0.142895981652423 
605	 0.143113129231207 
606	 0.143324969527398 
607	 0.143552181925509 
608	 0.14380605333058 
609	 0.144002938987709 
610	 0.144209828444793 
611	 0.144479494812091 
612	 0.144681740213534 
613	 0.144886778698145 
614	 0.145115949759873 
615	 0.145352650597066 
616	 0.145540166366443 
617	 0.145748004781351 
618	 0.146001519504739 
619	 0.1462197529712 
620	 0.14641372124015 
621	 0.146630552067774 
622	 0.146898516322227 
623	 0.147085180634926 
624	 0.147287080365304 
625	 0.147520731458624 
626	 0.147722582947306 
627	 0.147946000015897 
628	 0.148174698714461 
629	 0.148395337413508 
630	 0.148640340460006 
631	 0.148831420830658 
632	 0.149009184746364 
633	 0.149250184836026 
634	 0.149473462114209 
635	 0.149679475074156 
636	 0.149889674768071 
637	 0.150141195309939 
638	 0.150356547959635 
639	 0.150543999849223 
640	 0.150731223082736 
641	 0.150931689897432 
642	 0.15112923079421 
643	 0.151329224681715 
644	 0.151547317691361 
645	 0.15175791833298 
646	 0.151959569619868 
647	 0.152155909728283 
648	 0.152352181856656 
649	 0.152586292524943 
650	 0.152822113217479 
651	 0.153013430544377 
652	 0.153176048009043 
653	 0.153352650386007 
654	 0.153560390982082 
655	 0.153789589164297 
656	 0.153986214691714 
657	 0.154166439839623 
658	 0.154357304234585 
659	 0.154586672320484 
660	 0.154789461893299 
661	 0.154997088622409 
662	 0.155248754588326 
663	 0.155412923575203 
664	 0.15558614951646 
665	 0.155800384444972 
666	 0.156008183854033 
667	 0.156194775727623 
668	 0.156390878047789 
669	 0.15661353664044 
670	 0.156821795212779 
671	 0.157018078576692 
672	 0.157203978122186 
673	 0.157389467783132 
674	 0.157632200179363 
675	 0.15785796495091 
676	 0.158052232435857 
677	 0.158284218639453 
678	 0.158474813111816 
679	 0.158664109097997 
680	 0.158891524229067 
681	 0.159106253036742 
682	 0.15934303569145 
683	 0.159597072473697 
684	 0.159840994027482 
685	 0.160056904028485 
686	 0.160270831089867 
687	 0.160490139578967 
688	 0.160688493195446 
689	 0.160929584758778 
690	 0.161184935740292 
691	 0.161423996101937 
692	 0.161704860691257 
693	 0.161958816195451 
694	 0.16217692513326 
695	 0.162396732944766 
696	 0.162698137608359 
697	 0.16298261172817 
698	 0.163216934633179 
699	 0.163504630523709 
700	 0.16379296109516 
701	 0.164074081879437 
702	 0.164356502408066 
703	 0.164667777323549 
704	 0.164945329046382 
705	 0.165209281469612 
706	 0.16553051351462 
707	 0.165858908878345 
708	 0.166168295349996 
709	 0.166470117635298 
710	 0.166833846441704 
711	 0.167171049189125 
712	 0.167493626991154 
713	 0.167836108656767 
714	 0.168190780084021 
715	 0.168568839048576 
716	 0.16894819931795 
717	 0.169290277139306 
718	 0.169655549199288 
719	 0.170056853377055 
720	 0.170472040276169 
721	 0.170829302736311 
722	 0.17126014805161 
723	 0.171695004966743 
724	 0.172059160305077 
725	 0.172517307361158 
726	 0.172984704902447 
727	 0.173431002516491 
728	 0.173870009417923 
729	 0.174299201192717 
730	 0.174739799450595 
731	 0.175213602531307 
732	 0.175741056249407 
733	 0.176262827234729 
734	 0.176760182985482 
735	 0.177238625297547 
736	 0.17773444462924 
737	 0.178235114696169 
738	 0.17874124557615 
739	 0.179263257507137 
740	 0.179824569926899 
741	 0.180348199356128 
742	 0.180845295981278 
743	 0.181476287090461 
744	 0.182049139882275 
745	 0.182598212743997 
746	 0.183185792586542 
747	 0.183745917637834 
748	 0.184313292499013 
749	 0.184917481349683 
750	 0.185570632336035 
751	 0.18618722513862 
752	 0.186796257731713 
753	 0.187428162611993 
754	 0.188096725942199 
755	 0.188709128546947 
756	 0.189342741570453 
757	 0.190049131378667 
758	 0.190681945008999 
759	 0.191323081164545 
760	 0.191979186476294 
761	 0.192631361887825 
762	 0.193336193297804 
763	 0.194044439877702 
764	 0.194733868927679 
765	 0.19542210555272 
766	 0.196094637248098 
767	 0.196754729817665 
768	 0.197424202607358 
769	 0.198165822798415 
770	 0.1988632217296 
771	 0.199533575731332 
772	 0.200231563275241 
773	 0.200927705494556 
774	 0.201618219057399 
775	 0.202299057171738 
776	 0.202967543793193 
777	 0.203631111067151 
778	 0.204294015539755 
779	 0.20496129530193 
780	 0.205639764883565 
781	 0.206286325586604 
782	 0.206894221489919 
783	 0.2074911127071 
784	 0.208178838063891 
785	 0.208850962013253 
786	 0.209476550254718 
787	 0.210074663069657 
788	 0.210661383241719 
789	 0.211264112046948 
790	 0.211857356648639 
791	 0.212361359575702 
792	 0.212909094174871 
793	 0.213495213076811 
794	 0.214080717207876 
795	 0.214621950617513 
796	 0.215145170494433 
797	 0.215670276776894 
798	 0.216199672401341 
799	 0.216662953785683 
800	 0.217116143370293 
801	 0.217579968200086 
802	 0.218040234346058 
803	 0.218471151366966 
804	 0.218891035986245 
805	 0.219313240171321 
806	 0.219733269907054 
807	 0.220158520563137 
808	 0.22054672847634 
809	 0.2208819090038 
810	 0.221259525725222 
811	 0.221622254093976 
812	 0.22194841716901 
813	 0.222248500107302 
814	 0.222615733288752 
815	 0.222948984724003 
816	 0.223205678903666 
817	 0.22341234481719 
818	 0.223612544833059 
819	 0.223851509973254 
820	 0.224123993912517 
821	 0.224347828131146 
822	 0.224582623655235 
823	 0.224800746151239 
824	 0.224978822226469 
825	 0.225178637250582 
826	 0.225350138868198 
827	 0.225485608558706 
828	 0.225610737065527 
829	 0.225809250612949 
830	 0.226022265834394 
831	 0.226177041091042 
832	 0.226217318633866 
833	 0.226283695763445 
834	 0.226378170895066 
835	 0.226478885915763 
836	 0.226562908469686 
837	 0.226660643994634 
838	 0.226759205850779 
839	 0.226840920031891 
840	 0.226899928825942 
841	 0.227012242158933 
842	 0.227138908613718 
843	 0.227203939013066 
844	 0.227209370293815 
845	 0.227223446544801 
846	 0.227270825080004 
847	 0.227334759770954 
848	 0.227380956049836 
849	 0.227401799298644 
850	 0.227423132194648 
851	 0.227500361828239 
852	 0.227523776130287 
853	 0.227518207343166 
854	 0.227536638014881 
855	 0.227630852507317 
856	 0.227690927335272 
857	 0.227714093531865 
858	 0.227735987099937 
859	 0.227795539968877 
860	 0.22779296979865 
861	 0.227768384519178 
862	 0.227816922942916 
863	 0.227885087738968 
864	 0.227929524600641 
865	 0.227955774418305 
866	 0.228003725888399 
867	 0.228002674285485 
868	 0.227996555415785 
869	 0.228020660448972 
870	 0.228074509027901 
871	 0.228152387998693 
872	 0.228202297280798 
873	 0.228203191767916 
874	 0.228215907577803 
875	 0.228297721704761 
876	 0.228393344266249 
877	 0.228442399495386 
878	 0.22851317866279 
879	 0.22856455808054 
880	 0.228599030961622 
881	 0.228643872427479 
882	 0.228731847658136 
883	 0.228807100988796 
884	 0.228885258100412 
885	 0.229024691544026 
886	 0.229126970297177 
887	 0.229215788549929 
888	 0.229316019724938 
889	 0.229435105226657 
890	 0.229563365379919 
891	 0.229682362677497 
892	 0.229784273915464 
893	 0.229880787078738 
894	 0.230032674271176 
895	 0.230185798741175 
896	 0.230299210167873 
897	 0.230446182584211 
898	 0.230605529078848 
899	 0.230735799480831 
900	 0.230821065097234 
901	 0.230955928690273 
902	 0.231180406863511 
903	 0.231461044852407 
904	 0.231718651011105 
905	 0.231871275936146 
906	 0.231997996104925 
907	 0.23216851603383 
908	 0.232416075869342 
909	 0.232641192061851 
910	 0.232861031026042 
911	 0.233076418902531 
912	 0.233270065054828 
913	 0.233556650836488 
914	 0.23381731866614 
915	 0.234004066917513 
916	 0.234214681529678 
917	 0.234490153616874 
918	 0.234786617584117 
919	 0.235066711671289 
920	 0.235344652830234 
921	 0.23563518376571 
922	 0.235921498946615 
923	 0.236198248336295 
924	 0.236507459809581 
925	 0.236868296082075 
926	 0.23721181861472 
927	 0.237486151357091 
928	 0.237799891933456 
929	 0.238082569975791 
930	 0.238369666197374 
931	 0.23871702957326 
932	 0.239064875918994 
933	 0.239445947493317 
934	 0.239847000452387 
935	 0.240235466014071 
936	 0.240625335897012 
937	 0.24103756620991 
938	 0.241431574360339 
939	 0.241753053817103 
940	 0.242147910278562 
941	 0.242551108857118 
942	 0.24292172296665 
943	 0.243274311363634 
944	 0.243760072161885 
945	 0.244194513220529 
946	 0.244514641420631 
947	 0.244827656511071 
948	 0.245139370314743 
949	 0.245509606081138 
950	 0.245896665211606 
951	 0.246148732517876 
952	 0.246453084674596 
953	 0.246804449620036 
954	 0.247155313327826 
955	 0.247455918051289 
956	 0.247763048052614 
957	 0.248094131508247 
958	 0.248445810365309 
959	 0.248795317218393 
960	 0.24907175051211 
961	 0.249323677690765 
962	 0.249624155156135 
963	 0.25002848418248 
964	 0.250278285338358 
965	 0.25047918062487 
966	 0.250763875814273 
967	 0.251090319244268 
968	 0.251387381520929 
969	 0.251731597237357 
970	 0.252154200501154 
971	 0.25246385511063 
972	 0.252817880086239 
973	 0.253123856246113 
974	 0.253303912810497 
975	 0.253524586563884 
976	 0.253774207198031 
977	 0.254129937831589 
978	 0.254578554145872 
979	 0.254777978148783 
980	 0.255020615101794 
981	 0.255301294907628 
982	 0.255548978441269 
983	 0.255821888459032 
984	 0.25612724740386 
985	 0.256391255678899 
986	 0.256585230987907 
987	 0.25692373972225 
988	 0.257218280314779 
989	 0.257429054582941 
990	 0.257593914170084 
991	 0.257790583851834 
992	 0.258082191045995 
993	 0.258350499688047 
994	 0.258512200879515 
995	 0.258838187744903 
996	 0.259131053598277 
997	 0.259311586930728 
998	 0.259413667679623 
999	 0.259658683842961 
1000	 0.259975972651699 
1001	 0.260901310770927 
1002	 0.26113271655287 
1003	 0.261341590045791 
1004	 0.261521325920193 
1005	 0.261664838667903 
1006	 0.261833777804964 
1007	 0.261993087502664 
1008	 0.262155902674027 
1009	 0.262313075267156 
1010	 0.262494060262748 
1011	 0.262681157777286 
1012	 0.262872055060946 
1013	 0.263117917763092 
1014	 0.263306588875832 
1015	 0.2634681580003 
1016	 0.263598439417537 
1017	 0.263752442556727 
1018	 0.263888326556901 
1019	 0.264024206016881 
1020	 0.2642034155899 
1021	 0.264358897784572 
1022	 0.264481066818868 
1023	 0.264654632822886 
1024	 0.264867715541278 
1025	 0.265041441492698 
1026	 0.265212566078825 
1027	 0.265395780770885 
1028	 0.265582283391394 
1029	 0.26574632332839 
1030	 0.265890846345479 
1031	 0.266066283239798 
1032	 0.266187283901527 
1033	 0.266314844833845 
1034	 0.266524822671883 
1035	 0.266697902536329 
1036	 0.266884982771994 
1037	 0.267107643225363 
1038	 0.26729258337499 
1039	 0.26745085630696 
1040	 0.267637456922228 
1041	 0.267822577731068 
1042	 0.268007764955923 
1043	 0.268211305334039 
1044	 0.26839270362086 
1045	 0.268569439160999 
1046	 0.268760071762173 
1047	 0.268934629806835 
1048	 0.269099166969101 
1049	 0.269236127939472 
1050	 0.269372236088023 
1051	 0.269547857944916 
1052	 0.269742506323992 
1053	 0.269927169966246 
1054	 0.27014500761146 
1055	 0.270324422122815 
1056	 0.270462574058354 
1057	 0.270629176704514 
1058	 0.270793594375333 
1059	 0.270977993947528 
1060	 0.271184699149486 
1061	 0.271379990796934 
1062	 0.271589381304851 
1063	 0.271799463420539 
1064	 0.271980852682613 
1065	 0.272200000001866 
1066	 0.272391400321822 
1067	 0.272548121816264 
1068	 0.27275963722849 
1069	 0.272952524928777 
1070	 0.273145269660373 
1071	 0.273344834924277 
1072	 0.273565030775311 
1073	 0.273738094072509 
1074	 0.273906144263238 
1075	 0.274076262266006 
1076	 0.27427561892565 
1077	 0.274507107078949 
1078	 0.274721988487144 
1079	 0.274946323599643 
1080	 0.275183168472321 
1081	 0.27540331073402 
1082	 0.275610586315179 
1083	 0.275828747401057 
1084	 0.276047711124953 
1085	 0.276252856225539 
1086	 0.276475259588581 
1087	 0.276719343292782 
1088	 0.276963224462955 
1089	 0.277179179590142 
1090	 0.277402724967988 
1091	 0.277600331443227 
1092	 0.277785363071392 
1093	 0.278028297810083 
1094	 0.278281614965671 
1095	 0.27852625392297 
1096	 0.278793367928062 
1097	 0.279032241573551 
1098	 0.279252872632533 
1099	 0.279495896684879 
1100	 0.279738034095518 
1101	 0.279986006354895 
1102	 0.280249565614559 
1103	 0.280509291410335 
1104	 0.280769058641213 
1105	 0.281048172811175 
1106	 0.281333003378032 
1107	 0.281576334380663 
1108	 0.281843620728155 
1109	 0.28212591572342 
1110	 0.282375236535887 
1111	 0.282659213119113 
1112	 0.282941791202087 
1113	 0.283220981568286 
1114	 0.283526410471872 
1115	 0.283806613109422 
1116	 0.284089116587172 
1117	 0.284357924677977 
1118	 0.284635479832741 
1119	 0.284926308793703 
1120	 0.285202483530468 
1121	 0.28547430021523 
1122	 0.285741444500868 
1123	 0.286016919781891 
1124	 0.286263046596624 
1125	 0.286513774125119 
1126	 0.286774775837116 
1127	 0.287018584135564 
1128	 0.287267939608624 
1129	 0.287519391991235 
1130	 0.287771970672785 
1131	 0.28801685795267 
1132	 0.288224086322443 
1133	 0.288424239582958 
1134	 0.288629963004733 
1135	 0.28882493211677 
1136	 0.289003974673848 
1137	 0.289190888859643 
1138	 0.289389391051314 
1139	 0.289556827691903 
1140	 0.289709509825623 
1141	 0.289866584822266 
1142	 0.289991815795108 
1143	 0.290096893695122 
1144	 0.290205227357304 
1145	 0.290321191275916 
1146	 0.290442388747735 
1147	 0.290574337013222 
1148	 0.290710850665752 
1149	 0.290820575616275 
1150	 0.290919052073482 
1151	 0.291021687621595 
1152	 0.291121272344053 
1153	 0.291225517080186 
1154	 0.291312193003374 
1155	 0.291395750635305 
1156	 0.291466340627674 
1157	 0.291509507125105 
1158	 0.291566029498121 
1159	 0.291624847678893 
1160	 0.291676551128666 
1161	 0.291730955897735 
1162	 0.291788112571349 
1163	 0.291848827621876 
1164	 0.291925898613609 
1165	 0.292019126359738 
1166	 0.292128757490466 
1167	 0.292245260349806 
1168	 0.292340613552666 
1169	 0.292440690719811 
1170	 0.292534571888396 
1171	 0.292635271704776 
1172	 0.292733536585399 
1173	 0.292850932288545 
1174	 0.292988065647838 
1175	 0.293103060607852 
1176	 0.293227466147984 
1177	 0.293329671787504 
1178	 0.293403443150057 
1179	 0.293492216500325 
1180	 0.29356694087657 
1181	 0.293634297484741 
1182	 0.293703680643116 
1183	 0.293744376933821 
1184	 0.293799018212603 
1185	 0.293868205835376 
1186	 0.293962572742753 
1187	 0.29407297354837 
1188	 0.294211309250516 
1189	 0.294369841177209 
1190	 0.294557847351879 
1191	 0.294777513909418 
1192	 0.29499733577166 
1193	 0.295245849526188 
1194	 0.295491495007937 
1195	 0.295737461787617 
1196	 0.2960005784812 
1197	 0.296268900995463 
1198	 0.296560434004769 
1199	 0.296868256687469 
1200	 0.297173228300797 
1201	 0.29751281277245 
1202	 0.29785138011507 
1203	 0.298197948267007 
1204	 0.298597212948031 
1205	 0.299012182376466 
1206	 0.299430517480206 
1207	 0.299925300706764 
1208	 0.300460330993072 
1209	 0.301039315790048 
1210	 0.30166165940672 
1211	 0.30234860116505 
1212	 0.303080744867756 
1213	 0.303880433359223 
1214	 0.304751350367966 
1215	 0.305676451891871 
1216	 0.306665957257754 
1217	 0.307683577889029 
1218	 0.308759777007008 
1219	 0.309875288974781 
1220	 0.310997388304063 
1221	 0.312210293877547 
1222	 0.313390775666139 
1223	 0.314583468947441 
1224	 0.315764222778274 
1225	 0.316938639750791 
1226	 0.318086529759845 
1227	 0.31924139000129 
1228	 0.320353773631817 
1229	 0.321450477682421 
1230	 0.322502587874666 
1231	 0.32351334386669 
1232	 0.324512372024576 
1233	 0.325475918267085 
1234	 0.326408661110676 
1235	 0.327313868429428 
1236	 0.328211014911508 
1237	 0.329083816063631 
1238	 0.329935196036352 
1239	 0.330770382088998 
1240	 0.331594703332919 
1241	 0.332408281165109 
1242	 0.333161039615463 
1243	 0.33393238320808 
1244	 0.334703978292391 
1245	 0.335455073330472 
1246	 0.336197775327723 
1247	 0.336916710284353 
1248	 0.337607261737378 
1249	 0.338313151219609 
1250	 0.339008671695039 
1251	 0.339695603156945 
1252	 0.340388906165848 
1253	 0.341072097787385 
1254	 0.341750948052696 
1255	 0.342411135171103 
1256	 0.343061925306141 
1257	 0.343710090078173 
1258	 0.344341361508051 
1259	 0.344960502192578 
1260	 0.345569833067889 
1261	 0.346184972343749 
1262	 0.346772229840107 
1263	 0.347397486398486 
1264	 0.347998526935617 
1265	 0.348607189216267 
1266	 0.349206063049834 
1267	 0.34978504527571 
1268	 0.350378803903414 
1269	 0.35098212730838 
1270	 0.351577278879907 
1271	 0.352173918339596 
1272	 0.3527621248081 
1273	 0.353348587490136 
1274	 0.353923681297361 
1275	 0.354480605783266 
1276	 0.355044016184311 
1277	 0.355596038469433 
1278	 0.356159206484574 
1279	 0.356732089815791 
1280	 0.35730008908126 
1281	 0.357855853981559 
1282	 0.358431212537555 
1283	 0.359027818435737 
1284	 0.359603154948677 
1285	 0.36017408605231 
1286	 0.360750278213873 
1287	 0.361320546506706 
1288	 0.361871644029307 
1289	 0.362431965891446 
1290	 0.363007427304115 
1291	 0.363560958534987 
1292	 0.364096185010784 
1293	 0.364635867638769 
1294	 0.365172147254561 
1295	 0.365704197245707 
1296	 0.366234089229795 
1297	 0.366756530467495 
1298	 0.367267134947788 
1299	 0.367784543757795 
1300	 0.368298616896363 
1301	 0.368813882568639 
1302	 0.369335766799149 
1303	 0.369850605754188 
1304	 0.370370124922875 
1305	 0.370871825540711 
1306	 0.371347277009723 
1307	 0.371841717392888 
1308	 0.372324513940384 
1309	 0.372827244261879 
1310	 0.373327606089816 
1311	 0.373849675938057 
1312	 0.374346106848105 
1313	 0.374834703463025 
1314	 0.375314009739581 
1315	 0.375777616778075 
1316	 0.376254147083089 
1317	 0.37672165662974 
1318	 0.377205841198094 
1319	 0.37771446886058 
1320	 0.378195297495649 
1321	 0.37867941348775 
1322	 0.379139471618674 
1323	 0.379573425313492 
1324	 0.380010011589794 
1325	 0.380440455126652 
1326	 0.380860743364167 
1327	 0.381269388673217 
1328	 0.381678996169963 
1329	 0.382088649158768 
1330	 0.382481061764721 
1331	 0.38287123806534 
1332	 0.383246791815719 
1333	 0.383597627778325 
1334	 0.383957661327849 
1335	 0.384282382035827 
1336	 0.384590560790178 
1337	 0.384894345034743 
1338	 0.385178066226484 
1339	 0.385453455599267 
1340	 0.385733870934336 
1341	 0.38597825143418 
1342	 0.386203566398004 
1343	 0.38640068525872 
1344	 0.386581714092805 
1345	 0.386725316056665 
1346	 0.386835758593293 
1347	 0.386925269601487 
1348	 0.386977898780272 
1349	 0.387028359283332 
1350	 0.387048751932772 
1351	 0.387082079256147 
1352	 0.38711888190472 
1353	 0.387140832497861 
1354	 0.387166893931215 
1355	 0.387173031452113 
1356	 0.387150237891676 
1357	 0.387137083079578 
1358	 0.387121182422748 
1359	 0.387100410514682 
1360	 0.387086493994634 
1361	 0.387058947598559 
1362	 0.387024724842454 
1363	 0.386978044102066 
1364	 0.38690839428869 
1365	 0.386837024817591 
1366	 0.386710476356256 
1367	 0.386552019886914 
1368	 0.386365065371668 
1369	 0.386142451599953 
1370	 0.385891725099897 
1371	 0.385614546095203 
1372	 0.385312512592722 
1373	 0.384990050086194 
1374	 0.384616722682287 
1375	 0.384214248296251 
1376	 0.383767285500568 
1377	 0.383274565983443 
1378	 0.382735081725797 
1379	 0.38217637786798 
1380	 0.38153875700589 
1381	 0.380869094325516 
1382	 0.380087632766622 
1383	 0.379227042519071 
1384	 0.378283726327246 
1385	 0.377228944254204 
1386	 0.376133928106149 
1387	 0.374916602842339 
1388	 0.373753051139331 
1389	 0.372499747981984 
1390	 0.371355931200895 
1391	 0.370283768211981 
1392	 0.369205959960085 
1393	 0.368296520489126 
1394	 0.367461170307118 
1395	 0.366695710703797 
1396	 0.366061855805155 
1397	 0.365383533892467 
1398	 0.364786779926194 
1399	 0.364064156166748 
1400	 0.363347997879229 
1401	 0.362497065930958 
1402	 0.361580856859918 
1403	 0.360526763001976 
1404	 0.35935244211846 
1405	 0.358134735422119 
1406	 0.356756809003477 
1407	 0.355446064555553 
1408	 0.354038373423718 
1409	 0.352787068369632 
1410	 0.351498202694998 
1411	 0.350450178988522 
1412	 0.34951832347624 
1413	 0.348788825831254 
1414	 0.348256414345512 
1415	 0.347850970169135 
1416	 0.347658223112534 
1417	 0.347515259033958 
1418	 0.347537316052467 
1419	 0.347560433205402 
1420	 0.3476715167546 
1421	 0.347778176353795 
1422	 0.347906376414571 
1423	 0.348053195373621 
1424	 0.348212953753012 
1425	 0.348401020491048 
1426	 0.348591361044344 
1427	 0.348812348364681 
1428	 0.34906608542856 
1429	 0.349311473740353 
1430	 0.349585615273287 
1431	 0.34988372967055 
1432	 0.350198668135938 
1433	 0.350521830908556 
1434	 0.350886276916971 
1435	 0.351278753636173 
1436	 0.351702261897152 
1437	 0.352154885928386 
1438	 0.352632080658899 
1439	 0.353146830798069 
1440	 0.353668996029167 
1441	 0.354218819009063 
1442	 0.354775773613771 
1443	 0.355340152560098 
1444	 0.355930911961117 
1445	 0.356552920267575 
1446	 0.357160170825575 
1447	 0.357781950074185 
1448	 0.358402336957726 
1449	 0.359031417034382 
1450	 0.359638293769087 
1451	 0.360239272994894 
1452	 0.360838859675753 
1453	 0.361429078211956 
1454	 0.361998636450226 
1455	 0.362564607773017 
1456	 0.363121876188207 
1457	 0.363653485271922 
1458	 0.364184478976548 
1459	 0.364709703570721 
1460	 0.365240639629764 
1461	 0.365757207907123 
1462	 0.366283017510768 
1463	 0.366817315859489 
1464	 0.367360540089896 
1465	 0.367898598487131 
1466	 0.368469595811385 
1467	 0.369015848134801 
1468	 0.369574487605069 
1469	 0.370161086688894 
1470	 0.370706964872896 
1471	 0.371271347704782 
1472	 0.371855361985445 
1473	 0.372417125487311 
1474	 0.372969595652558 
1475	 0.373507342194958 
1476	 0.374045832720616 
1477	 0.374552663260345 
1478	 0.375036043029911 
1479	 0.375498308168041 
1480	 0.375932071175484 
1481	 0.376370713809014 
1482	 0.376794262141819 
1483	 0.377211061146987 
1484	 0.377626202776293 
1485	 0.378029118468939 
1486	 0.378412109143015 
1487	 0.378797105750187 
1488	 0.379173633295573 
1489	 0.379559519488911 
1490	 0.37994936324113 
1491	 0.380329052170673 
1492	 0.380697355646794 
1493	 0.381091217274977 
1494	 0.381473345660757 
1495	 0.381889487032069 
1496	 0.382352930861197 
1497	 0.38279587004103 
1498	 0.383252362119702 
1499	 0.383694797942593 
1500	 0.384115353098042 
1501	 0.384559562153515 
1502	 0.385004302081653 
1503	 0.385459430182226 
1504	 0.385924057840988 
1505	 0.38640685540462 
1506	 0.386920075135338 
1507	 0.387411397301342 
1508	 0.387907870818662 
1509	 0.38840176695803 
1510	 0.388874147057336 
1511	 0.389352931299454 
1512	 0.389833248710653 
1513	 0.390327642988039 
1514	 0.390833573869445 
1515	 0.39133237202987 
1516	 0.391840298564926 
1517	 0.392347804208538 
1518	 0.392841458163727 
1519	 0.393342374064952 
1520	 0.39385673332493 
1521	 0.394365286892534 
1522	 0.394866425733247 
1523	 0.395394957889499 
1524	 0.395900638882928 
1525	 0.396406926675686 
1526	 0.396902497750664 
1527	 0.397385994668388 
1528	 0.397869137943071 
1529	 0.398337781227356 
1530	 0.398841591358002 
1531	 0.399355211391553 
1532	 0.399872365491284 
1533	 0.400418791054516 
1534	 0.40093899066555 
1535	 0.401444681293713 
1536	 0.401957032732481 
1537	 0.402470123932022 
1538	 0.402979383490445 
1539	 0.403488056674204 
1540	 0.403992592091543 
1541	 0.404500137243522 
1542	 0.404988187837747 
1543	 0.405474731073368 
1544	 0.405931447553602 
1545	 0.406364837598266 
1546	 0.406790717689014 
1547	 0.407202185352811 
1548	 0.407593895224404 
1549	 0.407975520484968 
1550	 0.408331572890149 
1551	 0.408645890208782 
1552	 0.4089851996093 
1553	 0.409312848137458 
1554	 0.409656077419859 
1555	 0.410033257439088 
1556	 0.41036343259345 
1557	 0.410666946935354 
1558	 0.410986926771661 
1559	 0.411284191462268 
1560	 0.411600204732254 
1561	 0.411938913491598 
1562	 0.412269208446888 
1563	 0.412587522301646 
1564	 0.412925147171728 
1565	 0.413269600369231 
1566	 0.413629089311253 
1567	 0.414003836255266 
1568	 0.414383186719643 
1569	 0.414772758991382 
1570	 0.415172394440429 
1571	 0.415591578722066 
1572	 0.415994097494262 
1573	 0.41639152769089 
1574	 0.416802530178478 
1575	 0.417216327437985 
1576	 0.417621916974369 
1577	 0.418039473474871 
1578	 0.418448537513504 
1579	 0.418840406540393 
1580	 0.419236210014419 
1581	 0.419636406058336 
1582	 0.420035243402867 
1583	 0.420429190304002 
1584	 0.420823209908263 
1585	 0.421224404730234 
1586	 0.421616296193665 
1587	 0.422005450792916 
1588	 0.42238226941768 
1589	 0.422733632233463 
1590	 0.423112613973949 
1591	 0.423498457957195 
1592	 0.423884166642978 
1593	 0.424290846804953 
1594	 0.424690004750514 
1595	 0.42507651516128 
1596	 0.42547100133184 
1597	 0.425882474008806 
1598	 0.426275974726753 
1599	 0.426666405438585 
1600	 0.427046230771199 
1601	 0.427408135338288 
1602	 0.427774144377333 
1603	 0.428146620127818 
1604	 0.42849425700476 
1605	 0.428830077518231 
1606	 0.429158338776139 
1607	 0.429463343408033 
1608	 0.429771096780461 
1609	 0.430070657855946 
1610	 0.430378573499364 
1611	 0.430690483837721 
1612	 0.430992666401089 
1613	 0.431316090905143 
1614	 0.431600360567309 
1615	 0.431864850698782 
1616	 0.432106620632668 
1617	 0.432309093309709 
1618	 0.432514116594706 
1619	 0.432700577353872 
1620	 0.432885316017919 
1621	 0.4330600484301 
1622	 0.433239868573433 
1623	 0.433428237090723 
1624	 0.433597398732442 
1625	 0.433757021739178 
1626	 0.433917259254899 
1627	 0.434058470036532 
1628	 0.434206607432096 
1629	 0.434377944578116 
1630	 0.434518227178362 
1631	 0.434652588255864 
1632	 0.434760562290696 
1633	 0.434826394194217 
1634	 0.434904093353153 
1635	 0.434957214042907 
1636	 0.435032906602725 
1637	 0.435144756710632 
1638	 0.435219917251647 
1639	 0.435300215984599 
1640	 0.43534554825021 
1641	 0.435352045846899 
1642	 0.435349929836331 
1643	 0.435336762367055 
1644	 0.435293936856677 
1645	 0.435229246390212 
1646	 0.435142718623629 
1647	 0.435025785017777 
1648	 0.434892834842628 
1649	 0.434735809343266 
1650	 0.434565422518714 
1651	 0.434382088186703 
1652	 0.43417802319608 
1653	 0.433975941217117 
1654	 0.4337184872214 
1655	 0.433445987046568 
1656	 0.433093123389437 
1657	 0.432692913672331 
1658	 0.432209417011811 
1659	 0.431637264632297 
1660	 0.431028458553535 
1661	 0.430356951358685 
1662	 0.429627357419419 
1663	 0.42883740349878 
1664	 0.427995872589216 
1665	 0.427110897244684 
1666	 0.426133623451315 
1667	 0.425103789971318 
1668	 0.423993430385489 
1669	 0.422784846575307 
1670	 0.421515309744966 
1671	 0.420177549079895 
1672	 0.418759324885184 
1673	 0.417264482874946 
1674	 0.415685619781034 
1675	 0.414016174087459 
1676	 0.412328095691848 
1677	 0.410587960451577 
1678	 0.408767967605028 
1679	 0.406883829321371 
1680	 0.404934086273485 
1681	 0.402877867221348 
1682	 0.400808493230052 
1683	 0.398701659685735 
1684	 0.396595561471055 
1685	 0.39445756194986 
1686	 0.39229305096282 
1687	 0.39007872214034 
1688	 0.387888007575235 
1689	 0.385664702939733 
1690	 0.383468905935698 
1691	 0.381326987411489 
1692	 0.379182843257908 
1693	 0.377056531457232 
1694	 0.374888633920612 
1695	 0.372711898665682 
1696	 0.370479723563459 
1697	 0.36818831830538 
1698	 0.365890504267539 
1699	 0.363555662549526 
1700	 0.361308823995951 
1701	 0.35904673421912 
1702	 0.35689190648608 
1703	 0.354773701037915 
1704	 0.352790130863553 
1705	 0.350879940181162 
1706	 0.349050403935548 
1707	 0.347458123709355 
1708	 0.345894829939789 
1709	 0.344419356130507 
1710	 0.343069422677526 
1711	 0.341699620865688 
1712	 0.340415926401201 
1713	 0.339191700642891 
1714	 0.338002064793929 
1715	 0.336921501089823 
1716	 0.335864571605051 
1717	 0.334872031250632 
1718	 0.333942816241623 
1719	 0.333075687343611 
1720	 0.33233258213939 
1721	 0.331687376633363 
1722	 0.331194959379873 
1723	 0.330867210347093 
1724	 0.330657075858054 
1725	 0.330641534876897 
1726	 0.330871721076798 
1727	 0.331317074526762 
1728	 0.332005388055254 
1729	 0.332988076037817 
1730	 0.334195178588259 
1731	 0.335507998477603 
1732	 0.337022327645639 
1733	 0.338578989850034 
1734	 0.340141257459396 
1735	 0.341768887206789 
1736	 0.343280197170769 
1737	 0.344681306938336 
1738	 0.345925790283325 
1739	 0.346980980238827 
1740	 0.347898437477295 
1741	 0.348612050313552 
1742	 0.349111836051946 
1743	 0.349491809612754 
1744	 0.349644206506448 
1745	 0.349757397194745 
1746	 0.349739171631246 
1747	 0.349690170196737 
1748	 0.349533553996649 
1749	 0.349404910950669 
1750	 0.3491985737677 
1751	 0.349073203875412 
1752	 0.348954379233315 
1753	 0.348940740883905 
1754	 0.348978811136629 
1755	 0.349126213440496 
1756	 0.349334603106388 
1757	 0.34967024548473 
1758	 0.350162733669393 
1759	 0.350759282927652 
1760	 0.351551679842393 
1761	 0.352506420766472 
1762	 0.353513489685214 
1763	 0.354737469157211 
1764	 0.356080550824214 
1765	 0.357527979274135 
1766	 0.359181937127765 
1767	 0.360817266582735 
1768	 0.36250632941686 
1769	 0.36424960036582 
1770	 0.365860603151865 
1771	 0.367443550628971 
1772	 0.368919125094957 
1773	 0.370288992806151 
1774	 0.371654968933855 
1775	 0.37288671367896 
1776	 0.374068334672489 
1777	 0.375159891764704 
1778	 0.376079432913153 
1779	 0.377005516746187 
1780	 0.377881032927673 
1781	 0.378634148154615 
1782	 0.379352769137799 
1783	 0.379968835607688 
1784	 0.38051018054546 
1785	 0.381009323624887 
1786	 0.381454306963306 
1787	 0.381849178429671 
1788	 0.38220197740209 
1789	 0.382472993565153 
1790	 0.382761821365662 
1791	 0.383040482269095 
1792	 0.383300268015936 
1793	 0.383521045593275 
1794	 0.383758945871755 
1795	 0.384005350846557 
1796	 0.384280552125153 
1797	 0.384593499723079 
1798	 0.384880243702371 
1799	 0.385143468953998 
1800	 0.385411624263311 
1801	 0.382139920028636 
1802	 0.382400404984787 
1803	 0.382659917510563 
1804	 0.382910467414567 
1805	 0.383173707079823 
1806	 0.383437104529537 
1807	 0.383706601858243 
1808	 0.383970168793041 
1809	 0.384239394841978 
1810	 0.384499009126672 
1811	 0.384743177301141 
1812	 0.385004289175343 
1813	 0.385263812866179 
1814	 0.385544076840915 
1815	 0.385816453938309 
1816	 0.386099262512846 
1817	 0.386399863318937 
1818	 0.386695032334228 
1819	 0.387024301250391 
1820	 0.387388537434078 
1821	 0.387748955991573 
1822	 0.388119622638024 
1823	 0.388519269224256 
1824	 0.38889154146351 
1825	 0.389273681777744 
1826	 0.389639787664561 
1827	 0.3899858326944 
1828	 0.390343368753614 
1829	 0.390703693102469 
1830	 0.391057982487703 
1831	 0.39140680347599 
1832	 0.39177449351213 
1833	 0.392128873786139 
1834	 0.392477633736053 
1835	 0.39282924003204 
1836	 0.393177752777208 
1837	 0.393515229465621 
1838	 0.393832292197792 
1839	 0.394169889195739 
1840	 0.394504036229346 
1841	 0.39484779272755 
1842	 0.395210230814523 
1843	 0.395567255276279 
1844	 0.395913791785118 
1845	 0.396237711874099 
1846	 0.396537557448524 
1847	 0.396819183037217 
1848	 0.397077261560046 
1849	 0.39731752090098 
1850	 0.397529185452531 
1851	 0.397724836492667 
1852	 0.397889055400594 
1853	 0.397988927749992 
1854	 0.398072195821709 
1855	 0.39810889851792 
1856	 0.398088809296626 
1857	 0.398051841843767 
1858	 0.397966193244257 
1859	 0.397854697023167 
1860	 0.397712974013172 
1861	 0.397525559077974 
1862	 0.397307394817286 
1863	 0.39705750845309 
1864	 0.396728340455025 
1865	 0.396367900506243 
1866	 0.39594435815501 
1867	 0.395416722657726 
1868	 0.394855957453484 
1869	 0.394214513166448 
1870	 0.393496831743778 
1871	 0.392719539499406 
1872	 0.391873085373651 
1873	 0.390956327642541 
1874	 0.3899795554861 
1875	 0.388919724800442 
1876	 0.387705232748963 
1877	 0.386460389214586 
1878	 0.385054224690146 
1879	 0.383482037726241 
1880	 0.381905834675166 
1881	 0.380127576603458 
1882	 0.378177872150106 
1883	 0.37610219500265 
1884	 0.373877030853999 
1885	 0.371331673294669 
1886	 0.368697300527189 
1887	 0.3658159634837 
1888	 0.36265590486956 
1889	 0.359546333539523 
1890	 0.356172580694519 
1891	 0.352723526076944 
1892	 0.349243275973359 
1893	 0.345575100065453 
1894	 0.341679441049069 
1895	 0.337862840404374 
1896	 0.333913645566252 
1897	 0.329884301912357 
1898	 0.326169294284308 
1899	 0.322369110630997 
1900	 0.318666756611523 
1901	 0.315145911393052 
1902	 0.311472268734771 
1903	 0.308041983108413 
1904	 0.304778764013265 
1905	 0.301614974832961 
1906	 0.29862148611277 
1907	 0.29605512489987 
1908	 0.293578174761552 
1909	 0.291287268617446 
1910	 0.289265272519069 
1911	 0.287284085299153 
1912	 0.285521530757953 
1913	 0.283932003894767 
1914	 0.282486817859366 
1915	 0.281221016831487 
1916	 0.280169263183887 
1917	 0.279196317600864 
1918	 0.278343868171137 
1919	 0.277609938596287 
1920	 0.276931574179645 
1921	 0.276357769457617 
1922	 0.275866378708673 
1923	 0.275442577333421 
1924	 0.275107129690935 
1925	 0.274819717272374 
1926	 0.274583675106823 
1927	 0.274422699476149 
1928	 0.27428414594533 
1929	 0.2741869850923 
1930	 0.274125109359694 
1931	 0.274113799680636 
1932	 0.274148614553766 
1933	 0.274233880541984 
1934	 0.274379206337268 
1935	 0.274556532197636 
1936	 0.274779606663853 
1937	 0.275049082939111 
1938	 0.275367834714717 
1939	 0.275712840098369 
1940	 0.276099931127835 
1941	 0.276532977753016 
1942	 0.276968969940014 
1943	 0.277448977407297 
1944	 0.277936546980558 
1945	 0.278411811531191 
1946	 0.27893159917917 
1947	 0.279451801443213 
1948	 0.280008206804438 
1949	 0.280605373040902 
1950	 0.28117845366451 
1951	 0.281750424808004 
1952	 0.28233795133567 
1953	 0.282923269077298 
1954	 0.283506344669669 
1955	 0.284150174350043 
1956	 0.284761926589468 
1957	 0.285375304262718 
1958	 0.286005723002084 
1959	 0.28658387848995 
1960	 0.287170418671303 
1961	 0.287755864650501 
1962	 0.288325311434163 
1963	 0.288909127838841 
1964	 0.289498441658656 
1965	 0.290089587915586 
1966	 0.290699192315799 
1967	 0.291299605630391 
1968	 0.29184810430419 
1969	 0.292421699577053 
1970	 0.292966332444275 
1971	 0.293507104327369 
1972	 0.294104045364919 
1973	 0.294674753245884 
1974	 0.295266105413425 
1975	 0.295897486910826 
1976	 0.296485788177016 
1977	 0.297061565644432 
1978	 0.297638815140479 
1979	 0.298192611445473 
1980	 0.298738104871712 
1981	 0.299345824839851 
1982	 0.299949343873415 
1983	 0.300554529634738 
1984	 0.301159022055157 
1985	 0.301702014480112 
1986	 0.302235063481773 
1987	 0.302769559922241 
1988	 0.303283387831118 
1989	 0.303809794657588 
1990	 0.304353881302644 
1991	 0.304866416286221 
1992	 0.305364884143851 
1993	 0.305870555658825 
1994	 0.30634219625988 
1995	 0.306813192840906 
1996	 0.307274977557864 
1997	 0.307720421914088 
1998	 0.308168812918489 
1999	 0.308612718372809 
2000	 0.309040592327981 
2001	 0.309480032105771 
2002	 0.309873321005305 
2003	 0.310230719265627 
2004	 0.310583282090426 
2005	 0.310916306248916 
2006	 0.311231346373495 
2007	 0.311541886974817 
2008	 0.311814542661775 
2009	 0.312064306820445 
2010	 0.312301718617027 
2011	 0.312509487647863 
2012	 0.312706837469474 
2013	 0.31285548018844 
2014	 0.312964649650341 
2015	 0.313048918791514 
2016	 0.313103860692556 
2017	 0.313119734831893 
2018	 0.313115782365876 
2019	 0.313059240002798 
2020	 0.31296206555431 
2021	 0.312809992894361 
2022	 0.31262198640779 
2023	 0.312385276511748 
2024	 0.31207613657356 
2025	 0.311737425847609 
2026	 0.311363464552966 
2027	 0.310917488523769 
2028	 0.310487282381699 
2029	 0.310036907188957 
2030	 0.309572015141331 
2031	 0.309090307810866 
2032	 0.308607336082457 
2033	 0.308084458732071 
2034	 0.307604430710885 
2035	 0.307129843463687 
2036	 0.306665868592448 
2037	 0.306256271826715 
2038	 0.305860938424782 
2039	 0.305507804184287 
2040	 0.305190621351365 
2041	 0.304902432861408 
2042	 0.30464337719953 
2043	 0.304428312024584 
2044	 0.304252047184084 
2045	 0.304098918926353 
2046	 0.303987449595495 
2047	 0.303901900260919 
2048	 0.303837388535123 
2049	 0.303805752183893 
2050	 0.303797836261717 
2051	 0.303838280681048 
2052	 0.303919268285559 
2053	 0.30404703507283 
2054	 0.304215462506109 
2055	 0.304449794670275 
2056	 0.304686760101273 
2057	 0.304946134038418 
2058	 0.305249620196109 
2059	 0.305590268499877 
2060	 0.305945729892153 
2061	 0.30635997968132 
2062	 0.306756735847244 
2063	 0.307154173937998 
2064	 0.307568776941582 
2065	 0.307999998568764 
2066	 0.308419772915354 
2067	 0.308864948049063 
2068	 0.309325110583957 
2069	 0.309764599565718 
2070	 0.310216390857488 
2071	 0.310623909694191 
2072	 0.311010175783686 
2073	 0.311380653036913 
2074	 0.311719493367933 
2075	 0.312057033279259 
2076	 0.312397529203015 
2077	 0.312695070230065 
2078	 0.312980420576536 
2079	 0.313226617646486 
2080	 0.313418135884432 
2081	 0.313610480148043 
2082	 0.313797311249812 
2083	 0.31392777230299 
2084	 0.31407985998866 
2085	 0.314219925915502 
2086	 0.314310882684863 
2087	 0.314367001158012 
2088	 0.314418635756824 
2089	 0.314420795250053 
2090	 0.314443958821005 
2091	 0.314484024294515 
2092	 0.314491930278165 
2093	 0.314489997653784 
2094	 0.31446581922774 
2095	 0.314426910515492 
2096	 0.314354731899552 
2097	 0.314269931406178 
2098	 0.314140100031726 
2099	 0.313954834018109 
2100	 0.313790942860542 
2101	 0.313611872959388 
2102	 0.313418727313956 
2103	 0.313208567340193 
2104	 0.312986828071589 
2105	 0.312759798738916 
2106	 0.312509328523573 
2107	 0.312260716108725 
2108	 0.31203371042815 
2109	 0.311761094073484 
2110	 0.311466304579777 
2111	 0.311148976713638 
2112	 0.310789921150166 
2113	 0.310432921665722 
2114	 0.31004815061711 
2115	 0.309673348487171 
2116	 0.309294959503553 
2117	 0.308928249106113 
2118	 0.308545921604122 
2119	 0.308155007483384 
2120	 0.3077846207766 
2121	 0.307412061526072 
2122	 0.307044399265288 
2123	 0.306685201531244 
2124	 0.306339600517822 
2125	 0.305999338610863 
2126	 0.305661051818009 
2127	 0.305345231713281 
2128	 0.305025726649866 
2129	 0.304692590936896 
2130	 0.304375262314658 
2131	 0.30408590327586 
2132	 0.303773605490489 
2133	 0.303466973749743 
2134	 0.303144832920051 
2135	 0.302772923507663 
2136	 0.302398175290166 
2137	 0.302022593136015 
2138	 0.30160921646003 
2139	 0.301243563447107 
2140	 0.300903747548791 
2141	 0.300554633300282 
2142	 0.300225152171504 
2143	 0.299879868445786 
2144	 0.299509175515481 
2145	 0.299177811115714 
2146	 0.298852815772754 
2147	 0.298547669874066 
2148	 0.298263764773598 
2149	 0.298005138321411 
2150	 0.297793406934762 
2151	 0.297547622609135 
2152	 0.297308756706164 
2153	 0.297076514388089 
2154	 0.296801860908212 
2155	 0.296493177795059 
2156	 0.2961981606327 
2157	 0.295903108111834 
2158	 0.295587995750237 
2159	 0.295256147180816 
2160	 0.294935872178787 
2161	 0.294604855602223 
2162	 0.294282240372115 
2163	 0.293955573086261 
2164	 0.293650943974317 
2165	 0.293346437889322 
2166	 0.293065472170063 
2167	 0.29280487218067 
2168	 0.292566302184272 
2169	 0.292325536912698 
2170	 0.29213713101971 
2171	 0.291990879863665 
2172	 0.29186498704239 
2173	 0.291783485919862 
2174	 0.291713783468051 
2175	 0.291656124807029 
2176	 0.291635866917055 
2177	 0.291627883389485 
2178	 0.291642867229818 
2179	 0.291674442073909 
2180	 0.291729857877915 
2181	 0.291790469212674 
2182	 0.291873473746742 
2183	 0.291953037287617 
2184	 0.29203639921856 
2185	 0.292131010928176 
2186	 0.292235960852006 
2187	 0.292342470234761 
2188	 0.292467656351778 
2189	 0.292577887375553 
2190	 0.292691257711835 
2191	 0.292788949137161 
2192	 0.292894791153733 
2193	 0.292958733080378 
2194	 0.29299395303535 
2195	 0.293014338146047 
2196	 0.292996113091169 
2197	 0.292972432497054 
2198	 0.292953314215132 
2199	 0.292922409101811 
2200	 0.292882365349102 
2201	 0.292837294005514 
2202	 0.292778104913109 
2203	 0.292719106106496 
2204	 0.292609564843763 
2205	 0.292460898422607 
2206	 0.292326677804168 
2207	 0.292157191679832 
2208	 0.292011377891788 
2209	 0.29189945986728 
2210	 0.291742233662543 
2211	 0.291561871118393 
2212	 0.291376125786473 
2213	 0.291174415229726 
2214	 0.290963589802179 
2215	 0.290761940689934 
2216	 0.290514140128 
2217	 0.290255215913345 
2218	 0.289943234057876 
2219	 0.289585222303972 
2220	 0.289195729173676 
2221	 0.288767756307896 
2222	 0.28829136618037 
2223	 0.287810411887422 
2224	 0.287289582375561 
2225	 0.28670177376647 
2226	 0.286045633302221 
2227	 0.285267077166044 
2228	 0.284384295326835 
2229	 0.2834187835491 
2230	 0.282327906169583 
2231	 0.281210885948979 
2232	 0.280035603491462 
2233	 0.278759467715606 
2234	 0.277443442494005 
2235	 0.275970840617007 
2236	 0.274345742948918 
2237	 0.272688251979397 
2238	 0.270863930424001 
2239	 0.269094957390609 
2240	 0.267338146055454 
2241	 0.265485968857833 
2242	 0.263640563012337 
2243	 0.261672417145179 
2244	 0.259554262146265 
2245	 0.257448140792105 
2246	 0.255216515322218 
2247	 0.253055746069724 
2248	 0.250927127749244 
2249	 0.248769338267769 
2250	 0.246606775892574 
2251	 0.244504473881089 
2252	 0.242253750886032 
2253	 0.240075956433282 
2254	 0.237882190902473 
2255	 0.235682030077918 
2256	 0.233692866596533 
2257	 0.231699363502499 
2258	 0.229789251793216 
2259	 0.22802561533613 
2260	 0.22618366528896 
2261	 0.224314599242569 
2262	 0.222558873117161 
2263	 0.22078951447887 
2264	 0.219166858193388 
2265	 0.217692906347312 
2266	 0.21619968709321 
2267	 0.214823306085713 
2268	 0.213371968820178 
2269	 0.211892069509264 
2270	 0.210463650099296 
2271	 0.208999872047785 
2272	 0.207620773190833 
2273	 0.206347642661831 
2274	 0.205014035120975 
2275	 0.203743824086577 
2276	 0.202383363029632 
2277	 0.200966625901655 
2278	 0.199532382477134 
2279	 0.198011039474964 
2280	 0.196520976694748 
2281	 0.195051874313358 
2282	 0.193535012225495 
2283	 0.192014634264842 
2284	 0.190481917663444 
2285	 0.188803362678277 
2286	 0.187124982344648 
2287	 0.185367194414884 
2288	 0.183565011895413 
2289	 0.181915696275284 
2290	 0.180200865458497 
2291	 0.178515673999849 
2292	 0.176894232112579 
2293	 0.175128105471837 
2294	 0.173423011726008 
2295	 0.171815022097144 
2296	 0.170260570785134 
2297	 0.16894242081373 
2298	 0.167816084988924 
2299	 0.16680679053371 
2300	 0.165964521209286 
2301	 0.165282313846883 
2302	 0.16472159399521 
2303	 0.164400285026783 
2304	 0.164277634307607 
2305	 0.164364380297509 
2306	 0.164715595403417 
2307	 0.165166943495322 
2308	 0.165795547190991 
2309	 0.166595186878768 
2310	 0.167591489749753 
2311	 0.168673482950338 
2312	 0.170040426977927 
2313	 0.171297559282532 
2314	 0.172615592977913 
2315	 0.173900027510956 
2316	 0.175221711323187 
2317	 0.176421721949169 
2318	 0.177644484390038 
2319	 0.178649470189554 
2320	 0.179507074873817 
2321	 0.180231158279603 
2322	 0.180790416242523 
2323	 0.18125556169103 
2324	 0.181560011982809 
2325	 0.181804207075082 
2326	 0.181943569106617 
2327	 0.181971423655888 
2328	 0.1819192063161 
2329	 0.181729236059097 
2330	 0.181410335539615 
2331	 0.180948782278896 
2332	 0.180387218776558 
2333	 0.179735931639348 
2334	 0.17895416049333 
2335	 0.178105266149678 
2336	 0.177111302422779 
2337	 0.176016048718225 
2338	 0.174948913375588 
2339	 0.173844730203501 
2340	 0.172826053598048 
2341	 0.171910431610806 
2342	 0.171016494675394 
2343	 0.170238397703894 
2344	 0.169588642837847 
2345	 0.169126900028663 
2346	 0.168915654983957 
2347	 0.168961617228722 
2348	 0.169198157919212 
2349	 0.169722123758518 
2350	 0.170491661001485 
2351	 0.171378010521843 
2352	 0.172454982988196 
2353	 0.173646486324085 
2354	 0.174696489216203 
2355	 0.175719100986289 
2356	 0.176686231310621 
2357	 0.17746127792995 
2358	 0.178215386955313 
2359	 0.178845054739678 
2360	 0.179342345972485 
2361	 0.179769096515286 
2362	 0.180067002210867 
2363	 0.18031334255926 
2364	 0.180515439010725 
2365	 0.180621671621275 
2366	 0.180730840296658 
2367	 0.180800139639042 
2368	 0.180811743883184 
2369	 0.180836179933555 
2370	 0.18084201996051 
2371	 0.18087102840921 
2372	 0.180916868398367 
2373	 0.180948931194995 
2374	 0.180979443093116 
2375	 0.180984416002769 
2376	 0.181008950259162 
2377	 0.181020590656111 
2378	 0.180990253714247 
2379	 0.181022890108391 
2380	 0.181057975585982 
2381	 0.181117161281081 
2382	 0.181185100560241 
2383	 0.181284012878981 
2384	 0.181365594084974 
2385	 0.181455241532555 
2386	 0.181527839494435 
2387	 0.181623539212967 
2388	 0.181659966521294 
2389	 0.181636234791271 
2390	 0.181611700254627 
2391	 0.181531647524668 
2392	 0.181534116444797 
2393	 0.181576233606491 
2394	 0.181627995825595 
2395	 0.181747170602711 
2396	 0.181759542140288 
2397	 0.18171638321057 
2398	 0.181714980745934 
2399	 0.181669946913601 
2400	 0.18170837908472 
2401	 0.181792042815976 
2402	 0.18178215609107 
2403	 0.18191534717082 
2404	 0.181973588866164 
2405	 0.182040476480778 
2406	 0.182147241670357 
2407	 0.182191742210202 
2408	 0.182277689225182 
2409	 0.182368953106256 
2410	 0.182461604964115 
2411	 0.182521642394812 
2412	 0.182486436349027 
2413	 0.182466645052092 
2414	 0.182481430391212 
2415	 0.182476122243815 
2416	 0.182493409242921 
2417	 0.182454341660084 
2418	 0.182310038475774 
2419	 0.182206223201287 
2420	 0.182066103646751 
2421	 0.181920554497185 
2422	 0.18191948211727 
2423	 0.181825428358287 
2424	 0.181678541116976 
2425	 0.181590738657821 
2426	 0.181466907062543 
2427	 0.181382038398932 
2428	 0.181301495977004 
2429	 0.181224489982837 
2430	 0.181074509878316 
2431	 0.180802966277746 
2432	 0.180557008621326 
2433	 0.180335089126494 
2434	 0.180071481297126 
2435	 0.179794611682979 
2436	 0.179532497255321 
2437	 0.179250108209598 
2438	 0.178944388306265 
2439	 0.178719059744523 
2440	 0.178520848393049 
2441	 0.178198482011715 
2442	 0.177937841092556 
2443	 0.177722083793576 
2444	 0.177388069473243 
2445	 0.177001448758935 
2446	 0.176540082978351 
2447	 0.176034564555428 
2448	 0.175658830485609 
2449	 0.175375325049212 
2450	 0.17502220309489 
2451	 0.174710188904706 
2452	 0.174312833726944 
2453	 0.173735693668984 
2454	 0.173286909581143 
2455	 0.172906754469773 
2456	 0.172473629676954 
2457	 0.172148456845204 
2458	 0.171882950611473 
2459	 0.171507874967408 
2460	 0.171035779122419 
2461	 0.170540559482381 
2462	 0.170105128299353 
2463	 0.169710795739704 
2464	 0.169328299351073 
2465	 0.169132104725468 
2466	 0.168856841041999 
2467	 0.168416850926636 
2468	 0.168228732108188 
2469	 0.168019602494635 
2470	 0.167773507855794 
2471	 0.167726947092146 
2472	 0.167605368402638 
2473	 0.167568878331575 
2474	 0.167668310708623 
2475	 0.167646936221016 
2476	 0.16765751552302 
2477	 0.167575248013987 
2478	 0.167384558877972 
2479	 0.167392868861168 
2480	 0.167284340048948 
2481	 0.167191489843384 
2482	 0.167048531639749 
2483	 0.167229392869288 
2484	 0.167344715029335 
2485	 0.167381867875858 
2486	 0.167430992305827 
2487	 0.167212948982106 
2488	 0.166835557275065 
2489	 0.166729725824713 
2490	 0.166848028448463 
2491	 0.166842371479624 
2492	 0.167098609918506 
2493	 0.167503844688805 
2494	 0.167482042676054 
2495	 0.167540231397283 
2496	 0.167654908537596 
2497	 0.167614447319738 
2498	 0.167780233200593 
2499	 0.167841881371648 
2500	 0.167893181179296 
