Wavelength	spectrum00024.asd
350	 4.52365101862803E-02 
351	 4.33725085977861E-02 
352	 4.15449892136543E-02 
353	 4.14340851379881E-02 
354	 4.36367314421071E-02 
355	 4.32679632046496E-02 
356	 4.22808868555671E-02 
357	 4.26165691001598E-02 
358	 4.11320574498222E-02 
359	 4.05679633460846E-02 
360	 4.09201774215621E-02 
361	 4.08900347436382E-02 
362	 4.15424730826199E-02 
363	 0.041963493693256 
364	 4.15239785503142E-02 
365	 4.01536492304829E-02 
366	 4.07244761852066E-02 
367	 4.13870576799159E-02 
368	 4.05369033759883E-02 
369	 4.13991789504725E-02 
370	 4.16538494306875E-02 
371	 4.13276301828036E-02 
372	 4.16390014833367E-02 
373	 4.13337444560472E-02 
374	 4.13923584934019E-02 
375	 4.19617059030468E-02 
376	 4.16865573347718E-02 
377	 4.19978412838033E-02 
378	 4.23087654691759E-02 
379	 4.19317071106042E-02 
380	 4.16500540636085E-02 
381	 0.041596867332388 
382	 4.15696324534722E-02 
383	 4.12931132507045E-02 
384	 4.19295042579119E-02 
385	 4.24678735173892E-02 
386	 4.22847969599618E-02 
387	 4.16720057361761E-02 
388	 4.17918708320727E-02 
389	 4.19496612015717E-02 
390	 4.14685161818031E-02 
391	 4.18731392987804E-02 
392	 0.041612556760865 
393	 4.11076625538265E-02 
394	 4.18901395243231E-02 
395	 0.042346664566655 
396	 4.23400339042546E-02 
397	 4.20882994748541E-02 
398	 0.04203641878008 
399	 4.19191052320552E-02 
400	 4.19947189626487E-02 
401	 4.24021259871124E-02 
402	 4.21842295414901E-02 
403	 4.22165910030299E-02 
404	 4.24591895115828E-02 
405	 0.042217050586053 
406	 4.22700888174697E-02 
407	 4.22133185171256E-02 
408	 0.041897100422202 
409	 4.20359090248272E-02 
410	 4.17732154090317E-02 
411	 4.15123160860824E-02 
412	 4.18026665610646E-02 
413	 4.17584905382485E-02 
414	 4.17262295311958E-02 
415	 4.17757749099356E-02 
416	 4.16871935906515E-02 
417	 4.17409633789769E-02 
418	 4.18746016540655E-02 
419	 4.19626432266226E-02 
420	 4.18707616299652E-02 
421	 4.17785122819447E-02 
422	 4.18171845420826E-02 
423	 4.20107795119608E-02 
424	 4.18862339000429E-02 
425	 4.17191456487149E-02 
426	 4.17410013518004E-02 
427	 4.20572183814352E-02 
428	 4.19382151859542E-02 
429	 4.18058191137082E-02 
430	 4.20023931109255E-02 
431	 4.17726509642736E-02 
432	 4.17108749096972E-02 
433	 0.04186798037601 
434	 4.19798547542426E-02 
435	 4.20188285289493E-02 
436	 4.19476477168026E-02 
437	 0.041808956235691 
438	 4.17581041904676E-02 
439	 4.17354647931849E-02 
440	 4.17857428330523E-02 
441	 4.19180155651226E-02 
442	 4.18869105401211E-02 
443	 4.18839106441034E-02 
444	 4.18892205743812E-02 
445	 0.041732439407903 
446	 0.041815988748939 
447	 0.041864300295136 
448	 4.17317018103278E-02 
449	 4.18023991609386E-02 
450	 4.19217357906629E-02 
451	 0.041961519956906 
452	 4.18462784578794E-02 
453	 4.17777871401099E-02 
454	 4.18272170518438E-02 
455	 4.19463490640169E-02 
456	 4.19705161025075E-02 
457	 4.18665153666031E-02 
458	 4.17755972862784E-02 
459	 4.18018701482522E-02 
460	 4.18163577452627E-02 
461	 4.18288519705856E-02 
462	 4.18146733821135E-02 
463	 4.17474890902902E-02 
464	 4.17236264455164E-02 
465	 4.17985597106057E-02 
466	 4.19023888197427E-02 
467	 4.17798248970785E-02 
468	 4.17202294353738E-02 
469	 4.17215706137442E-02 
470	 4.17332850835484E-02 
471	 4.19180492951648E-02 
472	 4.19063616869969E-02 
473	 4.17356465860412E-02 
474	 4.17575415011179E-02 
475	 4.16996460485012E-02 
476	 0.041712817906126 
477	 4.18514230016436E-02 
478	 0.041808916855348 
479	 4.17737017385034E-02 
480	 4.17694859831031E-02 
481	 4.17660085033997E-02 
482	 0.041804502329148 
483	 4.17976525128477E-02 
484	 4.17430448715021E-02 
485	 4.17432926137065E-02 
486	 4.18673886982823E-02 
487	 4.18771083969641E-02 
488	 4.16622920952344E-02 
489	 4.17197670827348E-02 
490	 4.18337575987602E-02 
491	 4.19008424599473E-02 
492	 4.18948373554169E-02 
493	 4.18443858283098E-02 
494	 4.18245513862577E-02 
495	 4.18681674116867E-02 
496	 4.19426547833442E-02 
497	 4.18766337003252E-02 
498	 4.17900272302755E-02 
499	 4.18349959863827E-02 
500	 4.18483145476756E-02 
501	 4.18467712520819E-02 
502	 4.18310510754309E-02 
503	 0.041787299075151 
504	 4.18229039074376E-02 
505	 4.18594529151888E-02 
506	 4.18425811627315E-02 
507	 4.18609413721483E-02 
508	 4.18734544177041E-02 
509	 4.18664021906107E-02 
510	 4.18464628632217E-02 
511	 4.18750597191333E-02 
512	 4.19134485100924E-02 
513	 4.19272133993817E-02 
514	 4.18994101792197E-02 
515	 4.18923280779254E-02 
516	 4.18991699876034E-02 
517	 4.19005047398251E-02 
518	 4.19028766317409E-02 
519	 4.19154226035744E-02 
520	 4.19213538111324E-02 
521	 4.18935040381075E-02 
522	 4.19125282473058E-02 
523	 4.19220643088186E-02 
524	 4.18910169351525E-02 
525	 0.041875465679264 
526	 4.18581729214199E-02 
527	 4.18824236293583E-02 
528	 0.04197237928368 
529	 4.19368738710065E-02 
530	 4.19003206373804E-02 
531	 4.19124123592804E-02 
532	 4.19223437959806E-02 
533	 4.19573628220188E-02 
534	 4.19829758309345E-02 
535	 4.19715674881869E-02 
536	 4.19395130748724E-02 
537	 4.19959806875308E-02 
538	 4.20539385808389E-02 
539	 0.041952451737498 
540	 4.19422286124485E-02 
541	 4.19895159845771E-02 
542	 4.20327019507427E-02 
543	 4.20208165713199E-02 
544	 4.20121252996584E-02 
545	 4.19947828066371E-02 
546	 0.041953540820751 
547	 4.19548376857658E-02 
548	 4.19742230912602E-02 
549	 4.19934028407513E-02 
550	 4.20031321130701E-02 
551	 4.19890255889021E-02 
552	 4.19946307084109E-02 
553	 4.20375176986835E-02 
554	 4.20446998254632E-02 
555	 4.20324093547354E-02 
556	 4.20322655392094E-02 
557	 4.20718539483525E-02 
558	 4.20709393417499E-02 
559	 4.21090483930401E-02 
560	 4.21899639874436E-02 
561	 0.042194059902274 
562	 4.21774534178012E-02 
563	 4.21633181323993E-02 
564	 4.21661741101933E-02 
565	 4.22022444380852E-02 
566	 4.21985803727896E-02 
567	 4.21740388891297E-02 
568	 0.042210275130772 
569	 4.22293822269368E-02 
570	 4.22184693705955E-02 
571	 4.21876046254267E-02 
572	 4.21701612575879E-02 
573	 4.21725800978823E-02 
574	 4.21872555592448E-02 
575	 4.22015830284449E-02 
576	 4.22236211281887E-02 
577	 4.22374005467127E-02 
578	 4.22360616081204E-02 
579	 4.22254139541598E-02 
580	 4.22466375945404E-02 
581	 4.22718472112364E-02 
582	 4.22766503625293E-02 
583	 4.23040389402154E-02 
584	 4.23157734079169E-02 
585	 4.23244242953268E-02 
586	 4.23630531050325E-02 
587	 4.23501914962174E-02 
588	 4.23571662539414E-02 
589	 4.23995487307764E-02 
590	 4.23717515448289E-02 
591	 4.23556534375715E-02 
592	 4.23675585770614E-02 
593	 4.23943699689479E-02 
594	 4.23883113288468E-02 
595	 4.23803247112723E-02 
596	 4.23833120296578E-02 
597	 4.23909768903955E-02 
598	 0.042391186322988 
599	 4.23970799307978E-02 
600	 4.24146044189203E-02 
601	 4.24214551627981E-02 
602	 4.24240644030527E-02 
603	 0.042423678722695 
604	 4.24204640134854E-02 
605	 0.042417159240706 
606	 4.24205935786032E-02 
607	 4.24385373099852E-02 
608	 4.24796127441198E-02 
609	 4.24586533568577E-02 
610	 4.24358249093021E-02 
611	 4.24699497478278E-02 
612	 4.24875092405672E-02 
613	 4.24940795519372E-02 
614	 4.25057683545868E-02 
615	 4.25375840320724E-02 
616	 4.25110705960329E-02 
617	 4.24938720862283E-02 
618	 4.25217183558627E-02 
619	 4.25424683285077E-02 
620	 4.25239997808914E-02 
621	 4.25044074036523E-02 
622	 4.25285267770622E-02 
623	 4.25414066842023E-02 
624	 4.25479578728816E-02 
625	 4.25486235975649E-02 
626	 4.25387323217361E-02 
627	 4.25366437363959E-02 
628	 4.25380429673177E-02 
629	 4.25422830277188E-02 
630	 4.25736083352035E-02 
631	 4.25808342613031E-02 
632	 4.25831100673505E-02 
633	 4.26190755872845E-02 
634	 4.26233229728834E-02 
635	 4.26154501451881E-02 
636	 4.26137943161335E-02 
637	 4.26254608801721E-02 
638	 4.26305712550099E-02 
639	 4.26291985492825E-02 
640	 4.26277681485305E-02 
641	 4.26368466258354E-02 
642	 4.26301503365222E-02 
643	 4.26264711512098E-02 
644	 0.042662878734842 
645	 0.042666753826458 
646	 4.26611277346378E-02 
647	 4.26659793883736E-02 
648	 4.26753990735533E-02 
649	 4.27078969815785E-02 
650	 4.27410671549355E-02 
651	 4.27449669413734E-02 
652	 4.27125194398396E-02 
653	 4.26952079583492E-02 
654	 4.27054078443396E-02 
655	 4.27208731377172E-02 
656	 4.27325584585385E-02 
657	 4.27354003935135E-02 
658	 4.27316524854452E-02 
659	 4.27349619242001E-02 
660	 4.27471465016155E-02 
661	 0.042753820308534 
662	 4.27445698403107E-02 
663	 4.27704409396402E-02 
664	 4.27763849957003E-02 
665	 0.04276006868747 
666	 4.27755834604141E-02 
667	 4.27730457185644E-02 
668	 4.27739431765029E-02 
669	 4.27868472224838E-02 
670	 4.27411426462068E-02 
671	 4.27667911355092E-02 
672	 4.28231866893383E-02 
673	 4.28089674217457E-02 
674	 4.27994436895072E-02 
675	 4.27992934554388E-02 
676	 4.28079959386475E-02 
677	 4.28251731565139E-02 
678	 0.042817024096775 
679	 4.28131724356763E-02 
680	 4.28367627360748E-02 
681	 4.28440578409564E-02 
682	 4.28492760784667E-02 
683	 4.28610209498569E-02 
684	 4.28800613105947E-02 
685	 4.28696465551561E-02 
686	 4.28520775168306E-02 
687	 0.042847609198355 
688	 0.042864359572317 
689	 4.28719357607022E-02 
690	 0.042871331926917 
691	 4.28732796303093E-02 
692	 4.28896378293946E-02 
693	 4.29031524410138E-02 
694	 4.29118225582975E-02 
695	 4.29212624624074E-02 
696	 4.29077289678967E-02 
697	 4.28925620925371E-02 
698	 4.28873704240333E-02 
699	 4.28787671051935E-02 
700	 4.29061564750706E-02 
701	 4.29384062779032E-02 
702	 4.29370926310159E-02 
703	 4.29151644969601E-02 
704	 4.29153863697479E-02 
705	 4.29326831793054E-02 
706	 4.29324172647642E-02 
707	 4.29558063924796E-02 
708	 4.29589656951732E-02 
709	 0.042930190212822 
710	 4.29277456907709E-02 
711	 4.29371538985038E-02 
712	 4.29566054848638E-02 
713	 4.29789438357997E-02 
714	 4.29677081361986E-02 
715	 0.042955478430662 
716	 4.29509263108665E-02 
717	 4.29460711023362E-02 
718	 0.042967502918658 
719	 4.29810420050936E-02 
720	 4.29706930242103E-02 
721	 4.29641433292828E-02 
722	 4.29641379803817E-02 
723	 4.29686667937755E-02 
724	 4.29726565763755E-02 
725	 4.29694771030406E-02 
726	 4.29660450816221E-02 
727	 4.29738989577993E-02 
728	 4.30012829073367E-02 
729	 4.29937383217229E-02 
730	 4.29804063418953E-02 
731	 4.29813169613481E-02 
732	 4.29821848254864E-02 
733	 4.29906460598385E-02 
734	 4.30032956087064E-02 
735	 4.30125195424845E-02 
736	 4.30057536464514E-02 
737	 4.30118005279971E-02 
738	 4.30211285609062E-02 
739	 4.30050576110191E-02 
740	 4.30147075210461E-02 
741	 4.30221638000076E-02 
742	 4.30134356082206E-02 
743	 4.30093916877739E-02 
744	 4.30165361721761E-02 
745	 0.043026119329555 
746	 4.30292997963704E-02 
747	 4.30349899708944E-02 
748	 4.30301152108402E-02 
749	 4.30234936845605E-02 
750	 4.30326611388391E-02 
751	 4.30372827186143E-02 
752	 4.30301740496588E-02 
753	 0.043021020054088 
754	 0.043037910071621 
755	 4.30218681389923E-02 
756	 4.30049764125102E-02 
757	 4.30152313095164E-02 
758	 4.30040617992816E-02 
759	 4.30011821447313E-02 
760	 4.30046068413421E-02 
761	 4.30001575609797E-02 
762	 4.29978434756851E-02 
763	 4.29944783546807E-02 
764	 4.29901901431327E-02 
765	 4.29889989829686E-02 
766	 0.042979952909963 
767	 4.29696937352896E-02 
768	 4.29677621529469E-02 
769	 4.29845972754817E-02 
770	 0.042989346493462 
771	 4.29781256456548E-02 
772	 4.29619315933261E-02 
773	 4.29668206464456E-02 
774	 4.29607820895661E-02 
775	 4.29453572009482E-02 
776	 4.29487163518654E-02 
777	 0.042947536664638 
778	 4.29531356026353E-02 
779	 4.29622828529555E-02 
780	 4.29389554938118E-02 
781	 0.042930214810651 
782	 4.29352767073317E-02 
783	 4.29387136838304E-02 
784	 4.29268555281626E-02 
785	 4.29163329075654E-02 
786	 4.29088491050134E-02 
787	 4.28988093591223E-02 
788	 4.28979083425585E-02 
789	 4.28948941143842E-02 
790	 4.28842327299351E-02 
791	 4.28700386374636E-02 
792	 4.28583501191003E-02 
793	 4.28589700490901E-02 
794	 4.28674863032778E-02 
795	 4.28432608442029E-02 
796	 4.28267953189812E-02 
797	 0.042817796597362 
798	 4.28038268243229E-02 
799	 4.27919429765753E-02 
800	 4.27823150673967E-02 
801	 4.27789016426781E-02 
802	 4.27860576134374E-02 
803	 4.27837834847032E-02 
804	 4.27659762973352E-02 
805	 4.27435568593434E-02 
806	 4.27479866979312E-02 
807	 4.27685146697756E-02 
808	 4.27634921410695E-02 
809	 4.27183207821908E-02 
810	 0.042717882524186 
811	 4.27266723244858E-02 
812	 4.27258894258974E-02 
813	 4.27102184466997E-02 
814	 0.042709545463599 
815	 4.27039860115711E-02 
816	 4.26906582178429E-02 
817	 4.26834119324531E-02 
818	 4.26741048163132E-02 
819	 4.26662684318213E-02 
820	 4.26596746814975E-02 
821	 4.26453749262692E-02 
822	 4.26394742918068E-02 
823	 4.26331400450564E-02 
824	 4.26185630396817E-02 
825	 4.26112131655513E-02 
826	 4.26182590445736E-02 
827	 4.26261486903111E-02 
828	 4.26168199520898E-02 
829	 4.26061774659618E-02 
830	 4.26133842884231E-02 
831	 4.26237305170253E-02 
832	 4.25997753901334E-02 
833	 4.25959901030086E-02 
834	 4.25961624402697E-02 
835	 4.25886886341689E-02 
836	 4.25852950905357E-02 
837	 4.25788262875776E-02 
838	 4.25580442390632E-02 
839	 4.25297159896952E-02 
840	 4.25569352644944E-02 
841	 4.25507143462886E-02 
842	 4.25160795426242E-02 
843	 4.24935965770626E-02 
844	 4.24853001844522E-02 
845	 4.24777513153499E-02 
846	 4.24693424352457E-02 
847	 4.24659296752795E-02 
848	 0.042451440522665 
849	 4.24302170418642E-02 
850	 0.042404319775086 
851	 4.23717739519794E-02 
852	 4.23935408180506E-02 
853	 4.24272546743156E-02 
854	 4.24292705548214E-02 
855	 4.24013625977189E-02 
856	 4.23692223906278E-02 
857	 4.23606475924253E-02 
858	 4.23835047052115E-02 
859	 4.23825685544775E-02 
860	 4.23601388641698E-02 
861	 0.042341919788773 
862	 4.23537950922465E-02 
863	 4.23470781566139E-02 
864	 4.23306531927628E-02 
865	 4.23115941336083E-02 
866	 4.22899644284482E-02 
867	 0.042236723897076 
868	 4.22351600394151E-02 
869	 4.22743367621583E-02 
870	 4.22045135330211E-02 
871	 4.22018060410942E-02 
872	 4.22240475304588E-02 
873	 4.22151247789608E-02 
874	 4.21957705232066E-02 
875	 4.21994730764123E-02 
876	 4.22039702880753E-02 
877	 4.21856889521905E-02 
878	 4.21862971483318E-02 
879	 0.042187670397819 
880	 0.042176864944143 
881	 4.21505777332869E-02 
882	 4.21375302169399E-02 
883	 0.042133608283262 
884	 4.21213745831502E-02 
885	 4.20869642928226E-02 
886	 4.21232916941677E-02 
887	 4.21353481894378E-02 
888	 4.21025983127329E-02 
889	 4.21095305649455E-02 
890	 4.21068806088569E-02 
891	 4.20841152812555E-02 
892	 4.20489332603699E-02 
893	 4.20269474092046E-02 
894	 0.042044386940191 
895	 0.042069568584055 
896	 4.20681389120823E-02 
897	 4.20398948466072E-02 
898	 4.20196509477016E-02 
899	 4.19952294133822E-02 
900	 4.19520676082778E-02 
901	 4.19286680199872E-02 
902	 4.19536399932821E-02 
903	 4.19859928454932E-02 
904	 4.19618053412505E-02 
905	 4.18933782191821E-02 
906	 4.18762824092232E-02 
907	 4.19078297599024E-02 
908	 4.19111023329326E-02 
909	 0.041862595320845 
910	 4.18337463414539E-02 
911	 4.18481996298465E-02 
912	 4.18683860376577E-02 
913	 4.18702431871767E-02 
914	 4.18535174496533E-02 
915	 4.18342633042158E-02 
916	 4.18400050124065E-02 
917	 4.18158783651159E-02 
918	 4.18002835916047E-02 
919	 4.18181416385212E-02 
920	 4.18352893859204E-02 
921	 4.17911714359082E-02 
922	 4.17454719599523E-02 
923	 4.17496895287766E-02 
924	 4.17495797431345E-02 
925	 4.17378032735175E-02 
926	 4.17300314653555E-02 
927	 0.041737432055281 
928	 4.17254428932524E-02 
929	 4.17065438062243E-02 
930	 4.16810803008175E-02 
931	 4.16532119855167E-02 
932	 0.041661953610456 
933	 4.16771562089826E-02 
934	 4.16860010909999E-02 
935	 4.16839357617104E-02 
936	 4.16443940989605E-02 
937	 4.16273728321377E-02 
938	 4.16243012056446E-02 
939	 4.15911534779884E-02 
940	 4.16116927830118E-02 
941	 4.16386465816537E-02 
942	 4.16478658425211E-02 
943	 0.041646519424399 
944	 4.16335787232459E-02 
945	 4.16222640526399E-02 
946	 4.16180579035883E-02 
947	 4.16158813707138E-02 
948	 4.16096870743733E-02 
949	 4.15968797290355E-02 
950	 4.15934224943483E-02 
951	 4.16290908421824E-02 
952	 4.16059875866241E-02 
953	 4.15828539530256E-02 
954	 4.16018679408055E-02 
955	 4.16340755645327E-02 
956	 4.15813540216006E-02 
957	 4.15482398299442E-02 
958	 4.15743160494142E-02 
959	 4.15182587401211E-02 
960	 4.14903871283661E-02 
961	 4.15142557417291E-02 
962	 4.15621704842743E-02 
963	 4.15538857830752E-02 
964	 4.14908385658202E-02 
965	 4.14237260769051E-02 
966	 4.13991314778618E-02 
967	 4.14191972178795E-02 
968	 4.14324124406361E-02 
969	 4.14059238592547E-02 
970	 4.13527348262362E-02 
971	 4.13758748081681E-02 
972	 0.041394397923931 
973	 0.041385053667525 
974	 4.13548915357807E-02 
975	 4.13418987492932E-02 
976	 0.041300161094647 
977	 4.13070767751339E-02 
978	 0.041388885547838 
979	 0.041297561603455 
980	 4.12891241127392E-02 
981	 4.12862736650736E-02 
982	 0.041198815183414 
983	 4.12763802001053E-02 
984	 4.12869146569628E-02 
985	 4.12853097784488E-02 
986	 4.13699773436357E-02 
987	 4.14348764155427E-02 
988	 4.14530234353454E-02 
989	 4.13869883241998E-02 
990	 4.12566810549684E-02 
991	 4.12531754995394E-02 
992	 4.12408393677379E-02 
993	 4.12577570663026E-02 
994	 4.13385409168309E-02 
995	 4.12917597556263E-02 
996	 4.12717423024356E-02 
997	 4.12645789247179E-02 
998	 4.12321037744719E-02 
999	 4.12677561529345E-02 
1000	 4.13272237786084E-02 
1001	 4.22952916464085E-02 
1002	 4.23155341254304E-02 
1003	 4.23437786451627E-02 
1004	 4.23319822502603E-02 
1005	 4.22852125417483E-02 
1006	 4.22654303754462E-02 
1007	 0.042237874807153 
1008	 4.22193405169174E-02 
1009	 4.22185772222027E-02 
1010	 4.22170492758181E-02 
1011	 0.042207337951713 
1012	 4.21989669427645E-02 
1013	 4.21919928584814E-02 
1014	 4.21960771658565E-02 
1015	 4.22049099293271E-02 
1016	 0.042216709578119 
1017	 4.22371891590556E-02 
1018	 0.042261735024675 
1019	 0.042255262858966 
1020	 4.22192286185094E-02 
1021	 4.21852435553599E-02 
1022	 4.21153540338803E-02 
1023	 4.20959956470071E-02 
1024	 4.21050532098385E-02 
1025	 4.20862299897689E-02 
1026	 4.20661448956098E-02 
1027	 4.20617091688548E-02 
1028	 4.20445624726993E-02 
1029	 4.20447580908446E-02 
1030	 4.20563169184276E-02 
1031	 0.042075444826394 
1032	 4.20728924272474E-02 
1033	 4.20343426855809E-02 
1034	 4.20126790637661E-02 
1035	 4.20024341778473E-02 
1036	 4.19768351413592E-02 
1037	 4.19303377334386E-02 
1038	 4.19125145691973E-02 
1039	 4.19076337501619E-02 
1040	 4.18887636940895E-02 
1041	 4.18763903014557E-02 
1042	 4.18608667738222E-02 
1043	 4.18360379376149E-02 
1044	 4.18090744485439E-02 
1045	 4.18054789490134E-02 
1046	 4.18140817710599E-02 
1047	 4.17975912616217E-02 
1048	 4.17847205521467E-02 
1049	 4.18020427492482E-02 
1050	 4.18085876150362E-02 
1051	 4.18182270449829E-02 
1052	 4.18463832317247E-02 
1053	 4.18501493640998E-02 
1054	 4.18123462204358E-02 
1055	 4.17967758815717E-02 
1056	 4.17876353574517E-02 
1057	 4.17808159705084E-02 
1058	 0.04177013485235 
1059	 4.17750391566173E-02 
1060	 4.17884173168619E-02 
1061	 4.17935206027578E-02 
1062	 4.17984821519609E-02 
1063	 4.18164562686694E-02 
1064	 4.18337800948205E-02 
1065	 4.18504005983282E-02 
1066	 4.18487279236341E-02 
1067	 4.18643417938884E-02 
1068	 4.18876242937387E-02 
1069	 4.18570160554948E-02 
1070	 4.18462753706482E-02 
1071	 4.18406487798544E-02 
1072	 4.18406345876158E-02 
1073	 4.18182821616963E-02 
1074	 0.041829398457239 
1075	 4.18603643747245E-02 
1076	 4.18704120259529E-02 
1077	 4.18784741437916E-02 
1078	 4.18991922208825E-02 
1079	 4.19161219235461E-02 
1080	 4.19169496841184E-02 
1081	 4.18980952781921E-02 
1082	 4.18864448811852E-02 
1083	 4.18896720644439E-02 
1084	 4.18611178639835E-02 
1085	 4.18509085320605E-02 
1086	 4.18605179410143E-02 
1087	 4.18914412131114E-02 
1088	 4.18884325895416E-02 
1089	 4.18984824434952E-02 
1090	 4.19098253693049E-02 
1091	 4.18862802610151E-02 
1092	 4.18693357170728E-02 
1093	 4.18713300060316E-02 
1094	 4.18809319242228E-02 
1095	 4.18930457473387E-02 
1096	 0.041899520477038 
1097	 4.19163188761763E-02 
1098	 4.19212721852275E-02 
1099	 4.19000061787944E-02 
1100	 4.18890731566595E-02 
1101	 4.18850649244329E-02 
1102	 4.18789470599134E-02 
1103	 0.041873983336678 
1104	 0.041884666313178 
1105	 4.18866427988235E-02 
1106	 4.18629803793633E-02 
1107	 4.18454547720522E-02 
1108	 4.18250200302154E-02 
1109	 4.17995105085002E-02 
1110	 4.17952124679852E-02 
1111	 4.17885110845887E-02 
1112	 4.17900897166961E-02 
1113	 4.18060278589491E-02 
1114	 0.041793266394812 
1115	 4.17722076873119E-02 
1116	 4.17545223504003E-02 
1117	 4.17264442189417E-02 
1118	 4.17128459230798E-02 
1119	 4.17200389663775E-02 
1120	 4.17112799785381E-02 
1121	 4.16939246289617E-02 
1122	 4.16939627642574E-02 
1123	 4.16910909324719E-02 
1124	 4.16856612053065E-02 
1125	 4.16922172433324E-02 
1126	 4.16856930749438E-02 
1127	 0.041671033881913 
1128	 4.16707888801251E-02 
1129	 0.041677470940578 
1130	 4.16761667662263E-02 
1131	 4.16692221069694E-02 
1132	 4.16456871779514E-02 
1133	 0.041601695726255 
1134	 4.15713582393105E-02 
1135	 4.15512114054033E-02 
1136	 4.15426324655865E-02 
1137	 4.15320539036051E-02 
1138	 4.15304376715761E-02 
1139	 4.15211135943103E-02 
1140	 4.15100021917752E-02 
1141	 4.14909672478908E-02 
1142	 4.14832627713459E-02 
1143	 4.14843758459172E-02 
1144	 4.14793731481009E-02 
1145	 4.14831066981484E-02 
1146	 4.14642804982234E-02 
1147	 4.14501682940341E-02 
1148	 0.041450371882388 
1149	 4.14343162195362E-02 
1150	 4.14339471884492E-02 
1151	 0.041427726783669 
1152	 4.14225042066714E-02 
1153	 4.14185424201085E-02 
1154	 4.14107562244181E-02 
1155	 4.14038663124013E-02 
1156	 4.13942926255871E-02 
1157	 4.13738853195856E-02 
1158	 0.041354389993029 
1159	 4.13330623525325E-02 
1160	 4.13179460792645E-02 
1161	 4.13002286773804E-02 
1162	 0.041288742754356 
1163	 4.12889537260959E-02 
1164	 4.12875511844552E-02 
1165	 0.041283236610311 
1166	 0.041279057215667 
1167	 4.12644950603946E-02 
1168	 4.12511197819836E-02 
1169	 4.12446110863878E-02 
1170	 4.12427014038449E-02 
1171	 4.12367413772278E-02 
1172	 4.12355059439099E-02 
1173	 4.12301533700452E-02 
1174	 4.12203921676076E-02 
1175	 4.12122481466475E-02 
1176	 4.11967039969176E-02 
1177	 4.11937370102428E-02 
1178	 4.11950809181559E-02 
1179	 4.12021862781792E-02 
1180	 4.12118599289834E-02 
1181	 4.12269198840445E-02 
1182	 0.041230358098629 
1183	 4.12187015130837E-02 
1184	 4.12033799539603E-02 
1185	 4.11861843472733E-02 
1186	 4.11746349082091E-02 
1187	 4.11620168596819E-02 
1188	 0.041153439367999 
1189	 4.11544313827714E-02 
1190	 4.11457849279612E-02 
1191	 4.11290597820363E-02 
1192	 4.11227240763109E-02 
1193	 4.11151363933981E-02 
1194	 4.11115987973988E-02 
1195	 4.11166767761955E-02 
1196	 0.041121089656686 
1197	 0.04112582480837 
1198	 4.11323887142522E-02 
1199	 4.11457970892032E-02 
1200	 4.11527472501378E-02 
1201	 4.11379372801033E-02 
1202	 0.041128625188227 
1203	 0.041122322683404 
1204	 4.11090880928726E-02 
1205	 4.11049669788807E-02 
1206	 4.11140794290804E-02 
1207	 4.11126143641351E-02 
1208	 4.11074794545132E-02 
1209	 4.11034858777082E-02 
1210	 4.10994236223797E-02 
1211	 4.10950355619704E-02 
1212	 4.10920060645028E-02 
1213	 4.10827671768026E-02 
1214	 4.10658589287089E-02 
1215	 4.10553299706986E-02 
1216	 0.041044461031851 
1217	 4.10349206065674E-02 
1218	 4.10252655324952E-02 
1219	 0.04102193873008 
1220	 0.041033679436514 
1221	 4.10414810500903E-02 
1222	 0.041049686259666 
1223	 4.10610191821224E-02 
1224	 4.10595064341284E-02 
1225	 4.10382186171014E-02 
1226	 4.10324580466376E-02 
1227	 4.10304932601323E-02 
1228	 4.10280694918808E-02 
1229	 4.10268022750227E-02 
1230	 4.10266303082521E-02 
1231	 4.10248145185738E-02 
1232	 0.041029232993888 
1233	 4.10476895711951E-02 
1234	 4.10505002674833E-02 
1235	 4.10464445890316E-02 
1236	 0.041044236054356 
1237	 4.10238433036154E-02 
1238	 4.10190884323032E-02 
1239	 4.10248173240716E-02 
1240	 4.10395110941985E-02 
1241	 4.10411064634354E-02 
1242	 4.10497480540575E-02 
1243	 4.10501258206116E-02 
1244	 4.10406733712247E-02 
1245	 4.10383379869056E-02 
1246	 4.10395652792229E-02 
1247	 4.10360381211684E-02 
1248	 4.10318193285851E-02 
1249	 4.10259439327982E-02 
1250	 0.041012402341626 
1251	 4.10089185568535E-02 
1252	 4.10105118290488E-02 
1253	 4.10099632657863E-02 
1254	 4.10196131441571E-02 
1255	 4.10172190782583E-02 
1256	 4.10106799986809E-02 
1257	 0.040997917176354 
1258	 4.09690414511503E-02 
1259	 4.09514590605536E-02 
1260	 4.09350455647941E-02 
1261	 4.09185355827379E-02 
1262	 4.09076577475052E-02 
1263	 4.08965980317184E-02 
1264	 4.08880661668196E-02 
1265	 4.08781604185122E-02 
1266	 4.08711587415526E-02 
1267	 4.08696263322159E-02 
1268	 4.08652660189125E-02 
1269	 4.08541812691918E-02 
1270	 4.08573820743376E-02 
1271	 4.08699624901657E-02 
1272	 4.08786455417983E-02 
1273	 4.09020627096798E-02 
1274	 4.09052783825026E-02 
1275	 4.08880101910586E-02 
1276	 4.08881643114752E-02 
1277	 0.040885489273088 
1278	 4.08892859826417E-02 
1279	 4.09115020792032E-02 
1280	 4.09228129821267E-02 
1281	 0.040930094035863 
1282	 4.09351890095642E-02 
1283	 4.09328899118031E-02 
1284	 0.040935995444478 
1285	 4.09403461459252E-02 
1286	 4.09456277163176E-02 
1287	 4.09473667174822E-02 
1288	 4.09486233973766E-02 
1289	 0.040955051727134 
1290	 4.09578482776506E-02 
1291	 0.04096865720065 
1292	 4.09915466338187E-02 
1293	 4.10048517492599E-02 
1294	 4.10173720292518E-02 
1295	 4.10264039178158E-02 
1296	 4.10323955769101E-02 
1297	 4.10368092365343E-02 
1298	 4.10316012665313E-02 
1299	 4.10395600829121E-02 
1300	 4.10599922030303E-02 
1301	 4.10663668778164E-02 
1302	 4.10690118937465E-02 
1303	 4.10772337746285E-02 
1304	 4.10780255804096E-02 
1305	 4.10813810440891E-02 
1306	 4.10943494678074E-02 
1307	 4.11051408944945E-02 
1308	 4.11201248305094E-02 
1309	 4.11204793313071E-02 
1310	 4.11204540412611E-02 
1311	 4.11200351387559E-02 
1312	 4.11176387244437E-02 
1313	 4.11043070773225E-02 
1314	 4.11020127666027E-02 
1315	 4.11075788052304E-02 
1316	 4.11069173771669E-02 
1317	 4.11011318736562E-02 
1318	 4.11059386420903E-02 
1319	 4.11221387898081E-02 
1320	 0.041120557417251 
1321	 4.11115311626981E-02 
1322	 4.11127966383494E-02 
1323	 0.041115433795549 
1324	 4.11045466730525E-02 
1325	 0.041094902006406 
1326	 4.10853569407332E-02 
1327	 4.10536228540873E-02 
1328	 4.10373030438588E-02 
1329	 4.10425191080315E-02 
1330	 4.10358554285951E-02 
1331	 4.10205166849439E-02 
1332	 4.10114712367143E-02 
1333	 4.10048440260397E-02 
1334	 4.09947616465523E-02 
1335	 4.09878202362621E-02 
1336	 0.04098388875054 
1337	 4.09822298472485E-02 
1338	 4.09814981636993E-02 
1339	 4.09803098099183E-02 
1340	 4.09893278265662E-02 
1341	 4.09794127215197E-02 
1342	 4.09580466104528E-02 
1343	 4.09401938899585E-02 
1344	 4.09082457820432E-02 
1345	 4.08939106066417E-02 
1346	 4.08944791507753E-02 
1347	 4.08815304640898E-02 
1348	 4.08673018981387E-02 
1349	 4.08557144432447E-02 
1350	 4.08374297606514E-02 
1351	 0.040822372450862 
1352	 4.08134372580674E-02 
1353	 4.08037822779374E-02 
1354	 4.07927556987771E-02 
1355	 4.07803588309798E-02 
1356	 4.07709800382958E-02 
1357	 4.07593544117557E-02 
1358	 0.040736642864551 
1359	 4.07259045547188E-02 
1360	 4.07292815133715E-02 
1361	 4.07235286388214E-02 
1362	 4.07108975275798E-02 
1363	 4.06969242651681E-02 
1364	 4.06846096984509E-02 
1365	 4.06597677753656E-02 
1366	 4.06510820245305E-02 
1367	 4.06558529801817E-02 
1368	 4.06519893811698E-02 
1369	 4.06515163908751E-02 
1370	 4.06401370879111E-02 
1371	 4.06189435053707E-02 
1372	 4.06085016593162E-02 
1373	 4.05966916767302E-02 
1374	 0.040584923797232 
1375	 0.040583570485842 
1376	 0.040573659151768 
1377	 4.05534542202013E-02 
1378	 4.05391757624234E-02 
1379	 4.05226526774266E-02 
1380	 4.05123622783465E-02 
1381	 4.05102811608018E-02 
1382	 4.05025167191551E-02 
1383	 4.04984626773236E-02 
1384	 4.04897457541309E-02 
1385	 4.04696602137895E-02 
1386	 4.04581116476078E-02 
1387	 4.04551853678767E-02 
1388	 4.04440737930256E-02 
1389	 4.04250577968608E-02 
1390	 0.040417413580287 
1391	 4.04123832302032E-02 
1392	 4.04070459421155E-02 
1393	 4.04091150723876E-02 
1394	 4.04069861076526E-02 
1395	 4.03972732877151E-02 
1396	 4.03724266311235E-02 
1397	 4.03640832504288E-02 
1398	 4.03608979886776E-02 
1399	 0.040355347599012 
1400	 4.03595795084862E-02 
1401	 4.03469423465959E-02 
1402	 4.03207024171515E-02 
1403	 4.03057635149788E-02 
1404	 4.02851228544592E-02 
1405	 4.02743503384339E-02 
1406	 0.040271698973371 
1407	 4.02732133948638E-02 
1408	 4.02864992518738E-02 
1409	 4.02846218258244E-02 
1410	 4.02828199044703E-02 
1411	 4.02771647818066E-02 
1412	 4.02530133551311E-02 
1413	 4.02439977121843E-02 
1414	 4.02447538856924E-02 
1415	 4.02423234547354E-02 
1416	 4.02453881619115E-02 
1417	 4.02436988700434E-02 
1418	 4.02380392891781E-02 
1419	 4.02346993363442E-02 
1420	 0.040227435749644 
1421	 4.02252712281283E-02 
1422	 4.02343460980321E-02 
1423	 4.02324765417043E-02 
1424	 4.02235849002932E-02 
1425	 4.02180604685679E-02 
1426	 4.02152641307985E-02 
1427	 4.02104138462537E-02 
1428	 4.02152043120903E-02 
1429	 4.02220675800348E-02 
1430	 4.02186131167909E-02 
1431	 4.02035633618709E-02 
1432	 4.02021146472026E-02 
1433	 4.02066620890173E-02 
1434	 0.040199088477606 
1435	 4.01886365607914E-02 
1436	 4.01861359878079E-02 
1437	 4.01772029082636E-02 
1438	 4.01743991607961E-02 
1439	 4.01859676845792E-02 
1440	 4.01875249687283E-02 
1441	 4.01802754969795E-02 
1442	 4.01786186157504E-02 
1443	 4.01814555539179E-02 
1444	 0.040179813614812 
1445	 4.01790521708694E-02 
1446	 4.01726613558273E-02 
1447	 4.01573468748215E-02 
1448	 4.01518691751406E-02 
1449	 4.01466547554695E-02 
1450	 0.040142404319177 
1451	 4.01464195360464E-02 
1452	 4.01463343441027E-02 
1453	 4.01433335094817E-02 
1454	 4.01407810371022E-02 
1455	 4.01322827797449E-02 
1456	 4.01347236151952E-02 
1457	 4.01509262147016E-02 
1458	 4.01540027112224E-02 
1459	 4.01560057378325E-02 
1460	 4.01586190245322E-02 
1461	 4.01480584448233E-02 
1462	 4.01435666377194E-02 
1463	 4.01481022093632E-02 
1464	 4.01503598782391E-02 
1465	 0.040155060285882 
1466	 4.01551697226155E-02 
1467	 4.01383864899075E-02 
1468	 0.040132132473149 
1469	 4.01337908875448E-02 
1470	 4.01268038934099E-02 
1471	 4.01262248389548E-02 
1472	 4.01392969774784E-02 
1473	 4.01414810764094E-02 
1474	 0.040136242592862 
1475	 4.01322173645318E-02 
1476	 4.01290109034165E-02 
1477	 4.01264959815517E-02 
1478	 4.01168397441341E-02 
1479	 0.040118709126541 
1480	 4.01342197738921E-02 
1481	 4.01328372382786E-02 
1482	 4.01265254032726E-02 
1483	 4.01236045853306E-02 
1484	 4.01125412593487E-02 
1485	 4.01067634268121E-02 
1486	 4.01059971092157E-02 
1487	 4.01066293859858E-02 
1488	 4.01081955713507E-02 
1489	 4.01076394629772E-02 
1490	 4.01102953087506E-02 
1491	 4.01115327598474E-02 
1492	 4.01088702273065E-02 
1493	 4.01065888968153E-02 
1494	 4.01068205903892E-02 
1495	 4.01059810348555E-02 
1496	 0.040099156499822 
1497	 4.00990683236279E-02 
1498	 4.01085858255204E-02 
1499	 4.01082608953258E-02 
1500	 4.01026763739872E-02 
1501	 4.01016976820036E-02 
1502	 4.00960369148364E-02 
1503	 0.040094015453586 
1504	 4.01018205751364E-02 
1505	 4.01026441278544E-02 
1506	 4.00983065623519E-02 
1507	 4.00958081237613E-02 
1508	 4.00899571551635E-02 
1509	 4.00879418367661E-02 
1510	 4.00902134540818E-02 
1511	 0.040089708447477 
1512	 4.00900336253685E-02 
1513	 0.040088541615434 
1514	 4.00838172682063E-02 
1515	 4.00814910590181E-02 
1516	 4.00790674783752E-02 
1517	 4.00778524621821E-02 
1518	 4.00805110563824E-02 
1519	 4.00791330047364E-02 
1520	 4.00717917493096E-02 
1521	 4.00725065644683E-02 
1522	 4.00755598163072E-02 
1523	 4.00666334256283E-02 
1524	 4.00655672852984E-02 
1525	 0.040069864208996 
1526	 0.04006550148648 
1527	 4.00550887247784E-02 
1528	 4.00548407710801E-02 
1529	 4.00543756590687E-02 
1530	 4.00569347971739E-02 
1531	 0.040072301242336 
1532	 4.00684200893737E-02 
1533	 4.00496203160391E-02 
1534	 4.00507372025621E-02 
1535	 4.00552130596769E-02 
1536	 4.00538998061453E-02 
1537	 4.00625906174754E-02 
1538	 4.00636167509524E-02 
1539	 4.00503428444567E-02 
1540	 4.00494514036413E-02 
1541	 4.00624527939154E-02 
1542	 4.00576149004207E-02 
1543	 4.00401015858254E-02 
1544	 4.00377670363692E-02 
1545	 4.00344077105918E-02 
1546	 4.00348126024454E-02 
1547	 4.00477092743868E-02 
1548	 4.00532376187379E-02 
1549	 4.00559709960582E-02 
1550	 4.00548645533444E-02 
1551	 4.00537046578667E-02 
1552	 4.00502523117861E-02 
1553	 4.00376550857076E-02 
1554	 4.00328296958509E-02 
1555	 4.00334959028937E-02 
1556	 0.040030211873661 
1557	 4.00252963293253E-02 
1558	 4.00237153630988E-02 
1559	 4.00236569876101E-02 
1560	 4.00213614859427E-02 
1561	 4.00196510436821E-02 
1562	 4.00192468419036E-02 
1563	 4.00182408384721E-02 
1564	 4.00157452472141E-02 
1565	 4.00155115750313E-02 
1566	 4.00131314708934E-02 
1567	 4.00064686471323E-02 
1568	 4.00016363268462E-02 
1569	 3.99950488341284E-02 
1570	 3.99945191008077E-02 
1571	 0.040001711349008 
1572	 3.99987177446388E-02 
1573	 3.99935554455599E-02 
1574	 0.039990258582575 
1575	 3.99781498849275E-02 
1576	 3.99726578372252E-02 
1577	 3.99803832836063E-02 
1578	 3.99749224110616E-02 
1579	 3.99593029703137E-02 
1580	 3.99504159359915E-02 
1581	 3.99369136836802E-02 
1582	 3.99287997337013E-02 
1583	 3.99268001751777E-02 
1584	 3.99256202436837E-02 
1585	 0.039925802208673 
1586	 3.99274789716873E-02 
1587	 3.99385619289279E-02 
1588	 3.99377932173871E-02 
1589	 3.99258084499779E-02 
1590	 3.99239213591935E-02 
1591	 3.99179143766513E-02 
1592	 3.99190253511487E-02 
1593	 3.99390149936754E-02 
1594	 3.99427590246361E-02 
1595	 3.99368030808311E-02 
1596	 3.99358885191842E-02 
1597	 0.039928289669138 
1598	 3.99247954059014E-02 
1599	 3.99270073143625E-02 
1600	 3.99273378371283E-02 
1601	 3.99295693055722E-02 
1602	 3.99277010014749E-02 
1603	 3.99247982728684E-02 
1604	 3.99213109158275E-02 
1605	 3.99056374302932E-02 
1606	 3.99045408173886E-02 
1607	 3.99162571491685E-02 
1608	 3.99207442163778E-02 
1609	 3.99350091436275E-02 
1610	 3.99387465555439E-02 
1611	 3.99298715776426E-02 
1612	 3.99243974024088E-02 
1613	 3.99114052823244E-02 
1614	 3.99083373770485E-02 
1615	 3.99198282963436E-02 
1616	 3.99158374092067E-02 
1617	 0.039909156696489 
1618	 3.99008776056248E-02 
1619	 3.98686546157267E-02 
1620	 3.98579044248769E-02 
1621	 3.98614045424031E-02 
1622	 3.98658638104289E-02 
1623	 3.98906776923489E-02 
1624	 3.98994601421413E-02 
1625	 3.99036920152113E-02 
1626	 3.99007838473771E-02 
1627	 3.98774979993986E-02 
1628	 3.98697598232578E-02 
1629	 3.98708693600652E-02 
1630	 3.98660087510599E-02 
1631	 3.98654206040149E-02 
1632	 3.98611970932362E-02 
1633	 0.039839590115173 
1634	 3.98373421583134E-02 
1635	 3.98579896048651E-02 
1636	 3.98614187874665E-02 
1637	 3.98648046389934E-02 
1638	 3.98670126192036E-02 
1639	 3.98524678079668E-02 
1640	 3.98477886382816E-02 
1641	 0.039857152269062 
1642	 3.98578874007877E-02 
1643	 3.98499333865506E-02 
1644	 3.98500017492071E-02 
1645	 3.98558550452884E-02 
1646	 3.98533599683926E-02 
1647	 3.98542066431961E-02 
1648	 3.98500774716055E-02 
1649	 3.98314230170912E-02 
1650	 0.039821675733563 
1651	 3.98104857852287E-02 
1652	 3.98106563581555E-02 
1653	 3.98290665893272E-02 
1654	 3.98317278376763E-02 
1655	 3.98294547998194E-02 
1656	 3.98307869178687E-02 
1657	 3.98280123713394E-02 
1658	 3.98215428217052E-02 
1659	 3.98146257502791E-02 
1660	 3.98142404323372E-02 
1661	 3.98138444302469E-02 
1662	 3.98074815588933E-02 
1663	 3.98052233682836E-02 
1664	 3.98039785753814E-02 
1665	 3.97926966639797E-02 
1666	 0.039783007865752 
1667	 3.97830692979213E-02 
1668	 3.97778800753758E-02 
1669	 3.97609151962243E-02 
1670	 3.97569845069679E-02 
1671	 3.97661368610076E-02 
1672	 3.97605187057183E-02 
1673	 3.97517966647433E-02 
1674	 3.97461992636739E-02 
1675	 3.97285760411584E-02 
1676	 0.039722497150957 
1677	 3.97318591703458E-02 
1678	 3.97282132662264E-02 
1679	 3.97172690949852E-02 
1680	 3.97147422472516E-02 
1681	 0.039712437508895 
1682	 3.97080033682877E-02 
1683	 3.97096288316689E-02 
1684	 3.97071616838839E-02 
1685	 0.039699332466771 
1686	 3.96923049162103E-02 
1687	 3.96851061086665E-02 
1688	 3.96826616363409E-02 
1689	 3.96813565796953E-02 
1690	 3.96752652405818E-02 
1691	 3.96699645655375E-02 
1692	 0.039663388736324 
1693	 3.96519220126201E-02 
1694	 3.96429618871359E-02 
1695	 3.96347722940411E-02 
1696	 3.96320217570522E-02 
1697	 0.039634714282909 
1698	 3.96288999153014E-02 
1699	 3.96218630948655E-02 
1700	 3.96210867081944E-02 
1701	 3.96126054647537E-02 
1702	 3.96125944771966E-02 
1703	 3.96296459522508E-02 
1704	 3.96311443221841E-02 
1705	 3.96276313307466E-02 
1706	 3.96032489778713E-02 
1707	 3.95843266896071E-02 
1708	 3.95574118616951E-02 
1709	 0.039543080795807 
1710	 3.95473362107909E-02 
1711	 3.95526427660944E-02 
1712	 3.95515252269485E-02 
1713	 0.03955117593316 
1714	 3.95518904153682E-02 
1715	 3.95392108080874E-02 
1716	 3.95454533818373E-02 
1717	 3.95550898826097E-02 
1718	 3.95344565597274E-02 
1719	 0.039524393247117 
1720	 3.95139633675382E-02 
1721	 3.95056273764827E-02 
1722	 3.95135054156564E-02 
1723	 3.95091134808509E-02 
1724	 3.95090293756196E-02 
1725	 3.94974370754119E-02 
1726	 3.94798588071909E-02 
1727	 3.94907398282182E-02 
1728	 3.94948155835481E-02 
1729	 0.039487475588711 
1730	 3.94945193844984E-02 
1731	 3.95038686717824E-02 
1732	 3.95004560105407E-02 
1733	 3.94925548994569E-02 
1734	 3.94750154696356E-02 
1735	 3.94501562133171E-02 
1736	 3.94446437009642E-02 
1737	 3.94503386130423E-02 
1738	 3.94848010049388E-02 
1739	 3.94960648936368E-02 
1740	 3.94875348611188E-02 
1741	 3.94836933404319E-02 
1742	 3.94641934476065E-02 
1743	 3.94618394803816E-02 
1744	 0.039480873375328 
1745	 3.94828089614103E-02 
1746	 3.94908791813456E-02 
1747	 3.94789683016112E-02 
1748	 3.94375581039397E-02 
1749	 3.94215742124609E-02 
1750	 3.94076034756511E-02 
1751	 3.94031678813533E-02 
1752	 3.94164717353013E-02 
1753	 3.94164955007559E-02 
1754	 3.94106026666107E-02 
1755	 3.94045344184488E-02 
1756	 3.93887181629871E-02 
1757	 3.93837894927702E-02 
1758	 3.94224834088629E-02 
1759	 3.94421713409728E-02 
1760	 3.94414011975227E-02 
1761	 3.94432092673629E-02 
1762	 3.94163202630972E-02 
1763	 0.039396571833246 
1764	 0.039403185742553 
1765	 3.94047116112954E-02 
1766	 3.93964968872175E-02 
1767	 3.94015769532486E-02 
1768	 3.94100693697535E-02 
1769	 0.039420311763407 
1770	 3.94260044195161E-02 
1771	 3.94028004020131E-02 
1772	 0.039372147661232 
1773	 0.039343759579919 
1774	 3.93395490463875E-02 
1775	 0.03934517214789 
1776	 0.039350965185228 
1777	 3.93592466994383E-02 
1778	 3.93478572441848E-02 
1779	 0.039361049814965 
1780	 3.93805004744881E-02 
1781	 3.93826146707654E-02 
1782	 3.93900608985361E-02 
1783	 3.93728002842493E-02 
1784	 3.93528225557086E-02 
1785	 3.93504351077802E-02 
1786	 3.93492049166012E-02 
1787	 3.93753843679771E-02 
1788	 3.93727103487269E-02 
1789	 3.93406468340827E-02 
1790	 3.93372389203457E-02 
1791	 3.93323391080229E-02 
1792	 3.93221246222566E-02 
1793	 3.93351151051024E-02 
1794	 3.93282023428304E-02 
1795	 3.93172902809055E-02 
1796	 3.93400691419934E-02 
1797	 3.93647006715247E-02 
1798	 3.93620149356151E-02 
1799	 3.93608492132117E-02 
1800	 3.93530846690541E-02 
1801	 3.93064046462794E-02 
1802	 3.93147760363698E-02 
1803	 3.93144812971308E-02 
1804	 3.93074053428452E-02 
1805	 3.93040427915079E-02 
1806	 3.93177479571935E-02 
1807	 3.93459183931127E-02 
1808	 3.93500115311659E-02 
1809	 3.93644732633096E-02 
1810	 3.93688448072842E-02 
1811	 3.93346616518565E-02 
1812	 3.93276386923646E-02 
1813	 3.93423039234609E-02 
1814	 3.93493366104324E-02 
1815	 0.039347611266055 
1816	 3.93585956908755E-02 
1817	 0.039365258114721 
1818	 3.93693179466488E-02 
1819	 3.93691736446828E-02 
1820	 3.93736485239881E-02 
1821	 3.93729557512222E-02 
1822	 3.93568385905304E-02 
1823	 3.93554839778665E-02 
1824	 3.93711400290086E-02 
1825	 0.039373795781768 
1826	 0.039377492893343 
1827	 0.039387041666521 
1828	 3.93924739051915E-02 
1829	 3.93871008589696E-02 
1830	 3.93902056762943E-02 
1831	 3.93950041694569E-02 
1832	 3.94103592129322E-02 
1833	 3.94201414608299E-02 
1834	 3.94278624666377E-02 
1835	 3.94314942898075E-02 
1836	 3.94306183558991E-02 
1837	 0.039432244294513 
1838	 3.94288622707899E-02 
1839	 3.94300001338728E-02 
1840	 3.94399832557487E-02 
1841	 3.94394179920312E-02 
1842	 3.94281799415499E-02 
1843	 3.94287956363906E-02 
1844	 3.94344358798876E-02 
1845	 3.94434938672248E-02 
1846	 3.94573413330654E-02 
1847	 3.94636157937951E-02 
1848	 3.94644242012514E-02 
1849	 3.94508374311155E-02 
1850	 3.94425510063426E-02 
1851	 3.94286549803777E-02 
1852	 3.94307886828041E-02 
1853	 3.94223254651665E-02 
1854	 3.94239510235265E-02 
1855	 3.94398056138668E-02 
1856	 3.94409654490602E-02 
1857	 3.94509568210817E-02 
1858	 3.94637722802984E-02 
1859	 3.94688569343158E-02 
1860	 3.94695826854969E-02 
1861	 3.94727293094425E-02 
1862	 0.039475721969173 
1863	 3.94661155493229E-02 
1864	 3.94728110717479E-02 
1865	 3.94747778471688E-02 
1866	 3.94697431927205E-02 
1867	 3.94801877559737E-02 
1868	 0.039471840162491 
1869	 3.94539797112258E-02 
1870	 3.94510859548293E-02 
1871	 3.94534020805843E-02 
1872	 3.94530816006754E-02 
1873	 0.039459210488764 
1874	 3.94717898238463E-02 
1875	 3.94721277821435E-02 
1876	 3.94690962082117E-02 
1877	 3.94646719369988E-02 
1878	 0.039456401967601 
1879	 3.94447529871641E-02 
1880	 3.94312409620045E-02 
1881	 3.94246707912722E-02 
1882	 3.94233154691581E-02 
1883	 3.94221424537551E-02 
1884	 3.94124893315176E-02 
1885	 3.94044949781254E-02 
1886	 3.93904754125765E-02 
1887	 3.93697779232616E-02 
1888	 3.93650043428502E-02 
1889	 3.93652275073134E-02 
1890	 3.93544620962165E-02 
1891	 3.93432942958818E-02 
1892	 3.93308930125923E-02 
1893	 3.93189480111976E-02 
1894	 3.93039641025557E-02 
1895	 3.92921456135353E-02 
1896	 3.92818197115056E-02 
1897	 3.92691972799744E-02 
1898	 3.92364544438483E-02 
1899	 3.91992665768649E-02 
1900	 3.91750686839651E-02 
1901	 3.91576645704932E-02 
1902	 3.91545822464527E-02 
1903	 0.039155677860914 
1904	 3.91476808504268E-02 
1905	 3.91363020173109E-02 
1906	 3.91202535302482E-02 
1907	 3.90954487242166E-02 
1908	 0.039074061285868 
1909	 3.90652800876067E-02 
1910	 3.90483161485711E-02 
1911	 3.90389850212549E-02 
1912	 0.039042028489816 
1913	 3.90301014982865E-02 
1914	 3.90091560847934E-02 
1915	 3.89936791081752E-02 
1916	 3.89738547057711E-02 
1917	 3.89526713593085E-02 
1918	 0.038949964984655 
1919	 3.89634068063969E-02 
1920	 3.89725378403019E-02 
1921	 3.89746633387257E-02 
1922	 3.89722801487718E-02 
1923	 3.89651115624402E-02 
1924	 3.89566625940213E-02 
1925	 3.89519385601324E-02 
1926	 3.89459196246741E-02 
1927	 3.89375045907404E-02 
1928	 3.89316585271222E-02 
1929	 3.89264808264419E-02 
1930	 3.89208090005594E-02 
1931	 0.038922850487131 
1932	 3.89262516801916E-02 
1933	 3.89230806456023E-02 
1934	 3.89208628966796E-02 
1935	 3.89149603796935E-02 
1936	 0.038903433723298 
1937	 3.89005833208363E-02 
1938	 3.89027427358038E-02 
1939	 3.89085686960329E-02 
1940	 3.89175421740018E-02 
1941	 3.89334569611305E-02 
1942	 3.89527914000961E-02 
1943	 3.89591894901814E-02 
1944	 3.89682653867459E-02 
1945	 3.89648632280131E-02 
1946	 3.89525500651249E-02 
1947	 3.89559154151859E-02 
1948	 3.89601734325488E-02 
1949	 3.89775831029781E-02 
1950	 3.89905368061285E-02 
1951	 3.90076365833314E-02 
1952	 3.90197381527522E-02 
1953	 0.039032142093714 
1954	 3.90373787673206E-02 
1955	 3.90396340541803E-02 
1956	 3.90513794209298E-02 
1957	 3.90603730350847E-02 
1958	 3.90647087500425E-02 
1959	 3.90726715056622E-02 
1960	 3.90874960297795E-02 
1961	 3.90974218026014E-02 
1962	 3.91033940658459E-02 
1963	 0.039114642232115 
1964	 3.91249942623799E-02 
1965	 3.91381190847484E-02 
1966	 0.039155351722034 
1967	 3.91728209131858E-02 
1968	 3.91926087693146E-02 
1969	 3.92151825395044E-02 
1970	 3.92276730889102E-02 
1971	 3.92376504873645E-02 
1972	 3.92472713261386E-02 
1973	 3.92491124110581E-02 
1974	 3.92539087459598E-02 
1975	 3.92584931086101E-02 
1976	 3.92673712761111E-02 
1977	 3.92788534461624E-02 
1978	 3.92866257793268E-02 
1979	 3.92908005771058E-02 
1980	 3.93050857767992E-02 
1981	 0.039321146024447 
1982	 3.93400971714399E-02 
1983	 3.93799846053522E-02 
1984	 3.94085576663491E-02 
1985	 0.039412373641297 
1986	 3.94246453960149E-02 
1987	 0.039435969067839 
1988	 3.94334351638681E-02 
1989	 3.94425308828396E-02 
1990	 3.94672007601888E-02 
1991	 3.94815078773731E-02 
1992	 3.94871302015819E-02 
1993	 3.95022171465034E-02 
1994	 3.95255020720688E-02 
1995	 3.95403127566148E-02 
1996	 3.95578167003062E-02 
1997	 0.039585251879784 
1998	 3.96097815247764E-02 
1999	 3.96386079162654E-02 
2000	 3.96528219910028E-02 
2001	 3.96580358882197E-02 
2002	 3.96729387696363E-02 
2003	 3.96772544108352E-02 
2004	 3.96916508997578E-02 
2005	 3.97272582209275E-02 
2006	 0.039749261467773 
2007	 3.97636099895829E-02 
2008	 3.97805579286549E-02 
2009	 3.97951208685271E-02 
2010	 3.98019566898747E-02 
2011	 3.98087894802625E-02 
2012	 3.98210696328811E-02 
2013	 3.98366991668741E-02 
2014	 3.98621785202128E-02 
2015	 3.98715115052191E-02 
2016	 3.98706078564198E-02 
2017	 3.98833081312628E-02 
2018	 0.039894193962971 
2019	 3.99056736161653E-02 
2020	 3.99261627068419E-02 
2021	 3.99504009241999E-02 
2022	 3.99652520894372E-02 
2023	 3.99699478592098E-02 
2024	 3.99810436182418E-02 
2025	 3.99934315392188E-02 
2026	 0.040000083844575 
2027	 0.039994911578611 
2028	 4.00078277554005E-02 
2029	 4.00267154975211E-02 
2030	 4.00414418677729E-02 
2031	 4.00691977655786E-02 
2032	 4.00850588719588E-02 
2033	 0.040089784545532 
2034	 4.01019278580598E-02 
2035	 4.01170861162462E-02 
2036	 4.01264718274886E-02 
2037	 0.040136419094737 
2038	 4.01376720165917E-02 
2039	 4.01467271205961E-02 
2040	 4.01514653142024E-02 
2041	 4.01659036853268E-02 
2042	 0.040193920638603 
2043	 4.02111018366861E-02 
2044	 0.040230293739399 
2045	 0.0402399522281 
2046	 4.02349264437106E-02 
2047	 4.02420831220138E-02 
2048	 4.02457322917414E-02 
2049	 4.02578840625326E-02 
2050	 4.02825505619977E-02 
2051	 4.03066352580093E-02 
2052	 4.03225877960636E-02 
2053	 4.03423386861407E-02 
2054	 4.03567370238164E-02 
2055	 4.03617307921396E-02 
2056	 4.03762076987569E-02 
2057	 4.03951474864611E-02 
2058	 4.04115597600805E-02 
2059	 4.04331819892685E-02 
2060	 4.04456026628151E-02 
2061	 4.04522718908807E-02 
2062	 4.04593039996567E-02 
2063	 4.04579336597515E-02 
2064	 4.04654546515444E-02 
2065	 4.04744564823356E-02 
2066	 4.04872567440413E-02 
2067	 4.05089647042669E-02 
2068	 4.05325549365188E-02 
2069	 4.05561849279398E-02 
2070	 4.05937551038691E-02 
2071	 4.06046831888734E-02 
2072	 0.040600174351059 
2073	 4.06026194604288E-02 
2074	 4.05860131814011E-02 
2075	 4.05874604590507E-02 
2076	 4.06005668017396E-02 
2077	 4.06152403357039E-02 
2078	 4.06398567669202E-02 
2079	 4.06604836089369E-02 
2080	 4.06856459124638E-02 
2081	 4.07053861319867E-02 
2082	 4.07243821733135E-02 
2083	 4.07316679172323E-02 
2084	 4.07473041549896E-02 
2085	 4.07626616542352E-02 
2086	 4.07717647844788E-02 
2087	 4.07794871321822E-02 
2088	 4.07860053074002E-02 
2089	 4.07788955593216E-02 
2090	 4.07906903639212E-02 
2091	 4.08155123680512E-02 
2092	 4.08310238836353E-02 
2093	 0.040854710630795 
2094	 4.08715785642292E-02 
2095	 4.08799674387499E-02 
2096	 4.08901241094381E-02 
2097	 4.09076625265681E-02 
2098	 4.09049632286136E-02 
2099	 4.09109562781707E-02 
2100	 4.09227386696832E-02 
2101	 4.09331643064237E-02 
2102	 4.09461070522151E-02 
2103	 4.09609549435119E-02 
2104	 4.09797490447967E-02 
2105	 4.09900457934465E-02 
2106	 4.09973890789949E-02 
2107	 4.10091438797731E-02 
2108	 4.10132639121803E-02 
2109	 4.10268068800194E-02 
2110	 4.10546318430518E-02 
2111	 4.10706642727002E-02 
2112	 4.10816814344996E-02 
2113	 4.10952435302376E-02 
2114	 0.04109918837603 
2115	 0.04111477536216 
2116	 4.11431665731419E-02 
2117	 4.11687163235714E-02 
2118	 4.11857559764908E-02 
2119	 4.12057581341128E-02 
2120	 0.041218108450337 
2121	 4.12149814485985E-02 
2122	 0.041225545093892 
2123	 4.12361032764423E-02 
2124	 4.12530387879539E-02 
2125	 4.12847529991413E-02 
2126	 4.12999131479168E-02 
2127	 4.13121248365068E-02 
2128	 4.13232485695167E-02 
2129	 4.13232686291324E-02 
2130	 4.13253221747701E-02 
2131	 4.13258676959087E-02 
2132	 4.13333713765121E-02 
2133	 4.13435398695621E-02 
2134	 4.13534404243672E-02 
2135	 4.13633663595355E-02 
2136	 4.13707713812063E-02 
2137	 4.13635253119501E-02 
2138	 4.13316637835092E-02 
2139	 4.13282634073632E-02 
2140	 4.13317009011671E-02 
2141	 4.13289764534916E-02 
2142	 4.13467795826324E-02 
2143	 4.13389100764537E-02 
2144	 4.13095232182474E-02 
2145	 4.12859546054912E-02 
2146	 4.12555087495505E-02 
2147	 4.12281124076426E-02 
2148	 4.12004641971543E-02 
2149	 4.11724480726825E-02 
2150	 4.11325359610394E-02 
2151	 4.11100079388853E-02 
2152	 4.10979125247847E-02 
2153	 4.10894469389138E-02 
2154	 4.10725731427188E-02 
2155	 4.10766753396658E-02 
2156	 4.10557487348003E-02 
2157	 4.10146835734701E-02 
2158	 4.09847983467172E-02 
2159	 4.09549282872333E-02 
2160	 4.09213308549192E-02 
2161	 4.08876331344323E-02 
2162	 4.08529986877894E-02 
2163	 4.08125068042362E-02 
2164	 4.07775608697118E-02 
2165	 4.07412242981074E-02 
2166	 4.07117545742818E-02 
2167	 4.06961337193525E-02 
2168	 4.06658448946395E-02 
2169	 4.06232509844944E-02 
2170	 4.05961784616465E-02 
2171	 0.040567243928427 
2172	 4.05422298051915E-02 
2173	 4.05336824066582E-02 
2174	 4.05240515107354E-02 
2175	 4.04999698401048E-02 
2176	 4.04700943395411E-02 
2177	 4.04416682359884E-02 
2178	 4.04112106853729E-02 
2179	 4.03783870196848E-02 
2180	 4.03343547912461E-02 
2181	 4.03142631960115E-02 
2182	 4.03014135616285E-02 
2183	 4.02868606060866E-02 
2184	 4.02995246774612E-02 
2185	 4.02836918855158E-02 
2186	 4.02436873642274E-02 
2187	 4.02189013068406E-02 
2188	 0.04018638419119 
2189	 4.01664807335718E-02 
2190	 4.01605382492555E-02 
2191	 4.01497922225399E-02 
2192	 4.01472385768794E-02 
2193	 4.01350908733088E-02 
2194	 0.040109230891108 
2195	 4.00979777248225E-02 
2196	 4.01055962761891E-02 
2197	 4.00850477795758E-02 
2198	 4.00551074308029E-02 
2199	 4.00544732274358E-02 
2200	 4.00447497083443E-02 
2201	 0.040023717335322 
2202	 4.00131964840472E-02 
2203	 4.00161624277597E-02 
2204	 4.00110494711585E-02 
2205	 4.00003590508122E-02 
2206	 0.039991773920154 
2207	 3.99886892260579E-02 
2208	 3.99830235694542E-02 
2209	 3.99669035702258E-02 
2210	 3.99637084568833E-02 
2211	 3.99782792831176E-02 
2212	 3.99735814802613E-02 
2213	 3.99572391692347E-02 
2214	 3.99559165151105E-02 
2215	 3.99448698134572E-02 
2216	 3.99462945214893E-02 
2217	 3.99714806259627E-02 
2218	 3.99847535664544E-02 
2219	 4.00020879470339E-02 
2220	 4.00107726618117E-02 
2221	 4.00053386898877E-02 
2222	 4.00163507349041E-02 
2223	 4.00063676312662E-02 
2224	 3.99869919619028E-02 
2225	 3.99943917196956E-02 
2226	 3.99931493407728E-02 
2227	 3.99915901557163E-02 
2228	 3.99989225567375E-02 
2229	 4.00030076175552E-02 
2230	 4.00020415126901E-02 
2231	 3.99905264685832E-02 
2232	 3.99751744869765E-02 
2233	 3.99706332118327E-02 
2234	 3.99528799782959E-02 
2235	 3.99531625890274E-02 
2236	 3.99848076478204E-02 
2237	 3.99879351769653E-02 
2238	 3.99779473111294E-02 
2239	 3.99705516689586E-02 
2240	 3.99510322469574E-02 
2241	 3.99411998099252E-02 
2242	 3.99354870274443E-02 
2243	 0.039932699991617 
2244	 0.039942356622907 
2245	 3.99387226896608E-02 
2246	 3.99246758148062E-02 
2247	 3.99165006063822E-02 
2248	 3.98994691680683E-02 
2249	 3.98892080704767E-02 
2250	 3.98791501309626E-02 
2251	 3.98897287445465E-02 
2252	 3.99072471103601E-02 
2253	 3.99284266932814E-02 
2254	 3.99083683890634E-02 
2255	 3.98789276169855E-02 
2256	 3.98502979709933E-02 
2257	 3.98104974257513E-02 
2258	 3.98157699187921E-02 
2259	 3.98796006999669E-02 
2260	 3.98925646474788E-02 
2261	 3.99122938120131E-02 
2262	 3.99014037648451E-02 
2263	 3.98413081586264E-02 
2264	 3.98293805768053E-02 
2265	 3.98205036390556E-02 
2266	 3.98224229247518E-02 
2267	 0.039866196711129 
2268	 3.98767275060712E-02 
2269	 3.98739992980615E-02 
2270	 3.98677555667667E-02 
2271	 3.98380990146902E-02 
2272	 0.039829408017395 
2273	 3.98310517902603E-02 
2274	 3.98297076422517E-02 
2275	 3.98364074290112E-02 
2276	 3.98432093578899E-02 
2277	 3.98485182811135E-02 
2278	 3.98480270863755E-02 
2279	 3.98387759486977E-02 
2280	 3.98488351838537E-02 
2281	 3.98799250484904E-02 
2282	 3.98879901946832E-02 
2283	 3.99044037727175E-02 
2284	 3.98981165423474E-02 
2285	 3.98898072840701E-02 
2286	 3.98805440378305E-02 
2287	 3.98546546714567E-02 
2288	 3.98866686336625E-02 
2289	 3.98989904694629E-02 
2290	 3.98702556942622E-02 
2291	 3.98994225659459E-02 
2292	 3.99138067355198E-02 
2293	 3.99170694425934E-02 
2294	 3.99295316730238E-02 
2295	 3.99227119473475E-02 
2296	 3.99078266710569E-02 
2297	 3.99023127339173E-02 
2298	 3.98982285101487E-02 
2299	 3.99052146476924E-02 
2300	 3.99262675538251E-02 
2301	 3.99341899929331E-02 
2302	 3.99398213976549E-02 
2303	 3.99555786686165E-02 
2304	 3.99595815398035E-02 
2305	 3.99871827291094E-02 
2306	 4.00550321398764E-02 
2307	 4.00684668037741E-02 
2308	 4.00567058631491E-02 
2309	 4.00688721951631E-02 
2310	 0.040043852493584 
2311	 4.00714545024475E-02 
2312	 4.01668133315503E-02 
2313	 4.02027037004051E-02 
2314	 4.02231376429893E-02 
2315	 4.02653914230615E-02 
2316	 4.03033365189839E-02 
2317	 4.03237675851792E-02 
2318	 4.03523699011097E-02 
2319	 0.040365801716793 
2320	 0.040337067258626 
2321	 4.03330126737095E-02 
2322	 4.03534879136411E-02 
2323	 4.03597969289325E-02 
2324	 4.03541449061995E-02 
2325	 4.03612811310463E-02 
2326	 4.03745396721167E-02 
2327	 4.03815150933303E-02 
2328	 4.03845433315149E-02 
2329	 4.03986947090983E-02 
2330	 4.04166466768602E-02 
2331	 0.04043552964947 
2332	 4.04508260869872E-02 
2333	 4.04850140962792E-02 
2334	 4.04957744645658E-02 
2335	 4.04882635916235E-02 
2336	 4.05065535715797E-02 
2337	 4.05177344885238E-02 
2338	 4.05476265506636E-02 
2339	 4.05870676066733E-02 
2340	 4.05979607569106E-02 
2341	 4.06330099334736E-02 
2342	 0.040659053911048 
2343	 4.06477415506456E-02 
2344	 4.06605772773019E-02 
2345	 4.06642873693244E-02 
2346	 4.06804427147472E-02 
2347	 4.07295563525822E-02 
2348	 4.07593168014641E-02 
2349	 4.07619758184272E-02 
2350	 4.06995641816551E-02 
2351	 4.06845588959934E-02 
2352	 4.07311979916045E-02 
2353	 0.040748327021112 
2354	 4.08224194921808E-02 
2355	 4.08282965733791E-02 
2356	 4.07802981368635E-02 
2357	 4.08007332770703E-02 
2358	 4.08088747154932E-02 
2359	 4.08649964434624E-02 
2360	 4.09080699714682E-02 
2361	 4.09199374259811E-02 
2362	 0.040970039133853 
2363	 4.09714172233112E-02 
2364	 4.09525698889341E-02 
2365	 4.09680437994378E-02 
2366	 4.09620601001438E-02 
2367	 4.09320489995612E-02 
2368	 0.040925471671983 
2369	 4.09127421592693E-02 
2370	 4.08585303198412E-02 
2371	 4.08396061138382E-02 
2372	 4.08978806925059E-02 
2373	 4.09487871263288E-02 
2374	 4.09660295113401E-02 
2375	 4.09865841165962E-02 
2376	 4.09684411972535E-02 
2377	 4.09095037184153E-02 
2378	 4.09567695691912E-02 
2379	 4.10376025944739E-02 
2380	 4.10459106346857E-02 
2381	 4.10851906098518E-02 
2382	 4.10827771024264E-02 
2383	 4.09923411800485E-02 
2384	 0.040952234447164 
2385	 0.040942820581961 
2386	 4.09154555606883E-02 
2387	 4.08665880418542E-02 
2388	 4.08919432607819E-02 
2389	 4.09601654905598E-02 
2390	 4.09670191157668E-02 
2391	 4.10087121353725E-02 
2392	 4.10106752920992E-02 
2393	 4.09267367051841E-02 
2394	 4.09133422837001E-02 
2395	 0.040948388802959 
2396	 0.040952916933452 
2397	 4.09530050647956E-02 
2398	 4.09451449872575E-02 
2399	 4.09065860803643E-02 
2400	 4.09135048729646E-02 
2401	 4.09709151273352E-02 
2402	 4.09833606840614E-02 
2403	 4.09757878567155E-02 
2404	 0.040938000905074 
2405	 4.08882000044364E-02 
2406	 4.08540302359833E-02 
2407	 4.08300026503362E-02 
2408	 4.08347104523852E-02 
2409	 4.07948495594744E-02 
2410	 4.08407056763374E-02 
2411	 4.09405410942764E-02 
2412	 4.09545814882017E-02 
2413	 4.09732816981185E-02 
2414	 4.09803005636427E-02 
2415	 4.09801016036926E-02 
2416	 0.040947713971408 
2417	 4.09067212533831E-02 
2418	 4.08871908229155E-02 
2419	 4.08334328642086E-02 
2420	 4.08121629274466E-02 
2421	 4.08444319640142E-02 
2422	 4.08758418247121E-02 
2423	 4.08824674003414E-02 
2424	 4.08476173642824E-02 
2425	 4.07961817173547E-02 
2426	 0.040828935052901 
2427	 4.09151475818519E-02 
2428	 4.09678715086873E-02 
2429	 4.09934019308474E-02 
2430	 4.09794977410872E-02 
2431	 4.09359346164666E-02 
2432	 4.08700600385235E-02 
2433	 4.08835987659417E-02 
2434	 4.09792078112882E-02 
2435	 4.09443543397452E-02 
2436	 4.08544840288686E-02 
2437	 4.08996747577105E-02 
2438	 4.08586544479887E-02 
2439	 4.07802563231432E-02 
2440	 0.040879079920755 
2441	 4.08789329562731E-02 
2442	 4.08229339704611E-02 
2443	 4.07881359882719E-02 
2444	 4.06916301850425E-02 
2445	 4.07063754302554E-02 
2446	 0.040802281462654 
2447	 4.08988166549578E-02 
2448	 0.040906419431814 
2449	 4.08100753116687E-02 
2450	 4.07709183918979E-02 
2451	 0.040850454604581 
2452	 4.09765850857937E-02 
2453	 4.10256444674183E-02 
2454	 4.10416959449586E-02 
2455	 0.040910004368549 
2456	 0.040782940032917 
2457	 4.09561351392044E-02 
2458	 4.09997054908998E-02 
2459	 0.040944177851191 
2460	 4.09278748727177E-02 
2461	 4.08105649059597E-02 
2462	 4.07934185075051E-02 
2463	 4.07025495264014E-02 
2464	 0.040594863947937 
2465	 4.05619318142039E-02 
2466	 0.040457554287132 
2467	 4.05389602991681E-02 
2468	 4.07404466652371E-02 
2469	 4.07663825363051E-02 
2470	 0.040650256216329 
2471	 4.05740199319671E-02 
2472	 4.06427034653324E-02 
2473	 4.07789284616065E-02 
2474	 4.08804915540184E-02 
2475	 4.09658731797584E-02 
2476	 4.09229807926307E-02 
2477	 4.07373420341993E-02 
2478	 4.07461287225602E-02 
2479	 4.08301151698447E-02 
2480	 4.08743772897501E-02 
2481	 4.08366588609746E-02 
2482	 0.040727538482507 
2483	 4.06480273505932E-02 
2484	 4.04709298923042E-02 
2485	 4.05447964163556E-02 
2486	 4.05330497300478E-02 
2487	 4.04058065612133E-02 
2488	 4.05964738302071E-02 
2489	 4.05855720327982E-02 
2490	 4.05307441219582E-02 
2491	 4.06204032567089E-02 
2492	 4.05432547853265E-02 
2493	 4.05187747685522E-02 
2494	 4.06891343977222E-02 
2495	 0.040689014327418 
2496	 4.05553470080923E-02 
2497	 4.06196675538611E-02 
2498	 4.04572723033087E-02 
2499	 4.02594765791871E-02 
2500	 4.02607290227001E-02 
