Wavelength	spectrum00005.asd
350	 1.82563415262051E-02 
351	 1.90927599674145E-02 
352	 1.88100610632431E-02 
353	 0.016898984021339 
354	 1.77997350617503E-02 
355	 1.86886633534044E-02 
356	 1.82764922932778E-02 
357	 1.64635006514875E-02 
358	 1.53138791042355E-02 
359	 1.47009128463375E-02 
360	 1.49126739238905E-02 
361	 1.60585011750742E-02 
362	 1.53364978906343E-02 
363	 1.51335561229897E-02 
364	 1.55627214830707E-02 
365	 1.31076491130059E-02 
366	 1.40334324599018E-02 
367	 1.55918418577388E-02 
368	 1.47091115011693E-02 
369	 1.46064237485591E-02 
370	 1.48484922391874E-02 
371	 1.52739177060559E-02 
372	 1.57517367464948E-02 
373	 0.015096296340905 
374	 1.51095225157015E-02 
375	 1.60604757952998E-02 
376	 1.56241989533906E-02 
377	 1.54260045967469E-02 
378	 1.53520304741135E-02 
379	 1.51005913754076E-02 
380	 1.53214848192288E-02 
381	 1.54548375493668E-02 
382	 1.51893730711147E-02 
383	 1.45167046181201E-02 
384	 1.44021361838932E-02 
385	 1.49209592155101E-02 
386	 1.55243425626859E-02 
387	 1.49400259193807E-02 
388	 1.41705779419715E-02 
389	 1.39092514181275E-02 
390	 1.43278213229612E-02 
391	 1.41592184306223E-02 
392	 1.37273653474952E-02 
393	 1.38613255721752E-02 
394	 1.53420537489884E-02 
395	 1.51939693935646E-02 
396	 1.48194098099889E-02 
397	 1.50419122075701E-02 
398	 1.47669632003786E-02 
399	 1.44157098339722E-02 
400	 1.41882160902425E-02 
401	 1.41310980608555E-02 
402	 1.38242858932311E-02 
403	 1.41924188494585E-02 
404	 1.47660978800789E-02 
405	 1.42002459078513E-02 
406	 1.43413251522488E-02 
407	 1.45528065986671E-02 
408	 1.43844980649313E-02 
409	 1.44573787485462E-02 
410	 1.44863087775901E-02 
411	 1.45343784582055E-02 
412	 1.47240020074616E-02 
413	 1.49950981911008E-02 
414	 1.48034186070438E-02 
415	 1.44522057556858E-02 
416	 1.49366187608384E-02 
417	 1.52047040728706E-02 
418	 1.53281828976714E-02 
419	 1.55075294017876E-02 
420	 1.57654636838629E-02 
421	 1.59022515946748E-02 
422	 1.61045565136902E-02 
423	 1.66042630542393E-02 
424	 1.68315632320648E-02 
425	 1.70184003606422E-02 
426	 1.72868774729951E-02 
427	 1.75587191274808E-02 
428	 1.77522511553805E-02 
429	 1.81077294666271E-02 
430	 1.87185845962881E-02 
431	 1.90180970053264E-02 
432	 1.94399485161679E-02 
433	 1.99495932993198E-02 
434	 2.03030830895259E-02 
435	 2.09506124567011E-02 
436	 2.16991358189689E-02 
437	 2.23216028844938E-02 
438	 2.26196589127436E-02 
439	 2.34263412470454E-02 
440	 2.43293855052731E-02 
441	 2.48103142086701E-02 
442	 2.55707391809971E-02 
443	 2.63706474087089E-02 
444	 2.71812589742775E-02 
445	 2.81460404165453E-02 
446	 2.89838975812669E-02 
447	 2.98355102427622E-02 
448	 3.08223959366833E-02 
449	 3.18872365192025E-02 
450	 0.032865579416528 
451	 3.38104907814441E-02 
452	 3.48504611832541E-02 
453	 3.59526445276673E-02 
454	 3.71434055519966E-02 
455	 3.83574070081625E-02 
456	 3.94401140704174E-02 
457	 0.040784416423128 
458	 4.21138383434166E-02 
459	 4.32159453475163E-02 
460	 4.45234765386658E-02 
461	 0.045862141370437 
462	 4.71957240595377E-02 
463	 4.85685959119473E-02 
464	 5.00239575251629E-02 
465	 5.15301020657245E-02 
466	 5.30344500904523E-02 
467	 5.44670666445923E-02 
468	 5.59409114678641E-02 
469	 5.73721981001843E-02 
470	 5.87405098892105E-02 
471	 6.05543163878447E-02 
472	 6.21323835112263E-02 
473	 6.34998006427934E-02 
474	 0.065228779104398 
475	 6.67748045506261E-02 
476	 6.83704074658095E-02 
477	 7.01382367483746E-02 
478	 7.16716487456073E-02 
479	 7.32980671046541E-02 
480	 7.49945405024358E-02 
481	 0.076619342012308 
482	 7.81863108951419E-02 
483	 7.98091753169572E-02 
484	 8.15014506881236E-02 
485	 8.31518445530814E-02 
486	 8.48927091773596E-02 
487	 8.65888406829039E-02 
488	 8.81517263914506E-02 
489	 8.98273833941867E-02 
490	 9.14949642515196E-02 
491	 9.31447665787975E-02 
492	 9.48201699017973E-02 
493	 9.63832870612335E-02 
494	 9.79531232481773E-02 
495	 9.95874066906439E-02 
496	 0.101198333328743 
497	 0.102654570842797 
498	 0.104116201767017 
499	 0.105740751263563 
500	 0.107232801328965 
501	 0.108692173480402 
502	 0.110117484299583 
503	 0.111421660844823 
504	 0.112909411255918 
505	 0.114375348652532 
506	 0.115670545295595 
507	 0.117010426018564 
508	 0.118308291673196 
509	 0.119547651414163 
510	 0.120745737883738 
511	 0.121948526238754 
512	 0.12309939820205 
513	 0.124191570985916 
514	 0.125298154099478 
515	 0.126340032877383 
516	 0.127315715624602 
517	 0.128235998834118 
518	 0.129072908417758 
519	 0.129893895360146 
520	 0.130720130227779 
521	 0.131529576408691 
522	 0.132223671274872 
523	 0.132838915812076 
524	 0.133412405729644 
525	 0.13394218564559 
526	 0.134405406214794 
527	 0.134820288146979 
528	 0.135203516383599 
529	 0.135473161253517 
530	 0.135695813946291 
531	 0.135884601765145 
532	 0.135987042168173 
533	 0.136042186461555 
534	 0.136013787209105 
535	 0.135877538862165 
536	 0.135681437423062 
537	 0.135457540458298 
538	 0.135203347714696 
539	 0.13489281317337 
540	 0.134498356807735 
541	 0.134042857977841 
542	 0.133535837074018 
543	 0.132955995547518 
544	 0.132306181775714 
545	 0.131593467662401 
546	 0.130830692486756 
547	 0.130030800392818 
548	 0.1292690471644 
549	 0.128524420379595 
550	 0.127690042572784 
551	 0.126740074765554 
552	 0.125763070737338 
553	 0.124807572299796 
554	 0.123764251606866 
555	 0.122702263610462 
556	 0.121616762609473 
557	 0.120481918961997 
558	 0.119373780134825 
559	 0.118258373129286 
560	 0.117111708369717 
561	 0.11593847128058 
562	 0.114690038422279 
563	 0.113411823141327 
564	 0.112162344958426 
565	 0.110947510649307 
566	 0.109689869641502 
567	 0.108407268019721 
568	 0.107188091175809 
569	 0.106009342964094 
570	 0.104896574560952 
571	 0.103828230306641 
572	 0.102669875339806 
573	 0.101512939057174 
574	 0.100366458868509 
575	 9.92159062321938E-02 
576	 9.81046464828576E-02 
577	 0.096945505164644 
578	 9.57225769889661E-02 
579	 9.45127206564081E-02 
580	 9.33680279452875E-02 
581	 9.22477455041019E-02 
582	 9.11143650260396E-02 
583	 9.00272856358317E-02 
584	 8.89666718241473E-02 
585	 8.78983031905127E-02 
586	 8.67884267534515E-02 
587	 8.57069288225464E-02 
588	 8.46218732499431E-02 
589	 8.35213185017696E-02 
590	 8.24438944297137E-02 
591	 8.14103686474856E-02 
592	 8.04197074677622E-02 
593	 7.94621926895095E-02 
594	 7.85332432366597E-02 
595	 7.76186219483451E-02 
596	 7.67104956083699E-02 
597	 7.58097485088959E-02 
598	 0.074894243922204 
599	 7.40091604142119E-02 
600	 0.073158192635711 
601	 7.22169987611192E-02 
602	 7.13113200342654E-02 
603	 7.04485857798784E-02 
604	 6.95971729034676E-02 
605	 6.88304986095415E-02 
606	 6.80546389757477E-02 
607	 6.72531242896986E-02 
608	 6.65227342727894E-02 
609	 6.57797307887872E-02 
610	 6.50449162036514E-02 
611	 6.43499212030446E-02 
612	 6.36857057298658E-02 
613	 6.30144961039563E-02 
614	 6.23333827399747E-02 
615	 6.16639109082845E-02 
616	 6.10210764341148E-02 
617	 6.04122438213562E-02 
618	 5.98349781123963E-02 
619	 5.92759973499252E-02 
620	 5.86718895129809E-02 
621	 0.058088156492794 
622	 5.75935520869712E-02 
623	 5.70418465091045E-02 
624	 5.65241660290393E-02 
625	 5.60461649928784E-02 
626	 5.55293571274106E-02 
627	 5.50516481440151E-02 
628	 5.45946278630562E-02 
629	 5.41363500581492E-02 
630	 5.36938691807137E-02 
631	 5.32496159783636E-02 
632	 5.28164685023025E-02 
633	 5.24162730196746E-02 
634	 5.20277676260525E-02 
635	 5.16381119102129E-02 
636	 0.051254999464979 
637	 5.09110657995211E-02 
638	 5.05511164549258E-02 
639	 0.050179782504338 
640	 4.98188291904842E-02 
641	 4.94923604263874E-02 
642	 0.049170839457539 
643	 4.88579192388509E-02 
644	 4.85735903736577E-02 
645	 4.82898823426769E-02 
646	 4.80181346177261E-02 
647	 4.77579114182659E-02 
648	 4.74790760658091E-02 
649	 4.72451181789354E-02 
650	 4.70084416570692E-02 
651	 4.67220626468324E-02 
652	 4.64946100768164E-02 
653	 4.62667925014517E-02 
654	 4.60234093027034E-02 
655	 4.57922706345353E-02 
656	 4.56242717180644E-02 
657	 4.54537685066578E-02 
658	 0.045244917106888 
659	 4.50630400536853E-02 
660	 4.49009906836021E-02 
661	 4.47365217740979E-02 
662	 4.45524521702774E-02 
663	 4.44029596307235E-02 
664	 4.42580307067399E-02 
665	 4.41077323877538E-02 
666	 4.39672702748586E-02 
667	 4.38265388179519E-02 
668	 4.36986374013828E-02 
669	 4.35874262669436E-02 
670	 4.34601725672036E-02 
671	 4.33461235011046E-02 
672	 4.32403124162797E-02 
673	 4.31308581334711E-02 
674	 4.30760190022681E-02 
675	 4.30016353962832E-02 
676	 4.28912197559926E-02 
677	 4.28097791825072E-02 
678	 4.27396692001134E-02 
679	 0.042666047716572 
680	 4.25861777622542E-02 
681	 0.042534960957664 
682	 4.24880580472126E-02 
683	 4.24374246193097E-02 
684	 4.23857092463496E-02 
685	 4.23404219243949E-02 
686	 4.23136899839354E-02 
687	 4.22979742755601E-02 
688	 4.22588617751085E-02 
689	 4.22109971942416E-02 
690	 4.21770065383848E-02 
691	 0.042171332426425 
692	 4.21746174119536E-02 
693	 4.21757768518806E-02 
694	 4.21694011767368E-02 
695	 4.21565726580609E-02 
696	 4.21551585834722E-02 
697	 4.21601015257775E-02 
698	 4.21664225133916E-02 
699	 4.21736631457144E-02 
700	 4.21978847176553E-02 
701	 4.22329772911842E-02 
702	 4.22678232975586E-02 
703	 4.22992621421612E-02 
704	 4.23438027555161E-02 
705	 4.23825064387158E-02 
706	 4.23822525848372E-02 
707	 4.24308496020245E-02 
708	 4.24891057258753E-02 
709	 4.25344380480732E-02 
710	 4.26011317829697E-02 
711	 4.26718730461239E-02 
712	 4.27368930837979E-02 
713	 4.27937478701127E-02 
714	 4.28590894265827E-02 
715	 0.042932342079615 
716	 4.30041536454368E-02 
717	 4.30644580120503E-02 
718	 4.31681753074655E-02 
719	 4.32629349132243E-02 
720	 4.33271671542768E-02 
721	 4.34150968967069E-02 
722	 4.35215492286825E-02 
723	 4.36242088759364E-02 
724	 4.37081547295858E-02 
725	 4.38142843443033E-02 
726	 4.39267197546543E-02 
727	 4.40398316314213E-02 
728	 0.044155552180945 
729	 4.42637502723306E-02 
730	 4.43826628011356E-02 
731	 4.45188758146659E-02 
732	 4.46552020053183E-02 
733	 4.47748684578418E-02 
734	 4.48976191431852E-02 
735	 4.50425720452598E-02 
736	 4.51807471917342E-02 
737	 4.53221757477623E-02 
738	 4.54665632286094E-02 
739	 4.56092097491595E-02 
740	 4.57785301510242E-02 
741	 4.59279295501078E-02 
742	 0.046051083132253 
743	 4.62143311106491E-02 
744	 4.63790648112086E-02 
745	 4.65513697648185E-02 
746	 4.67379999123185E-02 
747	 0.046909796001359 
748	 4.70757961408623E-02 
749	 4.72492097188821E-02 
750	 4.74398891210614E-02 
751	 4.76120695124958E-02 
752	 4.77903060051157E-02 
753	 4.79857546916223E-02 
754	 4.81840076365947E-02 
755	 4.83651987484313E-02 
756	 4.85641569954485E-02 
757	 4.87943789478618E-02 
758	 4.89665152735888E-02 
759	 4.91572876622658E-02 
760	 4.93730240538944E-02 
761	 4.95886346753977E-02 
762	 4.98143301134526E-02 
763	 5.00323046973489E-02 
764	 5.02450344718675E-02 
765	 5.04771951269608E-02 
766	 5.06970645479634E-02 
767	 5.09180731495627E-02 
768	 5.11535377632059E-02 
769	 5.13972221321709E-02 
770	 5.16350187543125E-02 
771	 5.18722010123245E-02 
772	 5.21189444328399E-02 
773	 5.23687048649945E-02 
774	 5.26175931281085E-02 
775	 5.28673471673749E-02 
776	 5.31238238177147E-02 
777	 5.33795478231395E-02 
778	 0.053647983889739 
779	 5.39237638372037E-02 
780	 5.41639323937557E-02 
781	 5.44326419327575E-02 
782	 5.47086342920261E-02 
783	 5.49673577964887E-02 
784	 5.52649926815436E-02 
785	 5.55540785678859E-02 
786	 5.58334468947622E-02 
787	 5.61257821178139E-02 
788	 5.64129752342526E-02 
789	 0.056691763597203 
790	 5.69763972285421E-02 
791	 5.72969830622283E-02 
792	 5.75897853267001E-02 
793	 5.78787781371295E-02 
794	 5.81881743095171E-02 
795	 0.05849443103112 
796	 5.88275441448748E-02 
797	 0.059154341551226 
798	 5.94355681592917E-02 
799	 5.97183140770376E-02 
800	 0.060030879948833 
801	 6.03630845995533E-02 
802	 6.06791277914243E-02 
803	 6.10066976497338E-02 
804	 6.13313916728468E-02 
805	 6.16519800873598E-02 
806	 6.19936752266283E-02 
807	 6.23360179060404E-02 
808	 6.26682333489281E-02 
809	 6.29886435744809E-02 
810	 6.33102051497509E-02 
811	 6.36598872602341E-02 
812	 6.40125082599867E-02 
813	 6.43353476720158E-02 
814	 6.46995066821257E-02 
815	 6.50772024838963E-02 
816	 0.06543275135131 
817	 6.57403901204086E-02 
818	 6.61067020838949E-02 
819	 6.64785187873114E-02 
820	 6.68249574689139E-02 
821	 6.71926520523828E-02 
822	 6.75629887219679E-02 
823	 6.79181598320491E-02 
824	 6.82605450068524E-02 
825	 6.86560398333543E-02 
826	 6.90329278776591E-02 
827	 6.93930487782133E-02 
828	 6.97699979401895E-02 
829	 7.01658095326084E-02 
830	 7.05399778873293E-02 
831	 7.09059920362991E-02 
832	 7.13177334438451E-02 
833	 7.17040659847616E-02 
834	 7.20680450281311E-02 
835	 7.24396280980225E-02 
836	 7.28705562320351E-02 
837	 7.32729364255439E-02 
838	 7.36551019839005E-02 
839	 7.40419492599136E-02 
840	 7.44303337337415E-02 
841	 7.48355554401886E-02 
842	 7.52395643061676E-02 
843	 7.56230114002628E-02 
844	 7.60281262352062E-02 
845	 7.64498866675061E-02 
846	 7.68766847895446E-02 
847	 7.72919914882061E-02 
848	 7.76654251285416E-02 
849	 7.80645696893354E-02 
850	 7.85048971986106E-02 
851	 0.078922604000429 
852	 7.93159498560123E-02 
853	 7.97117269667318E-02 
854	 8.01330363918489E-02 
855	 8.05817752361185E-02 
856	 8.10001221299415E-02 
857	 8.13970886555845E-02 
858	 8.18052272109021E-02 
859	 8.22558457913661E-02 
860	 8.26736521440681E-02 
861	 8.30843646019546E-02 
862	 8.35505517446131E-02 
863	 8.40142666984363E-02 
864	 8.44618450566761E-02 
865	 8.48952460609017E-02 
866	 8.53265042603992E-02 
867	 8.57246965709973E-02 
868	 0.086167751330126 
869	 8.66587057098532E-02 
870	 8.70848080407693E-02 
871	 8.75298281105445E-02 
872	 8.79710434202043E-02 
873	 8.83977500933284E-02 
874	 0.088875678707218 
875	 0.089351102899648 
876	 8.98151581702987E-02 
877	 0.090275700863129 
878	 9.07428540484054E-02 
879	 9.12134846423559E-02 
880	 0.091680609510099 
881	 9.21391744679292E-02 
882	 9.26067846471522E-02 
883	 9.30671452189132E-02 
884	 9.35220459610339E-02 
885	 9.39905648717397E-02 
886	 9.44969908267134E-02 
887	 0.094993378202484 
888	 9.54672164656698E-02 
889	 9.59542737987412E-02 
890	 9.64381591378496E-02 
891	 9.69336150635518E-02 
892	 9.74267017081859E-02 
893	 0.09784889477694 
894	 9.83578783309319E-02 
895	 0.098900098069478 
896	 9.94066282766671E-02 
897	 9.99229574609199E-02 
898	 0.100401757867763 
899	 0.100875127988121 
900	 0.101380892129634 
901	 0.101862289041973 
902	 0.102392630561995 
903	 0.102945615785176 
904	 0.103455210973631 
905	 0.103937128318543 
906	 0.104465625454788 
907	 0.105034856236157 
908	 0.105578862333056 
909	 0.106075640492181 
910	 0.106588699343005 
911	 0.10713458409543 
912	 0.107675870062778 
913	 0.108242117352591 
914	 0.108813154991044 
915	 0.109374178809707 
916	 0.109929622596635 
917	 0.11048961234313 
918	 0.111058483052499 
919	 0.111641146119592 
920	 0.112247367948835 
921	 0.112813217173717 
922	 0.113373424827771 
923	 0.11397658899764 
924	 0.114640528201203 
925	 0.115246610096285 
926	 0.115825427755446 
927	 0.11644164498522 
928	 0.117091805188693 
929	 0.117698216274833 
930	 0.118310257853367 
931	 0.118989658651558 
932	 0.119598751271296 
933	 0.120236927825782 
934	 0.120911806105346 
935	 0.121580502203142 
936	 0.122241520580132 
937	 0.122964160633934 
938	 0.123692717171405 
939	 0.124319181565862 
940	 0.125012169925946 
941	 0.125713119646493 
942	 0.126391972893795 
943	 0.127068691567737 
944	 0.127812870215924 
945	 0.128531213430623 
946	 0.129200481793552 
947	 0.129889284610685 
948	 0.130600794735767 
949	 0.131274700901494 
950	 0.131925770654792 
951	 0.132659999964829 
952	 0.133315696494497 
953	 0.13397790068348 
954	 0.134704417348398 
955	 0.135443922961645 
956	 0.136071682288056 
957	 0.136753235271693 
958	 0.137543171790727 
959	 0.138208970476979 
960	 0.138808979426055 
961	 0.139458620103356 
962	 0.140213597848202 
963	 0.140982264198317 
964	 0.141649578359016 
965	 0.142275141852748 
966	 0.142952473065734 
967	 0.143728093215974 
968	 0.144454448116255 
969	 0.145210883380517 
970	 0.146041325044262 
971	 0.146732886599222 
972	 0.147442828688308 
973	 0.148162714052973 
974	 0.148850402757347 
975	 0.149510133566661 
976	 0.15022829494478 
977	 0.15100281161837 
978	 0.151794711589342 
979	 0.152555770022455 
980	 0.153388003555381 
981	 0.154194254401116 
982	 0.154877333090206 
983	 0.155549972838183 
984	 0.156373824368927 
985	 0.157212421106972 
986	 0.157922439366142 
987	 0.158724934078628 
988	 0.159525885039791 
989	 0.160278172430773 
990	 0.160992972480777 
991	 0.161823651598185 
992	 0.162537294724624 
993	 0.16324486769157 
994	 0.164102151389795 
995	 0.164968962138915 
996	 0.165771900801642 
997	 0.166487637576759 
998	 0.167177841159293 
999	 0.168080295830538 
1000	 0.168964461229487 
1001	 0.170257086926179 
1002	 0.171050188456174 
1003	 0.171869741678999 
1004	 0.172644612688128 
1005	 0.173366801089938 
1006	 0.174141509367819 
1007	 0.174920866217182 
1008	 0.175715829170991 
1009	 0.176527717971918 
1010	 0.177338824035082 
1011	 0.178177491345469 
1012	 0.178977780797069 
1013	 0.179770689973487 
1014	 0.180560839775599 
1015	 0.181319766348612 
1016	 0.182075085725651 
1017	 0.182912117378994 
1018	 0.183681877416577 
1019	 0.184488589569565 
1020	 0.185353099447555 
1021	 0.186151341980094 
1022	 0.186927482773446 
1023	 0.187709481726436 
1024	 0.188430751767664 
1025	 0.189230574879097 
1026	 0.190086600720881 
1027	 0.190903248683706 
1028	 0.19174898195926 
1029	 0.192583734580014 
1030	 0.193328277527641 
1031	 0.194095652614171 
1032	 0.194862985638725 
1033	 0.195663645923679 
1034	 0.196536789022676 
1035	 0.197371242184203 
1036	 0.198218736135828 
1037	 0.19910683045941 
1038	 0.199941620581717 
1039	 0.200747259024801 
1040	 0.201578118008133 
1041	 0.20236870305214 
1042	 0.203215463384448 
1043	 0.20410559036593 
1044	 0.204975652649629 
1045	 0.205885408158528 
1046	 0.206790364290194 
1047	 0.207608134100666 
1048	 0.208467109056607 
1049	 0.209321289533634 
1050	 0.210155412100784 
1051	 0.211076284673607 
1052	 0.211972870107652 
1053	 0.212859105993396 
1054	 0.213763466769585 
1055	 0.214637963408139 
1056	 0.215481056793596 
1057	 0.216338681680067 
1058	 0.217190333125163 
1059	 0.218017982530266 
1060	 0.218890195682048 
1061	 0.21970570811228 
1062	 0.22054976837122 
1063	 0.221432923474405 
1064	 0.222210300829353 
1065	 0.223024389229029 
1066	 0.223839856676376 
1067	 0.224616299513553 
1068	 0.225487997432245 
1069	 0.226335756476536 
1070	 0.227167845534964 
1071	 0.22799432368889 
1072	 0.228825471834802 
1073	 0.229591866012544 
1074	 0.230370640841955 
1075	 0.231131557572158 
1076	 0.231911303076851 
1077	 0.232750862854802 
1078	 0.233529424652809 
1079	 0.234338623956933 
1080	 0.235151705612856 
1081	 0.235859410982182 
1082	 0.236616168741096 
1083	 0.237400219777949 
1084	 0.238141171665578 
1085	 0.238914659983732 
1086	 0.239678074171656 
1087	 0.240446814213211 
1088	 0.24119306169344 
1089	 0.241940614373133 
1090	 0.242677013900142 
1091	 0.243427936267057 
1092	 0.244151761591729 
1093	 0.244883952637728 
1094	 0.245647695984727 
1095	 0.246359285493616 
1096	 0.247120027979536 
1097	 0.247888023009606 
1098	 0.248589815311001 
1099	 0.249338396149439 
1100	 0.250055731959144 
1101	 0.250744356789921 
1102	 0.251507501552988 
1103	 0.252237237355173 
1104	 0.252956233897339 
1105	 0.253668008629085 
1106	 0.254409611870662 
1107	 0.255095174432599 
1108	 0.25578933115414 
1109	 0.256484623022467 
1110	 0.257147128029278 
1111	 0.257839573463024 
1112	 0.2585184184894 
1113	 0.259225569821902 
1114	 0.259952613524873 
1115	 0.260599130059406 
1116	 0.261250608533513 
1117	 0.261901657557648 
1118	 0.262552318349513 
1119	 0.263219250103964 
1120	 0.263868402288646 
1121	 0.264510525638375 
1122	 0.265138213130667 
1123	 0.265768848738097 
1124	 0.266348910252329 
1125	 0.266953592434079 
1126	 0.267527608089942 
1127	 0.268048681820054 
1128	 0.268603018010703 
1129	 0.269126055189176 
1130	 0.269623097806684 
1131	 0.270131399074925 
1132	 0.270580901562535 
1133	 0.270999693771281 
1134	 0.27141520151002 
1135	 0.271792751552967 
1136	 0.272138536889429 
1137	 0.272464547399205 
1138	 0.272746201605967 
1139	 0.273043635002976 
1140	 0.273340627575442 
1141	 0.273612317609186 
1142	 0.273875879015827 
1143	 0.27412165249332 
1144	 0.274318969989018 
1145	 0.274495384813544 
1146	 0.274652978876811 
1147	 0.274797560323037 
1148	 0.274941826464882 
1149	 0.275074590283138 
1150	 0.27520938868671 
1151	 0.275335762279713 
1152	 0.275430600511866 
1153	 0.275497749562055 
1154	 0.275556330711733 
1155	 0.27560526483893 
1156	 0.275617232640487 
1157	 0.275613923674548 
1158	 0.275583507366475 
1159	 0.275519417236404 
1160	 0.275427437880785 
1161	 0.27533526492571 
1162	 0.275229929549011 
1163	 0.275126134971853 
1164	 0.275016101899981 
1165	 0.274887556780777 
1166	 0.274761377374155 
1167	 0.274627545593608 
1168	 0.274497681835365 
1169	 0.27436139087658 
1170	 0.27423228703468 
1171	 0.274083416856758 
1172	 0.273922687641601 
1173	 0.273751342667112 
1174	 0.273576961417136 
1175	 0.273383636055171 
1176	 0.273175908623327 
1177	 0.272957894837507 
1178	 0.272726231116088 
1179	 0.272477957930027 
1180	 0.272223721262405 
1181	 0.271954553884741 
1182	 0.271687196589692 
1183	 0.27143768730079 
1184	 0.271228753936392 
1185	 0.271052342797381 
1186	 0.270913169422136 
1187	 0.270816078123708 
1188	 0.270748714231123 
1189	 0.270698301098484 
1190	 0.27071413282046 
1191	 0.270789932878422 
1192	 0.270871969939143 
1193	 0.271002719439089 
1194	 0.271143241192142 
1195	 0.271288714215601 
1196	 0.271474803861589 
1197	 0.271704729766763 
1198	 0.271938888577695 
1199	 0.272190240942765 
1200	 0.272444486314337 
1201	 0.272699577162287 
1202	 0.272976711018029 
1203	 0.27328264237229 
1204	 0.273632679873789 
1205	 0.274024242890298 
1206	 0.274436617185766 
1207	 0.274940715353327 
1208	 0.275488656139906 
1209	 0.276119669735383 
1210	 0.276810234974349 
1211	 0.277606978301111 
1212	 0.278489512127236 
1213	 0.279461746622193 
1214	 0.280524973517343 
1215	 0.28168848117099 
1216	 0.282972315317867 
1217	 0.284272641731552 
1218	 0.285656106493249 
1219	 0.287106938188516 
1220	 0.288537606570115 
1221	 0.290081507270665 
1222	 0.291583315764502 
1223	 0.293094605488222 
1224	 0.294583871026208 
1225	 0.296064308992095 
1226	 0.297477336640197 
1227	 0.298883223177633 
1228	 0.300227239245924 
1229	 0.301519668844105 
1230	 0.302761081435193 
1231	 0.303965295579647 
1232	 0.305117544545924 
1233	 0.306197639892586 
1234	 0.307234752685157 
1235	 0.308221153809258 
1236	 0.30918448229242 
1237	 0.310108287684941 
1238	 0.310990109673986 
1239	 0.311830641948472 
1240	 0.312651061206381 
1241	 0.31345107392625 
1242	 0.314168821679481 
1243	 0.31488937928088 
1244	 0.31559699390787 
1245	 0.316269314675604 
1246	 0.316914640851467 
1247	 0.317520633697572 
1248	 0.318088517880188 
1249	 0.318648844285699 
1250	 0.319164725867887 
1251	 0.31968155838135 
1252	 0.320195693697532 
1253	 0.320697225772562 
1254	 0.321186653756155 
1255	 0.321660517975019 
1256	 0.322128451007266 
1257	 0.322575792786282 
1258	 0.322987406205397 
1259	 0.323407479102885 
1260	 0.323804078851088 
1261	 0.324225070719061 
1262	 0.32465088983921 
1263	 0.32510336514509 
1264	 0.325541248256145 
1265	 0.325990354943017 
1266	 0.326437679393353 
1267	 0.32687574850142 
1268	 0.327323056763901 
1269	 0.327786161301308 
1270	 0.328235243609592 
1271	 0.3286818593305 
1272	 0.329119712523384 
1273	 0.32954912290848 
1274	 0.329978748021997 
1275	 0.330409098119609 
1276	 0.330819814759245 
1277	 0.33122633643362 
1278	 0.331616444928861 
1279	 0.331994404416062 
1280	 0.332348711481973 
1281	 0.332668115761771 
1282	 0.333001302812069 
1283	 0.33332599131145 
1284	 0.333639079951167 
1285	 0.333948327139989 
1286	 0.334272094236592 
1287	 0.334558826497439 
1288	 0.33482044307249 
1289	 0.335074333968453 
1290	 0.33530877266058 
1291	 0.335549239363714 
1292	 0.335781743623717 
1293	 0.336004460007276 
1294	 0.336231416795217 
1295	 0.336435680402876 
1296	 0.336618578565238 
1297	 0.336798619571493 
1298	 0.336969721746791 
1299	 0.337131800444745 
1300	 0.337274905749794 
1301	 0.337428501246434 
1302	 0.337587209681446 
1303	 0.337731495929035 
1304	 0.337871740856837 
1305	 0.338010765972168 
1306	 0.338132767569589 
1307	 0.338261415918127 
1308	 0.338390130537098 
1309	 0.33853582268447 
1310	 0.338655070464145 
1311	 0.338761662464913 
1312	 0.338880699573991 
1313	 0.338986999401024 
1314	 0.339115757117563 
1315	 0.339263690120438 
1316	 0.339401776794333 
1317	 0.339550438056652 
1318	 0.339680562118569 
1319	 0.339800205838559 
1320	 0.339923204400484 
1321	 0.340043902142809 
1322	 0.340153552312666 
1323	 0.340267393604265 
1324	 0.340362727191366 
1325	 0.340443956682392 
1326	 0.340513750668329 
1327	 0.340572037351628 
1328	 0.340621487638899 
1329	 0.340659641131071 
1330	 0.340687218328969 
1331	 0.340717964278646 
1332	 0.340719531901992 
1333	 0.340708243760162 
1334	 0.340669087794025 
1335	 0.340609837645822 
1336	 0.340526879787257 
1337	 0.340424615204757 
1338	 0.340310970307202 
1339	 0.340151716052497 
1340	 0.339972631081261 
1341	 0.339741223250309 
1342	 0.339468922904459 
1343	 0.33915970497393 
1344	 0.338805854120229 
1345	 0.338429371321543 
1346	 0.338028453868938 
1347	 0.337580929034955 
1348	 0.337090321288075 
1349	 0.336583425146873 
1350	 0.336015993338024 
1351	 0.335469858433951 
1352	 0.334921928318103 
1353	 0.334361802715218 
1354	 0.333788977459929 
1355	 0.333223379189903 
1356	 0.332646015896978 
1357	 0.332078048595403 
1358	 0.331515079418951 
1359	 0.330957963969195 
1360	 0.33042407963427 
1361	 0.329866794457825 
1362	 0.329277664327335 
1363	 0.328716280658287 
1364	 0.328100444805513 
1365	 0.327461030576208 
1366	 0.326773260726837 
1367	 0.326062456731218 
1368	 0.325301832624434 
1369	 0.324493687608848 
1370	 0.323648316884453 
1371	 0.322752270204367 
1372	 0.321862666963258 
1373	 0.320930275082913 
1374	 0.320010497660522 
1375	 0.319093404086353 
1376	 0.318155475121383 
1377	 0.317198513024993 
1378	 0.3162300217238 
1379	 0.315238600802966 
1380	 0.314258733499537 
1381	 0.313277213995827 
1382	 0.312284885990892 
1383	 0.31127172961763 
1384	 0.310292526489829 
1385	 0.309296211099276 
1386	 0.30835359939128 
1387	 0.307429215981256 
1388	 0.306582097730802 
1389	 0.305772279205771 
1390	 0.305030247042666 
1391	 0.304393174166581 
1392	 0.30375162172158 
1393	 0.303187355996263 
1394	 0.302637274291006 
1395	 0.302031944020532 
1396	 0.301463358998053 
1397	 0.300757626881156 
1398	 0.300019709060821 
1399	 0.299116295052103 
1400	 0.298118880880412 
1401	 0.296984144719576 
1402	 0.295720080315329 
1403	 0.294332726837352 
1404	 0.292804118467095 
1405	 0.291224156544288 
1406	 0.289490419533286 
1407	 0.28777944860738 
1408	 0.285942983728203 
1409	 0.284243001544925 
1410	 0.282478483618789 
1411	 0.280931500152841 
1412	 0.279477435909411 
1413	 0.2782125819142 
1414	 0.277130854969692 
1415	 0.276139679142828 
1416	 0.275340358380277 
1417	 0.274560226754878 
1418	 0.273909311497276 
1419	 0.273233946781038 
1420	 0.272604317783844 
1421	 0.271978554648699 
1422	 0.271350221753295 
1423	 0.270740050930993 
1424	 0.270161031959357 
1425	 0.269561860254984 
1426	 0.269007891173831 
1427	 0.268474058121592 
1428	 0.267968539820956 
1429	 0.267536994025766 
1430	 0.267131544022563 
1431	 0.2667599491345 
1432	 0.266437212494046 
1433	 0.266154149368557 
1434	 0.265928827248564 
1435	 0.26575264903188 
1436	 0.265616780643595 
1437	 0.265537601381047 
1438	 0.265489062424538 
1439	 0.265478635543225 
1440	 0.265504076341812 
1441	 0.265574904466476 
1442	 0.265670552299285 
1443	 0.265794585828445 
1444	 0.265957916580371 
1445	 0.266167754880763 
1446	 0.266385365812544 
1447	 0.266639072190747 
1448	 0.266898034772822 
1449	 0.267173163134683 
1450	 0.267456301273861 
1451	 0.267752211102533 
1452	 0.268063475597235 
1453	 0.268387836473041 
1454	 0.268718226793545 
1455	 0.269063696570136 
1456	 0.269415896160899 
1457	 0.269777291440907 
1458	 0.270142600989362 
1459	 0.270508716569078 
1460	 0.27089657034484 
1461	 0.271292677392286 
1462	 0.271700751605248 
1463	 0.272127154021077 
1464	 0.272567993162442 
1465	 0.273015534102106 
1466	 0.273493049463892 
1467	 0.273946371754371 
1468	 0.274422457447301 
1469	 0.274912801370381 
1470	 0.275367567216117 
1471	 0.275834716019136 
1472	 0.27631877479562 
1473	 0.27677974718079 
1474	 0.277224055769604 
1475	 0.277666179922741 
1476	 0.278113788624046 
1477	 0.278530389907097 
1478	 0.278932690549092 
1479	 0.279306493295787 
1480	 0.279653398649454 
1481	 0.27999143845514 
1482	 0.28030242097392 
1483	 0.280618031297765 
1484	 0.280919640373554 
1485	 0.281231178406937 
1486	 0.281544269828977 
1487	 0.281848850641449 
1488	 0.282153373942467 
1489	 0.282455835126921 
1490	 0.282749184673997 
1491	 0.283046579997984 
1492	 0.283341026227547 
1493	 0.283648799954671 
1494	 0.283956826048636 
1495	 0.28427328741621 
1496	 0.284605563438238 
1497	 0.284936501526734 
1498	 0.285274267239377 
1499	 0.285607805148738 
1500	 0.285939238517818 
1501	 0.28627720935481 
1502	 0.286609867658631 
1503	 0.28695278801262 
1504	 0.287310943745866 
1505	 0.287663751976473 
1506	 0.288033065034471 
1507	 0.288377333896226 
1508	 0.288698800803937 
1509	 0.289031660479169 
1510	 0.289353319255933 
1511	 0.289677389339208 
1512	 0.290020991332723 
1513	 0.290347355253114 
1514	 0.290658159427616 
1515	 0.290969658478012 
1516	 0.291273816560584 
1517	 0.291576819353882 
1518	 0.29188573026742 
1519	 0.292180147915419 
1520	 0.292466242480494 
1521	 0.292743637816703 
1522	 0.293010775406403 
1523	 0.293287636525256 
1524	 0.293555216132705 
1525	 0.293824567053697 
1526	 0.294083620028494 
1527	 0.294330687799895 
1528	 0.294586969943958 
1529	 0.294839821910115 
1530	 0.295103012967068 
1531	 0.295374491628474 
1532	 0.295642129706146 
1533	 0.295910479640165 
1534	 0.296185440405224 
1535	 0.296467943013386 
1536	 0.296733299021242 
1537	 0.296997760699235 
1538	 0.297259712150073 
1539	 0.297506911455462 
1540	 0.297763139252154 
1541	 0.298039390013596 
1542	 0.298276491191522 
1543	 0.298502106003837 
1544	 0.298703829657016 
1545	 0.298883320141137 
1546	 0.299041390288104 
1547	 0.299175241424122 
1548	 0.299302494307029 
1549	 0.29940414154169 
1550	 0.299508109658749 
1551	 0.299607675371178 
1552	 0.299697807599206 
1553	 0.299770064547737 
1554	 0.299856598277824 
1555	 0.29994120551198 
1556	 0.300031476762996 
1557	 0.300127275403895 
1558	 0.300229054405398 
1559	 0.300330181844768 
1560	 0.300443766387069 
1561	 0.300564427238808 
1562	 0.300699427545011 
1563	 0.300842834939935 
1564	 0.30100066674694 
1565	 0.301181504611108 
1566	 0.301356028471648 
1567	 0.301531900410459 
1568	 0.30172189511148 
1569	 0.301918074945166 
1570	 0.302120482608536 
1571	 0.302340743855801 
1572	 0.302555376810827 
1573	 0.30277007809447 
1574	 0.302985741088996 
1575	 0.303208911877979 
1576	 0.303422122656573 
1577	 0.303625392297833 
1578	 0.303837870565726 
1579	 0.304061686350132 
1580	 0.304262134646888 
1581	 0.304450854975166 
1582	 0.304646766274152 
1583	 0.304824332300115 
1584	 0.305013786904738 
1585	 0.305225900825394 
1586	 0.305421133623295 
1587	 0.305603719541783 
1588	 0.305790153498578 
1589	 0.305966392878325 
1590	 0.306158077719047 
1591	 0.306359335876299 
1592	 0.306560393066983 
1593	 0.306776569241011 
1594	 0.306979945752756 
1595	 0.307188316391433 
1596	 0.307373514184184 
1597	 0.307539366518867 
1598	 0.307705828054433 
1599	 0.30785964275109 
1600	 0.308007690661704 
1601	 0.308150442816296 
1602	 0.308293110899678 
1603	 0.308432729263071 
1604	 0.30855836163813 
1605	 0.308681104996467 
1606	 0.308796778193707 
1607	 0.308894531523435 
1608	 0.308992412074035 
1609	 0.309101329795343 
1610	 0.309183748895099 
1611	 0.309255211404265 
1612	 0.309306251384075 
1613	 0.309341437226779 
1614	 0.309349702248899 
1615	 0.309327196969443 
1616	 0.309299403608359 
1617	 0.309256587434707 
1618	 0.309193562401868 
1619	 0.309104735964694 
1620	 0.309023163163291 
1621	 0.308926351266724 
1622	 0.308826625949365 
1623	 0.308745501415065 
1624	 0.308635490698717 
1625	 0.308502959309738 
1626	 0.308359758994946 
1627	 0.308185443448289 
1628	 0.308027835444555 
1629	 0.307871944661493 
1630	 0.307709528738841 
1631	 0.307546394802222 
1632	 0.30738862494277 
1633	 0.307215674270423 
1634	 0.307065706635861 
1635	 0.306935931777241 
1636	 0.306809815236156 
1637	 0.306706136492355 
1638	 0.306584075875798 
1639	 0.306478290344436 
1640	 0.30633164554269 
1641	 0.306166664716364 
1642	 0.305972808015794 
1643	 0.30574650026915 
1644	 0.305499168359794 
1645	 0.305230684726295 
1646	 0.304932219769076 
1647	 0.304619692742493 
1648	 0.304251880369517 
1649	 0.303837568815359 
1650	 0.303394772677007 
1651	 0.302911329509301 
1652	 0.302394133288023 
1653	 0.301883704599839 
1654	 0.301268869205181 
1655	 0.300596844965086 
1656	 0.299826782470241 
1657	 0.298985280413316 
1658	 0.298019932990859 
1659	 0.296943839344654 
1660	 0.295797088172366 
1661	 0.294552702367882 
1662	 0.29319700470782 
1663	 0.291736212502059 
1664	 0.290192834303625 
1665	 0.288534976875507 
1666	 0.286788147851488 
1667	 0.284964875514949 
1668	 0.283075735682853 
1669	 0.281107168188428 
1670	 0.279019628759561 
1671	 0.276851495935117 
1672	 0.27455237573301 
1673	 0.272122427503536 
1674	 0.269582106668951 
1675	 0.266919089673394 
1676	 0.264229842345191 
1677	 0.261409576420847 
1678	 0.258595924914906 
1679	 0.255717493654734 
1680	 0.252843641592634 
1681	 0.249930179925742 
1682	 0.247023443624834 
1683	 0.244107625025892 
1684	 0.241277742442018 
1685	 0.23846978962287 
1686	 0.235682992913691 
1687	 0.232921228898496 
1688	 0.230208539010959 
1689	 0.227496975524082 
1690	 0.224863652517216 
1691	 0.22233243326447 
1692	 0.219863552437637 
1693	 0.217450496769599 
1694	 0.215072042846158 
1695	 0.212755081677685 
1696	 0.210446882513991 
1697	 0.208167544569589 
1698	 0.205888255145659 
1699	 0.203645943185163 
1700	 0.201470916206464 
1701	 0.199289452535761 
1702	 0.197220227944147 
1703	 0.19520109781177 
1704	 0.193301933237849 
1705	 0.19147850894903 
1706	 0.189730881756952 
1707	 0.188218132153231 
1708	 0.186758211064495 
1709	 0.185384434744484 
1710	 0.184151650662824 
1711	 0.18293524487324 
1712	 0.18180724002493 
1713	 0.180739618372554 
1714	 0.179706479943988 
1715	 0.178784659926131 
1716	 0.177892215325414 
1717	 0.177068181804512 
1718	 0.1763340502145 
1719	 0.175622402961977 
1720	 0.175008777911854 
1721	 0.174512946607503 
1722	 0.174124560367523 
1723	 0.173909626725306 
1724	 0.173858712981263 
1725	 0.173953641736727 
1726	 0.174267283425213 
1727	 0.174809855446025 
1728	 0.175530139157922 
1729	 0.176515060280774 
1730	 0.17773597296066 
1731	 0.179003520623241 
1732	 0.180445107857337 
1733	 0.181936844206361 
1734	 0.183407038467199 
1735	 0.184949736535285 
1736	 0.186375846757844 
1737	 0.187696292591785 
1738	 0.188883702350446 
1739	 0.189890918966359 
1740	 0.190781486798965 
1741	 0.191490846021857 
1742	 0.191990275663823 
1743	 0.192400270608179 
1744	 0.192636340234666 
1745	 0.19281411591636 
1746	 0.192847458074006 
1747	 0.192877675946636 
1748	 0.192800179340583 
1749	 0.192785737477145 
1750	 0.19275582277245 
1751	 0.192776368994604 
1752	 0.19281293764944 
1753	 0.192937318393558 
1754	 0.193083583252604 
1755	 0.193343583229159 
1756	 0.19366520063955 
1757	 0.19410837262235 
1758	 0.194709175506575 
1759	 0.19542624158824 
1760	 0.196352164001362 
1761	 0.197424592883946 
1762	 0.198568375612596 
1763	 0.199922602533856 
1764	 0.201348122671551 
1765	 0.20287945005905 
1766	 0.204641064900096 
1767	 0.206395311632456 
1768	 0.208220702790332 
1769	 0.210087742989429 
1770	 0.211780745336543 
1771	 0.213476210073817 
1772	 0.215108322449388 
1773	 0.21662427821604 
1774	 0.218162418559079 
1775	 0.219556692049201 
1776	 0.220878157707464 
1777	 0.222153897029761 
1778	 0.223250076443585 
1779	 0.224324519164777 
1780	 0.225326216937678 
1781	 0.226207030382338 
1782	 0.227073812694696 
1783	 0.227816947619966 
1784	 0.228481382269366 
1785	 0.229061559913537 
1786	 0.229589970345086 
1787	 0.230062279629534 
1788	 0.230491866765385 
1789	 0.230847322012456 
1790	 0.231206823975714 
1791	 0.231533240566992 
1792	 0.231863039741305 
1793	 0.232173263435138 
1794	 0.232462531411454 
1795	 0.232735846723904 
1796	 0.232976058954984 
1797	 0.233238017371488 
1798	 0.233494331759814 
1799	 0.233776569285782 
1800	 0.234079074454044 
1801	 0.233431807671615 
1802	 0.233656057929675 
1803	 0.233892911791049 
1804	 0.234117618950566 
1805	 0.23436865540256 
1806	 0.234600853750576 
1807	 0.234838960307457 
1808	 0.235060694498199 
1809	 0.235263823998493 
1810	 0.235479845877352 
1811	 0.235683709066706 
1812	 0.235911189311861 
1813	 0.236156347428404 
1814	 0.236403631996867 
1815	 0.23664245224759 
1816	 0.236908022816754 
1817	 0.237176675248451 
1818	 0.237445911184656 
1819	 0.237724513803907 
1820	 0.238004633817031 
1821	 0.23831007904821 
1822	 0.238627387241456 
1823	 0.238966219959538 
1824	 0.239299274011144 
1825	 0.239659378978811 
1826	 0.239993825248982 
1827	 0.240313298479465 
1828	 0.240632143123205 
1829	 0.240946438524483 
1830	 0.241253014886519 
1831	 0.241540152847063 
1832	 0.24185766158924 
1833	 0.242157441015832 
1834	 0.242477574241692 
1835	 0.242831978574041 
1836	 0.243150308517162 
1837	 0.243476831579715 
1838	 0.243798696417603 
1839	 0.244145052811433 
1840	 0.244498514968437 
1841	 0.244850940172762 
1842	 0.245220934084389 
1843	 0.245594374459079 
1844	 0.245941259659654 
1845	 0.246267925831582 
1846	 0.246596911433247 
1847	 0.24690141874854 
1848	 0.247190993517462 
1849	 0.247483007622335 
1850	 0.247727998003323 
1851	 0.247944456503388 
1852	 0.248138917141584 
1853	 0.248300094682238 
1854	 0.24844146647289 
1855	 0.248569541073078 
1856	 0.248674039937718 
1857	 0.24875043354986 
1858	 0.248794861672734 
1859	 0.248810235151936 
1860	 0.248800199810557 
1861	 0.248748461957791 
1862	 0.248660032288271 
1863	 0.248558012380172 
1864	 0.248404288601402 
1865	 0.248217318859938 
1866	 0.247995290533525 
1867	 0.247695683003103 
1868	 0.247365180929968 
1869	 0.246992184943318 
1870	 0.246565754410794 
1871	 0.246107355611527 
1872	 0.245588112572849 
1873	 0.245017630070223 
1874	 0.244400730402095 
1875	 0.243720276286551 
1876	 0.242907936278118 
1877	 0.24205343238832 
1878	 0.241091153199095 
1879	 0.240010544357025 
1880	 0.238918506365633 
1881	 0.23768329225989 
1882	 0.236330647863688 
1883	 0.234887109933585 
1884	 0.233325117140121 
1885	 0.23153232859447 
1886	 0.229671899044239 
1887	 0.227622780473227 
1888	 0.225371316852407 
1889	 0.223186106561545 
1890	 0.220829965109082 
1891	 0.218454703940233 
1892	 0.216104448970414 
1893	 0.213661807283875 
1894	 0.211090471422148 
1895	 0.208638668078256 
1896	 0.206126430830701 
1897	 0.203595125922577 
1898	 0.201305513588345 
1899	 0.198991803196863 
1900	 0.1967612925997 
1901	 0.194678833078379 
1902	 0.192503886267289 
1903	 0.190449542008875 
1904	 0.188479071291423 
1905	 0.186562281862632 
1906	 0.184716668482116 
1907	 0.183084472777927 
1908	 0.181469544679447 
1909	 0.179934763256006 
1910	 0.178486719686414 
1911	 0.177015491343456 
1912	 0.175673412524576 
1913	 0.174385264111882 
1914	 0.173126624164601 
1915	 0.17196585260437 
1916	 0.170922783413869 
1917	 0.169863529949504 
1918	 0.168856965505194 
1919	 0.167927963003677 
1920	 0.166981580181444 
1921	 0.166101629817319 
1922	 0.165252231057809 
1923	 0.164437448904446 
1924	 0.163724005251741 
1925	 0.16303485973517 
1926	 0.162398628213778 
1927	 0.161842753236541 
1928	 0.161294368771208 
1929	 0.160765102944785 
1930	 0.160291977770344 
1931	 0.15985833865977 
1932	 0.159454723129713 
1933	 0.159138741972956 
1934	 0.158880994871514 
1935	 0.158669879991096 
1936	 0.158510044688651 
1937	 0.158381273397324 
1938	 0.158286362413693 
1939	 0.158242414423912 
1940	 0.158233781260415 
1941	 0.15828255782267 
1942	 0.158396158258967 
1943	 0.158548724028626 
1944	 0.158738299827661 
1945	 0.158972694475783 
1946	 0.159255631753136 
1947	 0.15956342744341 
1948	 0.159931128478541 
1949	 0.1603763598028 
1950	 0.160827428861372 
1951	 0.161309796851307 
1952	 0.161831444881199 
1953	 0.162391787384684 
1954	 0.162959770351556 
1955	 0.163584014973526 
1956	 0.164201011771826 
1957	 0.164824452648703 
1958	 0.165443281813206 
1959	 0.166010140734811 
1960	 0.166585749343964 
1961	 0.167144854331964 
1962	 0.16766556857385 
1963	 0.168212935359921 
1964	 0.168776374811771 
1965	 0.169312770412826 
1966	 0.169862516496829 
1967	 0.170379907118932 
1968	 0.170825275425652 
1969	 0.171290323057811 
1970	 0.171733285625072 
1971	 0.172167807169481 
1972	 0.172640732743717 
1973	 0.173080238588963 
1974	 0.173512920092468 
1975	 0.173939017852362 
1976	 0.174352301215353 
1977	 0.17474209837846 
1978	 0.175145156794515 
1979	 0.175545123616909 
1980	 0.175937810382458 
1981	 0.176350659583037 
1982	 0.176746473000851 
1983	 0.177142553457701 
1984	 0.177538756093209 
1985	 0.177899428890194 
1986	 0.17827061927303 
1987	 0.178634369875269 
1988	 0.178986687945698 
1989	 0.179334651834455 
1990	 0.17968630983084 
1991	 0.180021376072713 
1992	 0.180346772528418 
1993	 0.180667761912189 
1994	 0.180957353269208 
1995	 0.181240315421073 
1996	 0.181504346550703 
1997	 0.181760380979593 
1998	 0.182023823778962 
1999	 0.18229323492059 
2000	 0.182543184335522 
2001	 0.182807345646094 
2002	 0.183024189372063 
2003	 0.183212187630761 
2004	 0.183390223609549 
2005	 0.183542734676995 
2006	 0.183670601700026 
2007	 0.183786012645856 
2008	 0.183877940961073 
2009	 0.183928473326079 
2010	 0.183958736824713 
2011	 0.183968460005335 
2012	 0.183951450263922 
2013	 0.183888170124587 
2014	 0.183793300750356 
2015	 0.183660880455186 
2016	 0.183490990558906 
2017	 0.183269604730966 
2018	 0.183011709674192 
2019	 0.182705421455427 
2020	 0.182344170901909 
2021	 0.181939602306202 
2022	 0.181512901461071 
2023	 0.1810406297041 
2024	 0.18051038015304 
2025	 0.179966439682884 
2026	 0.179371603139911 
2027	 0.178693182774396 
2028	 0.178060451756029 
2029	 0.177410450806376 
2030	 0.176757389439837 
2031	 0.176115691037299 
2032	 0.175466587187696 
2033	 0.174773384204885 
2034	 0.174132470562929 
2035	 0.173503727459576 
2036	 0.172895665284268 
2037	 0.172357096705516 
2038	 0.171845359229537 
2039	 0.171384623296664 
2040	 0.170987014519724 
2041	 0.17060608615446 
2042	 0.170255767828513 
2043	 0.169948474444625 
2044	 0.169678865126087 
2045	 0.169432934952259 
2046	 0.169228812494337 
2047	 0.169048480692844 
2048	 0.168899699138577 
2049	 0.168773693946922 
2050	 0.168678075562075 
2051	 0.168609434482421 
2052	 0.16855573332785 
2053	 0.16850996923395 
2054	 0.168495793221595 
2055	 0.168505232454015 
2056	 0.168533639761927 
2057	 0.168601606915496 
2058	 0.168655619189693 
2059	 0.168713941508037 
2060	 0.168791500340833 
2061	 0.168881110011715 
2062	 0.168970969611588 
2063	 0.169087465037942 
2064	 0.16919028857637 
2065	 0.169286081988935 
2066	 0.169372586892315 
2067	 0.169485063606854 
2068	 0.16958678859519 
2069	 0.169682851097322 
2070	 0.169781973680013 
2071	 0.169875601532077 
2072	 0.1699633863443 
2073	 0.170041407527173 
2074	 0.170119579661074 
2075	 0.170181817206802 
2076	 0.170232934451125 
2077	 0.170267464609811 
2078	 0.170280962945501 
2079	 0.170302518430683 
2080	 0.170311526606648 
2081	 0.170319663677157 
2082	 0.170332479154621 
2083	 0.170345462243757 
2084	 0.170347641759772 
2085	 0.170324454472199 
2086	 0.170308225568858 
2087	 0.170283750628804 
2088	 0.170264984820767 
2089	 0.170247785938538 
2090	 0.170226676788301 
2091	 0.170219117010626 
2092	 0.170181856404586 
2093	 0.170141471737307 
2094	 0.170069833687783 
2095	 0.16995826123049 
2096	 0.169851384516009 
2097	 0.169730553083906 
2098	 0.169601530951459 
2099	 0.169472156029236 
2100	 0.169324531039301 
2101	 0.169134599784278 
2102	 0.168907700370456 
2103	 0.168678853813494 
2104	 0.16841406833579 
2105	 0.16815908000588 
2106	 0.167918882917821 
2107	 0.167628080353094 
2108	 0.167315321475703 
2109	 0.166980134512385 
2110	 0.166595609313489 
2111	 0.166222440044044 
2112	 0.165833522753221 
2113	 0.165445792241093 
2114	 0.165067581929054 
2115	 0.164664935594641 
2116	 0.164239598654225 
2117	 0.163820498096419 
2118	 0.163401907856173 
2119	 0.162952764846115 
2120	 0.162562498002407 
2121	 0.162197801259927 
2122	 0.161844780426837 
2123	 0.161517307375799 
2124	 0.161202328005108 
2125	 0.16089656195948 
2126	 0.160617703793589 
2127	 0.160383495165666 
2128	 0.160128249175022 
2129	 0.159875042803383 
2130	 0.159634652955724 
2131	 0.1593977711549 
2132	 0.159158134906476 
2133	 0.158936614205347 
2134	 0.158707804920074 
2135	 0.158460253608247 
2136	 0.158215344518557 
2137	 0.157964539587226 
2138	 0.157699238281385 
2139	 0.15746216095339 
2140	 0.157225038631641 
2141	 0.15700940405206 
2142	 0.156808791213852 
2143	 0.156634838303925 
2144	 0.156473383628273 
2145	 0.156338387173472 
2146	 0.156241843031038 
2147	 0.156148989635787 
2148	 0.156053403455022 
2149	 0.15600206491034 
2150	 0.155980641448973 
2151	 0.155978083194147 
2152	 0.156010373944537 
2153	 0.156076832883839 
2154	 0.156123066356635 
2155	 0.156150011232012 
2156	 0.156155340671702 
2157	 0.156133968792326 
2158	 0.156117096912021 
2159	 0.156094723627302 
2160	 0.156047346540622 
2161	 0.15598319810723 
2162	 0.155924855394958 
2163	 0.155842467325481 
2164	 0.155770416072665 
2165	 0.155696403220566 
2166	 0.155639673643399 
2167	 0.155587093356297 
2168	 0.155539136748288 
2169	 0.155500723017198 
2170	 0.155482070105647 
2171	 0.155453667694266 
2172	 0.155459191734565 
2173	 0.155498282688582 
2174	 0.155555099729898 
2175	 0.15561204648032 
2176	 0.15570369533042 
2177	 0.155808154852283 
2178	 0.155932297246091 
2179	 0.15606184026611 
2180	 0.156215876772643 
2181	 0.156362211678746 
2182	 0.156513213476061 
2183	 0.156665958359771 
2184	 0.156829633928266 
2185	 0.156980865761419 
2186	 0.157123863509278 
2187	 0.157274283812041 
2188	 0.157417171513826 
2189	 0.157571503381321 
2190	 0.157754125604829 
2191	 0.157906570959529 
2192	 0.158047840031573 
2193	 0.158186867293564 
2194	 0.158303579485245 
2195	 0.158424869834523 
2196	 0.15855307735561 
2197	 0.158675868071801 
2198	 0.158791631321975 
2199	 0.158882840687404 
2200	 0.158955286691042 
2201	 0.159012815791109 
2202	 0.159046137325015 
2203	 0.159058939823798 
2204	 0.159044709087514 
2205	 0.159004596029082 
2206	 0.158947534658635 
2207	 0.158861334833667 
2208	 0.158764859231421 
2209	 0.158662612080872 
2210	 0.15851843252035 
2211	 0.158352504484045 
2212	 0.158152332364637 
2213	 0.157919797317071 
2214	 0.157651236598722 
2215	 0.157354656694824 
2216	 0.157018242706435 
2217	 0.156646261149501 
2218	 0.156228335095225 
2219	 0.155794664907936 
2220	 0.155277783037645 
2221	 0.154692377453969 
2222	 0.154051127422509 
2223	 0.153389627512124 
2224	 0.152631389477023 
2225	 0.151828630798474 
2226	 0.150986079473055 
2227	 0.150018671744551 
2228	 0.148948068415428 
2229	 0.147813777259805 
2230	 0.146579357297859 
2231	 0.145284961645334 
2232	 0.143921640401209 
2233	 0.142465921417054 
2234	 0.140969890846755 
2235	 0.139302245256622 
2236	 0.13750050471513 
2237	 0.13562461087837 
2238	 0.133576721679507 
2239	 0.131508076017069 
2240	 0.129403782663131 
2241	 0.127170709002581 
2242	 0.124885113207606 
2243	 0.122439952029351 
2244	 0.119800565235616 
2245	 0.117167908429225 
2246	 0.114322926134344 
2247	 0.111602396390077 
2248	 0.108912801943638 
2249	 0.106238593435537 
2250	 0.10360435701266 
2251	 0.101039461533678 
2252	 9.83128495708954E-02 
2253	 0.09574593359172 
2254	 9.31769958469858E-02 
2255	 9.06840955734074E-02 
2256	 8.85545124099323E-02 
2257	 8.64727691219986E-02 
2258	 8.45102821610782E-02 
2259	 8.27681833233989E-02 
2260	 8.09807093446018E-02 
2261	 7.91971552592053E-02 
2262	 7.75869006050509E-02 
2263	 7.60549946499276E-02 
2264	 7.46463423417837E-02 
2265	 7.34158237837518E-02 
2266	 0.07218125633887 
2267	 7.10528228533842E-02 
2268	 6.99158112949772E-02 
2269	 6.87947436034613E-02 
2270	 6.77432801685419E-02 
2271	 6.67394679987321E-02 
2272	 6.57608435112029E-02 
2273	 6.48766720792456E-02 
2274	 6.39455319348075E-02 
2275	 6.30396024701951E-02 
2276	 6.20879400417816E-02 
2277	 6.11322858417323E-02 
2278	 6.01278094404606E-02 
2279	 5.90299512299983E-02 
2280	 5.79791014019193E-02 
2281	 5.69312267353302E-02 
2282	 5.58660027860373E-02 
2283	 5.48227316755834E-02 
2284	 5.37796701630931E-02 
2285	 5.26021428540127E-02 
2286	 5.14575726388185E-02 
2287	 5.03099533954231E-02 
2288	 4.91522052649212E-02 
2289	 4.81232404188223E-02 
2290	 4.70593679728373E-02 
2291	 0.046029193981304 
2292	 4.50540400540821E-02 
2293	 4.39914478688511E-02 
2294	 4.29889182997151E-02 
2295	 4.20369877451966E-02 
2296	 4.11133625322694E-02 
2297	 4.03368044620921E-02 
2298	 3.96923419732612E-02 
2299	 3.91060377181172E-02 
2300	 3.85942462936467E-02 
2301	 3.82128235461868E-02 
2302	 3.79181758463641E-02 
2303	 3.77820925867149E-02 
2304	 3.77889491058817E-02 
2305	 0.037933979727894 
2306	 3.82179158156577E-02 
2307	 3.86475976517822E-02 
2308	 3.92376667099059E-02 
2309	 3.99420594929273E-02 
2310	 4.08300951653847E-02 
2311	 4.17675261683832E-02 
2312	 4.28878707850815E-02 
2313	 4.39592876069055E-02 
2314	 0.045119227339863 
2315	 4.62130921028109E-02 
2316	 0.047315583462104 
2317	 4.83279195652954E-02 
2318	 4.93559185908774E-02 
2319	 5.02021116444111E-02 
2320	 5.09357342242239E-02 
2321	 5.15597799639554E-02 
2322	 5.20039011118333E-02 
2323	 0.052413804648965 
2324	 5.27487595977485E-02 
2325	 5.29931591775142E-02 
2326	 5.31669941298739E-02 
2327	 5.32310219044023E-02 
2328	 5.31644661405807E-02 
2329	 5.30314519288854E-02 
2330	 5.27986720004208E-02 
2331	 5.24860315568609E-02 
2332	 5.21242299169085E-02 
2333	 5.16835257821175E-02 
2334	 5.11092302857576E-02 
2335	 5.05030251388825E-02 
2336	 4.98189190872804E-02 
2337	 4.91258928148098E-02 
2338	 4.84977216224047E-02 
2339	 4.77904596445442E-02 
2340	 4.70885366083121E-02 
2341	 4.64363848078052E-02 
2342	 4.58184478603977E-02 
2343	 4.53124858516567E-02 
2344	 4.49657407934995E-02 
2345	 4.47274069430588E-02 
2346	 4.46008688643421E-02 
2347	 4.46945116563801E-02 
2348	 4.48894997052493E-02 
2349	 4.52757947671118E-02 
2350	 4.58519625229346E-02 
2351	 4.65113055622008E-02 
2352	 4.73346920724103E-02 
2353	 4.82173640451475E-02 
2354	 4.90355662834423E-02 
2355	 4.98408296803033E-02 
2356	 5.05495517905181E-02 
2357	 5.11226598735765E-02 
2358	 5.16655844490132E-02 
2359	 5.21581955824319E-02 
2360	 5.25722988990734E-02 
2361	 5.28846270263177E-02 
2362	 5.31192686612143E-02 
2363	 5.32804416055757E-02 
2364	 5.33666292568887E-02 
2365	 5.34496922438032E-02 
2366	 5.35735562040015E-02 
2367	 5.36772431906143E-02 
2368	 5.37757996647677E-02 
2369	 5.38514835222655E-02 
2370	 5.38770491557125E-02 
2371	 5.38980381051049E-02 
2372	 5.39188052551229E-02 
2373	 5.39941255126226E-02 
2374	 5.40851753347778E-02 
2375	 0.054198611161611 
2376	 5.43429641715472E-02 
2377	 5.44063967102807E-02 
2378	 5.43845213213275E-02 
2379	 5.43569594297613E-02 
2380	 5.43583058763868E-02 
2381	 0.054350419838922 
2382	 5.43670813365162E-02 
2383	 0.054445144755661 
2384	 5.45240494754508E-02 
2385	 5.46006538102034E-02 
2386	 5.46737526574863E-02 
2387	 5.48065243749005E-02 
2388	 5.48488029424271E-02 
2389	 5.48076775038544E-02 
2390	 5.48355805648503E-02 
2391	 5.48601359478549E-02 
2392	 5.48814024770096E-02 
2393	 5.49350861858186E-02 
2394	 5.49309069308997E-02 
2395	 5.48887827623733E-02 
2396	 5.49130645902125E-02 
2397	 5.49344116424176E-02 
2398	 5.49657583926013E-02 
2399	 5.50309927880948E-02 
2400	 5.50884617212855E-02 
2401	 5.51071177013754E-02 
2402	 5.52266695624917E-02 
2403	 5.53830112579496E-02 
2404	 5.54018097230981E-02 
2405	 5.54775253855156E-02 
2406	 5.55931713759056E-02 
2407	 5.56927071223295E-02 
2408	 5.57776137172837E-02 
2409	 0.055874771896365 
2410	 0.055916346270544 
2411	 5.59478212398364E-02 
2412	 5.61254023427532E-02 
2413	 0.056270435540212 
2414	 5.64395679515516E-02 
2415	 5.65463832709554E-02 
2416	 0.056570242259557 
2417	 0.056702460668659 
2418	 0.056743970345961 
2419	 5.67313184207509E-02 
2420	 5.67751622714857E-02 
2421	 5.68189533561324E-02 
2422	 5.68613486958101E-02 
2423	 0.056945701726259 
2424	 0.057058540581787 
2425	 0.057084346927971 
2426	 5.71098344865076E-02 
2427	 5.71951696560607E-02 
2428	 0.057279576845578 
2429	 5.73387780536585E-02 
2430	 5.73577516184829E-02 
2431	 5.73730255338826E-02 
2432	 5.72962026190509E-02 
2433	 0.057172563287908 
2434	 5.72111558098535E-02 
2435	 5.73126034046395E-02 
2436	 5.73668018554153E-02 
2437	 5.74008685856826E-02 
2438	 5.73173402683612E-02 
2439	 5.71351302838459E-02 
2440	 5.69328210645833E-02 
2441	 5.68045917061956E-02 
2442	 5.67584469652693E-02 
2443	 5.66692297478814E-02 
2444	 0.056565002510136 
2445	 5.64078734284257E-02 
2446	 5.62542184897419E-02 
2447	 0.056047673858224 
2448	 5.57670372670935E-02 
2449	 5.55936014189465E-02 
2450	 5.53447939893773E-02 
2451	 5.50937732111585E-02 
2452	 5.49530465429391E-02 
2453	 5.48014297438506E-02 
2454	 5.46102619365321E-02 
2455	 5.43375631452732E-02 
2456	 5.40996490831079E-02 
2457	 5.37721715388318E-02 
2458	 5.34806354392665E-02 
2459	 5.34380533789939E-02 
2460	 0.053341675484109 
2461	 5.32766525162255E-02 
2462	 5.31781110172811E-02 
2463	 5.28895978398648E-02 
2464	 0.052690452601207 
2465	 5.25039935293069E-02 
2466	 5.23602664957762E-02 
2467	 0.052295927343247 
2468	 5.21472055687679E-02 
2469	 5.21075284869335E-02 
2470	 5.20815808980333E-02 
2471	 5.19804659102077E-02 
2472	 5.20160369561765E-02 
2473	 5.20744986122241E-02 
2474	 5.22060932189993E-02 
2475	 5.24959936225534E-02 
2476	 5.25363400516286E-02 
2477	 5.24643587840306E-02 
2478	 5.24983231421036E-02 
2479	 5.23171756437759E-02 
2480	 5.24891179699972E-02 
2481	 5.26523062352326E-02 
2482	 5.27692479862794E-02 
2483	 5.32619840678796E-02 
2484	 5.33864173894951E-02 
2485	 5.34620471553995E-02 
2486	 5.36317031270391E-02 
2487	 5.34849345894129E-02 
2488	 5.34329144537709E-02 
2489	 5.36742362157718E-02 
2490	 5.37675075995463E-02 
2491	 5.37988671201104E-02 
2492	 5.41567445093519E-02 
2493	 5.44026938320483E-02 
2494	 5.44882445974493E-02 
2495	 5.47413068501229E-02 
2496	 5.47307401221545E-02 
2497	 5.47716030353672E-02 
2498	 5.49992658297702E-02 
2499	 5.51523091072483E-02 
2500	 5.56565495732574E-02 
