Wavelength	spectrum00020.asd
350	 3.09139682496263E-02 
351	 2.95974231049508E-02 
352	 2.88161338126668E-02 
353	 3.00591524194781E-02 
354	 3.21127617230666E-02 
355	 3.22997921438784E-02 
356	 3.06888113918606E-02 
357	 2.84461348852956E-02 
358	 0.027532717527545 
359	 2.74250155881084E-02 
360	 2.81627287483266E-02 
361	 2.97804018170574E-02 
362	 3.03805092031932E-02 
363	 0.02891513427208 
364	 0.026517675800986 
365	 2.68660228747005E-02 
366	 2.89482733760353E-02 
367	 2.95837882739798E-02 
368	 2.74013394524796E-02 
369	 0.028440209264778 
370	 2.96188571523455E-02 
371	 2.96281261188857E-02 
372	 2.85216843003677E-02 
373	 2.81879683244561E-02 
374	 2.84922926237928E-02 
375	 2.90312106592791E-02 
376	 2.94085457829978E-02 
377	 2.97134991757195E-02 
378	 2.98769397752673E-02 
379	 2.97923124822863E-02 
380	 2.92267203059387E-02 
381	 2.91644847566617E-02 
382	 2.94209356221802E-02 
383	 2.91962308047801E-02 
384	 2.93868881248229E-02 
385	 2.90804591731049E-02 
386	 2.83289607943874E-02 
387	 0.028918721446647 
388	 2.92965727262768E-02 
389	 2.95090761378901E-02 
390	 2.97514232052347E-02 
391	 2.89389290713828E-02 
392	 0.029133464633624 
393	 3.00265850988906E-02 
394	 2.98329088986166E-02 
395	 2.91126656623574E-02 
396	 2.93318189099869E-02 
397	 3.04626736880536E-02 
398	 2.98585343880575E-02 
399	 2.93838941307304E-02 
400	 2.95668428391823E-02 
401	 3.01888681001959E-02 
402	 2.96244878522008E-02 
403	 2.97306667923977E-02 
404	 3.03654562856332E-02 
405	 2.99643674131855E-02 
406	 0.030077678259549 
407	 3.01181239464324E-02 
408	 2.97761515081286E-02 
409	 2.99085443640128E-02 
410	 2.96614281578461E-02 
411	 2.95548310767652E-02 
412	 3.01938510498077E-02 
413	 3.03614283824702E-02 
414	 3.01788316175987E-02 
415	 2.99291522099461E-02 
416	 2.99422145537754E-02 
417	 2.99670671430612E-02 
418	 3.00072088607612E-02 
419	 3.00637369220968E-02 
420	 3.00232326535338E-02 
421	 0.02996075558312 
422	 3.00155596171451E-02 
423	 3.02804776090214E-02 
424	 3.04491354804449E-02 
425	 3.03024807561869E-02 
426	 3.00121008219799E-02 
427	 3.01596095015195E-02 
428	 3.01440432101688E-02 
429	 3.01342452266712E-02 
430	 3.02572072436568E-02 
431	 2.99261967603112E-02 
432	 0.029942519531835 
433	 3.02291691491615E-02 
434	 3.02619739103657E-02 
435	 3.04675224238341E-02 
436	 3.04510349137201E-02 
437	 3.01599319234254E-02 
438	 3.01986010106934E-02 
439	 0.030281138905928 
440	 0.030327016382465 
441	 3.03198454999023E-02 
442	 0.030270562427603 
443	 3.03202597604281E-02 
444	 3.04073674033224E-02 
445	 3.03290639395458E-02 
446	 3.03682697065557E-02 
447	 3.03770758032379E-02 
448	 3.02829933804991E-02 
449	 3.03321043620016E-02 
450	 3.04304239758605E-02 
451	 3.04862995976187E-02 
452	 3.04367436152015E-02 
453	 3.04120751639416E-02 
454	 3.04268497717851E-02 
455	 3.04584875055819E-02 
456	 3.04545091312385E-02 
457	 3.04252472760668E-02 
458	 3.04188065821496E-02 
459	 3.04648951741177E-02 
460	 3.05212110506754E-02 
461	 3.05368739849173E-02 
462	 3.05132626230593E-02 
463	 3.04914138452415E-02 
464	 3.05573643286116E-02 
465	 3.06008564472508E-02 
466	 3.05716795641413E-02 
467	 3.05425328835731E-02 
468	 3.06070116424142E-02 
469	 3.05782625981218E-02 
470	 3.03588130239669E-02 
471	 3.05981851476803E-02 
472	 3.06837030308843E-02 
473	 3.05745647821644E-02 
474	 3.06874155296007E-02 
475	 3.06378769613102E-02 
476	 3.05816905885287E-02 
477	 3.06323574252296E-02 
478	 3.06256950103966E-02 
479	 3.05571122748741E-02 
480	 3.05348479576557E-02 
481	 3.06562124548972E-02 
482	 3.06235306749761E-02 
483	 3.06353636317378E-02 
484	 3.07310618993537E-02 
485	 0.030730583101113 
486	 3.07758055678799E-02 
487	 3.07795650022042E-02 
488	 3.06857644943614E-02 
489	 3.06897604564432E-02 
490	 3.07001861909655E-02 
491	 3.07245692427583E-02 
492	 3.08059878258776E-02 
493	 3.07302968977155E-02 
494	 3.07164660348937E-02 
495	 3.08348344643662E-02 
496	 0.030826626850098 
497	 3.07806745349617E-02 
498	 3.07877457003856E-02 
499	 3.08802702217075E-02 
500	 3.08071014246624E-02 
501	 3.07536411893644E-02 
502	 3.07654037744544E-02 
503	 3.07541574320888E-02 
504	 0.030844098573036 
505	 3.08796449359651E-02 
506	 3.07979768689155E-02 
507	 3.08861588789848E-02 
508	 3.09252467091395E-02 
509	 3.08799909332285E-02 
510	 3.08116530056274E-02 
511	 3.08318230952848E-02 
512	 3.08797424732914E-02 
513	 3.09064726101595E-02 
514	 3.09015748863761E-02 
515	 3.08485231064872E-02 
516	 3.08333007420458E-02 
517	 3.09017534777966E-02 
518	 3.08618042594797E-02 
519	 3.08687497953602E-02 
520	 3.09272362612428E-02 
521	 3.09399197023229E-02 
522	 0.030977672902699 
523	 3.09730493944243E-02 
524	 3.09159451139665E-02 
525	 0.030951872836729 
526	 3.09344744059861E-02 
527	 3.09084727511895E-02 
528	 3.09565371688682E-02 
529	 3.09731719903927E-02 
530	 3.09680068032558E-02 
531	 3.09704465723015E-02 
532	 3.10198554244222E-02 
533	 3.10077190019195E-02 
534	 3.09831294371829E-02 
535	 3.09918385867166E-02 
536	 3.09587851200278E-02 
537	 3.09600750163152E-02 
538	 3.09894447403384E-02 
539	 3.09975173639561E-02 
540	 3.10041304040252E-02 
541	 3.10087792587404E-02 
542	 3.10065280319113E-02 
543	 3.09856970630506E-02 
544	 3.10030567818927E-02 
545	 3.10131136807808E-02 
546	 3.09715967963093E-02 
547	 3.09907926688118E-02 
548	 0.03102391534159 
549	 3.10475540399672E-02 
550	 3.10658157819403E-02 
551	 3.10879386453243E-02 
552	 3.11321884575129E-02 
553	 3.11826803750394E-02 
554	 3.11256383374355E-02 
555	 3.11011992854709E-02 
556	 3.11261987811213E-02 
557	 3.11550203735284E-02 
558	 3.11606388150712E-02 
559	 0.031178118595062 
560	 3.12111957607845E-02 
561	 3.12126444599526E-02 
562	 3.11693452015643E-02 
563	 3.11401674199734E-02 
564	 3.11674664219226E-02 
565	 3.11530083116873E-02 
566	 3.11125270512254E-02 
567	 3.10758159935589E-02 
568	 3.10782861139208E-02 
569	 3.10946054491383E-02 
570	 3.11144049086325E-02 
571	 3.11440345996965E-02 
572	 3.12252917778037E-02 
573	 3.12960560713933E-02 
574	 3.13348912502228E-02 
575	 3.13404121365414E-02 
576	 0.031327924587711 
577	 0.03126609001736 
578	 3.11845543878113E-02 
579	 3.11818472285701E-02 
580	 3.11663148733638E-02 
581	 3.11551008771236E-02 
582	 3.11700154356804E-02 
583	 3.11670759496503E-02 
584	 3.11801536986328E-02 
585	 3.12022676530782E-02 
586	 3.12050495589705E-02 
587	 3.12014631271771E-02 
588	 3.12195444511035E-02 
589	 3.12617495412288E-02 
590	 3.12875232221457E-02 
591	 3.13083922060566E-02 
592	 3.13149601055793E-02 
593	 3.13031435544753E-02 
594	 3.13168961921121E-02 
595	 3.13125307581338E-02 
596	 3.12837035756524E-02 
597	 3.12588142829009E-02 
598	 3.12259832953674E-02 
599	 3.12125494282712E-02 
600	 3.12304373693801E-02 
601	 0.031244746604412 
602	 3.12266391653631E-02 
603	 3.12076228953995E-02 
604	 0.031233844717527 
605	 3.12437965772119E-02 
606	 3.12390360596045E-02 
607	 0.031235636082582 
608	 3.12602246297404E-02 
609	 3.12750059816645E-02 
610	 0.0312791818479 
611	 3.12789914827818E-02 
612	 0.031269112109254 
613	 3.12621729679155E-02 
614	 3.12583866043481E-02 
615	 3.12484108900952E-02 
616	 0.031211773464055 
617	 3.12027724965152E-02 
618	 3.12337065637977E-02 
619	 3.12253068446339E-02 
620	 3.12244918595753E-02 
621	 3.12305504879514E-02 
622	 3.12287599677166E-02 
623	 0.03120925996373 
624	 3.12089483039401E-02 
625	 0.031229099511257 
626	 0.031236247559335 
627	 3.12273513752936E-02 
628	 3.12109599202834E-02 
629	 3.11986846483278E-02 
630	 3.12029209481907E-02 
631	 3.12065614552085E-02 
632	 0.031213170538945 
633	 3.12303565595458E-02 
634	 3.12260019735211E-02 
635	 0.031223404174555 
636	 3.12307498004495E-02 
637	 3.12316229504357E-02 
638	 3.12108539106158E-02 
639	 3.11924736464676E-02 
640	 3.11943407732509E-02 
641	 3.11786786623241E-02 
642	 3.11731424525454E-02 
643	 3.11840750456969E-02 
644	 3.12019802300315E-02 
645	 3.12099362271962E-02 
646	 3.11936352361954E-02 
647	 3.11675523177174E-02 
648	 3.11924549904557E-02 
649	 3.11974886242743E-02 
650	 3.11930717066137E-02 
651	 3.12012216497075E-02 
652	 3.11794252058919E-02 
653	 3.11605552715158E-02 
654	 3.11603289764019E-02 
655	 0.031175166802167 
656	 3.11645460741889E-02 
657	 3.11501718875805E-02 
658	 3.11509856842781E-02 
659	 0.03115788098196 
660	 3.11691697614022E-02 
661	 3.11724070066193E-02 
662	 3.11613672643099E-02 
663	 3.11876603717587E-02 
664	 3.11763842028441E-02 
665	 3.11353532104423E-02 
666	 0.031157490935344 
667	 3.11539541064084E-02 
668	 3.11453239960351E-02 
669	 3.11551201001335E-02 
670	 3.11601804396982E-02 
671	 3.11443713058709E-02 
672	 3.11292250817161E-02 
673	 3.11443081533529E-02 
674	 3.11404913060815E-02 
675	 3.11325961091701E-02 
676	 3.11364987528908E-02 
677	 3.11616969089609E-02 
678	 3.11223001847435E-02 
679	 0.031097022928694 
680	 3.11436803469491E-02 
681	 3.11351362882374E-02 
682	 3.11283694548963E-02 
683	 3.11303025458935E-02 
684	 3.11229470399313E-02 
685	 3.11189527774833E-02 
686	 3.11220587588564E-02 
687	 3.11276467858328E-02 
688	 3.11211878339315E-02 
689	 3.11075486124873E-02 
690	 3.10925900178893E-02 
691	 3.10859341323154E-02 
692	 3.11121001465907E-02 
693	 3.11147051757831E-02 
694	 3.10993964067957E-02 
695	 0.031107780343611 
696	 3.11120404719578E-02 
697	 3.11075929495018E-02 
698	 3.10961491561192E-02 
699	 3.10846086141797E-02 
700	 3.10713936022141E-02 
701	 0.031075622965648 
702	 3.11008488177496E-02 
703	 3.10672020037863E-02 
704	 3.10777730682082E-02 
705	 3.11110564051924E-02 
706	 3.10712785340696E-02 
707	 3.10703807457711E-02 
708	 3.10759732981845E-02 
709	 3.10619151093789E-02 
710	 3.10430189936004E-02 
711	 3.10509446461949E-02 
712	 3.10669178022789E-02 
713	 3.10671270008419E-02 
714	 3.10794784949628E-02 
715	 3.10721616626437E-02 
716	 3.10555863285194E-02 
717	 3.10662650760312E-02 
718	 3.10671808072194E-02 
719	 3.10576945637983E-02 
720	 3.10436518350142E-02 
721	 3.10319770981285E-02 
722	 3.10417611686433E-02 
723	 3.10462108859456E-02 
724	 3.10241501526957E-02 
725	 0.031037145785324 
726	 3.10395366254926E-02 
727	 3.10298737894089E-02 
728	 3.10366820167669E-02 
729	 3.10357841841533E-02 
730	 3.10285295244381E-02 
731	 3.10248956097548E-02 
732	 3.10437985437178E-02 
733	 3.10543125419487E-02 
734	 3.10533619941548E-02 
735	 3.10482308997773E-02 
736	 3.10500404702867E-02 
737	 3.10519070345693E-02 
738	 3.10452125328183E-02 
739	 0.031025496633579 
740	 3.10330819539696E-02 
741	 3.10439186027369E-02 
742	 3.10406574999207E-02 
743	 3.10281150334991E-02 
744	 3.10252492375985E-02 
745	 3.10371694656062E-02 
746	 3.10561927240952E-02 
747	 3.10468020162171E-02 
748	 3.10575135614055E-02 
749	 3.10704929915587E-02 
750	 3.10430083724541E-02 
751	 0.031065235085601 
752	 3.10832904384935E-02 
753	 3.10721951347531E-02 
754	 3.10634149187819E-02 
755	 3.10576145251646E-02 
756	 3.10637234769222E-02 
757	 3.10780994525119E-02 
758	 3.10568567526668E-02 
759	 3.10527637871636E-02 
760	 3.10576125854168E-02 
761	 3.10432796584227E-02 
762	 3.10578265038794E-02 
763	 3.10600243703124E-02 
764	 0.031044774211061 
765	 3.10505146794833E-02 
766	 3.10558009577812E-02 
767	 3.10487752469485E-02 
768	 3.10332646637355E-02 
769	 3.10463168909632E-02 
770	 3.10516311857008E-02 
771	 0.031042492298521 
772	 0.031028329862211 
773	 3.10397252251901E-02 
774	 3.10380072090265E-02 
775	 3.10245715833256E-02 
776	 3.10320832275238E-02 
777	 3.10257977413941E-02 
778	 3.10217323762775E-02 
779	 3.10262353068586E-02 
780	 3.10171130687434E-02 
781	 3.10114758972936E-02 
782	 3.10133397577922E-02 
783	 3.10203503986891E-02 
784	 3.10224022456932E-02 
785	 3.10239825654416E-02 
786	 0.031026908652351 
787	 3.10291645407984E-02 
788	 0.031012107111016 
789	 3.10036325865149E-02 
790	 3.10117763320462E-02 
791	 3.10162500474467E-02 
792	 3.10212177804658E-02 
793	 3.10180315270474E-02 
794	 3.10062787490274E-02 
795	 3.10112523842491E-02 
796	 3.10071157935813E-02 
797	 3.10039926402614E-02 
798	 0.031015491821829 
799	 3.10051733801349E-02 
800	 3.09925212081127E-02 
801	 3.09870383912223E-02 
802	 3.09872452826135E-02 
803	 0.030983142054689 
804	 3.09801117197923E-02 
805	 3.09846256337816E-02 
806	 3.10012912221772E-02 
807	 3.09989960598732E-02 
808	 3.09833057993546E-02 
809	 3.09700060287573E-02 
810	 3.09714155336617E-02 
811	 3.09959135970093E-02 
812	 3.10094021141057E-02 
813	 3.09784356775639E-02 
814	 3.09883043757829E-02 
815	 3.09908073269377E-02 
816	 3.09784306553853E-02 
817	 3.09845926386297E-02 
818	 3.09974755040517E-02 
819	 3.09923803474279E-02 
820	 3.09692132431886E-02 
821	 0.030970279688473 
822	 0.0309608612648 
823	 3.09645892813617E-02 
824	 0.030996005402242 
825	 0.030995794093769 
826	 3.09896470810223E-02 
827	 3.09834448413624E-02 
828	 3.09768284883119E-02 
829	 3.09858698127338E-02 
830	 3.09948596569077E-02 
831	 0.030993504356521 
832	 3.09803430600078E-02 
833	 3.09703016311897E-02 
834	 3.09736917376518E-02 
835	 3.09885439788257E-02 
836	 3.09964623680347E-02 
837	 0.031002837377888 
838	 3.10040631772407E-02 
839	 3.09998448239981E-02 
840	 3.10062749051011E-02 
841	 3.09886543815772E-02 
842	 3.09652310254676E-02 
843	 3.09647935408785E-02 
844	 0.030949858748069 
845	 0.030948413757668 
846	 3.09580586823498E-02 
847	 3.09563808801682E-02 
848	 3.09763761503374E-02 
849	 3.09598623506309E-02 
850	 3.09163112887848E-02 
851	 0.030945489164219 
852	 3.09769079232638E-02 
853	 3.09902009238002E-02 
854	 3.09803809194702E-02 
855	 3.09510948273238E-02 
856	 3.09385661637885E-02 
857	 3.09358248877933E-02 
858	 3.09284979273274E-02 
859	 3.09341714898964E-02 
860	 3.09372255284681E-02 
861	 3.09296744468552E-02 
862	 3.09146263016156E-02 
863	 0.03092876698717 
864	 3.09460151826336E-02 
865	 3.09503807471366E-02 
866	 0.030940135207483 
867	 3.09143493240238E-02 
868	 0.030918855522066 
869	 3.09489656671529E-02 
870	 3.09275123725765E-02 
871	 3.09164017764766E-02 
872	 3.09285272531589E-02 
873	 3.09502158137516E-02 
874	 3.09327782676532E-02 
875	 3.09477259441907E-02 
876	 3.09621202880235E-02 
877	 3.09398042536829E-02 
878	 3.09550916305636E-02 
879	 3.09779621630307E-02 
880	 3.09762694707088E-02 
881	 3.09369967954745E-02 
882	 3.09478069136696E-02 
883	 3.09438039392256E-02 
884	 3.09306810909412E-02 
885	 3.09627865821649E-02 
886	 3.09680377646322E-02 
887	 0.03098151036328 
888	 3.10060184659553E-02 
889	 3.09964629735902E-02 
890	 3.09654760248485E-02 
891	 3.09452806140391E-02 
892	 3.09424793336478E-02 
893	 3.09144159696014E-02 
894	 3.09466052441195E-02 
895	 3.09745189729166E-02 
896	 3.09491462600664E-02 
897	 3.09644699582913E-02 
898	 3.09571923147382E-02 
899	 3.09327820391449E-02 
900	 3.09173244712481E-02 
901	 3.09221415711921E-02 
902	 3.09160893440069E-02 
903	 3.09101573094826E-02 
904	 3.09226657215153E-02 
905	 3.08831126972426E-02 
906	 3.08884212972263E-02 
907	 3.09221072977269E-02 
908	 3.08963588332204E-02 
909	 3.08967568835964E-02 
910	 0.030884204130974 
911	 3.08552944814459E-02 
912	 3.08512431586104E-02 
913	 3.08620590760441E-02 
914	 3.08629268300181E-02 
915	 3.08611119985736E-02 
916	 0.030904971766286 
917	 3.08861793381373E-02 
918	 3.08818560533039E-02 
919	 3.09301334956756E-02 
920	 3.09287042278883E-02 
921	 3.08956427241681E-02 
922	 3.08809446998739E-02 
923	 3.09047297589948E-02 
924	 3.08883319532438E-02 
925	 3.08764130157224E-02 
926	 3.08760939119327E-02 
927	 3.08834971356856E-02 
928	 3.09017417660272E-02 
929	 3.09009210298494E-02 
930	 3.08849564029611E-02 
931	 3.08711722484044E-02 
932	 3.08580089870083E-02 
933	 3.08770681919161E-02 
934	 3.09051026997098E-02 
935	 3.08964883428938E-02 
936	 3.08592280219852E-02 
937	 3.08562280181248E-02 
938	 3.08634928489781E-02 
939	 3.08217984550001E-02 
940	 3.08842235756014E-02 
941	 3.09301246591012E-02 
942	 3.09172524040932E-02 
943	 3.08975025083789E-02 
944	 3.09179120234332E-02 
945	 3.09359441388118E-02 
946	 3.09372196048172E-02 
947	 3.09442040647968E-02 
948	 0.030896953572756 
949	 3.08749604793924E-02 
950	 3.08982788292972E-02 
951	 3.08912494904056E-02 
952	 3.08806623152259E-02 
953	 3.08947743768055E-02 
954	 3.09254867352779E-02 
955	 3.09144627812936E-02 
956	 3.08847088004089E-02 
957	 3.08870445380543E-02 
958	 3.09250102884526E-02 
959	 3.09157372837685E-02 
960	 0.030872486540545 
961	 0.030860972857117 
962	 3.09059407339127E-02 
963	 3.09285825039607E-02 
964	 3.09025204425679E-02 
965	 3.08614229657909E-02 
966	 3.08487954887187E-02 
967	 3.08854652350092E-02 
968	 3.09031395298367E-02 
969	 3.09104762361951E-02 
970	 3.09207392852735E-02 
971	 3.08965261877082E-02 
972	 3.08922867387589E-02 
973	 3.08897603648031E-02 
974	 3.08718957062127E-02 
975	 0.030891068462065 
976	 3.08984348764802E-02 
977	 3.09167249946922E-02 
978	 3.09480310429887E-02 
979	 3.08604193331426E-02 
980	 3.07874800437447E-02 
981	 3.08090088130476E-02 
982	 0.030915688671518 
983	 3.08990017861954E-02 
984	 3.08901273440352E-02 
985	 3.09334742179187E-02 
986	 3.10005562382028E-02 
987	 3.09314554493514E-02 
988	 3.09294321759442E-02 
989	 3.09588693640773E-02 
990	 3.09198137361082E-02 
991	 3.08073048233247E-02 
992	 3.07964706366037E-02 
993	 3.08507898704219E-02 
994	 3.08801907434246E-02 
995	 3.09281836861619E-02 
996	 3.08751918174255E-02 
997	 3.08212375259058E-02 
998	 3.08882754448286E-02 
999	 3.10016803812141E-02 
1000	 3.09954914903783E-02 
1001	 3.17094182441175E-02 
1002	 3.17360576964781E-02 
1003	 3.17496991318379E-02 
1004	 3.17410040762367E-02 
1005	 3.16989110648525E-02 
1006	 3.16917251759972E-02 
1007	 3.16850284748457E-02 
1008	 3.16873588420631E-02 
1009	 3.17106596253351E-02 
1010	 0.031725023036111 
1011	 3.17268695052042E-02 
1012	 3.17336569727355E-02 
1013	 3.17547358688479E-02 
1014	 3.17702997385717E-02 
1015	 3.17811838861505E-02 
1016	 3.17966815175008E-02 
1017	 3.18066942230763E-02 
1018	 3.18038090142313E-02 
1019	 3.17840928681025E-02 
1020	 3.17679056278104E-02 
1021	 3.17596304224053E-02 
1022	 3.17521340038593E-02 
1023	 3.17390956276068E-02 
1024	 3.17294125334246E-02 
1025	 3.17335852002283E-02 
1026	 0.031742202826479 
1027	 3.17405551179444E-02 
1028	 3.17592245407831E-02 
1029	 3.17431174161046E-02 
1030	 3.17007141225075E-02 
1031	 3.17068331793383E-02 
1032	 3.17090460569527E-02 
1033	 3.16828729274309E-02 
1034	 3.16621659405675E-02 
1035	 3.16269945968671E-02 
1036	 3.16220991914263E-02 
1037	 3.16504844814875E-02 
1038	 3.16441687211194E-02 
1039	 3.16364827295951E-02 
1040	 3.16296825080016E-02 
1041	 3.15969328618831E-02 
1042	 3.15754416694978E-02 
1043	 3.15670318124106E-02 
1044	 3.15563950684181E-02 
1045	 3.15406925743729E-02 
1046	 3.15345070418339E-02 
1047	 3.15552612725504E-02 
1048	 3.15773421021854E-02 
1049	 0.031591580032927 
1050	 3.16099228104925E-02 
1051	 3.16242538153704E-02 
1052	 3.16152035213112E-02 
1053	 3.16023085092119E-02 
1054	 3.15767737186324E-02 
1055	 3.15750492477016E-02 
1056	 3.15508344302758E-02 
1057	 3.15720711966591E-02 
1058	 3.16501324216904E-02 
1059	 3.16861252101097E-02 
1060	 0.0316952537831 
1061	 3.17347010745172E-02 
1062	 3.17239228765647E-02 
1063	 3.16737187742198E-02 
1064	 0.031664496240034 
1065	 3.16573141299647E-02 
1066	 3.16386698267036E-02 
1067	 3.16577399810569E-02 
1068	 3.16673615788744E-02 
1069	 3.16712526537932E-02 
1070	 3.17021914219681E-02 
1071	 3.17593775378149E-02 
1072	 3.18055010773117E-02 
1073	 0.03182950829581 
1074	 3.18452260536926E-02 
1075	 3.18448785516198E-02 
1076	 3.18342788037984E-02 
1077	 3.18500836904851E-02 
1078	 3.18743430957275E-02 
1079	 3.18832329164786E-02 
1080	 3.19011065194619E-02 
1081	 3.19124242242046E-02 
1082	 3.19162831623533E-02 
1083	 3.19119324852588E-02 
1084	 3.19090781209729E-02 
1085	 3.19319672826256E-02 
1086	 3.19453278534862E-02 
1087	 3.19636352291931E-02 
1088	 3.19747756729638E-02 
1089	 3.19805947310127E-02 
1090	 3.19818866633487E-02 
1091	 3.19870621167316E-02 
1092	 3.20065912165121E-02 
1093	 3.20357968233223E-02 
1094	 3.20341426873559E-02 
1095	 3.20287899926981E-02 
1096	 3.20460464740244E-02 
1097	 3.20637711862436E-02 
1098	 3.20863286454602E-02 
1099	 3.21071953283587E-02 
1100	 3.21071745246932E-02 
1101	 3.20967691857418E-02 
1102	 3.20850372516496E-02 
1103	 3.20739055613351E-02 
1104	 3.20584212276958E-02 
1105	 3.20592758284114E-02 
1106	 3.20682357874363E-02 
1107	 3.20714527980586E-02 
1108	 3.20679349575637E-02 
1109	 3.20659922063354E-02 
1110	 3.20648873027749E-02 
1111	 0.032052384455384 
1112	 3.20667387834943E-02 
1113	 3.20769598649643E-02 
1114	 3.20721140713537E-02 
1115	 3.20843188101816E-02 
1116	 0.03206793982005 
1117	 3.20546384563576E-02 
1118	 3.20540065255152E-02 
1119	 3.20541446272068E-02 
1120	 3.20454716812706E-02 
1121	 3.20457644713359E-02 
1122	 0.0320472652558 
1123	 3.20245877179091E-02 
1124	 0.032013231900294 
1125	 3.20133502092159E-02 
1126	 3.20079016516532E-02 
1127	 3.20109594575953E-02 
1128	 3.20037658036177E-02 
1129	 3.19881705670122E-02 
1130	 3.19839457127803E-02 
1131	 3.19647829700031E-02 
1132	 3.19600406380844E-02 
1133	 3.19763720067248E-02 
1134	 3.19815805075181E-02 
1135	 3.19811886985676E-02 
1136	 3.19811534121857E-02 
1137	 3.19707736525711E-02 
1138	 3.19437154420022E-02 
1139	 3.19304659528655E-02 
1140	 3.19148713576556E-02 
1141	 0.031918042944389 
1142	 3.19171437179282E-02 
1143	 3.19074676622883E-02 
1144	 3.19067313626245E-02 
1145	 3.18966606637174E-02 
1146	 3.18830890986907E-02 
1147	 3.18893400866746E-02 
1148	 3.18856682325016E-02 
1149	 3.18624629535183E-02 
1150	 3.18531704998699E-02 
1151	 3.18352196861785E-02 
1152	 3.18255293618896E-02 
1153	 3.18248277916141E-02 
1154	 3.18232538256812E-02 
1155	 3.18228668796057E-02 
1156	 3.18259910524378E-02 
1157	 0.031829340757048 
1158	 3.18298882353422E-02 
1159	 3.18377688263184E-02 
1160	 3.18391577438105E-02 
1161	 0.03181823598164 
1162	 3.18022840330192E-02 
1163	 3.17876780733261E-02 
1164	 3.17715274154249E-02 
1165	 3.17739571693059E-02 
1166	 3.17666376093255E-02 
1167	 3.17474525849458E-02 
1168	 3.17394099902843E-02 
1169	 3.17407079173979E-02 
1170	 3.17520421625822E-02 
1171	 3.17547432660065E-02 
1172	 3.17694118069935E-02 
1173	 3.17699274888756E-02 
1174	 3.17522165449549E-02 
1175	 3.17451253284275E-02 
1176	 3.17440816120866E-02 
1177	 3.17378013481926E-02 
1178	 3.17308067930914E-02 
1179	 3.17150352123196E-02 
1180	 3.17157549734167E-02 
1181	 3.17116233949673E-02 
1182	 3.17095145765457E-02 
1183	 3.17287044298908E-02 
1184	 3.17343328861632E-02 
1185	 3.17371777374577E-02 
1186	 3.17416353459121E-02 
1187	 3.17468103940867E-02 
1188	 3.17469775146809E-02 
1189	 3.17438761340036E-02 
1190	 3.17452311990377E-02 
1191	 3.17441583341803E-02 
1192	 3.17461130936655E-02 
1193	 0.031752458921062 
1194	 3.17573944629558E-02 
1195	 3.17637697790136E-02 
1196	 3.17681728739615E-02 
1197	 3.17704223052135E-02 
1198	 3.17770695744421E-02 
1199	 0.03178313051511 
1200	 3.17798064920246E-02 
1201	 3.17889414654743E-02 
1202	 3.18048665309399E-02 
1203	 3.18082642675925E-02 
1204	 3.18212946675126E-02 
1205	 3.18239116851048E-02 
1206	 3.18115297807638E-02 
1207	 3.18138780008365E-02 
1208	 3.18159532448263E-02 
1209	 3.18284482788744E-02 
1210	 3.18629573430548E-02 
1211	 3.18763404128742E-02 
1212	 3.18859233438398E-02 
1213	 3.18905459568643E-02 
1214	 3.18770333170672E-02 
1215	 0.031873821613201 
1216	 3.18717644184143E-02 
1217	 3.18777521494745E-02 
1218	 3.18931148645565E-02 
1219	 3.19002827852842E-02 
1220	 3.19257552881986E-02 
1221	 3.19456426022538E-02 
1222	 3.19466361412227E-02 
1223	 3.19608934232373E-02 
1224	 3.19621209014433E-02 
1225	 3.19412588123431E-02 
1226	 3.19470427189547E-02 
1227	 3.19632496315154E-02 
1228	 3.19768527311243E-02 
1229	 3.20049043869318E-02 
1230	 0.032021463981625 
1231	 3.20340743961479E-02 
1232	 3.20423112879409E-02 
1233	 3.20400838827459E-02 
1234	 3.20476754094158E-02 
1235	 3.20522868586104E-02 
1236	 3.20660847061337E-02 
1237	 3.21073121486679E-02 
1238	 3.21205751231098E-02 
1239	 3.21248641619494E-02 
1240	 3.21142732933157E-02 
1241	 3.21101211755925E-02 
1242	 3.21122256830322E-02 
1243	 3.21228023084607E-02 
1244	 3.21559925303055E-02 
1245	 3.21729985516292E-02 
1246	 3.21868932256987E-02 
1247	 3.21946558245507E-02 
1248	 3.22016004557643E-02 
1249	 3.22040838556592E-02 
1250	 3.21937121257426E-02 
1251	 3.21924512722242E-02 
1252	 3.21932560610811E-02 
1253	 3.21955391188363E-02 
1254	 3.22085768053571E-02 
1255	 3.22053273363356E-02 
1256	 3.21897937599314E-02 
1257	 3.21830541593754E-02 
1258	 0.032165529209426 
1259	 3.21589204816451E-02 
1260	 3.21709263881684E-02 
1261	 0.032173650452239 
1262	 3.21720459837886E-02 
1263	 3.21752269731488E-02 
1264	 3.21716111926683E-02 
1265	 3.21593282410258E-02 
1266	 3.21579894353478E-02 
1267	 3.21585445754551E-02 
1268	 0.032161557806645 
1269	 0.03217143010662 
1270	 3.21790285740756E-02 
1271	 0.032185326979925 
1272	 3.21937214219047E-02 
1273	 3.22049742587983E-02 
1274	 3.22151341140996E-02 
1275	 3.22251243537188E-02 
1276	 3.22363480574242E-02 
1277	 3.22470988439615E-02 
1278	 3.22599937423633E-02 
1279	 3.22721137551751E-02 
1280	 3.22891184217587E-02 
1281	 3.23114455561248E-02 
1282	 3.23326371731011E-02 
1283	 3.23587297439535E-02 
1284	 3.23815199560762E-02 
1285	 3.24026286075632E-02 
1286	 3.24217908871114E-02 
1287	 3.24388994175731E-02 
1288	 3.24517115751528E-02 
1289	 3.24713451271783E-02 
1290	 3.24910502862181E-02 
1291	 3.25136626657112E-02 
1292	 3.25443975465321E-02 
1293	 3.25660305955377E-02 
1294	 3.25809076206182E-02 
1295	 3.26035556489626E-02 
1296	 3.26290164216415E-02 
1297	 3.26497430368002E-02 
1298	 3.26753177409016E-02 
1299	 3.26942699843128E-02 
1300	 3.27003356654576E-02 
1301	 3.27165970757269E-02 
1302	 3.27431385084344E-02 
1303	 3.27580081427157E-02 
1304	 3.27658714414844E-02 
1305	 3.27804516599171E-02 
1306	 3.27925164998947E-02 
1307	 3.28032874679847E-02 
1308	 3.28176140415015E-02 
1309	 3.28349198150734E-02 
1310	 3.28504379864097E-02 
1311	 3.28642957767319E-02 
1312	 3.28697317284044E-02 
1313	 3.28738310082729E-02 
1314	 3.28785752125612E-02 
1315	 3.28733081553527E-02 
1316	 3.28748472100548E-02 
1317	 3.28831163466132E-02 
1318	 3.28889008297867E-02 
1319	 3.28897223237736E-02 
1320	 3.28969285600162E-02 
1321	 3.29146857769614E-02 
1322	 3.29203949182488E-02 
1323	 3.29232936077108E-02 
1324	 3.29233799960685E-02 
1325	 3.29118751547577E-02 
1326	 3.29092488032818E-02 
1327	 3.29145152740465E-02 
1328	 0.032911236530098 
1329	 3.29005893365127E-02 
1330	 3.28993918062994E-02 
1331	 3.29019891503335E-02 
1332	 3.28993898965996E-02 
1333	 3.28978316370966E-02 
1334	 3.29047171991668E-02 
1335	 3.28983408652721E-02 
1336	 3.28784432249242E-02 
1337	 3.28721170901882E-02 
1338	 3.28695963905341E-02 
1339	 3.28635240095714E-02 
1340	 0.032860319676894 
1341	 0.032854980813128 
1342	 3.28467453664442E-02 
1343	 3.28389866561403E-02 
1344	 3.28343779800049E-02 
1345	 3.28230683939409E-02 
1346	 3.28041448861867E-02 
1347	 3.27925359490294E-02 
1348	 3.27800300555076E-02 
1349	 3.27710764760719E-02 
1350	 3.27741929426527E-02 
1351	 3.27630639379185E-02 
1352	 3.27424804241726E-02 
1353	 3.27270452431624E-02 
1354	 3.27073390264504E-02 
1355	 3.26886519286655E-02 
1356	 0.032672091092569 
1357	 3.26578187006156E-02 
1358	 0.03263654712725 
1359	 3.26253900552574E-02 
1360	 3.26192297323061E-02 
1361	 3.26288514413545E-02 
1362	 3.26180776544804E-02 
1363	 3.26025723666075E-02 
1364	 3.25927344879843E-02 
1365	 3.25720081639624E-02 
1366	 3.25627872888156E-02 
1367	 3.25714204816568E-02 
1368	 3.25589148023562E-02 
1369	 3.25349025884033E-02 
1370	 3.25191595770783E-02 
1371	 0.032497596006619 
1372	 3.24817933233623E-02 
1373	 0.032470716209024 
1374	 3.24629769961967E-02 
1375	 3.24605026337448E-02 
1376	 3.24513452885157E-02 
1377	 3.24457311908537E-02 
1378	 3.24333830002971E-02 
1379	 3.24079405652207E-02 
1380	 3.23934740750583E-02 
1381	 3.23812608485306E-02 
1382	 3.23729397158704E-02 
1383	 3.23745831701698E-02 
1384	 3.23678117070107E-02 
1385	 3.23581558297367E-02 
1386	 3.23503447491713E-02 
1387	 0.032341846096662 
1388	 3.23314251627185E-02 
1389	 3.23175318716625E-02 
1390	 3.23086495534625E-02 
1391	 3.23044946518408E-02 
1392	 0.032290063723272 
1393	 3.22840378896609E-02 
1394	 3.22876629714565E-02 
1395	 3.22813926207146E-02 
1396	 3.22709361979477E-02 
1397	 0.032263039701246 
1398	 3.22548125622783E-02 
1399	 3.22450635961181E-02 
1400	 3.22336823757497E-02 
1401	 3.22257926259171E-02 
1402	 3.22187860162912E-02 
1403	 3.22077549061244E-02 
1404	 3.22006893542296E-02 
1405	 3.21878992911616E-02 
1406	 3.21676937357536E-02 
1407	 0.032150605706592 
1408	 3.21296144700006E-02 
1409	 0.032114319938767 
1410	 3.20990828890301E-02 
1411	 3.20899057517772E-02 
1412	 3.20946058598019E-02 
1413	 3.20862285879029E-02 
1414	 3.20676162597925E-02 
1415	 3.20604531047507E-02 
1416	 3.20468278722092E-02 
1417	 3.20455686344269E-02 
1418	 3.20718931815354E-02 
1419	 3.20768946732986E-02 
1420	 3.20715782945981E-02 
1421	 3.20701382651783E-02 
1422	 3.20527258816589E-02 
1423	 3.20492872208713E-02 
1424	 0.032059033220405 
1425	 3.20690650452374E-02 
1426	 3.20790570317639E-02 
1427	 3.20860952907392E-02 
1428	 3.20878871459614E-02 
1429	 3.20836017583521E-02 
1430	 3.20811467593647E-02 
1431	 3.20734708669494E-02 
1432	 3.20785471794375E-02 
1433	 3.20893773148822E-02 
1434	 3.20958938898682E-02 
1435	 0.032108983199457 
1436	 3.21154671219437E-02 
1437	 3.21168030327555E-02 
1438	 3.21178708053463E-02 
1439	 0.032115934764225 
1440	 3.21201876807843E-02 
1441	 3.21236688140338E-02 
1442	 3.21291732957338E-02 
1443	 3.21428443327702E-02 
1444	 3.21507612399875E-02 
1445	 3.21536507719492E-02 
1446	 3.21598464089677E-02 
1447	 3.21670204372949E-02 
1448	 3.21740400761708E-02 
1449	 3.21826406447327E-02 
1450	 3.21894489608936E-02 
1451	 3.21947332923733E-02 
1452	 3.22024271717659E-02 
1453	 3.22099166970744E-02 
1454	 0.03221741965005 
1455	 0.032228859909377 
1456	 0.03223578606527 
1457	 3.22405643729239E-02 
1458	 3.22447237721897E-02 
1459	 3.22429494841596E-02 
1460	 0.032246532791849 
1461	 3.22526220763261E-02 
1462	 3.22587790578382E-02 
1463	 3.22685688482038E-02 
1464	 3.22764691360692E-02 
1465	 3.22817215928288E-02 
1466	 3.22901383945264E-02 
1467	 0.032295207169976 
1468	 3.23052864194235E-02 
1469	 3.23155218278804E-02 
1470	 3.23260612048819E-02 
1471	 3.23321577719411E-02 
1472	 3.23370902021134E-02 
1473	 3.23422482794424E-02 
1474	 3.23398388228869E-02 
1475	 3.23510918286428E-02 
1476	 3.23734941472814E-02 
1477	 0.032381741078266 
1478	 3.23929249522633E-02 
1479	 3.23961684782326E-02 
1480	 3.23819494623056E-02 
1481	 3.23855558508015E-02 
1482	 3.23978478773194E-02 
1483	 3.24038234824153E-02 
1484	 3.24111431347904E-02 
1485	 3.24217859222164E-02 
1486	 3.24358811750922E-02 
1487	 3.24393680034564E-02 
1488	 3.24430288020239E-02 
1489	 3.24435699163876E-02 
1490	 0.032425504886386 
1491	 3.24273625976145E-02 
1492	 3.24389913784492E-02 
1493	 3.24527572385097E-02 
1494	 3.24838974597327E-02 
1495	 3.24964245550913E-02 
1496	 3.25006947297929E-02 
1497	 3.25091782291528E-02 
1498	 3.25110611377863E-02 
1499	 3.25124289034103E-02 
1500	 3.25141293887485E-02 
1501	 0.032519720661661 
1502	 3.25237715154923E-02 
1503	 3.25277429475096E-02 
1504	 0.032536393358012 
1505	 3.25455945492407E-02 
1506	 3.25556506680191E-02 
1507	 3.25598881743756E-02 
1508	 3.25637617906127E-02 
1509	 3.25677878980395E-02 
1510	 3.25601007277281E-02 
1511	 3.25623232931463E-02 
1512	 3.25746230005054E-02 
1513	 3.25844038127149E-02 
1514	 3.25984035920822E-02 
1515	 3.26097385709108E-02 
1516	 3.26184117352931E-02 
1517	 3.26275968090175E-02 
1518	 3.26373133480288E-02 
1519	 3.26454104372653E-02 
1520	 3.26505531073299E-02 
1521	 3.26586179981982E-02 
1522	 0.032672094643709 
1523	 3.26762933590106E-02 
1524	 0.032680200899403 
1525	 0.032683685089321 
1526	 0.032686670414217 
1527	 3.26818197742799E-02 
1528	 3.26921539162677E-02 
1529	 3.27145487892388E-02 
1530	 3.27197277312432E-02 
1531	 3.27233802676364E-02 
1532	 3.27273119750712E-02 
1533	 3.27171407239105E-02 
1534	 3.27257484003858E-02 
1535	 3.27487608867702E-02 
1536	 0.032762458587931 
1537	 3.27828172694845E-02 
1538	 3.27859890795144E-02 
1539	 0.032774039343014 
1540	 0.032778648473481 
1541	 3.27842165533615E-02 
1542	 3.27842382503781E-02 
1543	 3.27898420467243E-02 
1544	 3.27956724706195E-02 
1545	 3.27901998033054E-02 
1546	 3.27957922214057E-02 
1547	 3.28200555182222E-02 
1548	 3.28247951953633E-02 
1549	 3.28160878394479E-02 
1550	 3.28196129966358E-02 
1551	 3.28223136039597E-02 
1552	 3.28263522989837E-02 
1553	 3.28428599282318E-02 
1554	 3.28433736620346E-02 
1555	 3.28289017365145E-02 
1556	 3.28278726801406E-02 
1557	 3.28223869623233E-02 
1558	 3.28289565141287E-02 
1559	 3.28576369301523E-02 
1560	 3.28632778015422E-02 
1561	 0.032856660292315 
1562	 3.28628110861531E-02 
1563	 3.28637312905136E-02 
1564	 3.28684873439919E-02 
1565	 3.28904494335378E-02 
1566	 3.28976430439047E-02 
1567	 3.28910484993648E-02 
1568	 3.28920632151722E-02 
1569	 3.28910183365795E-02 
1570	 3.28958434404199E-02 
1571	 3.29025785389713E-02 
1572	 3.29147964972879E-02 
1573	 3.29390926422731E-02 
1574	 3.29518127330646E-02 
1575	 0.032969247061396 
1576	 3.29722488738824E-02 
1577	 3.29567898228558E-02 
1578	 3.29504655832897E-02 
1579	 3.29321523474904E-02 
1580	 3.29321467109239E-02 
1581	 0.032951886238642 
1582	 3.29583646487844E-02 
1583	 3.29714723343543E-02 
1584	 3.29752558479852E-02 
1585	 3.29595087629411E-02 
1586	 3.29588018034237E-02 
1587	 3.29654901682921E-02 
1588	 3.29694888873826E-02 
1589	 3.29733770662672E-02 
1590	 3.29858157660902E-02 
1591	 3.30074924649945E-02 
1592	 3.30180048643334E-02 
1593	 3.30301250521543E-02 
1594	 0.033041904003051 
1595	 0.033048584366406 
1596	 3.30485343556626E-02 
1597	 3.30473092351228E-02 
1598	 0.033045280601551 
1599	 3.30236372512287E-02 
1600	 3.30221504275523E-02 
1601	 3.30411240969483E-02 
1602	 3.30496417742321E-02 
1603	 3.30613552393208E-02 
1604	 3.30707157495689E-02 
1605	 3.30707875174391E-02 
1606	 3.30769151536418E-02 
1607	 3.30933344338961E-02 
1608	 3.30999160879623E-02 
1609	 0.033100666914666 
1610	 3.31039317572115E-02 
1611	 3.31008661433239E-02 
1612	 3.31021142943988E-02 
1613	 3.31114893503519E-02 
1614	 3.31143280955397E-02 
1615	 3.31079667198639E-02 
1616	 3.31128294682246E-02 
1617	 3.31184766364271E-02 
1618	 3.31290931621976E-02 
1619	 3.31670276005212E-02 
1620	 3.31745325179305E-02 
1621	 3.31533460883434E-02 
1622	 3.31548535237183E-02 
1623	 3.31535628937216E-02 
1624	 3.31504978671849E-02 
1625	 3.31680798132435E-02 
1626	 3.31735960613703E-02 
1627	 3.31583333025584E-02 
1628	 3.31542403937551E-02 
1629	 3.31535477894279E-02 
1630	 3.31579731559173E-02 
1631	 3.31740387257399E-02 
1632	 3.31790002912704E-02 
1633	 3.31867118658476E-02 
1634	 3.31854007856728E-02 
1635	 3.31567527923183E-02 
1636	 3.31538697702286E-02 
1637	 0.033165672022906 
1638	 3.31740516479051E-02 
1639	 3.32031349764442E-02 
1640	 3.32153006464724E-02 
1641	 3.32096748911856E-02 
1642	 3.32120585083683E-02 
1643	 3.32162138214457E-02 
1644	 3.32164975700443E-02 
1645	 3.32147871782842E-02 
1646	 3.32154879298358E-02 
1647	 3.32152210892027E-02 
1648	 3.32122432538065E-02 
1649	 3.32092848750601E-02 
1650	 3.32100741905062E-02 
1651	 3.32101321447392E-02 
1652	 3.32076307156201E-02 
1653	 3.32108200537111E-02 
1654	 3.32077739837122E-02 
1655	 3.31928226660178E-02 
1656	 3.31869929621914E-02 
1657	 3.31886867146534E-02 
1658	 3.31832259833713E-02 
1659	 3.31779911910148E-02 
1660	 3.31725923897137E-02 
1661	 3.31595311971663E-02 
1662	 3.31507868437433E-02 
1663	 3.31506047724237E-02 
1664	 0.033140743250468 
1665	 3.31211251225855E-02 
1666	 3.31091679836293E-02 
1667	 0.033104456020095 
1668	 3.30855473026118E-02 
1669	 3.30645641822977E-02 
1670	 3.30433699488417E-02 
1671	 3.30021215298181E-02 
1672	 3.29778496260145E-02 
1673	 3.29734257715181E-02 
1674	 3.29484642667611E-02 
1675	 3.29168616280566E-02 
1676	 3.28866105316528E-02 
1677	 3.28451971261969E-02 
1678	 3.28127379181245E-02 
1679	 0.032789676852579 
1680	 3.27607933407407E-02 
1681	 3.27315092208571E-02 
1682	 3.26918022527234E-02 
1683	 3.26418885006816E-02 
1684	 0.032606094481156 
1685	 0.032569020125656 
1686	 3.25369051992051E-02 
1687	 3.25192558601404E-02 
1688	 0.032486223010808 
1689	 3.24461420606673E-02 
1690	 3.24069756243642E-02 
1691	 0.032360341801111 
1692	 3.23256746396556E-02 
1693	 3.22961438657429E-02 
1694	 3.22638181801528E-02 
1695	 3.22357896203888E-02 
1696	 3.22081715940565E-02 
1697	 3.21855930438021E-02 
1698	 3.21461540976482E-02 
1699	 3.20951309872011E-02 
1700	 3.20617597297217E-02 
1701	 3.20188661311906E-02 
1702	 3.19908063330355E-02 
1703	 0.031985915629643 
1704	 3.19719957043549E-02 
1705	 3.19571075609584E-02 
1706	 3.19400245638447E-02 
1707	 3.19214453508035E-02 
1708	 3.18856123964437E-02 
1709	 3.18499459761824E-02 
1710	 3.18192279697466E-02 
1711	 3.17996742443687E-02 
1712	 3.17798375771834E-02 
1713	 3.17564736646997E-02 
1714	 0.031755969393233 
1715	 3.17551197353696E-02 
1716	 3.17453360081379E-02 
1717	 3.17422454092572E-02 
1718	 3.17270667429561E-02 
1719	 3.16961535412774E-02 
1720	 3.16740956671551E-02 
1721	 3.16759472710868E-02 
1722	 3.16872691949794E-02 
1723	 3.16855565795937E-02 
1724	 3.16933215465127E-02 
1725	 3.17087578496541E-02 
1726	 3.17072670466268E-02 
1727	 3.17246834425845E-02 
1728	 3.17553285793263E-02 
1729	 3.17627658657463E-02 
1730	 3.17728783042551E-02 
1731	 0.031798163962933 
1732	 3.18217541571524E-02 
1733	 3.18448437827727E-02 
1734	 3.18802140011375E-02 
1735	 3.19147506844156E-02 
1736	 3.19399202188129E-02 
1737	 0.031962664809329 
1738	 0.031963531486633 
1739	 3.19700392041971E-02 
1740	 3.19668136316059E-02 
1741	 3.19722314402015E-02 
1742	 0.031986245268811 
1743	 3.19950844055076E-02 
1744	 3.20101216201811E-02 
1745	 0.032020725925962 
1746	 3.20233472118962E-02 
1747	 3.20290301143237E-02 
1748	 3.20353492910209E-02 
1749	 3.20312186102128E-02 
1750	 3.20229658450588E-02 
1751	 3.20200177786699E-02 
1752	 0.032011279752267 
1753	 3.20102166474815E-02 
1754	 3.20216025786219E-02 
1755	 3.20251778252062E-02 
1756	 3.20184884404462E-02 
1757	 3.20069418915826E-02 
1758	 3.20057104808391E-02 
1759	 3.20003344416051E-02 
1760	 3.20281873999455E-02 
1761	 3.20537306427499E-02 
1762	 3.20719517496971E-02 
1763	 3.21074718491852E-02 
1764	 0.032118193595023 
1765	 3.21437714851351E-02 
1766	 3.21844872301654E-02 
1767	 3.21933965204181E-02 
1768	 3.22296241989814E-02 
1769	 3.22724517563323E-02 
1770	 3.23006191772495E-02 
1771	 3.23445517019314E-02 
1772	 3.23697417869871E-02 
1773	 3.23813155870477E-02 
1774	 3.23999352695319E-02 
1775	 0.032424630004893 
1776	 3.24481031859915E-02 
1777	 3.24755294675671E-02 
1778	 3.25091702939276E-02 
1779	 3.25379982081874E-02 
1780	 3.25626763256788E-02 
1781	 3.25631237349817E-02 
1782	 3.25719772276841E-02 
1783	 3.25884687839928E-02 
1784	 3.25765834368993E-02 
1785	 3.26082856526236E-02 
1786	 3.26170790467025E-02 
1787	 3.26042355794498E-02 
1788	 3.26199168134722E-02 
1789	 0.032643124028407 
1790	 3.26575027933877E-02 
1791	 3.26828532205689E-02 
1792	 3.26964166001504E-02 
1793	 3.26943566203272E-02 
1794	 3.26976591428219E-02 
1795	 3.26941338987051E-02 
1796	 3.26803586550744E-02 
1797	 3.26888029546737E-02 
1798	 0.032698684341267 
1799	 3.27064065211783E-02 
1800	 3.27131583369179E-02 
1801	 3.34140405464141E-02 
1802	 3.34331014436017E-02 
1803	 3.34471850673855E-02 
1804	 3.34573953998702E-02 
1805	 3.34620659542999E-02 
1806	 3.34730365940068E-02 
1807	 3.34832714482181E-02 
1808	 3.34926390657878E-02 
1809	 3.35056840403832E-02 
1810	 3.35177967379532E-02 
1811	 3.35292980167605E-02 
1812	 3.35383582817794E-02 
1813	 3.35438078010264E-02 
1814	 3.35546553296271E-02 
1815	 3.35668973938629E-02 
1816	 3.35796762643234E-02 
1817	 3.35892990972944E-02 
1818	 3.36007196612409E-02 
1819	 3.36103165177253E-02 
1820	 3.36138269621622E-02 
1821	 3.36199547655409E-02 
1822	 3.36254373689298E-02 
1823	 3.36409636711936E-02 
1824	 3.36466101719427E-02 
1825	 3.36584955858191E-02 
1826	 0.033678115356558 
1827	 3.37111116307593E-02 
1828	 3.37279750873064E-02 
1829	 3.37426690484381E-02 
1830	 0.03375947234152 
1831	 3.37707422198501E-02 
1832	 3.37820688167207E-02 
1833	 3.37962838255494E-02 
1834	 3.38041530936208E-02 
1835	 3.38191527393567E-02 
1836	 3.38461593704993E-02 
1837	 0.033864605189294 
1838	 3.38952252841624E-02 
1839	 3.39097026163204E-02 
1840	 3.39039538684661E-02 
1841	 3.39064155495673E-02 
1842	 3.39032163759442E-02 
1843	 3.39123014990229E-02 
1844	 3.39208530298114E-02 
1845	 3.39502926540123E-02 
1846	 3.39733963949546E-02 
1847	 3.39845472623415E-02 
1848	 3.39960410039161E-02 
1849	 3.39971478679484E-02 
1850	 3.40002329944107E-02 
1851	 0.033991890162836 
1852	 3.40181504081517E-02 
1853	 3.40369534767027E-02 
1854	 3.40458441798998E-02 
1855	 3.40658728092587E-02 
1856	 3.40741951266019E-02 
1857	 3.40730232680372E-02 
1858	 3.40800951658839E-02 
1859	 3.40925882155515E-02 
1860	 3.41127755418756E-02 
1861	 3.41246188132518E-02 
1862	 3.41372769799643E-02 
1863	 3.41550153919132E-02 
1864	 3.41528863971603E-02 
1865	 3.41408705650705E-02 
1866	 3.41318839908892E-02 
1867	 3.41282452385664E-02 
1868	 3.41399692497503E-02 
1869	 3.41480495759892E-02 
1870	 3.41477059621407E-02 
1871	 3.41436272818161E-02 
1872	 0.034140215462751 
1873	 3.41284681469453E-02 
1874	 3.41189951303619E-02 
1875	 3.41220411865873E-02 
1876	 3.41147310404251E-02 
1877	 3.41030244559956E-02 
1878	 3.40902529207621E-02 
1879	 3.40734553472179E-02 
1880	 3.40534829649435E-02 
1881	 3.40330276826755E-02 
1882	 3.40123075052605E-02 
1883	 0.033989024904755 
1884	 3.39612502820048E-02 
1885	 3.39361695493932E-02 
1886	 3.39054253931076E-02 
1887	 3.38693360320412E-02 
1888	 3.38309064419418E-02 
1889	 3.37869474721961E-02 
1890	 3.37419211799666E-02 
1891	 3.36928731811945E-02 
1892	 3.36436631851411E-02 
1893	 3.35975125243216E-02 
1894	 3.35515280953412E-02 
1895	 3.35005658289959E-02 
1896	 3.34561779964343E-02 
1897	 3.34134005067925E-02 
1898	 3.33626263923102E-02 
1899	 3.33103624507784E-02 
1900	 0.033263721365454 
1901	 3.32217238107975E-02 
1902	 3.31792572385017E-02 
1903	 3.31466111401115E-02 
1904	 3.31047820540929E-02 
1905	 3.30591570081134E-02 
1906	 0.03300390243387 
1907	 3.29661999837711E-02 
1908	 3.29227593932297E-02 
1909	 3.28836376359488E-02 
1910	 3.28666420938749E-02 
1911	 3.28433261286751E-02 
1912	 3.28187376297382E-02 
1913	 0.032790065715288 
1914	 3.27640405784184E-02 
1915	 3.27374953947863E-02 
1916	 3.27067337583481E-02 
1917	 3.26689389781546E-02 
1918	 3.26553614081463E-02 
1919	 3.26397452178763E-02 
1920	 3.26229401950985E-02 
1921	 3.26207548500867E-02 
1922	 3.26093790989137E-02 
1923	 3.25987833523269E-02 
1924	 3.25834186767552E-02 
1925	 3.25667540340126E-02 
1926	 3.25566601676008E-02 
1927	 3.25496672225483E-02 
1928	 3.25423118367895E-02 
1929	 3.25390349843021E-02 
1930	 3.25376155019227E-02 
1931	 3.25302763963854E-02 
1932	 3.25220112797542E-02 
1933	 3.25190186775609E-02 
1934	 3.25145472808354E-02 
1935	 3.25141394816054E-02 
1936	 3.25193021285179E-02 
1937	 3.25223618947529E-02 
1938	 0.032525480417287 
1939	 3.25300240818504E-02 
1940	 3.25346315164448E-02 
1941	 3.25409758066424E-02 
1942	 0.032553483903017 
1943	 3.25634429372913E-02 
1944	 3.25739589702738E-02 
1945	 3.25837167141572E-02 
1946	 3.25930643190978E-02 
1947	 3.26091783744559E-02 
1948	 3.26300516162983E-02 
1949	 3.26507644649226E-02 
1950	 3.26701842394456E-02 
1951	 3.26838958769547E-02 
1952	 3.27041441298832E-02 
1953	 3.27281297890956E-02 
1954	 3.27539072265434E-02 
1955	 3.27699658457707E-02 
1956	 3.28032225002631E-02 
1957	 0.032823313400387 
1958	 3.28279779550603E-02 
1959	 3.28498989182444E-02 
1960	 3.28603197404389E-02 
1961	 3.28814194239764E-02 
1962	 0.032916730630043 
1963	 3.29415947304237E-02 
1964	 3.29639977096846E-02 
1965	 0.032988803206571 
1966	 0.033011775558223 
1967	 3.30286366699317E-02 
1968	 3.30523348944514E-02 
1969	 3.30708547929699E-02 
1970	 3.30836150014969E-02 
1971	 3.30958829843568E-02 
1972	 0.033115223262659 
1973	 3.31424806746325E-02 
1974	 3.31691214816447E-02 
1975	 3.32049449370374E-02 
1976	 3.32318778841526E-02 
1977	 3.32518352593254E-02 
1978	 0.033276703494557 
1979	 3.33024591665238E-02 
1980	 3.33285053890326E-02 
1981	 3.33458865995179E-02 
1982	 3.33708358775895E-02 
1983	 0.033395239041069 
1984	 3.34061671567732E-02 
1985	 3.34322948824195E-02 
1986	 3.34777893975393E-02 
1987	 3.35091796564717E-02 
1988	 3.35427231399778E-02 
1989	 3.35691056133069E-02 
1990	 3.35873384425387E-02 
1991	 3.36024898088726E-02 
1992	 3.36084168128053E-02 
1993	 3.36182775286615E-02 
1994	 3.36516341031253E-02 
1995	 3.36795153730287E-02 
1996	 3.36984706311311E-02 
1997	 3.37321957439594E-02 
1998	 3.37524807295495E-02 
1999	 3.37493952044187E-02 
2000	 3.37662714834721E-02 
2001	 3.37948073916105E-02 
2002	 3.38188544549836E-02 
2003	 3.38456447537458E-02 
2004	 3.38694758530887E-02 
2005	 0.033896905086272 
2006	 3.39174274977324E-02 
2007	 3.39334138479321E-02 
2008	 3.39430852324102E-02 
2009	 3.39635624980485E-02 
2010	 3.39786419413433E-02 
2011	 3.39957018061209E-02 
2012	 3.40258009756742E-02 
2013	 3.40460272397203E-02 
2014	 3.40617693704046E-02 
2015	 3.40795707630615E-02 
2016	 3.40968679091716E-02 
2017	 3.41101527246928E-02 
2018	 3.41269538936235E-02 
2019	 3.41344724510162E-02 
2020	 3.41336271750492E-02 
2021	 3.41300352647073E-02 
2022	 3.41310793438469E-02 
2023	 3.41276316710431E-02 
2024	 3.41295261750234E-02 
2025	 3.41432016790215E-02 
2026	 3.41480661382978E-02 
2027	 3.41568846809621E-02 
2028	 3.41532115228689E-02 
2029	 3.41365212355874E-02 
2030	 0.034128964822025 
2031	 3.41114674233662E-02 
2032	 3.41086929248483E-02 
2033	 3.41220556019235E-02 
2034	 0.03412610490798 
2035	 3.41344914295787E-02 
2036	 3.41434690097859E-02 
2037	 3.41259663272277E-02 
2038	 3.41195005594373E-02 
2039	 3.41146993241134E-02 
2040	 3.41034614289833E-02 
2041	 3.41045223708287E-02 
2042	 0.034113817028796 
2043	 0.034123869185166 
2044	 3.41382018221158E-02 
2045	 0.034155017718086 
2046	 3.41819497970644E-02 
2047	 3.42030998283901E-02 
2048	 3.42232683480355E-02 
2049	 3.42438623285388E-02 
2050	 3.42656444978733E-02 
2051	 0.034278323603788 
2052	 3.42990435277884E-02 
2053	 3.43127176748228E-02 
2054	 3.43300475099554E-02 
2055	 3.43470562198951E-02 
2056	 3.43646210102704E-02 
2057	 3.43805640648621E-02 
2058	 3.44038463165953E-02 
2059	 3.44382871893982E-02 
2060	 0.03445313044076 
2061	 3.44563865023052E-02 
2062	 3.44729180195753E-02 
2063	 3.44895988641389E-02 
2064	 3.44984081732663E-02 
2065	 3.45126417093912E-02 
2066	 3.45239854461838E-02 
2067	 3.45315459567228E-02 
2068	 3.45430275658678E-02 
2069	 3.45682697603956E-02 
2070	 3.46240766464216E-02 
2071	 3.46482543232067E-02 
2072	 3.46647095273236E-02 
2073	 3.46793329643367E-02 
2074	 3.46782791240369E-02 
2075	 3.46851266669964E-02 
2076	 3.46866714193591E-02 
2077	 3.47001835956935E-02 
2078	 3.47222921971122E-02 
2079	 0.034744946489886 
2080	 3.47828349662601E-02 
2081	 0.034810198109041 
2082	 3.48348943030248E-02 
2083	 3.48477323968202E-02 
2084	 3.48640102153693E-02 
2085	 3.48822658766112E-02 
2086	 3.49030881615283E-02 
2087	 3.49322460981622E-02 
2088	 3.49453925267669E-02 
2089	 3.49499188957089E-02 
2090	 3.49630605146658E-02 
2091	 3.49659302090772E-02 
2092	 3.49803805616314E-02 
2093	 0.035014370594127 
2094	 3.50330579020687E-02 
2095	 3.50498666958562E-02 
2096	 3.50607567623153E-02 
2097	 3.50651290248745E-02 
2098	 3.50580457012932E-02 
2099	 3.50729792013791E-02 
2100	 3.50872352586568E-02 
2101	 3.50995464866015E-02 
2102	 0.035128139271909 
2103	 3.51313195056594E-02 
2104	 3.51098953970123E-02 
2105	 3.51109133545667E-02 
2106	 3.51041065879166E-02 
2107	 3.51207288331698E-02 
2108	 3.51712807757402E-02 
2109	 3.51917231946518E-02 
2110	 3.52096054085451E-02 
2111	 3.52237124887816E-02 
2112	 3.52164257933375E-02 
2113	 3.52207896622618E-02 
2114	 3.52370034148726E-02 
2115	 3.52456884850125E-02 
2116	 0.035244244406144 
2117	 3.52539760498844E-02 
2118	 3.52641999972857E-02 
2119	 3.52735585005248E-02 
2120	 3.52871548551686E-02 
2121	 3.53164058107323E-02 
2122	 3.53182479554141E-02 
2123	 3.53006864777873E-02 
2124	 3.53047839927308E-02 
2125	 3.52989144255337E-02 
2126	 3.53064746325543E-02 
2127	 3.53460002697934E-02 
2128	 3.53593310886797E-02 
2129	 3.53633361855405E-02 
2130	 3.53651766653391E-02 
2131	 3.53492616879934E-02 
2132	 3.53461576612017E-02 
2133	 3.53495166606829E-02 
2134	 3.53462900639358E-02 
2135	 3.53560236753004E-02 
2136	 3.53660946270244E-02 
2137	 3.53580827910813E-02 
2138	 0.035338015305341 
2139	 3.53228214959464E-02 
2140	 3.52900549324068E-02 
2141	 3.52812619210498E-02 
2142	 3.52884880441684E-02 
2143	 3.52876282214848E-02 
2144	 3.52949060206032E-02 
2145	 3.52948311395366E-02 
2146	 3.52956109909149E-02 
2147	 3.52855408812852E-02 
2148	 3.52690588731731E-02 
2149	 3.52489629612205E-02 
2150	 3.52019967073629E-02 
2151	 3.51808376850711E-02 
2152	 3.51645576749307E-02 
2153	 3.51747542770132E-02 
2154	 3.51643815004603E-02 
2155	 3.51490245394526E-02 
2156	 3.51360107749542E-02 
2157	 3.51079629687233E-02 
2158	 3.50862443538852E-02 
2159	 3.50722397153188E-02 
2160	 3.50616466522071E-02 
2161	 3.50470344230074E-02 
2162	 3.50319955994046E-02 
2163	 3.50389400387038E-02 
2164	 3.50145095116623E-02 
2165	 3.49562840552571E-02 
2166	 3.49246800044777E-02 
2167	 3.48910632282388E-02 
2168	 3.48637798847752E-02 
2169	 3.48547396786278E-02 
2170	 3.48390060326457E-02 
2171	 3.48153685168844E-02 
2172	 3.47999982738386E-02 
2173	 3.47905128454857E-02 
2174	 3.47833116161243E-02 
2175	 3.47823416390569E-02 
2176	 3.47705679866986E-02 
2177	 3.47517868890279E-02 
2178	 3.47204823018557E-02 
2179	 3.47077170067551E-02 
2180	 3.46952149160462E-02 
2181	 3.46841161928564E-02 
2182	 3.46847430637975E-02 
2183	 3.46823779356908E-02 
2184	 3.46710926437432E-02 
2185	 0.034672332770689 
2186	 3.46956820593451E-02 
2187	 3.46928265905109E-02 
2188	 3.46738961094371E-02 
2189	 0.034667745833381 
2190	 3.46505892221505E-02 
2191	 3.46481549063437E-02 
2192	 3.46674728500191E-02 
2193	 3.46739872853803E-02 
2194	 3.46839400584679E-02 
2195	 3.46807821792798E-02 
2196	 3.46601067405863E-02 
2197	 3.46524421316102E-02 
2198	 3.46321516209677E-02 
2199	 3.46223577055396E-02 
2200	 3.46156518000649E-02 
2201	 3.46110971177911E-02 
2202	 3.46212637346998E-02 
2203	 3.46485090856313E-02 
2204	 3.46540264696984E-02 
2205	 3.46683649347319E-02 
2206	 3.46669390340026E-02 
2207	 3.46345110707498E-02 
2208	 3.46263234536783E-02 
2209	 3.46302598389724E-02 
2210	 3.46269288156728E-02 
2211	 0.034630561086311 
2212	 3.46250987141552E-02 
2213	 3.46061291718474E-02 
2214	 3.45957588941255E-02 
2215	 3.45853427483155E-02 
2216	 3.45796863120454E-02 
2217	 3.45797605352261E-02 
2218	 3.45813282637116E-02 
2219	 3.45926085847622E-02 
2220	 3.45927292497946E-02 
2221	 3.45925402825106E-02 
2222	 3.45831743299543E-02 
2223	 3.45832969734983E-02 
2224	 3.45527295205132E-02 
2225	 0.034519074224296 
2226	 3.45099771282548E-02 
2227	 3.44919762080753E-02 
2228	 0.03447481766578 
2229	 3.44462140312575E-02 
2230	 3.44162406532594E-02 
2231	 3.43828150488808E-02 
2232	 3.43391381907446E-02 
2233	 3.42917698222502E-02 
2234	 0.034234466054378 
2235	 3.41963432337403E-02 
2236	 3.41788991903688E-02 
2237	 0.03412012778108 
2238	 0.034054402209994 
2239	 3.39882753182573E-02 
2240	 0.033873026531034 
2241	 3.37907224787005E-02 
2242	 3.37523615897553E-02 
2243	 3.36828499157462E-02 
2244	 3.36007938534018E-02 
2245	 3.35190384825768E-02 
2246	 3.34146846120994E-02 
2247	 3.33246769247807E-02 
2248	 3.32543216634599E-02 
2249	 3.31641354766573E-02 
2250	 3.30716290857622E-02 
2251	 3.29727225212687E-02 
2252	 3.28553382726179E-02 
2253	 3.27541096535241E-02 
2254	 0.032644820585981 
2255	 3.25443979632363E-02 
2256	 3.24674053821126E-02 
2257	 3.23695558459591E-02 
2258	 3.22734269217561E-02 
2259	 3.21846592573351E-02 
2260	 3.20964420135195E-02 
2261	 3.19900962119007E-02 
2262	 0.031906811091769 
2263	 3.18412814221956E-02 
2264	 3.17784967147629E-02 
2265	 3.17259558709147E-02 
2266	 3.16691706011348E-02 
2267	 0.031626591996031 
2268	 3.15606853066448E-02 
2269	 3.14674693087667E-02 
2270	 3.14081314116748E-02 
2271	 3.13532397224731E-02 
2272	 3.13044610293316E-02 
2273	 3.12762888886355E-02 
2274	 3.12515497467089E-02 
2275	 3.12400196004827E-02 
2276	 3.12076324798253E-02 
2277	 3.11794701047355E-02 
2278	 3.11384779882402E-02 
2279	 3.10664692528042E-02 
2280	 3.10111101926655E-02 
2281	 3.09719491307758E-02 
2282	 3.09180506335606E-02 
2283	 3.08640292611308E-02 
2284	 3.07898425487889E-02 
2285	 3.07105503930248E-02 
2286	 3.06510827341889E-02 
2287	 3.05751558979964E-02 
2288	 0.030519131897101 
2289	 3.04941559603759E-02 
2290	 3.04510666920517E-02 
2291	 3.03979260904343E-02 
2292	 3.03370878507534E-02 
2293	 3.03019774415159E-02 
2294	 3.02441151753944E-02 
2295	 3.01602035421475E-02 
2296	 3.01251446479284E-02 
2297	 0.030088909197635 
2298	 3.00280895963394E-02 
2299	 2.99950213590967E-02 
2300	 3.00079516368427E-02 
2301	 2.99948624044173E-02 
2302	 2.99564771369031E-02 
2303	 2.99555725035155E-02 
2304	 2.99831263048848E-02 
2305	 2.99951115521208E-02 
2306	 3.00065495450757E-02 
2307	 3.00359931764002E-02 
2308	 3.00705267040566E-02 
2309	 3.01176556245143E-02 
2310	 3.01721565825908E-02 
2311	 3.02445389440947E-02 
2312	 3.03446654935571E-02 
2313	 3.04212203653417E-02 
2314	 3.05144371934968E-02 
2315	 0.03059988650012 
2316	 3.06565748096401E-02 
2317	 3.07205618912246E-02 
2318	 3.08123669081434E-02 
2319	 3.08656315462934E-02 
2320	 3.08934668933055E-02 
2321	 3.09208795358005E-02 
2322	 3.08899597343064E-02 
2323	 3.09198418788179E-02 
2324	 3.10029220901846E-02 
2325	 3.10550384800612E-02 
2326	 3.11572355693703E-02 
2327	 3.12032981704358E-02 
2328	 3.11663155471363E-02 
2329	 3.11611522350943E-02 
2330	 3.11582139667044E-02 
2331	 3.11474035576913E-02 
2332	 3.11161906878182E-02 
2333	 3.11110937044372E-02 
2334	 3.10694047576077E-02 
2335	 3.10032237151294E-02 
2336	 3.09618934224413E-02 
2337	 3.09409027692631E-02 
2338	 3.09536934082849E-02 
2339	 3.09356211756946E-02 
2340	 3.08921141578122E-02 
2341	 3.08543468965615E-02 
2342	 0.030765680035642 
2343	 0.030704080394645 
2344	 3.07216194834463E-02 
2345	 3.07060072330787E-02 
2346	 3.06799160367743E-02 
2347	 3.07118352164566E-02 
2348	 3.06954007986399E-02 
2349	 3.06932080929044E-02 
2350	 3.07826390127245E-02 
2351	 3.08569176085001E-02 
2352	 3.09206948218843E-02 
2353	 3.09935465794816E-02 
2354	 3.10326933077892E-02 
2355	 3.10446716587323E-02 
2356	 3.10647272137109E-02 
2357	 3.11350294208486E-02 
2358	 3.12227665129241E-02 
2359	 3.12524364822219E-02 
2360	 0.031306315591049 
2361	 3.13699041869551E-02 
2362	 3.13668202789361E-02 
2363	 3.14081165806945E-02 
2364	 3.14100602456573E-02 
2365	 3.13421739301474E-02 
2366	 3.13537140693737E-02 
2367	 3.13509019733575E-02 
2368	 3.13449189839967E-02 
2369	 3.13663462495638E-02 
2370	 3.13534935142893E-02 
2371	 3.13579995343945E-02 
2372	 3.13576295229679E-02 
2373	 3.13893647305836E-02 
2374	 3.14101163208372E-02 
2375	 3.13500265653311E-02 
2376	 3.13524615949998E-02 
2377	 3.13874247997776E-02 
2378	 3.13746886412381E-02 
2379	 3.14019420354396E-02 
2380	 3.14305228411059E-02 
2381	 3.14023360435236E-02 
2382	 0.031420607000716 
2383	 3.15103125105145E-02 
2384	 3.15229558278262E-02 
2385	 0.031496096953009 
2386	 3.14852402921295E-02 
2387	 3.14250409186576E-02 
2388	 3.14026349902814E-02 
2389	 3.14176540740009E-02 
2390	 3.14295935312651E-02 
2391	 3.14419823192346E-02 
2392	 3.14762787649159E-02 
2393	 3.15458470790048E-02 
2394	 3.15675111722659E-02 
2395	 3.15854938294132E-02 
2396	 3.15590751327287E-02 
2397	 3.14628035633952E-02 
2398	 3.14285706454113E-02 
2399	 3.14081577820913E-02 
2400	 3.13963182851796E-02 
2401	 3.14197718479165E-02 
2402	 3.14435039226323E-02 
2403	 3.14557202242727E-02 
2404	 3.15096613847389E-02 
2405	 3.15316447674253E-02 
2406	 0.031517474829844 
2407	 0.031485651160324 
2408	 3.14827100876487E-02 
2409	 3.14804953202355E-02 
2410	 3.14870324301884E-02 
2411	 3.14858066127991E-02 
2412	 3.13544755154174E-02 
2413	 3.12347898776194E-02 
2414	 3.12475459547197E-02 
2415	 3.12968736429904E-02 
2416	 0.031396052309253 
2417	 3.14916662206259E-02 
2418	 3.14775605980557E-02 
2419	 3.14159117909139E-02 
2420	 3.13546367732748E-02 
2421	 3.13152214868114E-02 
2422	 3.12905452431438E-02 
2423	 3.13230613585572E-02 
2424	 3.14007419971402E-02 
2425	 3.14455205528215E-02 
2426	 3.14990053322306E-02 
2427	 3.15175165348027E-02 
2428	 0.031472104176466 
2429	 3.14434610983683E-02 
2430	 3.14636271746193E-02 
2431	 3.14389755695314E-02 
2432	 3.13594545786067E-02 
2433	 3.13392648031845E-02 
2434	 3.13444812429274E-02 
2435	 3.13021448431206E-02 
2436	 3.13641655245511E-02 
2437	 3.15313406236315E-02 
2438	 3.15583564612172E-02 
2439	 3.15653014567564E-02 
2440	 3.16488997336528E-02 
2441	 3.16460753771158E-02 
2442	 3.16832706722832E-02 
2443	 3.16510044718882E-02 
2444	 3.14390477644295E-02 
2445	 3.13166537195471E-02 
2446	 3.11794317652178E-02 
2447	 0.031140700134552 
2448	 3.12139357829791E-02 
2449	 3.11770123530598E-02 
2450	 0.031214576725031 
2451	 0.03122394159578 
2452	 0.031225638532034 
2453	 3.13070764893508E-02 
2454	 3.13340925449859E-02 
2455	 3.13642758746204E-02 
2456	 3.13811313343301E-02 
2457	 3.12955954769945E-02 
2458	 3.11201760078138E-02 
2459	 3.10772165717035E-02 
2460	 3.11335275822829E-02 
2461	 3.11066629415063E-02 
2462	 3.12403659902006E-02 
2463	 3.12885992768327E-02 
2464	 3.11262799785789E-02 
2465	 3.11729819046322E-02 
2466	 3.11518839006113E-02 
2467	 3.09383690977797E-02 
2468	 3.08478774529149E-02 
2469	 3.08407266124899E-02 
2470	 3.07893479659265E-02 
2471	 3.07852551321408E-02 
2472	 0.0308713357216 
2473	 3.08202542316578E-02 
2474	 3.06982111300441E-02 
2475	 3.08121890963897E-02 
2476	 3.08901813262567E-02 
2477	 3.08604409075017E-02 
2478	 3.09946689041952E-02 
2479	 3.09267301532142E-02 
2480	 0.030883959902819 
2481	 0.030926036037428 
2482	 3.09636005920864E-02 
2483	 3.11472280414338E-02 
2484	 3.11249744262757E-02 
2485	 3.11976793428831E-02 
2486	 3.12715749502901E-02 
2487	 3.11994254887795E-02 
2488	 3.12493173456588E-02 
2489	 3.13116128034181E-02 
2490	 3.12594097265824E-02 
2491	 3.12493541624631E-02 
2492	 3.12910607504947E-02 
2493	 3.12858459275308E-02 
2494	 0.031323617484667 
2495	 3.13188390088505E-02 
2496	 3.12014287235723E-02 
2497	 3.12165614648846E-02 
2498	 3.12333575319958E-02 
2499	 3.11457350182665E-02 
2500	 3.11564677139387E-02 
