Wavelength	spectrum00002.asd
350	 2.92540068785781E-02 
351	 3.00898008757613E-02 
352	 2.90548257776031E-02 
353	 2.68016032366516E-02 
354	 0.028739658107985 
355	 2.87459499040486E-02 
356	 0.027721025541034 
357	 0.027413066242556 
358	 2.73105995842585E-02 
359	 0.025878703952997 
360	 2.44224383053799E-02 
361	 2.50766156471796E-02 
362	 2.40682699299893E-02 
363	 2.30553321463354E-02 
364	 2.28586067817386E-02 
365	 2.24996910272687E-02 
366	 0.023814302411571 
367	 2.47489472736593E-02 
368	 2.36899299624514E-02 
369	 2.33050008290757E-02 
370	 2.40007832621572E-02 
371	 2.45942094941665E-02 
372	 2.34584721813099E-02 
373	 2.36610476735321E-02 
374	 2.43345662675287E-02 
375	 2.45551280301966E-02 
376	 2.39435917607252E-02 
377	 0.02425624849936 
378	 2.49504660948758E-02 
379	 2.49286689196794E-02 
380	 2.32320998234187E-02 
381	 2.34700873693665E-02 
382	 0.024559217402933 
383	 2.30907461432166E-02 
384	 2.31711785873711E-02 
385	 2.40525239759167E-02 
386	 2.45145183079056E-02 
387	 2.34998491384533E-02 
388	 2.29221549501695E-02 
389	 2.28682062769176E-02 
390	 2.29043945948773E-02 
391	 2.27686222615838E-02 
392	 2.29034162036703E-02 
393	 0.023092049078389 
394	 2.28091765772116E-02 
395	 2.32745952443166E-02 
396	 2.35819204718009E-02 
397	 2.32867181937314E-02 
398	 2.31390580809813E-02 
399	 2.28232408532952E-02 
400	 2.26575408870485E-02 
401	 2.28786156666377E-02 
402	 2.26416487313274E-02 
403	 2.28875115546922E-02 
404	 0.023322884051921 
405	 2.28204568808782E-02 
406	 2.24321556003025E-02 
407	 2.23411875838103E-02 
408	 2.24759941694978E-02 
409	 2.25819995744803E-02 
410	 2.25625533898619E-02 
411	 2.25587343335861E-02 
412	 2.27618805621908E-02 
413	 2.32438539134841E-02 
414	 2.30549092866933E-02 
415	 2.24912090454462E-02 
416	 2.29023641038446E-02 
417	 2.29869985455391E-02 
418	 2.31045033239422E-02 
419	 2.35198165170804E-02 
420	 2.36092866965081E-02 
421	 2.34586830655703E-02 
422	 2.35206194842605E-02 
423	 2.41691077871618E-02 
424	 0.024207554360183 
425	 2.44052619408275E-02 
426	 2.49332825594776E-02 
427	 2.51174424803703E-02 
428	 2.52229834657686E-02 
429	 2.55802797044787E-02 
430	 2.62927572344047E-02 
431	 2.67547190101223E-02 
432	 2.72904084548372E-02 
433	 2.78609462236918E-02 
434	 0.028281649290248 
435	 2.90306556776582E-02 
436	 2.98010229558319E-02 
437	 3.04130825012638E-02 
438	 3.10029106782878E-02 
439	 3.19139403883262E-02 
440	 3.28522427126723E-02 
441	 3.35279741590138E-02 
442	 3.45144609407886E-02 
443	 3.56782742555331E-02 
444	 3.68618527710785E-02 
445	 3.79297959579556E-02 
446	 0.039060848876178 
447	 4.02406273351857E-02 
448	 4.14656373756389E-02 
449	 4.28365547422838E-02 
450	 4.42035381015072E-02 
451	 4.56327600787586E-02 
452	 4.72145285877436E-02 
453	 0.04862495811313 
454	 5.02486601847785E-02 
455	 5.20584830282895E-02 
456	 5.35434773714485E-02 
457	 0.05531358162852 
458	 5.71746654134057E-02 
459	 5.89150264763703E-02 
460	 6.08198953008313E-02 
461	 6.27826113079473E-02 
462	 0.06475452784996 
463	 6.67277176917697E-02 
464	 6.87288035024524E-02 
465	 7.09249377266763E-02 
466	 7.32325608056835E-02 
467	 7.51530629113345E-02 
468	 7.73693943032873E-02 
469	 7.97427428004279E-02 
470	 8.19969707537677E-02 
471	 0.084370867049567 
472	 8.66981762909358E-02 
473	 8.89651376605551E-02 
474	 9.12834058050874E-02 
475	 9.36152675433308E-02 
476	 9.60231536311493E-02 
477	 9.85215385701508E-02 
478	 0.10100355607413 
479	 0.103425497129761 
480	 0.105864854496559 
481	 0.108414694624627 
482	 0.110902365658349 
483	 0.113414049851146 
484	 0.115937334854186 
485	 0.118325084633761 
486	 0.120906993417461 
487	 0.123458728699839 
488	 0.125784174431682 
489	 0.128185946537468 
490	 0.130574001359724 
491	 0.132942503459341 
492	 0.135332025519692 
493	 0.137718749724058 
494	 0.140058705987706 
495	 0.142339973729733 
496	 0.144601343997987 
497	 0.146835239702458 
498	 0.149043691031343 
499	 0.151215645424255 
500	 0.153293020360815 
501	 0.155299151761454 
502	 0.157311406987389 
503	 0.159436851636164 
504	 0.161490367106347 
505	 0.163375369485227 
506	 0.165118998553514 
507	 0.166993706867155 
508	 0.168795836323939 
509	 0.17052627556545 
510	 0.172248065279167 
511	 0.173792020327732 
512	 0.175316834281612 
513	 0.176850854365607 
514	 0.17822553116575 
515	 0.17951137869165 
516	 0.180721421007034 
517	 0.181873765791133 
518	 0.183061628367428 
519	 0.184111890906205 
520	 0.185057947239342 
521	 0.186058310755701 
522	 0.186913309099717 
523	 0.187609226506513 
524	 0.188192076276272 
525	 0.188769423506302 
526	 0.189266620563664 
527	 0.189696340575004 
528	 0.190076835072487 
529	 0.190286678549325 
530	 0.190417440442471 
531	 0.19051845082808 
532	 0.190576967130717 
533	 0.190481309864577 
534	 0.190286216366142 
535	 0.190051522069528 
536	 0.189735666486538 
537	 0.189348478948796 
538	 0.188860711976088 
539	 0.188237251494552 
540	 0.187590832144965 
541	 0.186896466120288 
542	 0.186125621607367 
543	 0.185272620802329 
544	 0.184353469169691 
545	 0.183372112004099 
546	 0.182328833985142 
547	 0.181217477990656 
548	 0.180077457090878 
549	 0.178905327746741 
550	 0.17765995181774 
551	 0.176351638599632 
552	 0.175042110701784 
553	 0.173742962101982 
554	 0.17231554146138 
555	 0.170896759838483 
556	 0.169463893570298 
557	 0.167938643604343 
558	 0.16641846665448 
559	 0.164910393419344 
560	 0.163396535971854 
561	 0.161835823298132 
562	 0.160265870897986 
563	 0.158705279644866 
564	 0.157141024743954 
565	 0.155466526594335 
566	 0.153759662204442 
567	 0.152030030704124 
568	 0.150239300246882 
569	 0.148466318241731 
570	 0.146673212705427 
571	 0.144849712258428 
572	 0.143075438040318 
573	 0.14142885497098 
574	 0.139869291947698 
575	 0.138314599077493 
576	 0.136805736302815 
577	 0.135237804671875 
578	 0.133596772930341 
579	 0.131983023878527 
580	 0.130390144824707 
581	 0.128764553365299 
582	 0.127089478865037 
583	 0.125512621632893 
584	 0.123936325055559 
585	 0.122338535559863 
586	 0.120738706211598 
587	 0.119107980377001 
588	 0.117499534893154 
589	 0.115925430114395 
590	 0.114317147643192 
591	 0.112699750057462 
592	 0.111096928352405 
593	 0.109528815214873 
594	 0.107990399901106 
595	 0.106486328704079 
596	 0.105012335536111 
597	 0.103560941639377 
598	 0.102108033566701 
599	 0.100693659217067 
600	 9.93193810897854E-02 
601	 9.78716740675244E-02 
602	 0.096461162973238 
603	 9.51057932987953E-02 
604	 9.37789934292826E-02 
605	 9.24352798938805E-02 
606	 9.11135946748092E-02 
607	 0.089830144743361 
608	 8.85671679789016E-02 
609	 8.73107955705483E-02 
610	 8.60955790270457E-02 
611	 0.084937365351417 
612	 0.083763144344841 
613	 8.25977372281157E-02 
614	 8.14515292175268E-02 
615	 8.03249278907047E-02 
616	 7.92291973930556E-02 
617	 7.81705594383467E-02 
618	 0.077137228181969 
619	 7.60837239267246E-02 
620	 0.075056324796772 
621	 7.40705712532654E-02 
622	 7.31214560174112E-02 
623	 7.21618001571208E-02 
624	 7.12258789332958E-02 
625	 7.03228138474554E-02 
626	 0.069433526718617 
627	 6.85492340741826E-02 
628	 6.77074170467574E-02 
629	 6.69172130261619E-02 
630	 0.066097585973284 
631	 6.52878070947817E-02 
632	 6.45055919171151E-02 
633	 6.37567123075768E-02 
634	 6.30186873250677E-02 
635	 6.22906152717039E-02 
636	 6.15766693751729E-02 
637	 6.08869108365915E-02 
638	 6.01995657927558E-02 
639	 5.95202064878882E-02 
640	 5.88607255410478E-02 
641	 5.82293426923881E-02 
642	 5.76087679325369E-02 
643	 5.70066847268691E-02 
644	 5.64390803881782E-02 
645	 5.58586904965796E-02 
646	 5.52925981381179E-02 
647	 0.054759901941141 
648	 5.42512144201631E-02 
649	 5.37430364568726E-02 
650	 5.32171224523212E-02 
651	 0.052675095853547 
652	 5.21796126467804E-02 
653	 5.17204453572969E-02 
654	 5.12807799395122E-02 
655	 5.08419977326767E-02 
656	 0.050408106678304 
657	 4.99829172401568E-02 
658	 4.95693447295184E-02 
659	 4.91655961427707E-02 
660	 4.87801066952498E-02 
661	 4.84058884420868E-02 
662	 4.80330033506847E-02 
663	 4.76746269342045E-02 
664	 4.72936984676265E-02 
665	 4.69092326985293E-02 
666	 4.65949829627174E-02 
667	 4.62809537397775E-02 
668	 4.59529126541103E-02 
669	 4.56207088405173E-02 
670	 4.53224733603141E-02 
671	 4.50449917163485E-02 
672	 4.47680247821883E-02 
673	 4.44769559262463E-02 
674	 4.42271215663044E-02 
675	 4.39652783328104E-02 
676	 4.36812103372416E-02 
677	 4.34264086005855E-02 
678	 4.31921878912825E-02 
679	 4.29574696370514E-02 
680	 4.27152449354424E-02 
681	 4.25129031448303E-02 
682	 4.23152004006956E-02 
683	 0.042108266376822 
684	 4.18921095797645E-02 
685	 4.16711716407518E-02 
686	 4.14705649787055E-02 
687	 4.12957453311892E-02 
688	 4.11229166889891E-02 
689	 4.09402188768142E-02 
690	 4.07582044441149E-02 
691	 4.05954265589116E-02 
692	 4.04795812386157E-02 
693	 4.03275284821218E-02 
694	 4.01447786723938E-02 
695	 3.99914015465744E-02 
696	 3.98477382474599E-02 
697	 3.97246569485984E-02 
698	 3.96096740344041E-02 
699	 3.94486270971624E-02 
700	 3.93112242286382E-02 
701	 3.92015487837909E-02 
702	 3.91055618601091E-02 
703	 3.90225002031056E-02 
704	 3.89390458804883E-02 
705	 3.88400392526709E-02 
706	 3.87170764983047E-02 
707	 3.86383629486756E-02 
708	 3.85572248158364E-02 
709	 0.038449911163153 
710	 3.83548108103151E-02 
711	 3.83031970988368E-02 
712	 3.82556599193456E-02 
713	 3.81745367645921E-02 
714	 3.81266128753856E-02 
715	 3.80685138850161E-02 
716	 3.79956279471546E-02 
717	 0.037933610796221 
718	 3.78935390617882E-02 
719	 3.78589914710587E-02 
720	 3.78212044294281E-02 
721	 3.77918441238079E-02 
722	 3.77602911298716E-02 
723	 3.77273716066824E-02 
724	 0.037695607031996 
725	 3.76573265528469E-02 
726	 3.76320826647445E-02 
727	 3.76248120738471E-02 
728	 3.76269804824579E-02 
729	 3.76155773669553E-02 
730	 3.75995885265131E-02 
731	 3.75930162463475E-02 
732	 0.037610877964721 
733	 3.76135277619162E-02 
734	 3.76108166429277E-02 
735	 3.76202664975659E-02 
736	 0.037626200751569 
737	 3.76482979956264E-02 
738	 3.76787586098094E-02 
739	 3.76959595174659E-02 
740	 3.77348716985748E-02 
741	 3.77732667648904E-02 
742	 3.78018288473103E-02 
743	 3.78403882045863E-02 
744	 3.78984639400326E-02 
745	 3.79588285973531E-02 
746	 3.80057026391309E-02 
747	 3.80543515643787E-02 
748	 3.81092813256792E-02 
749	 3.81640222554263E-02 
750	 3.82102278200971E-02 
751	 0.038279067718503 
752	 0.038352462058867 
753	 3.84242888375554E-02 
754	 3.85101607144314E-02 
755	 3.85875612026404E-02 
756	 3.86620849878412E-02 
757	 3.87407120135549E-02 
758	 3.88103300991068E-02 
759	 3.89096399123185E-02 
760	 3.90137443314711E-02 
761	 3.90819183704715E-02 
762	 3.91808821753978E-02 
763	 3.92982247540169E-02 
764	 3.94225768373795E-02 
765	 3.95503016780647E-02 
766	 3.96667815052033E-02 
767	 3.97726824509836E-02 
768	 3.98822010480594E-02 
769	 0.040035030527644 
770	 4.01729441839116E-02 
771	 4.03066942786556E-02 
772	 4.04625499396036E-02 
773	 4.06069788333147E-02 
774	 4.07625733485491E-02 
775	 4.09189668013041E-02 
776	 4.10455130508712E-02 
777	 4.12189254498952E-02 
778	 4.14086801556063E-02 
779	 4.15832426140066E-02 
780	 4.17363971542802E-02 
781	 4.19091163475155E-02 
782	 0.042090892789727 
783	 4.22680131006394E-02 
784	 4.24738504978407E-02 
785	 0.042677125118207 
786	 4.28803222197897E-02 
787	 4.31006621069148E-02 
788	 4.33070092315413E-02 
789	 4.35170578862912E-02 
790	 4.37336316593195E-02 
791	 4.39383408845917E-02 
792	 4.41655567101438E-02 
793	 4.44005823301527E-02 
794	 4.46310785592881E-02 
795	 4.48763964241529E-02 
796	 0.045126141392055 
797	 4.53751751978622E-02 
798	 4.56219419671614E-02 
799	 4.58741406121859E-02 
800	 4.61172902832141E-02 
801	 4.63628120432488E-02 
802	 4.66392271388186E-02 
803	 4.69317146314275E-02 
804	 4.72089210528247E-02 
805	 4.74657676757081E-02 
806	 4.77380956519306E-02 
807	 4.80431294744032E-02 
808	 0.048346519923077 
809	 4.86276650630165E-02 
810	 4.89473230302817E-02 
811	 4.92869484335133E-02 
812	 4.96091488884526E-02 
813	 0.049889868897248 
814	 5.02261167382604E-02 
815	 5.05867673389149E-02 
816	 5.09448894856407E-02 
817	 5.12871183223496E-02 
818	 5.16254652542592E-02 
819	 5.19703504268305E-02 
820	 5.23306453267858E-02 
821	 5.27128466589675E-02 
822	 5.30852543409493E-02 
823	 5.34667279712139E-02 
824	 0.053873255028608 
825	 5.42697229481024E-02 
826	 5.46473223977813E-02 
827	 5.50309614408365E-02 
828	 5.54534203987292E-02 
829	 5.58952787636474E-02 
830	 5.63330841528333E-02 
831	 5.67597769543018E-02 
832	 5.71853303377435E-02 
833	 5.76308226632956E-02 
834	 5.80776101870622E-02 
835	 5.85234657893308E-02 
836	 5.90007813565109E-02 
837	 5.94575974805164E-02 
838	 5.99160558252149E-02 
839	 6.04015900383586E-02 
840	 6.08973646503482E-02 
841	 6.13909126271277E-02 
842	 6.18803680550069E-02 
843	 6.23692461953411E-02 
844	 6.28546993982646E-02 
845	 6.33511531938015E-02 
846	 6.38631695267334E-02 
847	 6.43866532605882E-02 
848	 6.49207739929539E-02 
849	 0.065444193028186 
850	 6.59645091408617E-02 
851	 6.65228794168858E-02 
852	 6.70671367684615E-02 
853	 6.76280145553217E-02 
854	 6.82229308395574E-02 
855	 6.88073720834355E-02 
856	 6.93532105787993E-02 
857	 0.069910957525551 
858	 7.05238560015692E-02 
859	 7.11116962596457E-02 
860	 7.17008409730698E-02 
861	 7.23133496953917E-02 
862	 7.29589624068483E-02 
863	 7.36014142012755E-02 
864	 7.42182657182358E-02 
865	 7.48334066204091E-02 
866	 0.075499641518488 
867	 7.61295883172411E-02 
868	 7.67986460462583E-02 
869	 7.75075665169797E-02 
870	 7.81329642810414E-02 
871	 7.88054111302519E-02 
872	 7.94972032283021E-02 
873	 0.080177586815745 
874	 8.08883718438028E-02 
875	 8.15943452814406E-02 
876	 8.23005289690904E-02 
877	 8.30253245302366E-02 
878	 8.37846148874495E-02 
879	 8.45382092045668E-02 
880	 8.52725064642475E-02 
881	 8.59949918784125E-02 
882	 8.67422787599837E-02 
883	 8.74780729375738E-02 
884	 8.82178285547493E-02 
885	 8.90115875348609E-02 
886	 0.089820059958704 
887	 9.06068340513884E-02 
888	 9.13749929038913E-02 
889	 9.21690227246319E-02 
890	 9.29803254239274E-02 
891	 9.37914661925449E-02 
892	 9.45879306497551E-02 
893	 9.53646387013672E-02 
894	 9.61893553636703E-02 
895	 9.70387849488107E-02 
896	 0.097878081321861 
897	 9.87107057622016E-02 
898	 9.95532921673546E-02 
899	 0.100387174228004 
900	 0.101199225647546 
901	 0.102036803915182 
902	 0.102910903535231 
903	 0.103792828069102 
904	 0.10464935985736 
905	 0.105542450057144 
906	 0.106424403995916 
907	 0.107297918180497 
908	 0.108197066924459 
909	 0.109066111788471 
910	 0.109965105703572 
911	 0.110890973801093 
912	 0.111776441105143 
913	 0.112705496444145 
914	 0.113631557984735 
915	 0.11455072659177 
916	 0.115537664151222 
917	 0.116460651980717 
918	 0.117407334616225 
919	 0.11841935984097 
920	 0.119373707047621 
921	 0.12031166328432 
922	 0.121287492513915 
923	 0.122323670349344 
924	 0.123357441575948 
925	 0.124359954462909 
926	 0.125348137147854 
927	 0.126355801167386 
928	 0.12740591922807 
929	 0.128477289393599 
930	 0.129544019797535 
931	 0.130592423954522 
932	 0.131664492993574 
933	 0.132739402047215 
934	 0.133832479548602 
935	 0.134964591940429 
936	 0.136074589461332 
937	 0.137218608043104 
938	 0.138382435426907 
939	 0.139507114561736 
940	 0.140612864585541 
941	 0.141728450116176 
942	 0.142862223352228 
943	 0.144007877038343 
944	 0.145200967934774 
945	 0.146380997903605 
946	 0.147527559882853 
947	 0.148669762511226 
948	 0.149747856049601 
949	 0.150848001763758 
950	 0.151997139552765 
951	 0.153126380079413 
952	 0.154272056614408 
953	 0.155421047610397 
954	 0.156563397169394 
955	 0.157707095684566 
956	 0.158839565408638 
957	 0.159990876272207 
958	 0.161143028928019 
959	 0.162190576613957 
960	 0.163310764277692 
961	 0.164470297273881 
962	 0.16562454476881 
963	 0.166811122618357 
964	 0.167938100443597 
965	 0.169042328619657 
966	 0.170171854097864 
967	 0.1713170123944 
968	 0.172455433755598 
969	 0.173656836979823 
970	 0.174935277156395 
971	 0.176110841720026 
972	 0.177213778080323 
973	 0.178328040966906 
974	 0.179510447306062 
975	 0.180687879670611 
976	 0.181865662463925 
977	 0.183060346320015 
978	 0.184268234523047 
979	 0.185402877816611 
980	 0.186611812999668 
981	 0.187826729713072 
982	 0.188972270835668 
983	 0.190200578030968 
984	 0.19145817082332 
985	 0.19269477687698 
986	 0.193894852894763 
987	 0.195149356751669 
988	 0.196419895668472 
989	 0.197672156908906 
990	 0.198864757810525 
991	 0.199918162524329 
992	 0.201114952124442 
993	 0.202398274939335 
994	 0.203625648783376 
995	 0.204846784693537 
996	 0.206056575119981 
997	 0.207219138238589 
998	 0.208377943086277 
999	 0.209875854656102 
1000	 0.211220234543454 
1001	 0.218311248915539 
1002	 0.219598094157641 
1003	 0.220908096112572 
1004	 0.22213087411796 
1005	 0.223317391785004 
1006	 0.224547507382125 
1007	 0.225701093436747 
1008	 0.226950174620192 
1009	 0.228277639694478 
1010	 0.229563693167908 
1011	 0.230893002108649 
1012	 0.232174229632128 
1013	 0.233411716806066 
1014	 0.234679136469186 
1015	 0.235946384030267 
1016	 0.237166503701047 
1017	 0.238481083603603 
1018	 0.23977410493374 
1019	 0.241065153321445 
1020	 0.242383601488478 
1021	 0.243647123860336 
1022	 0.244874917295618 
1023	 0.246123343366645 
1024	 0.247336054686577 
1025	 0.248586546078541 
1026	 0.249850189249769 
1027	 0.251118487180629 
1028	 0.252420799984624 
1029	 0.253725105838823 
1030	 0.254929645455901 
1031	 0.256190896434367 
1032	 0.257437085388311 
1033	 0.258656136839791 
1034	 0.259946902769715 
1035	 0.261195470245994 
1036	 0.262474052482743 
1037	 0.263787307040038 
1038	 0.265056251164259 
1039	 0.266326817872827 
1040	 0.267597292500926 
1041	 0.268802938968458 
1042	 0.270070516490872 
1043	 0.271390139232599 
1044	 0.272673074332553 
1045	 0.27398646903074 
1046	 0.275322929977681 
1047	 0.276557687512679 
1048	 0.277850820256118 
1049	 0.279148402862857 
1050	 0.280438421546555 
1051	 0.281837193605521 
1052	 0.283178748324707 
1053	 0.284534111339371 
1054	 0.285943443707536 
1055	 0.287274217619009 
1056	 0.288528912338815 
1057	 0.289859570182047 
1058	 0.291179608149586 
1059	 0.292500161210315 
1060	 0.293930174222847 
1061	 0.295309599367181 
1062	 0.296708285258863 
1063	 0.298116244424053 
1064	 0.29941927918107 
1065	 0.300764067383893 
1066	 0.30208867800952 
1067	 0.303379270384796 
1068	 0.304771854172061 
1069	 0.306142786707675 
1070	 0.307511939225758 
1071	 0.308904937606135 
1072	 0.310293257663606 
1073	 0.311564201085062 
1074	 0.312868506983593 
1075	 0.314186325303004 
1076	 0.315490844943656 
1077	 0.316858869264448 
1078	 0.318179735625762 
1079	 0.319532332367855 
1080	 0.320902935575029 
1081	 0.322205511082833 
1082	 0.323547716331885 
1083	 0.324836756145462 
1084	 0.326108150241574 
1085	 0.327428737820622 
1086	 0.328716274077952 
1087	 0.329987703926526 
1088	 0.331309638359131 
1089	 0.332618395561684 
1090	 0.333855063950933 
1091	 0.335148030986124 
1092	 0.336393622176892 
1093	 0.337613570556299 
1094	 0.338940405646879 
1095	 0.340204002291947 
1096	 0.341473008339168 
1097	 0.342779794019919 
1098	 0.343970520587804 
1099	 0.345183691797674 
1100	 0.346403748877823 
1101	 0.347602467719588 
1102	 0.348864369421758 
1103	 0.350081982671515 
1104	 0.351283138858686 
1105	 0.352510042018161 
1106	 0.353747056837093 
1107	 0.354897317412664 
1108	 0.356108401286349 
1109	 0.357307507248529 
1110	 0.358471578521326 
1111	 0.359700793784055 
1112	 0.360880903547813 
1113	 0.362076725141011 
1114	 0.363281261465378 
1115	 0.364391983712754 
1116	 0.36551887678283 
1117	 0.366620202497883 
1118	 0.367722493202913 
1119	 0.368826861533244 
1120	 0.369914643573607 
1121	 0.37098186739817 
1122	 0.372076926347722 
1123	 0.373173520536173 
1124	 0.374183886941775 
1125	 0.375224273499784 
1126	 0.376238512593981 
1127	 0.377197012252105 
1128	 0.378180304044881 
1129	 0.379113388610782 
1130	 0.380019469844541 
1131	 0.380913860597311 
1132	 0.381732113425059 
1133	 0.382563707034279 
1134	 0.383387964663347 
1135	 0.384175503162225 
1136	 0.384956970333308 
1137	 0.385691138176905 
1138	 0.386377111663021 
1139	 0.387045754261604 
1140	 0.387696272298567 
1141	 0.388277637951109 
1142	 0.388851704762925 
1143	 0.389411061140382 
1144	 0.389920892074383 
1145	 0.390422507903503 
1146	 0.390902195211033 
1147	 0.391374885244374 
1148	 0.391820852017008 
1149	 0.392230925792718 
1150	 0.392635132784638 
1151	 0.393007833959779 
1152	 0.393369093053668 
1153	 0.393726168698295 
1154	 0.394055625895976 
1155	 0.394359391447475 
1156	 0.394642637180388 
1157	 0.394905999427448 
1158	 0.395138853217491 
1159	 0.395334099385037 
1160	 0.395548421910128 
1161	 0.395716183312359 
1162	 0.395889379071801 
1163	 0.39606965107687 
1164	 0.396221374262002 
1165	 0.396398624521007 
1166	 0.396586229419728 
1167	 0.396793220022002 
1168	 0.397037128708916 
1169	 0.397255933058146 
1170	 0.397485082648674 
1171	 0.397696577916208 
1172	 0.397908984957096 
1173	 0.398078246642068 
1174	 0.39824104616425 
1175	 0.398365706105522 
1176	 0.39845058142799 
1177	 0.398511253125767 
1178	 0.39854731858349 
1179	 0.398560836692286 
1180	 0.39853654436196 
1181	 0.398479673828057 
1182	 0.398404558053036 
1183	 0.398322648403449 
1184	 0.398220189881322 
1185	 0.398120310772249 
1186	 0.398071566586755 
1187	 0.398028150902368 
1188	 0.398037079164112 
1189	 0.398095944449505 
1190	 0.398188127684368 
1191	 0.398312619915202 
1192	 0.398466888048385 
1193	 0.398657294732304 
1194	 0.398874660155165 
1195	 0.399115597580875 
1196	 0.399401698459024 
1197	 0.399724847251833 
1198	 0.400088003585468 
1199	 0.400501227534685 
1200	 0.400899733921145 
1201	 0.401313855054963 
1202	 0.401767191051586 
1203	 0.402232940985967 
1204	 0.402779046184436 
1205	 0.403419760720861 
1206	 0.404102528892845 
1207	 0.404960796172341 
1208	 0.40590580606063 
1209	 0.407020533584581 
1210	 0.408255490992632 
1211	 0.409688370243996 
1212	 0.411287090525657 
1213	 0.413063959579688 
1214	 0.415028957658548 
1215	 0.417163535385303 
1216	 0.419507585744297 
1217	 0.421918816299046 
1218	 0.424500639320568 
1219	 0.427172843635763 
1220	 0.429899605307003 
1221	 0.432836759977749 
1222	 0.435686559663216 
1223	 0.438593508447426 
1224	 0.441452410636782 
1225	 0.444289732424056 
1226	 0.447035119775894 
1227	 0.449797570423978 
1228	 0.452428748187878 
1229	 0.454965793997623 
1230	 0.45742823137328 
1231	 0.459819558708413 
1232	 0.462135742324425 
1233	 0.464355754409504 
1234	 0.466481794849976 
1235	 0.468517471870411 
1236	 0.470502526136496 
1237	 0.472397464915916 
1238	 0.474240575642886 
1239	 0.476011743543793 
1240	 0.477758661630515 
1241	 0.479489479510703 
1242	 0.481061018301227 
1243	 0.482648941682488 
1244	 0.484205035848391 
1245	 0.485735066155208 
1246	 0.487224794983495 
1247	 0.488684541348203 
1248	 0.490137898773211 
1249	 0.49152571962686 
1250	 0.492838737670572 
1251	 0.494149280923529 
1252	 0.495430014423109 
1253	 0.496690671889217 
1254	 0.497947482153781 
1255	 0.499160027963841 
1256	 0.500322558982418 
1257	 0.501487583669008 
1258	 0.502626074280217 
1259	 0.503747353583271 
1260	 0.50485130248023 
1261	 0.505958353746912 
1262	 0.507030337547064 
1263	 0.508141452998223 
1264	 0.509220322104291 
1265	 0.510311396915206 
1266	 0.511361678449507 
1267	 0.512376767908549 
1268	 0.51339421835139 
1269	 0.514385637703178 
1270	 0.515396132647366 
1271	 0.51641215419842 
1272	 0.517416526230603 
1273	 0.51841659003938 
1274	 0.519419562200101 
1275	 0.520412273912102 
1276	 0.521401844542572 
1277	 0.522380407427534 
1278	 0.523379706483514 
1279	 0.524391343433853 
1280	 0.52538723835841 
1281	 0.526382309723698 
1282	 0.527385046670859 
1283	 0.528378565559943 
1284	 0.529361979436744 
1285	 0.53034391455918 
1286	 0.531343353168613 
1287	 0.532308335482601 
1288	 0.533243186069002 
1289	 0.534191749035245 
1290	 0.535135647906614 
1291	 0.536074573021921 
1292	 0.537020691865307 
1293	 0.53793089855484 
1294	 0.538817755371013 
1295	 0.539705253482754 
1296	 0.540582822566205 
1297	 0.541434065503863 
1298	 0.542262140521788 
1299	 0.543100873421225 
1300	 0.543920820197862 
1301	 0.544737615501539 
1302	 0.545574258052232 
1303	 0.546384167652584 
1304	 0.547168033499662 
1305	 0.547945556109281 
1306	 0.548721324440498 
1307	 0.549474912772395 
1308	 0.550173225187767 
1309	 0.550923800769222 
1310	 0.551655381003212 
1311	 0.552382318896676 
1312	 0.55309682261551 
1313	 0.553820038462454 
1314	 0.554518158811834 
1315	 0.555193058947087 
1316	 0.555863405339505 
1317	 0.556536578578178 
1318	 0.557178073828929 
1319	 0.557783731027508 
1320	 0.558408203498842 
1321	 0.559041154514449 
1322	 0.559633727593173 
1323	 0.560236382720019 
1324	 0.560785629537824 
1325	 0.561268767362328 
1326	 0.561766480219355 
1327	 0.562261769141456 
1328	 0.562722154991439 
1329	 0.563188151216854 
1330	 0.56359844401392 
1331	 0.563951695905521 
1332	 0.564294208861256 
1333	 0.564606214155538 
1334	 0.564897815182966 
1335	 0.565164461402987 
1336	 0.56542333334794 
1337	 0.565624333258139 
1338	 0.565801724201311 
1339	 0.565905387956059 
1340	 0.565958638705635 
1341	 0.565967106421503 
1342	 0.565924456748053 
1343	 0.565829956016079 
1344	 0.565703607167407 
1345	 0.565500190716559 
1346	 0.565233136658403 
1347	 0.56491209434856 
1348	 0.564536935196439 
1349	 0.564099122761578 
1350	 0.563575782360624 
1351	 0.563048118879225 
1352	 0.562463891273391 
1353	 0.561870781747179 
1354	 0.561261937965838 
1355	 0.560636546332439 
1356	 0.559983668125808 
1357	 0.559318123103561 
1358	 0.558632078060329 
1359	 0.557941321050127 
1360	 0.5572536557943 
1361	 0.556532614246447 
1362	 0.555783751811145 
1363	 0.555038735796541 
1364	 0.554213106242925 
1365	 0.553362063313845 
1366	 0.552398575353215 
1367	 0.551378219525833 
1368	 0.550257261353733 
1369	 0.549051636250482 
1370	 0.547746265460542 
1371	 0.546346206661343 
1372	 0.544894528860613 
1373	 0.543344070288448 
1374	 0.541752577751007 
1375	 0.540086409560212 
1376	 0.538394477781831 
1377	 0.536643962438927 
1378	 0.534842591010535 
1379	 0.532983769087024 
1380	 0.53112161952264 
1381	 0.529212335083911 
1382	 0.527280538375092 
1383	 0.525299535225694 
1384	 0.523366729152321 
1385	 0.521361367921088 
1386	 0.519487633043991 
1387	 0.517613582838775 
1388	 0.515954449561974 
1389	 0.514407980777973 
1390	 0.513018022707852 
1391	 0.511863549502406 
1392	 0.510749044575601 
1393	 0.509797344678477 
1394	 0.50887393037514 
1395	 0.507882042985988 
1396	 0.506996637781865 
1397	 0.505835739364938 
1398	 0.50464108907976 
1399	 0.503099093873392 
1400	 0.501376752908686 
1401	 0.499361235280343 
1402	 0.497095664297254 
1403	 0.494540674022459 
1404	 0.491678821787992 
1405	 0.488699225744595 
1406	 0.485355956310868 
1407	 0.482112488838921 
1408	 0.478598084109951 
1409	 0.475429203165512 
1410	 0.472165758380526 
1411	 0.469390021347422 
1412	 0.46684659495206 
1413	 0.464726955239384 
1414	 0.462995280289597 
1415	 0.461538011719433 
1416	 0.460558387447818 
1417	 0.459627362234918 
1418	 0.459028934642878 
1419	 0.458393141838463 
1420	 0.457893810590309 
1421	 0.45737118969641 
1422	 0.456875801527297 
1423	 0.456383661025769 
1424	 0.455902496804289 
1425	 0.455407579250514 
1426	 0.454961167753078 
1427	 0.454555630766544 
1428	 0.454204050073688 
1429	 0.453932013500037 
1430	 0.453716981448256 
1431	 0.453554292484049 
1432	 0.453476116658393 
1433	 0.45345258263419 
1434	 0.453549232780237 
1435	 0.453739719308326 
1436	 0.454007658880426 
1437	 0.454388864814009 
1438	 0.454805361792855 
1439	 0.455289746422652 
1440	 0.455825871668646 
1441	 0.456439212726435 
1442	 0.457074309795337 
1443	 0.457760183404061 
1444	 0.458479272896329 
1445	 0.459239862901341 
1446	 0.460019292543268 
1447	 0.460847514838398 
1448	 0.461675564632208 
1449	 0.462533765182615 
1450	 0.463385135430664 
1451	 0.464250778458669 
1452	 0.465108351609757 
1453	 0.46596833952998 
1454	 0.466810308273221 
1455	 0.467627722508017 
1456	 0.468471913216287 
1457	 0.469325810697842 
1458	 0.470174291594488 
1459	 0.471035728563045 
1460	 0.471900028103184 
1461	 0.472746386367532 
1462	 0.473606083732376 
1463	 0.474472441337072 
1464	 0.475360418796649 
1465	 0.476239262847766 
1466	 0.477184330954643 
1467	 0.478096077380247 
1468	 0.479029842303574 
1469	 0.479989148670148 
1470	 0.48087853762084 
1471	 0.481798449992746 
1472	 0.482741558090095 
1473	 0.483639386074681 
1474	 0.484526190587026 
1475	 0.485372596929167 
1476	 0.486197812517812 
1477	 0.486980254063382 
1478	 0.487723352744775 
1479	 0.488432607179 
1480	 0.489095565324045 
1481	 0.489756912389385 
1482	 0.49038918216278 
1483	 0.491013173055318 
1484	 0.491625989314254 
1485	 0.492225255091849 
1486	 0.492806187964399 
1487	 0.493369041247483 
1488	 0.493910549128207 
1489	 0.494458622184165 
1490	 0.494982834978482 
1491	 0.495528220626567 
1492	 0.496074547555322 
1493	 0.496647083238497 
1494	 0.49722495330087 
1495	 0.497828703384499 
1496	 0.498465066151893 
1497	 0.49910603721927 
1498	 0.499780129418802 
1499	 0.500431335677822 
1500	 0.501071053060463 
1501	 0.501730287336756 
1502	 0.5023841136027 
1503	 0.503047605438931 
1504	 0.503721304872349 
1505	 0.50441656821945 
1506	 0.50513998695829 
1507	 0.505840753222237 
1508	 0.506558619060136 
1509	 0.507261561779436 
1510	 0.5079230045824 
1511	 0.50860622142901 
1512	 0.509306190901628 
1513	 0.509999390715512 
1514	 0.510704467465748 
1515	 0.51139550284262 
1516	 0.512072988152261 
1517	 0.512752768253316 
1518	 0.513428532766099 
1519	 0.514095654718692 
1520	 0.514771307408312 
1521	 0.51541805769881 
1522	 0.516055407289698 
1523	 0.516733827010399 
1524	 0.517383984360454 
1525	 0.518032650703008 
1526	 0.518687268495885 
1527	 0.519331528278248 
1528	 0.519989173515424 
1529	 0.520658567926803 
1530	 0.521329792307168 
1531	 0.521999296515977 
1532	 0.522686405452249 
1533	 0.523379136961564 
1534	 0.524100140431086 
1535	 0.524849604787202 
1536	 0.52557461157181 
1537	 0.526315547232642 
1538	 0.527038608558894 
1539	 0.527746707519882 
1540	 0.528444456787144 
1541	 0.529150994291018 
1542	 0.529817476020577 
1543	 0.530464728228349 
1544	 0.531069929814506 
1545	 0.531655205301403 
1546	 0.532188135661938 
1547	 0.532676781781422 
1548	 0.533127411514446 
1549	 0.533531448659321 
1550	 0.53391080917484 
1551	 0.534235972850822 
1552	 0.534571353962746 
1553	 0.534879565974785 
1554	 0.535198235523405 
1555	 0.535512609101667 
1556	 0.535831327214519 
1557	 0.536148081628654 
1558	 0.53647016675867 
1559	 0.53678970334486 
1560	 0.537126254558804 
1561	 0.537452829409776 
1562	 0.537828054293678 
1563	 0.538238625532502 
1564	 0.538653886870779 
1565	 0.539092434455936 
1566	 0.539553049820806 
1567	 0.540032397249414 
1568	 0.540517089812314 
1569	 0.541039306710312 
1570	 0.541542850104331 
1571	 0.542033373899618 
1572	 0.542536628980054 
1573	 0.543044560348149 
1574	 0.543557328222732 
1575	 0.544087352924426 
1576	 0.544598855056741 
1577	 0.545103523641316 
1578	 0.545609605505837 
1579	 0.546109789360075 
1580	 0.546602369057175 
1581	 0.547106592519838 
1582	 0.547582228585209 
1583	 0.54802895118167 
1584	 0.548482993053249 
1585	 0.548922443781905 
1586	 0.549367613070048 
1587	 0.549818304921704 
1588	 0.550261366137632 
1589	 0.550698700902166 
1590	 0.551136328236328 
1591	 0.55156417099043 
1592	 0.552006954743983 
1593	 0.552452135293569 
1594	 0.552907915567963 
1595	 0.553390159999339 
1596	 0.553848807510106 
1597	 0.554309727995295 
1598	 0.554754121855434 
1599	 0.555186897760456 
1600	 0.555601319564613 
1601	 0.556005396693617 
1602	 0.556388361706806 
1603	 0.556743287161626 
1604	 0.557092252403876 
1605	 0.557437654553934 
1606	 0.557752548412959 
1607	 0.55803751955418 
1608	 0.558323842750301 
1609	 0.558592827682672 
1610	 0.558850702337555 
1611	 0.559117439145961 
1612	 0.559350618274487 
1613	 0.559574326812647 
1614	 0.559747336064068 
1615	 0.559882050153117 
1616	 0.559989481127011 
1617	 0.560049119782617 
1618	 0.560089606856585 
1619	 0.560108225277482 
1620	 0.560100014964888 
1621	 0.560047208848572 
1622	 0.559996068312381 
1623	 0.559939910826767 
1624	 0.559851131614699 
1625	 0.559755354747659 
1626	 0.559621824810293 
1627	 0.559427751431384 
1628	 0.559252085987749 
1629	 0.559072695754824 
1630	 0.558869224920799 
1631	 0.558653396778132 
1632	 0.558435125772641 
1633	 0.558175123158396 
1634	 0.5579500048364 
1635	 0.557749761876417 
1636	 0.557546570388285 
1637	 0.557390538160463 
1638	 0.557171881335828 
1639	 0.556941516700467 
1640	 0.556655673062687 
1641	 0.556326840249368 
1642	 0.555943123359664 
1643	 0.555516953522648 
1644	 0.555040301366017 
1645	 0.554496384767004 
1646	 0.55392020258003 
1647	 0.553307228411499 
1648	 0.552637003009685 
1649	 0.551927802354487 
1650	 0.551151222517088 
1651	 0.550319862034496 
1652	 0.549426365225687 
1653	 0.548500564142988 
1654	 0.5474578024908 
1655	 0.546349188972871 
1656	 0.545098472586974 
1657	 0.543743625794967 
1658	 0.542233841683935 
1659	 0.540587914728193 
1660	 0.538826963010285 
1661	 0.536934605570084 
1662	 0.534896174629529 
1663	 0.532713011694466 
1664	 0.530387740786112 
1665	 0.527927163584585 
1666	 0.525281590584412 
1667	 0.522485796499194 
1668	 0.519565015346551 
1669	 0.516475122901801 
1670	 0.513244634713165 
1671	 0.509865650255609 
1672	 0.506333993740582 
1673	 0.50266126168528 
1674	 0.498789474740792 
1675	 0.494750974561815 
1676	 0.490637844728674 
1677	 0.486361483279587 
1678	 0.481960266455225 
1679	 0.477430793041037 
1680	 0.472760222831928 
1681	 0.467946803690411 
1682	 0.462950189236247 
1683	 0.457811096750795 
1684	 0.452628131528406 
1685	 0.447253624968646 
1686	 0.441847898839272 
1687	 0.43631572388477 
1688	 0.430813476291292 
1689	 0.425244977299511 
1690	 0.419657876946453 
1691	 0.414122866868853 
1692	 0.408620822628855 
1693	 0.403098222401663 
1694	 0.397534689627868 
1695	 0.39198522967842 
1696	 0.386325982239852 
1697	 0.380563726983967 
1698	 0.374754319207639 
1699	 0.36888412048321 
1700	 0.363199085392929 
1701	 0.357425221556874 
1702	 0.35195257830907 
1703	 0.346571470034832 
1704	 0.341541271378781 
1705	 0.336699176517889 
1706	 0.332113063520399 
1707	 0.328128409011039 
1708	 0.324313154991091 
1709	 0.320769917230226 
1710	 0.317574422774965 
1711	 0.3143956589815 
1712	 0.311482234100025 
1713	 0.30869429176943 
1714	 0.305938280148518 
1715	 0.303497860757505 
1716	 0.301096881865052 
1717	 0.298840960802217 
1718	 0.296850155847586 
1719	 0.294943726232129 
1720	 0.293281169330757 
1721	 0.291890362591948 
1722	 0.290762210880461 
1723	 0.290056368620687 
1724	 0.289731057679598 
1725	 0.289796576763773 
1726	 0.290439144175714 
1727	 0.291625579652254 
1728	 0.293269501234279 
1729	 0.295529180616628 
1730	 0.29832584187461 
1731	 0.301331662676746 
1732	 0.304778348211801 
1733	 0.308358191744393 
1734	 0.31195353410527 
1735	 0.31566665685381 
1736	 0.319107764348004 
1737	 0.322321616019704 
1738	 0.325179189337648 
1739	 0.327498101375605 
1740	 0.329427220036956 
1741	 0.330906684945129 
1742	 0.331835840398718 
1743	 0.332488466704505 
1744	 0.332701187706256 
1745	 0.332670460733743 
1746	 0.332188508510371 
1747	 0.331682155693084 
1748	 0.330878684485614 
1749	 0.330143961475207 
1750	 0.329279928833193 
1751	 0.328533106251718 
1752	 0.327737325168986 
1753	 0.327152225921732 
1754	 0.326623859602006 
1755	 0.326388681017772 
1756	 0.326287557999342 
1757	 0.326527549782237 
1758	 0.327099832755263 
1759	 0.327946637457852 
1760	 0.329204761753405 
1761	 0.330904432849369 
1762	 0.332820444812628 
1763	 0.33518459950613 
1764	 0.337868512861433 
1765	 0.34078421855158 
1766	 0.344153762638997 
1767	 0.347584943060638 
1768	 0.351164417814779 
1769	 0.354837482273048 
1770	 0.358198903175923 
1771	 0.361566351971112 
1772	 0.36476121676454 
1773	 0.3677067322051 
1774	 0.370718894940244 
1775	 0.373460199222195 
1776	 0.376049570091143 
1777	 0.378520227484303 
1778	 0.38062786151314 
1779	 0.382660332770315 
1780	 0.384546150083692 
1781	 0.386183674421292 
1782	 0.38775159203415 
1783	 0.389102172774569 
1784	 0.390305035258508 
1785	 0.391348584948979 
1786	 0.392281493749938 
1787	 0.393077815655089 
1788	 0.393813790004661 
1789	 0.394425108227356 
1790	 0.395035796203588 
1791	 0.39558617538078 
1792	 0.396104431890756 
1793	 0.396551000540542 
1794	 0.396996320180258 
1795	 0.397423652512449 
1796	 0.397835776805266 
1797	 0.39831479164187 
1798	 0.398791151744871 
1799	 0.39928171399741 
1800	 0.399831572233437 
1801	 0.396420593875594 
1802	 0.396960574721502 
1803	 0.397469350769775 
1804	 0.397959879587881 
1805	 0.398483842527649 
1806	 0.398967957472928 
1807	 0.399418922530112 
1808	 0.399891422924407 
1809	 0.400361843081259 
1810	 0.400830809336508 
1811	 0.401280085157421 
1812	 0.401770315512641 
1813	 0.402258227996685 
1814	 0.40279518213285 
1815	 0.403353069677399 
1816	 0.403959860573596 
1817	 0.404574248963518 
1818	 0.405205455621972 
1819	 0.405855635467432 
1820	 0.406517659118017 
1821	 0.407215456822358 
1822	 0.407939354350473 
1823	 0.40870872264621 
1824	 0.40944904443274 
1825	 0.410220145136635 
1826	 0.410945839593027 
1827	 0.41162522713313 
1828	 0.412327862953189 
1829	 0.413034961498572 
1830	 0.413720575310406 
1831	 0.414381904497605 
1832	 0.415095677001797 
1833	 0.415748540946124 
1834	 0.416423553565463 
1835	 0.41714615962332 
1836	 0.417825277689098 
1837	 0.418528436553051 
1838	 0.419257100746426 
1839	 0.419973028625293 
1840	 0.420674067382317 
1841	 0.421404070225229 
1842	 0.422152199681484 
1843	 0.422895263077871 
1844	 0.423664795461668 
1845	 0.424367738216611 
1846	 0.425062715319304 
1847	 0.425743202824577 
1848	 0.426382208904728 
1849	 0.42701882846401 
1850	 0.427588739721127 
1851	 0.42812813882863 
1852	 0.428590673011987 
1853	 0.428997097803148 
1854	 0.429331049873724 
1855	 0.429598625696552 
1856	 0.429817770723626 
1857	 0.429987161092659 
1858	 0.430096741030363 
1859	 0.430159993178686 
1860	 0.430200488635105 
1861	 0.430134854317348 
1862	 0.430003482990221 
1863	 0.429806487593021 
1864	 0.429508232148927 
1865	 0.429143579106776 
1866	 0.428696069672328 
1867	 0.428131270340767 
1868	 0.427501346230264 
1869	 0.426740634702853 
1870	 0.425872275338486 
1871	 0.424924447799144 
1872	 0.423861578041477 
1873	 0.422677659066386 
1874	 0.421421657473523 
1875	 0.420058099205042 
1876	 0.418443170340806 
1877	 0.416757192762642 
1878	 0.414842656277928 
1879	 0.412703619328617 
1880	 0.41056765639847 
1881	 0.408170621243459 
1882	 0.405553962225531 
1883	 0.402793908867828 
1884	 0.399825224177075 
1885	 0.396405502404737 
1886	 0.392864460847755 
1887	 0.389024909915706 
1888	 0.384832703248208 
1889	 0.380782715640099 
1890	 0.376475624330859 
1891	 0.372106175186166 
1892	 0.367798315263217 
1893	 0.363354369338159 
1894	 0.35870174952958 
1895	 0.354248936143622 
1896	 0.349750546059422 
1897	 0.34524652874599 
1898	 0.341151188583829 
1899	 0.337026379694328 
1900	 0.333033396836253 
1901	 0.329278939709917 
1902	 0.325384922167283 
1903	 0.321720917839084 
1904	 0.318186915888286 
1905	 0.314748494504457 
1906	 0.31141855191311 
1907	 0.308466848418931 
1908	 0.305529761005319 
1909	 0.302750822754388 
1910	 0.300200168644877 
1911	 0.297593219966481 
1912	 0.295188191835654 
1913	 0.292876296670554 
1914	 0.290596314614395 
1915	 0.288487085071238 
1916	 0.286572281962869 
1917	 0.284637145720644 
1918	 0.282804158488812 
1919	 0.281084248319397 
1920	 0.279312375558292 
1921	 0.277686964816742 
1922	 0.276128874510338 
1923	 0.274609511445594 
1924	 0.273276984711287 
1925	 0.2719884182734 
1926	 0.270787121412508 
1927	 0.269692050786226 
1928	 0.268653118768258 
1929	 0.267662996299157 
1930	 0.266795416252088 
1931	 0.265994991839595 
1932	 0.265281539361254 
1933	 0.264740264970399 
1934	 0.264294117633011 
1935	 0.263929422343463 
1936	 0.263686309161295 
1937	 0.263509294895186 
1938	 0.263398011149538 
1939	 0.263381770721512 
1940	 0.263462204712786 
1941	 0.263622610914863 
1942	 0.263847263151433 
1943	 0.264139876852819 
1944	 0.264471174307512 
1945	 0.264873560175267 
1946	 0.265347199867324 
1947	 0.265830371301827 
1948	 0.266384333432769 
1949	 0.266983259846668 
1950	 0.267581344321744 
1951	 0.268200787253058 
1952	 0.268849796493734 
1953	 0.269518938265868 
1954	 0.270195549111213 
1955	 0.270935409584264 
1956	 0.271664808776666 
1957	 0.272408460882186 
1958	 0.273165911348989 
1959	 0.273878078015809 
1960	 0.274622898582167 
1961	 0.27537769911269 
1962	 0.276133722110287 
1963	 0.276908044761716 
1964	 0.277707641149326 
1965	 0.278496243647362 
1966	 0.279299544492114 
1967	 0.280102126568011 
1968	 0.280854583411039 
1969	 0.281645517453518 
1970	 0.282406525983315 
1971	 0.283139576345202 
1972	 0.283925318300206 
1973	 0.28468374532519 
1974	 0.285450599414188 
1975	 0.286254073460337 
1976	 0.287005897109755 
1977	 0.287734342382391 
1978	 0.288451810714804 
1979	 0.289141510685344 
1980	 0.289806879821077 
1981	 0.290511153724824 
1982	 0.291193681049416 
1983	 0.291877745748324 
1984	 0.292542244066343 
1985	 0.293128764562353 
1986	 0.293720491903079 
1987	 0.294294769754809 
1988	 0.294828836949095 
1989	 0.295374401728338 
1990	 0.295942802109263 
1991	 0.296455022256747 
1992	 0.29694218217811 
1993	 0.29741566149323 
1994	 0.297830385689647 
1995	 0.298239710136263 
1996	 0.298639796387729 
1997	 0.299017845389343 
1998	 0.299392042479318 
1999	 0.299763102162597 
2000	 0.300105764088363 
2001	 0.300437823958699 
2002	 0.300744620553122 
2003	 0.301022553599617 
2004	 0.301288684886115 
2005	 0.301545418568539 
2006	 0.301771945767795 
2007	 0.301976565020604 
2008	 0.302163797392656 
2009	 0.302320427868774 
2010	 0.302436817519242 
2011	 0.302523054513217 
2012	 0.302574234528876 
2013	 0.302581106052905 
2014	 0.30255704495911 
2015	 0.302467879062016 
2016	 0.302349457529569 
2017	 0.302147044178532 
2018	 0.30188113141627 
2019	 0.301539983691901 
2020	 0.301136143603748 
2021	 0.300626984256396 
2022	 0.30008231576796 
2023	 0.29948859826523 
2024	 0.298786767922937 
2025	 0.298049486584285 
2026	 0.297255294207536 
2027	 0.296333264126449 
2028	 0.295477117489644 
2029	 0.294604917839583 
2030	 0.293736372560277 
2031	 0.292882344540222 
2032	 0.292017084662875 
2033	 0.291084357515419 
2034	 0.29024754184667 
2035	 0.289425601356897 
2036	 0.288655404577279 
2037	 0.28799288171388 
2038	 0.28740380944039 
2039	 0.286883012568004 
2040	 0.286437534106676 
2041	 0.286061991516226 
2042	 0.28575488279261 
2043	 0.285530453335294 
2044	 0.285397838364669 
2045	 0.285307407923455 
2046	 0.285305084810876 
2047	 0.285330796698278 
2048	 0.285398520341146 
2049	 0.28552104205171 
2050	 0.285703394653219 
2051	 0.285917907928849 
2052	 0.286189350634845 
2053	 0.286497677547552 
2054	 0.286824445490781 
2055	 0.287195758804366 
2056	 0.287562510954901 
2057	 0.287939647061003 
2058	 0.288348280288961 
2059	 0.288780153035606 
2060	 0.289215452793181 
2061	 0.289696132392826 
2062	 0.2901520480786 
2063	 0.290609026643678 
2064	 0.291052267003641 
2065	 0.291490160131892 
2066	 0.291909021825518 
2067	 0.292340192518063 
2068	 0.292746443016923 
2069	 0.29313599978149 
2070	 0.293530157280825 
2071	 0.293875519328282 
2072	 0.294179617618136 
2073	 0.294478943701874 
2074	 0.294751517542491 
2075	 0.295013901139102 
2076	 0.295270419993416 
2077	 0.295494806718326 
2078	 0.295692380425087 
2079	 0.295878552834209 
2080	 0.296050401609391 
2081	 0.296191007275463 
2082	 0.296310776813229 
2083	 0.296408369980185 
2084	 0.29648352365374 
2085	 0.296518164776266 
2086	 0.296549553212791 
2087	 0.296568353542453 
2088	 0.296568006195217 
2089	 0.296542491870851 
2090	 0.296516079916894 
2091	 0.296487369336877 
2092	 0.296428127982201 
2093	 0.296372699888146 
2094	 0.296262483949894 
2095	 0.296114494923544 
2096	 0.295931406301591 
2097	 0.295717299355676 
2098	 0.295451799928787 
2099	 0.295144436639789 
2100	 0.294823049548903 
2101	 0.294446951439916 
2102	 0.294027819735654 
2103	 0.293569210063204 
2104	 0.293055570450603 
2105	 0.292527200112485 
2106	 0.291959103443982 
2107	 0.291368573285574 
2108	 0.290774251278743 
2109	 0.29012041206291 
2110	 0.289422998250596 
2111	 0.28869107331975 
2112	 0.287879237307767 
2113	 0.287082271991437 
2114	 0.286255760311657 
2115	 0.285431183119144 
2116	 0.284593134238634 
2117	 0.283784231203185 
2118	 0.282956121375565 
2119	 0.282095442459003 
2120	 0.281321182216551 
2121	 0.280545476536075 
2122	 0.279863305021715 
2123	 0.279261987243037 
2124	 0.278682696387336 
2125	 0.278159458579622 
2126	 0.277666699503357 
2127	 0.277210542706222 
2128	 0.276799541583668 
2129	 0.276458654807894 
2130	 0.276105343307827 
2131	 0.275815965884154 
2132	 0.275477965378024 
2133	 0.275124989527303 
2134	 0.274762524814356 
2135	 0.27435759149296 
2136	 0.273941367938358 
2137	 0.273509910890543 
2138	 0.273034451274092 
2139	 0.272608457927199 
2140	 0.272177157462082 
2141	 0.271782702050305 
2142	 0.271412126107807 
2143	 0.271072537516274 
2144	 0.270732045387421 
2145	 0.270470824283272 
2146	 0.27025004725042 
2147	 0.270093694888786 
2148	 0.270009243772749 
2149	 0.26996457450072 
2150	 0.270008824898695 
2151	 0.270040457845173 
2152	 0.270125726632478 
2153	 0.270191207793411 
2154	 0.270256101186809 
2155	 0.270271322663053 
2156	 0.27024871269078 
2157	 0.270203127895982 
2158	 0.27009646335234 
2159	 0.269930468045786 
2160	 0.269750878655079 
2161	 0.269519651260905 
2162	 0.269292209331468 
2163	 0.269028348810988 
2164	 0.268783559386047 
2165	 0.268529509568254 
2166	 0.268284526259194 
2167	 0.268033324886443 
2168	 0.267813969931548 
2169	 0.267583180659048 
2170	 0.267408299848156 
2171	 0.267260795287706 
2172	 0.267165855389314 
2173	 0.267116566316915 
2174	 0.267109833606352 
2175	 0.267151664301127 
2176	 0.267231076269686 
2177	 0.267342474619127 
2178	 0.267496058082215 
2179	 0.26766626850333 
2180	 0.267884053861141 
2181	 0.268083183168506 
2182	 0.268285314951449 
2183	 0.268522100908908 
2184	 0.268766462020644 
2185	 0.269039023388661 
2186	 0.26937232574768 
2187	 0.26966293398311 
2188	 0.269951367872976 
2189	 0.270236242304661 
2190	 0.270507453747868 
2191	 0.270780886988478 
2192	 0.271081503173126 
2193	 0.27133262623244 
2194	 0.271565745058746 
2195	 0.271769060425788 
2196	 0.271936431253916 
2197	 0.27207759263273 
2198	 0.272204102274517 
2199	 0.27231366609634 
2200	 0.27237140634672 
2201	 0.272393392155471 
2202	 0.272384629768748 
2203	 0.272333398487445 
2204	 0.27225368559867 
2205	 0.272142040142419 
2206	 0.272005173862478 
2207	 0.271827359157511 
2208	 0.271634992274695 
2209	 0.27143450901754 
2210	 0.271182851223159 
2211	 0.270905749113278 
2212	 0.270574674686615 
2213	 0.27018025854186 
2214	 0.269769973034185 
2215	 0.269334936431772 
2216	 0.26884438324365 
2217	 0.268335115317637 
2218	 0.26775913452648 
2219	 0.267125110864271 
2220	 0.26643180416945 
2221	 0.26569329080273 
2222	 0.264860847898125 
2223	 0.26400983649513 
2224	 0.263081527892003 
2225	 0.262088420089506 
2226	 0.261032227277031 
2227	 0.259822458767514 
2228	 0.25850503794177 
2229	 0.25706403851369 
2230	 0.255457572063735 
2231	 0.253822865196549 
2232	 0.252119577383233 
2233	 0.250258983703447 
2234	 0.248372970821066 
2235	 0.246210111084803 
2236	 0.243826029103451 
2237	 0.241332085395046 
2238	 0.238581538486296 
2239	 0.235820592545677 
2240	 0.233000510194216 
2241	 0.229994515165804 
2242	 0.226944681908547 
2243	 0.223635009555367 
2244	 0.220037705248817 
2245	 0.216417938685229 
2246	 0.212512775410337 
2247	 0.208699116132721 
2248	 0.204873742210444 
2249	 0.201016905453372 
2250	 0.197150729936855 
2251	 0.193337859494704 
2252	 0.189251191373592 
2253	 0.185311737559925 
2254	 0.181323752000695 
2255	 0.177314704441376 
2256	 0.173711073090788 
2257	 0.170121429343215 
2258	 0.166664932318078 
2259	 0.163438527838425 
2260	 0.160130582768934 
2261	 0.156818448675852 
2262	 0.153664355620752 
2263	 0.150492130687012 
2264	 0.147602240486567 
2265	 0.144951582607789 
2266	 0.14229114068708 
2267	 0.139845540534458 
2268	 0.137331339296146 
2269	 0.134778769350323 
2270	 0.132371155909095 
2271	 0.129989408753852 
2272	 0.12775648598511 
2273	 0.125712854680351 
2274	 0.123625760523285 
2275	 0.121677548968911 
2276	 0.119641000080421 
2277	 0.117560843273547 
2278	 0.115505711954287 
2279	 0.113420483861134 
2280	 0.111352310169658 
2281	 0.10930395362736 
2282	 0.107240288046976 
2283	 0.105175470965937 
2284	 0.103145334955229 
2285	 0.100966920022704 
2286	 9.88691569431571E-02 
2287	 0.096686500636004 
2288	 9.44143923870737E-02 
2289	 9.22929034347191E-02 
2290	 9.00676403758848E-02 
2291	 8.78351519079886E-02 
2292	 8.56243413175657E-02 
2293	 8.32611634821614E-02 
2294	 8.09682578516598E-02 
2295	 7.87304115475153E-02 
2296	 7.65225474536198E-02 
2297	 7.45719028891056E-02 
2298	 7.27817978915551E-02 
2299	 0.071174039983943 
2300	 6.97507065557516E-02 
2301	 0.068557743876595 
2302	 6.75189656469734E-02 
2303	 6.68122594405989E-02 
2304	 0.066342544237492 
2305	 0.066216109731453 
2306	 6.64195240335262E-02 
2307	 6.69167326059209E-02 
2308	 0.067747574501474 
2309	 6.88964729864535E-02 
2310	 7.04529625917738E-02 
2311	 7.21226552090229E-02 
2312	 0.074249161496812 
2313	 7.62316568747756E-02 
2314	 7.83879219106569E-02 
2315	 8.04093070345286E-02 
2316	 8.24378884028804E-02 
2317	 8.43155955296954E-02 
2318	 8.62175472324457E-02 
2319	 8.77739614906004E-02 
2320	 8.91636867874961E-02 
2321	 9.02873508918678E-02 
2322	 9.10758191535457E-02 
2323	 9.17225260117912E-02 
2324	 9.21251004759685E-02 
2325	 9.23858491646286E-02 
2326	 9.24347680936263E-02 
2327	 9.23451192579844E-02 
2328	 9.20799610362686E-02 
2329	 9.16669614525635E-02 
2330	 9.10865975041201E-02 
2331	 0.090346836633428 
2332	 8.94482170611342E-02 
2333	 8.84008156120045E-02 
2334	 8.71377276161669E-02 
2335	 8.57320096274138E-02 
2336	 8.41545990432006E-02 
2337	 8.24599751831741E-02 
2338	 0.080832832431522 
2339	 0.079109931875388 
2340	 7.74316092323538E-02 
2341	 7.59157380981166E-02 
2342	 7.44121165095826E-02 
2343	 7.30927365920139E-02 
2344	 7.20328459131839E-02 
2345	 7.12767262763732E-02 
2346	 7.09127000319142E-02 
2347	 7.09137279640509E-02 
2348	 7.12164856444478E-02 
2349	 7.18937362058729E-02 
2350	 7.28196820749515E-02 
2351	 0.074000644202287 
2352	 7.54536547442476E-02 
2353	 0.077031371419054 
2354	 7.85853116691543E-02 
2355	 8.01098451293688E-02 
2356	 8.14539162828897E-02 
2357	 8.25767958013064E-02 
2358	 8.36343345673486E-02 
2359	 8.44584793754845E-02 
2360	 8.51269925406104E-02 
2361	 8.56490573191653E-02 
2362	 8.59761724981359E-02 
2363	 8.61787871186542E-02 
2364	 8.63050387983213E-02 
2365	 8.63470984130332E-02 
2366	 8.63429410750569E-02 
2367	 8.63401541938059E-02 
2368	 8.63451407305619E-02 
2369	 8.64091495214316E-02 
2370	 8.64242580212236E-02 
2371	 8.64496408088214E-02 
2372	 8.65528853341959E-02 
2373	 8.65887820386946E-02 
2374	 8.66723406798706E-02 
2375	 8.68441259762332E-02 
2376	 8.69755206188223E-02 
2377	 0.087097501494242 
2378	 0.087158179570836 
2379	 8.71768561605043E-02 
2380	 8.71779371246473E-02 
2381	 8.72072112687465E-02 
2382	 8.73528475606614E-02 
2383	 8.76507603952755E-02 
2384	 8.78619332577903E-02 
2385	 8.81230487072248E-02 
2386	 8.83191681307976E-02 
2387	 8.84550487872879E-02 
2388	 8.86423413607847E-02 
2389	 8.88417813296722E-02 
2390	 8.90414426061359E-02 
2391	 8.92458566440054E-02 
2392	 8.94171170023414E-02 
2393	 8.95910919894098E-02 
2394	 0.089745464093961 
2395	 0.089893108440233 
2396	 0.090011019257005 
2397	 9.00772379491178E-02 
2398	 9.01561879148382E-02 
2399	 9.01778820792891E-02 
2400	 9.02985390314066E-02 
2401	 0.090518070730231 
2402	 9.06870828845907E-02 
2403	 9.08409193866208E-02 
2404	 9.10435936063379E-02 
2405	 9.11546860353969E-02 
2406	 9.12837676805222E-02 
2407	 9.14779505612215E-02 
2408	 0.091590396653792 
2409	 9.16877550089799E-02 
2410	 9.18718152323856E-02 
2411	 9.21094177827609E-02 
2412	 9.22749009549962E-02 
2413	 9.24277416251313E-02 
2414	 9.26449667931948E-02 
2415	 9.27981747026533E-02 
2416	 9.29381563387543E-02 
2417	 9.31150494552555E-02 
2418	 9.33069583810215E-02 
2419	 9.34562348316078E-02 
2420	 9.35709211681391E-02 
2421	 9.38010069663329E-02 
2422	 0.09405545674828 
2423	 9.42277453986524E-02 
2424	 9.44195851498515E-02 
2425	 9.46461390161118E-02 
2426	 9.47583009175842E-02 
2427	 9.48237350838126E-02 
2428	 0.094981268935518 
2429	 9.50882733168238E-02 
2430	 9.51273066572499E-02 
2431	 9.52146464215054E-02 
2432	 9.52723762776609E-02 
2433	 9.52692160185866E-02 
2434	 9.53454278552273E-02 
2435	 9.55166631281163E-02 
2436	 9.55860205883912E-02 
2437	 9.56197353771791E-02 
2438	 9.57217329742002E-02 
2439	 9.56978456601546E-02 
2440	 0.095615244641133 
2441	 9.55404416226349E-02 
2442	 9.53950374271288E-02 
2443	 9.52238176061631E-02 
2444	 9.51815738101556E-02 
2445	 9.52128950671091E-02 
2446	 9.50526121643212E-02 
2447	 9.47717230924133E-02 
2448	 9.43953935383627E-02 
2449	 9.40688799709998E-02 
2450	 0.093887115543132 
2451	 9.35911513448519E-02 
2452	 9.32989269610706E-02 
2453	 9.30063307578682E-02 
2454	 9.26176700622462E-02 
2455	 9.24339599150363E-02 
2456	 0.092382156164802 
2457	 0.092096947158808 
2458	 9.18477842316841E-02 
2459	 9.16737770668929E-02 
2460	 9.13996705582757E-02 
2461	 9.12472784844529E-02 
2462	 9.11106076122424E-02 
2463	 9.08788135029928E-02 
2464	 9.06643115408083E-02 
2465	 9.06461426957465E-02 
2466	 9.06138614761532E-02 
2467	 9.05309960275127E-02 
2468	 9.06107905736974E-02 
2469	 9.04992647727462E-02 
2470	 9.04112598665107E-02 
2471	 9.04693429719763E-02 
2472	 9.02833430181453E-02 
2473	 9.02710605146458E-02 
2474	 9.03234815256174E-02 
2475	 9.02093471128299E-02 
2476	 9.03925743446601E-02 
2477	 9.05147604274398E-02 
2478	 9.04628365861439E-02 
2479	 9.05155776421929E-02 
2480	 9.04763306094562E-02 
2481	 9.05235630468974E-02 
2482	 9.06523002961672E-02 
2483	 9.08070126140316E-02 
2484	 9.09551924415838E-02 
2485	 9.09092134365859E-02 
2486	 9.08691883070136E-02 
2487	 9.10964637140938E-02 
2488	 9.13299126081984E-02 
2489	 9.16441787206611E-02 
2490	 9.20893584965194E-02 
2491	 9.23270895791274E-02 
2492	 9.24857813804721E-02 
2493	 9.26436474834825E-02 
2494	 9.26912058643647E-02 
2495	 9.29778449335385E-02 
2496	 9.32254721429984E-02 
2497	 9.35472905932021E-02 
2498	 0.0940472786881 
2499	 9.40355383751742E-02 
2500	 0.094180360152601 
