Wavelength	spectrum00007.asd
350	 4.35324902455793E-02 
351	 4.29906548917881E-02 
352	 4.17125139069607E-02 
353	 4.08559419207684E-02 
354	 4.08586605955106E-02 
355	 4.09688706152733E-02 
356	 4.07969296958665E-02 
357	 4.00992509829236E-02 
358	 3.84335561434008E-02 
359	 3.86767502080689E-02 
360	 3.97012533332101E-02 
361	 3.87757439176854E-02 
362	 3.84027631292504E-02 
363	 0.038471149383272 
364	 0.038459280192216 
365	 3.76312876686981E-02 
366	 0.039260295742226 
367	 4.06328424545745E-02 
368	 3.94486314202158E-02 
369	 3.95235773223493E-02 
370	 3.96423339419929E-02 
371	 3.95758185129013E-02 
372	 3.96567060944618E-02 
373	 3.98299153029399E-02 
374	 4.03825823163554E-02 
375	 4.10297703233774E-02 
376	 4.06314646413541E-02 
377	 4.11546294147911E-02 
378	 0.041693688830709 
379	 4.12653967203936E-02 
380	 0.041239765372249 
381	 4.20957148624596E-02 
382	 4.25435093957565E-02 
383	 4.08208142552116E-02 
384	 4.12277460350246E-02 
385	 4.24846468902043E-02 
386	 4.30882151026658E-02 
387	 4.22155470172544E-02 
388	 4.20494661502473E-02 
389	 4.26565757435874E-02 
390	 4.34138655107611E-02 
391	 4.36701762143361E-02 
392	 4.39476234372931E-02 
393	 4.43085811796871E-02 
394	 4.45238632780966E-02 
395	 4.48906935015831E-02 
396	 4.52695577069244E-02 
397	 4.55532976873897E-02 
398	 0.045775183697064 
399	 0.046021038799336 
400	 4.63194204663972E-02 
401	 0.046662981110617 
402	 4.69668390292447E-02 
403	 4.74792962426433E-02 
404	 4.81397732917215E-02 
405	 4.86667168286536E-02 
406	 4.91312794160418E-02 
407	 4.94722923750181E-02 
408	 4.97365070957434E-02 
409	 5.02011344998839E-02 
410	 5.07201905722454E-02 
411	 5.12435866749865E-02 
412	 5.17330953050614E-02 
413	 5.20826377326157E-02 
414	 5.23072452614049E-02 
415	 5.26430424244099E-02 
416	 5.34628133084372E-02 
417	 5.39748022978353E-02 
418	 5.43592208947787E-02 
419	 0.054887152166535 
420	 5.56596460557652E-02 
421	 5.61335458988441E-02 
422	 5.65014149067408E-02 
423	 5.71753550848184E-02 
424	 5.78123516199971E-02 
425	 5.83143931498725E-02 
426	 5.87695445258593E-02 
427	 0.059444856345701 
428	 5.99703182554202E-02 
429	 6.04836539138597E-02 
430	 6.11113588468939E-02 
431	 6.15726884069635E-02 
432	 6.21939021708154E-02 
433	 6.29064444658077E-02 
434	 6.34594329941233E-02 
435	 6.41581890890046E-02 
436	 6.48189337261184E-02 
437	 6.53882098712881E-02 
438	 6.60979558855289E-02 
439	 6.67780327760145E-02 
440	 6.74711985056219E-02 
441	 6.82262746767176E-02 
442	 6.88563140044824E-02 
443	 6.95119272532555E-02 
444	 7.02244874699288E-02 
445	 7.09296260259415E-02 
446	 7.17409671968469E-02 
447	 0.072496906125271 
448	 7.31597473292359E-02 
449	 7.40656709305187E-02 
450	 7.49739168068044E-02 
451	 7.58071972897218E-02 
452	 7.65842033247493E-02 
453	 7.75017498514679E-02 
454	 7.84526906919133E-02 
455	 7.93479100808671E-02 
456	 8.01553398623727E-02 
457	 8.12522773352751E-02 
458	 8.23370152646154E-02 
459	 8.31678253935966E-02 
460	 8.41415664948414E-02 
461	 8.52116356521515E-02 
462	 8.62743898040995E-02 
463	 0.087229118247805 
464	 8.83376431485187E-02 
465	 8.95265068936913E-02 
466	 9.06734309244149E-02 
467	 9.16377379208446E-02 
468	 9.26945520457049E-02 
469	 9.38655232980796E-02 
470	 9.50916485944344E-02 
471	 9.63546635422223E-02 
472	 9.74633612091536E-02 
473	 0.098531564148994 
474	 9.98788008245298E-02 
475	 0.101032687295021 
476	 0.102190602391967 
477	 0.103502247202718 
478	 0.104777909921172 
479	 0.106009109551726 
480	 0.107250613668554 
481	 0.108564658279552 
482	 0.109838593882353 
483	 0.111147649950644 
484	 0.112529458815394 
485	 0.113958619480835 
486	 0.115308570219386 
487	 0.116595274926153 
488	 0.117878603384231 
489	 0.119224174433085 
490	 0.120654694035172 
491	 0.122107973659286 
492	 0.123485519186508 
493	 0.124850897968001 
494	 0.126244798380046 
495	 0.127671078023989 
496	 0.129078599740006 
497	 0.130444719805104 
498	 0.131833574807116 
499	 0.133299206224165 
500	 0.134729348267515 
501	 0.136138682162265 
502	 0.137546970735415 
503	 0.138973238381473 
504	 0.140415718230909 
505	 0.141810103526168 
506	 0.143159583713369 
507	 0.144662475366691 
508	 0.146120509752813 
509	 0.147528264123079 
510	 0.14896360955642 
511	 0.150437892246203 
512	 0.151900262884518 
513	 0.153334794392848 
514	 0.15478390945168 
515	 0.156178084077395 
516	 0.157526929351078 
517	 0.158869297444983 
518	 0.160272664235739 
519	 0.161639082506846 
520	 0.162970494295353 
521	 0.164336690419911 
522	 0.165721582606871 
523	 0.167056079929331 
524	 0.168327638757387 
525	 0.169656618089677 
526	 0.170913619120177 
527	 0.172138707793765 
528	 0.173403771929705 
529	 0.174594490271745 
530	 0.175778073334745 
531	 0.176972673247636 
532	 0.17812981065342 
533	 0.179192231673937 
534	 0.180226242992692 
535	 0.181277827330922 
536	 0.182249074730948 
537	 0.183232948149298 
538	 0.184192317852689 
539	 0.185027487412454 
540	 0.18577701908364 
541	 0.186482993584698 
542	 0.187167029468471 
543	 0.187815580406139 
544	 0.188461342965824 
545	 0.188999831489754 
546	 0.18935412222768 
547	 0.189766582361623 
548	 0.190091016902975 
549	 0.190308596231342 
550	 0.190520853364104 
551	 0.190609061608576 
552	 0.190642855058825 
553	 0.190662679505929 
554	 0.190548264281136 
555	 0.190335667950555 
556	 0.190062754640863 
557	 0.189760014737762 
558	 0.189368774946136 
559	 0.188920510443122 
560	 0.18843105260151 
561	 0.187883102616933 
562	 0.187244159746528 
563	 0.186563101696815 
564	 0.185876761531862 
565	 0.185087929172196 
566	 0.184231557506344 
567	 0.183324942468532 
568	 0.182367659195612 
569	 0.18133280555711 
570	 0.180212623974818 
571	 0.179029686862695 
572	 0.177861103941971 
573	 0.17669797752125 
574	 0.175533373111906 
575	 0.174356658332787 
576	 0.173165918132784 
577	 0.171927316729805 
578	 0.170642385432917 
579	 0.169355227697755 
580	 0.167984148171397 
581	 0.166574065356599 
582	 0.165153617903298 
583	 0.163603731390943 
584	 0.162083679978013 
585	 0.160569414362298 
586	 0.158943674982021 
587	 0.157347313016948 
588	 0.155751971790158 
589	 0.154119178724836 
590	 0.152427553631682 
591	 0.150715456978903 
592	 0.148993717621612 
593	 0.147273407289438 
594	 0.14560327913555 
595	 0.143943254476903 
596	 0.142275985666692 
597	 0.140612787838503 
598	 0.138937083709212 
599	 0.137278609703179 
600	 0.135638236632404 
601	 0.133935576210043 
602	 0.13227019672111 
603	 0.13063435154691 
604	 0.128977596061113 
605	 0.127284787018779 
606	 0.1256365966316 
607	 0.124050979622748 
608	 0.122463557647768 
609	 0.120880956291218 
610	 0.119346677418534 
611	 0.117876438371581 
612	 0.116376909090798 
613	 0.114898627734154 
614	 0.11344602048315 
615	 0.111997314853979 
616	 0.110612270815761 
617	 0.109242255083613 
618	 0.107872750256123 
619	 0.106575351966786 
620	 0.105265824268104 
621	 0.103973527577406 
622	 0.102745033686208 
623	 0.101515233051425 
624	 0.100323604512188 
625	 9.91663344060887E-02 
626	 9.79974465420179E-02 
627	 9.68667316890588E-02 
628	 9.57771414723453E-02 
629	 9.47148033636981E-02 
630	 9.36470138399238E-02 
631	 9.26143794368115E-02 
632	 9.16260548309501E-02 
633	 9.06713572482696E-02 
634	 8.97052040027808E-02 
635	 8.87515140309976E-02 
636	 8.78267638705559E-02 
637	 8.69329165210233E-02 
638	 8.60890340236214E-02 
639	 8.52257002323373E-02 
640	 8.43172011917063E-02 
641	 8.35537051739143E-02 
642	 8.27699285486284E-02 
643	 8.19660736250062E-02 
644	 0.081237630554557 
645	 8.05508844644706E-02 
646	 7.98524125453246E-02 
647	 7.91323666726311E-02 
648	 7.84527568011656E-02 
649	 7.78121980718074E-02 
650	 0.07717371359274 
651	 7.65103706153661E-02 
652	 0.075888620426073 
653	 7.52924114608075E-02 
654	 7.47070948944558E-02 
655	 7.41244523227087E-02 
656	 7.35742397631101E-02 
657	 0.073049168694384 
658	 7.25342830158763E-02 
659	 7.20070517751928E-02 
660	 7.15127227602323E-02 
661	 7.10514823232026E-02 
662	 7.06006307699945E-02 
663	 7.01210410599146E-02 
664	 6.96369900319115E-02 
665	 6.91722219926789E-02 
666	 6.87444935974143E-02 
667	 6.83328399659545E-02 
668	 6.79337867539682E-02 
669	 6.75465861621683E-02 
670	 6.71675598536727E-02 
671	 6.67863547988826E-02 
672	 6.63981088045307E-02 
673	 6.60087771040513E-02 
674	 6.56734635779881E-02 
675	 0.065341823976787 
676	 6.49972736386279E-02 
677	 6.46743771663359E-02 
678	 6.43391265647036E-02 
679	 0.064002392472809 
680	 6.36828060780537E-02 
681	 6.33896292622326E-02 
682	 6.31028197299357E-02 
683	 6.28229200543353E-02 
684	 6.25561036361275E-02 
685	 6.22554043288791E-02 
686	 6.19566033994232E-02 
687	 6.16815873424882E-02 
688	 6.14200825063025E-02 
689	 6.11627162791015E-02 
690	 6.09113651509108E-02 
691	 0.060672700831113 
692	 6.04641729824519E-02 
693	 6.02157559579367E-02 
694	 5.99526299225388E-02 
695	 5.97482668261208E-02 
696	 5.95042039992432E-02 
697	 5.92716509485323E-02 
698	 5.90676310202942E-02 
699	 5.88259625691254E-02 
700	 5.86323015043372E-02 
701	 5.84486161924978E-02 
702	 0.058227813130183 
703	 5.80311602425368E-02 
704	 5.78369927972499E-02 
705	 5.76302050896633E-02 
706	 5.74084025528813E-02 
707	 5.72433562211765E-02 
708	 0.057078585873191 
709	 5.68839245504853E-02 
710	 5.67009397479043E-02 
711	 5.65392528704246E-02 
712	 5.63831384501699E-02 
713	 5.62158621176744E-02 
714	 5.60572530891279E-02 
715	 5.58828161193281E-02 
716	 5.56958199894194E-02 
717	 5.55214384266359E-02 
718	 5.53785345796435E-02 
719	 5.52411827994377E-02 
720	 0.055088963924537 
721	 5.49200047863736E-02 
722	 5.47893563226213E-02 
723	 5.46639636613637E-02 
724	 5.45032816273946E-02 
725	 5.43497725836404E-02 
726	 5.42157481230103E-02 
727	 5.40967389648217E-02 
728	 5.39760493422986E-02 
729	 5.38466175635309E-02 
730	 5.37096820736408E-02 
731	 5.35765420156107E-02 
732	 5.34725040462177E-02 
733	 5.33580839344013E-02 
734	 5.32377227647398E-02 
735	 5.31229807071506E-02 
736	 5.29983034642044E-02 
737	 5.28866182919302E-02 
738	 5.27868189968336E-02 
739	 5.26831800617591E-02 
740	 5.25886587866938E-02 
741	 5.24930673335677E-02 
742	 5.23941905652387E-02 
743	 5.23054431289069E-02 
744	 5.22001271348374E-02 
745	 5.21059871745188E-02 
746	 0.052043416865471 
747	 5.19612216918301E-02 
748	 5.18626690331186E-02 
749	 5.17602118511607E-02 
750	 5.16731956915097E-02 
751	 0.051627768935259 
752	 5.15639138829967E-02 
753	 5.14665927442418E-02 
754	 5.13892890900742E-02 
755	 5.13170237524814E-02 
756	 5.12523488718277E-02 
757	 5.11921792185451E-02 
758	 5.11073068752764E-02 
759	 5.10365602869335E-02 
760	 5.09781040631666E-02 
761	 5.09140245443798E-02 
762	 5.08618730529522E-02 
763	 5.08005712857391E-02 
764	 5.07338616785674E-02 
765	 5.06916934143561E-02 
766	 5.06305874692422E-02 
767	 5.05637978826032E-02 
768	 5.05082693335812E-02 
769	 5.04642027355759E-02 
770	 0.050416178368592 
771	 5.03752522138722E-02 
772	 5.03538030539914E-02 
773	 5.03222464300945E-02 
774	 5.02716177500405E-02 
775	 5.02127988642661E-02 
776	 5.01701406205553E-02 
777	 5.01343712922238E-02 
778	 5.01082621466019E-02 
779	 5.00822401230545E-02 
780	 5.00239088691173E-02 
781	 4.99732959744686E-02 
782	 4.99355623650111E-02 
783	 4.99078527336052E-02 
784	 0.049900493345673 
785	 4.98819199019768E-02 
786	 4.98543742138056E-02 
787	 4.98363492207811E-02 
788	 4.98059028723097E-02 
789	 4.97633195481905E-02 
790	 4.97226801360063E-02 
791	 4.97094147374557E-02 
792	 4.96961302215169E-02 
793	 4.96728085018073E-02 
794	 4.96431608868138E-02 
795	 4.96356220495735E-02 
796	 4.96156406063836E-02 
797	 4.95994501036944E-02 
798	 4.96054237527655E-02 
799	 0.049566322055698 
800	 4.95346526329284E-02 
801	 4.95228130763949E-02 
802	 4.95091321503921E-02 
803	 4.95055173848531E-02 
804	 4.94940350195938E-02 
805	 4.94712515595096E-02 
806	 4.94600721950988E-02 
807	 4.94688923135093E-02 
808	 4.94678964092813E-02 
809	 4.94396072067645E-02 
810	 4.94315163156495E-02 
811	 0.049430717631781 
812	 4.94269396270737E-02 
813	 4.94156364413536E-02 
814	 4.94198715227216E-02 
815	 4.94345499487315E-02 
816	 4.94479165482427E-02 
817	 4.94461796822164E-02 
818	 4.94431213491222E-02 
819	 4.94346589833155E-02 
820	 4.94289109655149E-02 
821	 4.94574369380259E-02 
822	 4.94781807586203E-02 
823	 4.94893262641568E-02 
824	 4.94987117494477E-02 
825	 4.95062387104409E-02 
826	 4.95197201362996E-02 
827	 4.95349140502999E-02 
828	 4.95449133482348E-02 
829	 4.95599893196239E-02 
830	 4.96024266042836E-02 
831	 4.96564880356885E-02 
832	 4.96784161417065E-02 
833	 4.97048708273707E-02 
834	 0.049727319995547 
835	 4.97492787322402E-02 
836	 4.98013925888711E-02 
837	 4.98318246887895E-02 
838	 4.98621683358129E-02 
839	 4.99152234241135E-02 
840	 4.99644819000288E-02 
841	 5.00079750087246E-02 
842	 5.00443853716208E-02 
843	 5.00768989688415E-02 
844	 5.01229024872954E-02 
845	 5.01644482109419E-02 
846	 5.01967596590581E-02 
847	 5.02303148197349E-02 
848	 5.03073929223709E-02 
849	 5.03694557925518E-02 
850	 5.04035236766129E-02 
851	 5.04662124429069E-02 
852	 5.05352755098038E-02 
853	 5.06056412023948E-02 
854	 5.06807396822331E-02 
855	 5.07783495060412E-02 
856	 5.08380532031103E-02 
857	 5.08922513853141E-02 
858	 5.09823437102417E-02 
859	 0.051067845886912 
860	 5.11425061345378E-02 
861	 5.12216182581378E-02 
862	 5.13258200915514E-02 
863	 5.14361080160886E-02 
864	 5.15351253140722E-02 
865	 5.16283045136871E-02 
866	 5.17368021426313E-02 
867	 5.18228880918595E-02 
868	 5.19427018142273E-02 
869	 5.20900252273384E-02 
870	 5.21634965029744E-02 
871	 5.22878707331405E-02 
872	 5.24402346345789E-02 
873	 0.052579197280646 
874	 5.26974684630312E-02 
875	 5.28189563016671E-02 
876	 5.29543561756491E-02 
877	 5.31032701748606E-02 
878	 5.32434148192252E-02 
879	 0.05340610034478 
880	 5.35635549608973E-02 
881	 5.36825595834893E-02 
882	 5.38663667737918E-02 
883	 5.40337030728479E-02 
884	 5.41765781562328E-02 
885	 5.43493130423107E-02 
886	 5.45609188346911E-02 
887	 5.47395727690709E-02 
888	 5.48827909047262E-02 
889	 5.50737901987052E-02 
890	 5.52941434582715E-02 
891	 0.05549925286532 
892	 0.055681015396423 
893	 0.055900814014467 
894	 5.61240059007187E-02 
895	 5.63439077595943E-02 
896	 5.65609117848402E-02 
897	 5.67764277772492E-02 
898	 0.056987740093802 
899	 5.72135383642476E-02 
900	 5.74575909328135E-02 
901	 5.76334993000368E-02 
902	 5.78852973784617E-02 
903	 5.81869800700524E-02 
904	 5.84363043240968E-02 
905	 5.86370004434212E-02 
906	 5.88990059056986E-02 
907	 5.92033826949538E-02 
908	 5.94497793219709E-02 
909	 5.97162472266214E-02 
910	 5.99987086281746E-02 
911	 6.02870618470391E-02 
912	 6.05741015385326E-02 
913	 6.08656374355603E-02 
914	 6.11750749664498E-02 
915	 6.14943058416808E-02 
916	 6.17877431558411E-02 
917	 0.062061447128895 
918	 6.23746663756393E-02 
919	 6.27390013208707E-02 
920	 0.063063322617731 
921	 6.33415439109913E-02 
922	 0.06363352829661 
923	 0.063985666735914 
924	 6.43647170296543E-02 
925	 6.47178614587604E-02 
926	 0.06506451843564 
927	 0.065437015362517 
928	 6.58197045257162E-02 
929	 6.61842318584081E-02 
930	 6.65366805853414E-02 
931	 6.68960011511421E-02 
932	 6.72600729717342E-02 
933	 6.76357096886335E-02 
934	 6.80353674650953E-02 
935	 6.84630013882614E-02 
936	 6.88688199256279E-02 
937	 6.92868770074832E-02 
938	 6.96915586903745E-02 
939	 7.00383936115271E-02 
940	 7.04586664794305E-02 
941	 7.09067586959645E-02 
942	 7.13425859168907E-02 
943	 7.17557920840257E-02 
944	 7.22143092035031E-02 
945	 0.072647242217362 
946	 7.30480350974588E-02 
947	 7.34878551693811E-02 
948	 7.39306044434987E-02 
949	 7.43685791778412E-02 
950	 7.48178665055126E-02 
951	 7.53100390171904E-02 
952	 7.57073691794538E-02 
953	 7.61395696436624E-02 
954	 7.66429905254181E-02 
955	 7.70557868860671E-02 
956	 7.75017401351917E-02 
957	 7.79502203026975E-02 
958	 7.83898379268419E-02 
959	 7.88919142219598E-02 
960	 7.93977340311118E-02 
961	 7.98477143203023E-02 
962	 8.02625847284006E-02 
963	 8.08112780707963E-02 
964	 8.12211381865784E-02 
965	 8.16179558419885E-02 
966	 8.21242331837008E-02 
967	 8.26109964240742E-02 
968	 8.31041751991964E-02 
969	 8.35749289704488E-02 
970	 8.40293673324578E-02 
971	 8.45896737970143E-02 
972	 8.51364771864264E-02 
973	 8.56245720133414E-02 
974	 8.60565610831307E-02 
975	 8.64840826323911E-02 
976	 8.70018825454762E-02 
977	 8.75803509168918E-02 
978	 8.81380786776044E-02 
979	 8.85823462333299E-02 
980	 8.90950662270867E-02 
981	 8.96093146363039E-02 
982	 9.00477136741411E-02 
983	 9.05956752429858E-02 
984	 0.091058059759614 
985	 9.15694838390274E-02 
986	 9.22225778501184E-02 
987	 9.25686735944551E-02 
988	 9.30921322530031E-02 
989	 9.36632664820105E-02 
990	 9.40707074551323E-02 
991	 9.46387752559024E-02 
992	 9.51228510314764E-02 
993	 0.095586432065794 
994	 9.61416350677716E-02 
995	 9.66697149356838E-02 
996	 9.71464878879238E-02 
997	 9.75875683763486E-02 
998	 9.80526956654765E-02 
999	 9.86757319198231E-02 
1000	 9.93008324350125E-02 
1001	 0.101549815266612 
1002	 0.102083723962293 
1003	 0.102633795828112 
1004	 0.103118061550736 
1005	 0.103568355703533 
1006	 0.104052234190019 
1007	 0.10448935928336 
1008	 0.104985738727057 
1009	 0.105551132142529 
1010	 0.106055739094984 
1011	 0.106539915596184 
1012	 0.107043721975861 
1013	 0.107548302699306 
1014	 0.108036094143775 
1015	 0.108548706533978 
1016	 0.109010049820661 
1017	 0.109418993299801 
1018	 0.109863230687837 
1019	 0.110352665443071 
1020	 0.110811156982031 
1021	 0.111250222497209 
1022	 0.11169140489047 
1023	 0.112133124892006 
1024	 0.112536279239047 
1025	 0.112971751266732 
1026	 0.113442235266976 
1027	 0.113886919106258 
1028	 0.114331719367602 
1029	 0.114759114033743 
1030	 0.115154712914723 
1031	 0.11557612289394 
1032	 0.116002974450717 
1033	 0.116403331338919 
1034	 0.116796695672875 
1035	 0.117176792976138 
1036	 0.117570877273519 
1037	 0.1179643464728 
1038	 0.118337351481245 
1039	 0.118720140064537 
1040	 0.119093032701809 
1041	 0.11942000840028 
1042	 0.119771727764684 
1043	 0.120150012141172 
1044	 0.120505404878011 
1045	 0.12086740909925 
1046	 0.121243212093606 
1047	 0.121565073366571 
1048	 0.121905565446012 
1049	 0.122225689440818 
1050	 0.122496487551029 
1051	 0.12282285092221 
1052	 0.123171831746831 
1053	 0.123499552757754 
1054	 0.123848422626974 
1055	 0.124160087033776 
1056	 0.124435085564088 
1057	 0.124719298210879 
1058	 0.124999800566357 
1059	 0.125256752733195 
1060	 0.125502578822722 
1061	 0.125759226067819 
1062	 0.126019084301953 
1063	 0.126287371039316 
1064	 0.126550919345974 
1065	 0.126799911723585 
1066	 0.12702706084491 
1067	 0.127255270175051 
1068	 0.127513690237515 
1069	 0.127763058468422 
1070	 0.128001224289303 
1071	 0.128240879048315 
1072	 0.128452246901496 
1073	 0.128629677889393 
1074	 0.128826438646528 
1075	 0.129017661242273 
1076	 0.129224119945857 
1077	 0.129463336943977 
1078	 0.129678934090516 
1079	 0.129869747595439 
1080	 0.130027211665526 
1081	 0.130171391152885 
1082	 0.130333338731256 
1083	 0.130492423225543 
1084	 0.130661322466444 
1085	 0.130822187231378 
1086	 0.130961328774142 
1087	 0.131076071807261 
1088	 0.131186827252226 
1089	 0.131306938060127 
1090	 0.131442228250694 
1091	 0.131586647732155 
1092	 0.131730750462183 
1093	 0.13187113943575 
1094	 0.131989488904776 
1095	 0.132093271487248 
1096	 0.132203363543875 
1097	 0.132298451657223 
1098	 0.132401111933915 
1099	 0.132530081158028 
1100	 0.132636057026318 
1101	 0.132719817070933 
1102	 0.132811944692625 
1103	 0.132901021475276 
1104	 0.13297415494854 
1105	 0.133046040261858 
1106	 0.133140585846652 
1107	 0.133217145739157 
1108	 0.133268630963013 
1109	 0.133339276095662 
1110	 0.133416880580393 
1111	 0.133483697489159 
1112	 0.133561288350079 
1113	 0.133640809648919 
1114	 0.133687556653559 
1115	 0.133734553982261 
1116	 0.133788829393082 
1117	 0.133817337825334 
1118	 0.133856270891425 
1119	 0.133913330460776 
1120	 0.13394901714194 
1121	 0.133966223249438 
1122	 0.134000632073392 
1123	 0.134045885341406 
1124	 0.13407705141176 
1125	 0.134125557375607 
1126	 0.134180701038813 
1127	 0.134217037337749 
1128	 0.134262345933847 
1129	 0.134297357510877 
1130	 0.134320580869933 
1131	 0.134345542183965 
1132	 0.134350666318897 
1133	 0.134360444497565 
1134	 0.134371211549678 
1135	 0.134385527337256 
1136	 0.134409065211523 
1137	 0.134417419032347 
1138	 0.134424007825659 
1139	 0.134426464230329 
1140	 0.134419155520962 
1141	 0.134398025348702 
1142	 0.134392282559367 
1143	 0.134389241631361 
1144	 0.134377960242306 
1145	 0.13436685995113 
1146	 0.134361801407928 
1147	 0.134331560063689 
1148	 0.134289567318087 
1149	 0.134277459737873 
1150	 0.1342549336723 
1151	 0.134240777824741 
1152	 0.134232406573184 
1153	 0.134236277922651 
1154	 0.134224284971962 
1155	 0.134216946881722 
1156	 0.134196722104828 
1157	 0.134164868940807 
1158	 0.134139228919165 
1159	 0.134108788942697 
1160	 0.134076908250186 
1161	 0.13404727200891 
1162	 0.134005381336254 
1163	 0.133975018235034 
1164	 0.133948197373703 
1165	 0.13392628141117 
1166	 0.133923067823268 
1167	 0.133913213794094 
1168	 0.133900034239561 
1169	 0.133892230339373 
1170	 0.133890289114982 
1171	 0.133879472993031 
1172	 0.133864340973627 
1173	 0.13385965598004 
1174	 0.133854967087637 
1175	 0.133852052008263 
1176	 0.133864383525482 
1177	 0.133861175465306 
1178	 0.133848287103373 
1179	 0.133834931992843 
1180	 0.133811525126206 
1181	 0.133804146472672 
1182	 0.133815242340758 
1183	 0.133817320471473 
1184	 0.133829795361589 
1185	 0.133834258197191 
1186	 0.133840302461293 
1187	 0.133833520819416 
1188	 0.133848489837908 
1189	 0.133875253349496 
1190	 0.133904182956162 
1191	 0.133942150496473 
1192	 0.13397990129205 
1193	 0.134002374485806 
1194	 0.134058821168915 
1195	 0.134147911043438 
1196	 0.134219818354901 
1197	 0.134296646731175 
1198	 0.134392384645377 
1199	 0.134465460902525 
1200	 0.134534671597207 
1201	 0.134643032517039 
1202	 0.134754738528717 
1203	 0.134863145043411 
1204	 0.13497452461912 
1205	 0.135091265553618 
1206	 0.135195457442674 
1207	 0.135334818526591 
1208	 0.13549081362154 
1209	 0.135662887267033 
1210	 0.135854003158438 
1211	 0.136058201098533 
1212	 0.136273275301955 
1213	 0.136514086689346 
1214	 0.136778003013081 
1215	 0.137054007472962 
1216	 0.137356492872608 
1217	 0.137659420004973 
1218	 0.137970231876937 
1219	 0.138292598791323 
1220	 0.138620443800927 
1221	 0.138972353682435 
1222	 0.139313320682494 
1223	 0.139651926259658 
1224	 0.139999383197876 
1225	 0.140352645353523 
1226	 0.140689345310416 
1227	 0.141031959825622 
1228	 0.141360165778467 
1229	 0.141668662186071 
1230	 0.14198291571635 
1231	 0.142303644076401 
1232	 0.142606815486655 
1233	 0.142899261297018 
1234	 0.143182624122372 
1235	 0.143438017481246 
1236	 0.14371630453212 
1237	 0.144003355687037 
1238	 0.144287691126349 
1239	 0.144584175761688 
1240	 0.144877100872115 
1241	 0.14516154113931 
1242	 0.145423014229445 
1243	 0.145686574986326 
1244	 0.145936292023041 
1245	 0.146203657840795 
1246	 0.146475971219456 
1247	 0.146743166980116 
1248	 0.147019583017535 
1249	 0.147285271081638 
1250	 0.147540062733612 
1251	 0.147796820014259 
1252	 0.148053822944507 
1253	 0.148310074715782 
1254	 0.148560773319668 
1255	 0.148816531343169 
1256	 0.149077374995653 
1257	 0.149337006960379 
1258	 0.149604565132529 
1259	 0.149859725010288 
1260	 0.150097577414803 
1261	 0.15034965566936 
1262	 0.150588754351546 
1263	 0.150857603091534 
1264	 0.151123559181633 
1265	 0.151406272038812 
1266	 0.151678581641455 
1267	 0.151950390947065 
1268	 0.152220952467608 
1269	 0.152488618875017 
1270	 0.152763399649431 
1271	 0.153043356984296 
1272	 0.153316668090391 
1273	 0.153584889034608 
1274	 0.1538647305611 
1275	 0.154136145170257 
1276	 0.154425775881934 
1277	 0.154740053259346 
1278	 0.155042470886779 
1279	 0.155352802624401 
1280	 0.15565250862254 
1281	 0.155923226265664 
1282	 0.156225815397694 
1283	 0.156549405842986 
1284	 0.15686040218889 
1285	 0.15717443997954 
1286	 0.157503987170121 
1287	 0.157828459117358 
1288	 0.158140346077635 
1289	 0.158461861095568 
1290	 0.15879908966105 
1291	 0.159123400898449 
1292	 0.159433215128107 
1293	 0.159756922202385 
1294	 0.160091071422876 
1295	 0.160414122059426 
1296	 0.160733496930792 
1297	 0.161056005640895 
1298	 0.161367411928441 
1299	 0.161693797904421 
1300	 0.162036301113543 
1301	 0.162367631373139 
1302	 0.16269959905603 
1303	 0.163030483150431 
1304	 0.16334349900667 
1305	 0.163677254678077 
1306	 0.164027925774292 
1307	 0.164373062574102 
1308	 0.164715454726202 
1309	 0.165078909988511 
1310	 0.165431351928798 
1311	 0.165777816128692 
1312	 0.166131107886654 
1313	 0.166492607175212 
1314	 0.166844011446568 
1315	 0.167189696049423 
1316	 0.167540576454969 
1317	 0.167888184779885 
1318	 0.168241723165861 
1319	 0.168602908436468 
1320	 0.168957680588826 
1321	 0.169314951704977 
1322	 0.169663775409949 
1323	 0.169996909410099 
1324	 0.170347910752723 
1325	 0.170705754419662 
1326	 0.171060239748707 
1327	 0.171425138846914 
1328	 0.171785082634121 
1329	 0.172140991464489 
1330	 0.172491552762504 
1331	 0.172834293000326 
1332	 0.173185912519833 
1333	 0.173528548168504 
1334	 0.173890782969377 
1335	 0.174239422494869 
1336	 0.174595395708484 
1337	 0.174942908204079 
1338	 0.17527746657499 
1339	 0.175622220236361 
1340	 0.175976971855798 
1341	 0.176316733860506 
1342	 0.176654223514326 
1343	 0.176984047198949 
1344	 0.177305208430418 
1345	 0.177623043433858 
1346	 0.177938253716621 
1347	 0.178245118903829 
1348	 0.178546923195593 
1349	 0.178840857806988 
1350	 0.179117704146342 
1351	 0.179410234933057 
1352	 0.179707272950055 
1353	 0.180000121307317 
1354	 0.180304220428883 
1355	 0.180596683009854 
1356	 0.180870464493813 
1357	 0.181157687260947 
1358	 0.181456079046513 
1359	 0.181745264309603 
1360	 0.182029966293358 
1361	 0.182321058230132 
1362	 0.18262750602566 
1363	 0.182899360131703 
1364	 0.18318264728538 
1365	 0.183477623801773 
1366	 0.183746600563985 
1367	 0.183998127431529 
1368	 0.184252552463192 
1369	 0.184497953108082 
1370	 0.184743370800161 
1371	 0.184993530323191 
1372	 0.185220137446321 
1373	 0.185439783189871 
1374	 0.185644660590132 
1375	 0.185826183806147 
1376	 0.186014474567259 
1377	 0.186203976369609 
1378	 0.186378463999196 
1379	 0.186551150680503 
1380	 0.186707945166808 
1381	 0.18684382537467 
1382	 0.186981145754984 
1383	 0.187105352745573 
1384	 0.187235342211079 
1385	 0.187349064042494 
1386	 0.187489743413763 
1387	 0.187643452258823 
1388	 0.187803747168728 
1389	 0.187980962232386 
1390	 0.188166578251437 
1391	 0.188357706759326 
1392	 0.188559614314514 
1393	 0.188775127651431 
1394	 0.188988473477742 
1395	 0.189184606141485 
1396	 0.189386205236718 
1397	 0.189539878494575 
1398	 0.189678791305232 
1399	 0.189771643547756 
1400	 0.189828222986103 
1401	 0.18985292857963 
1402	 0.189847961931507 
1403	 0.189800537492193 
1404	 0.189715411185607 
1405	 0.189599401517207 
1406	 0.189424632735427 
1407	 0.189267634906157 
1408	 0.189070317450127 
1409	 0.188913440246687 
1410	 0.188735698896345 
1411	 0.188639633856461 
1412	 0.188561677694405 
1413	 0.188566005787469 
1414	 0.188644186074768 
1415	 0.188768300167417 
1416	 0.188975819687039 
1417	 0.189189837803722 
1418	 0.189463838983415 
1419	 0.189728494155362 
1420	 0.190013322210714 
1421	 0.190289746529022 
1422	 0.190564581166351 
1423	 0.190846258703128 
1424	 0.191118341537254 
1425	 0.191411963930381 
1426	 0.191710185473948 
1427	 0.192022819133024 
1428	 0.192364516558893 
1429	 0.192697039185487 
1430	 0.193052710295913 
1431	 0.193426602565828 
1432	 0.193806523040158 
1433	 0.194194224437603 
1434	 0.194602898483532 
1435	 0.195023135436118 
1436	 0.195466322886252 
1437	 0.195937578845061 
1438	 0.196399017423264 
1439	 0.196867519690775 
1440	 0.197351277891144 
1441	 0.197842291471445 
1442	 0.198341232749869 
1443	 0.19886075248415 
1444	 0.199378575224382 
1445	 0.199891998772395 
1446	 0.200417195159516 
1447	 0.200951573175052 
1448	 0.201495378995934 
1449	 0.202053717580208 
1450	 0.202610336498926 
1451	 0.203173992992538 
1452	 0.203741454486701 
1453	 0.204317422049755 
1454	 0.204878317827821 
1455	 0.205443271927848 
1456	 0.205997418993063 
1457	 0.206530622039637 
1458	 0.207074098292469 
1459	 0.207614498663977 
1460	 0.208163816754292 
1461	 0.208715813513316 
1462	 0.209272829075118 
1463	 0.209837619587974 
1464	 0.210405505661671 
1465	 0.210963611503246 
1466	 0.211562405615482 
1467	 0.212127187798206 
1468	 0.212696169963116 
1469	 0.213291212329359 
1470	 0.213848435857236 
1471	 0.214419383550001 
1472	 0.215003112386464 
1473	 0.215571591961421 
1474	 0.216125193437992 
1475	 0.216686860558584 
1476	 0.217257003462933 
1477	 0.217808925894269 
1478	 0.218353007783156 
1479	 0.218885759225106 
1480	 0.219403333226266 
1481	 0.219924563738242 
1482	 0.220443774028406 
1483	 0.220954000956315 
1484	 0.221459846680336 
1485	 0.221962771636352 
1486	 0.222460890585857 
1487	 0.222944211452219 
1488	 0.223413340682688 
1489	 0.223893898473729 
1490	 0.224363412306318 
1491	 0.224844282917099 
1492	 0.225331524612277 
1493	 0.225834777545998 
1494	 0.226342801804357 
1495	 0.226857959663308 
1496	 0.227391083497865 
1497	 0.227927889133376 
1498	 0.228469138434946 
1499	 0.229014189076444 
1500	 0.229570472023537 
1501	 0.230128621825202 
1502	 0.23069102834965 
1503	 0.231246806710857 
1504	 0.231800477075808 
1505	 0.2323619069128 
1506	 0.232926702919899 
1507	 0.233486109424361 
1508	 0.2340458860368 
1509	 0.234613184256108 
1510	 0.235171887268885 
1511	 0.235738312259749 
1512	 0.23632716370955 
1513	 0.236903398627595 
1514	 0.237473719673734 
1515	 0.23804507023068 
1516	 0.238609476392198 
1517	 0.239177232158158 
1518	 0.239742021211653 
1519	 0.240313175868378 
1520	 0.240892569437697 
1521	 0.241467050323752 
1522	 0.242036317223945 
1523	 0.242643409394665 
1524	 0.243226009923315 
1525	 0.243798572903119 
1526	 0.244406018713702 
1527	 0.245026375094714 
1528	 0.245633127540328 
1529	 0.246254148498515 
1530	 0.246879621768894 
1531	 0.247488561871964 
1532	 0.248124592875692 
1533	 0.248792462837537 
1534	 0.249446195800147 
1535	 0.250092047223945 
1536	 0.250754409800004 
1537	 0.251429600953125 
1538	 0.252102659761601 
1539	 0.252784468087531 
1540	 0.253460143544652 
1541	 0.254133599970317 
1542	 0.254811998400712 
1543	 0.255497299628116 
1544	 0.256164838355359 
1545	 0.256828509780689 
1546	 0.257489495395679 
1547	 0.25814582112809 
1548	 0.258782996063833 
1549	 0.259417447714435 
1550	 0.260035800061099 
1551	 0.260614308918997 
1552	 0.261227425840511 
1553	 0.261848877421361 
1554	 0.262474911980367 
1555	 0.263116861630691 
1556	 0.26375298393493 
1557	 0.264386065869862 
1558	 0.265028010212663 
1559	 0.265685995058747 
1560	 0.266321193932216 
1561	 0.266942499471062 
1562	 0.267580158582658 
1563	 0.26820892107394 
1564	 0.268848254809891 
1565	 0.269504835929213 
1566	 0.270161278581771 
1567	 0.27082293958458 
1568	 0.271474616624811 
1569	 0.272131230050055 
1570	 0.272782567580108 
1571	 0.273419914166062 
1572	 0.27406120974702 
1573	 0.274700238109048 
1574	 0.275350554776205 
1575	 0.276010174276884 
1576	 0.276658158043125 
1577	 0.277303075025413 
1578	 0.277960515990658 
1579	 0.278618501144878 
1580	 0.279269742215527 
1581	 0.279935929119256 
1582	 0.280589476697535 
1583	 0.281217249768631 
1584	 0.281864608631974 
1585	 0.282522056215389 
1586	 0.28317987598977 
1587	 0.283846912324798 
1588	 0.284505110710725 
1589	 0.285147676399239 
1590	 0.285816236514357 
1591	 0.286499485370415 
1592	 0.287178886357051 
1593	 0.287864322381776 
1594	 0.288566908283524 
1595	 0.289282836669096 
1596	 0.289982838235083 
1597	 0.290694078759385 
1598	 0.291401191715049 
1599	 0.29209466444997 
1600	 0.292785928584748 
1601	 0.293474815833637 
1602	 0.294175675061166 
1603	 0.294875152355176 
1604	 0.295567893132658 
1605	 0.296277176369033 
1606	 0.296972531034711 
1607	 0.297654200085557 
1608	 0.298330699462087 
1609	 0.298996116262935 
1610	 0.299671378163176 
1611	 0.300353705774153 
1612	 0.301011582298641 
1613	 0.301664618666835 
1614	 0.302312823173463 
1615	 0.302950038175729 
1616	 0.303569242229292 
1617	 0.304186552743541 
1618	 0.304786140043255 
1619	 0.30534243296092 
1620	 0.305913236170234 
1621	 0.306487661767056 
1622	 0.307057502771029 
1623	 0.307637958084265 
1624	 0.308199665012203 
1625	 0.308741964058636 
1626	 0.30929035787354 
1627	 0.30982506534179 
1628	 0.310365226284535 
1629	 0.310923533970361 
1630	 0.311459818467916 
1631	 0.311990636991195 
1632	 0.312508386353684 
1633	 0.312999001000306 
1634	 0.313502397703036 
1635	 0.313998585834074 
1636	 0.314501681606328 
1637	 0.315021290844553 
1638	 0.315523723862052 
1639	 0.316034700917112 
1640	 0.316518090524821 
1641	 0.316987288850211 
1642	 0.317433577157485 
1643	 0.3178517726643 
1644	 0.318256689544292 
1645	 0.31863358157797 
1646	 0.31901197887622 
1647	 0.319394181629107 
1648	 0.319747926527062 
1649	 0.32008862426787 
1650	 0.320409474752226 
1651	 0.320697240562768 
1652	 0.32097804703882 
1653	 0.321268314582727 
1654	 0.321506177776868 
1655	 0.321732877844352 
1656	 0.321894658475175 
1657	 0.322010944466233 
1658	 0.322064591917311 
1659	 0.322042423552238 
1660	 0.322000960556774 
1661	 0.321923559142333 
1662	 0.321782462739828 
1663	 0.321613422933776 
1664	 0.321368935701472 
1665	 0.321045387412491 
1666	 0.320669391131333 
1667	 0.320240322951049 
1668	 0.319744985276454 
1669	 0.319199001139149 
1670	 0.318564251053784 
1671	 0.317844919655377 
1672	 0.317065376470188 
1673	 0.316194988108462 
1674	 0.315283337516816 
1675	 0.314324838291197 
1676	 0.313311745587361 
1677	 0.31224062452231 
1678	 0.311108773083807 
1679	 0.309912091191609 
1680	 0.30865950276376 
1681	 0.307343785720874 
1682	 0.305972719646921 
1683	 0.304531053000458 
1684	 0.303084169694166 
1685	 0.301597259433574 
1686	 0.300074920009309 
1687	 0.298502678859811 
1688	 0.296922951394373 
1689	 0.295295988862909 
1690	 0.293675227793518 
1691	 0.292071675254601 
1692	 0.29046284683389 
1693	 0.288851004700729 
1694	 0.287198884694443 
1695	 0.285531191059881 
1696	 0.283806437526421 
1697	 0.282031257441201 
1698	 0.280230339754833 
1699	 0.278383703142119 
1700	 0.276591164909982 
1701	 0.274756212193908 
1702	 0.273023447476034 
1703	 0.271305143088995 
1704	 0.269714550463056 
1705	 0.268190949519824 
1706	 0.266763679497312 
1707	 0.265531894758049 
1708	 0.264373477441256 
1709	 0.26328629039199 
1710	 0.262272221754046 
1711	 0.261277578615601 
1712	 0.260348503766449 
1713	 0.259462657571574 
1714	 0.258614652781336 
1715	 0.257841417875903 
1716	 0.257063973984699 
1717	 0.256337258888142 
1718	 0.255699594850826 
1719	 0.25510828902032 
1720	 0.254627830388164 
1721	 0.254258384293118 
1722	 0.253984463088955 
1723	 0.253871345953022 
1724	 0.253932156225662 
1725	 0.254162991152887 
1726	 0.254636459762594 
1727	 0.255339444588768 
1728	 0.256210971997066 
1729	 0.257324421447253 
1730	 0.258657772467953 
1731	 0.260057658627195 
1732	 0.261628791915951 
1733	 0.263228641942711 
1734	 0.264801886114739 
1735	 0.26643394582379 
1736	 0.267926385971386 
1737	 0.26931572577596 
1738	 0.270552295107408 
1739	 0.2716113641922 
1740	 0.272542354946596 
1741	 0.273303438894202 
1742	 0.27386593545749 
1743	 0.274329441278946 
1744	 0.27461274464148 
1745	 0.274847836706125 
1746	 0.274944919649083 
1747	 0.275038852514483 
1748	 0.275044170656609 
1749	 0.27508408330784 
1750	 0.275074750702963 
1751	 0.275142785178161 
1752	 0.275228090821408 
1753	 0.275398183234055 
1754	 0.275602455703975 
1755	 0.275924409195564 
1756	 0.27630451763433 
1757	 0.276810562787493 
1758	 0.277493385325048 
1759	 0.27827335400989 
1760	 0.279221105475112 
1761	 0.280335982516392 
1762	 0.281516241175845 
1763	 0.282884590834838 
1764	 0.284331628654113 
1765	 0.285858671067044 
1766	 0.287597230303235 
1767	 0.289336176193676 
1768	 0.291146611690351 
1769	 0.292990947334146 
1770	 0.294655692552686 
1771	 0.296302373139991 
1772	 0.297851497498502 
1773	 0.299281166160636 
1774	 0.300732723226792 
1775	 0.302065737524915 
1776	 0.303352404439238 
1777	 0.304594910826125 
1778	 0.305675800015391 
1779	 0.306708437967077 
1780	 0.30768319919013 
1781	 0.308548989509801 
1782	 0.309387811763007 
1783	 0.310174385027505 
1784	 0.310886537781485 
1785	 0.311519617162872 
1786	 0.312104622510854 
1787	 0.312605172563492 
1788	 0.313101000132117 
1789	 0.313555622130308 
1790	 0.314019935201193 
1791	 0.314475306531565 
1792	 0.314906738240958 
1793	 0.31531296161211 
1794	 0.315707040965862 
1795	 0.316102558001959 
1796	 0.316509544104908 
1797	 0.316910620575596 
1798	 0.317298277898499 
1799	 0.317692194277408 
1800	 0.318102643873659 
1801	 0.317710522851676 
1802	 0.31810250532363 
1803	 0.318500745914931 
1804	 0.318885944911077 
1805	 0.319304199784912 
1806	 0.319694714569244 
1807	 0.320086124057553 
1808	 0.320472179664711 
1809	 0.320840371232722 
1810	 0.321216261798279 
1811	 0.321592910159 
1812	 0.321978175482616 
1813	 0.322355221333256 
1814	 0.322768288610609 
1815	 0.32316510983409 
1816	 0.323585108762559 
1817	 0.32400312645406 
1818	 0.324420925581171 
1819	 0.324841738375414 
1820	 0.325266345754918 
1821	 0.325699371685786 
1822	 0.326130923646282 
1823	 0.326594760500029 
1824	 0.327032078110497 
1825	 0.327464425254523 
1826	 0.327879580782624 
1827	 0.328261525620839 
1828	 0.328658204526033 
1829	 0.329061005600707 
1830	 0.329449534277666 
1831	 0.329824770922856 
1832	 0.33022180579118 
1833	 0.330592940488071 
1834	 0.330957229673105 
1835	 0.331321595703407 
1836	 0.331665850850447 
1837	 0.332019925738727 
1838	 0.332368926180191 
1839	 0.33272384513096 
1840	 0.333076758451777 
1841	 0.333440373130629 
1842	 0.333805793077321 
1843	 0.334181724650838 
1844	 0.334569340155493 
1845	 0.334942769746721 
1846	 0.33530799131444 
1847	 0.335660001263802 
1848	 0.336013187888206 
1849	 0.336367757104735 
1850	 0.336705699210941 
1851	 0.337040343516335 
1852	 0.33736621467277 
1853	 0.337669854699569 
1854	 0.337936685018105 
1855	 0.338181294144412 
1856	 0.338390602969861 
1857	 0.338571081939847 
1858	 0.33873960324227 
1859	 0.338858805967729 
1860	 0.338956869129628 
1861	 0.338996791968238 
1862	 0.338993173367103 
1863	 0.338934247618988 
1864	 0.338839498432803 
1865	 0.338727571871538 
1866	 0.338549926408951 
1867	 0.338305839687147 
1868	 0.338020849094994 
1869	 0.337626281649618 
1870	 0.337166031943062 
1871	 0.336644633867072 
1872	 0.336057368475139 
1873	 0.335393835780252 
1874	 0.334682349116703 
1875	 0.33389348295646 
1876	 0.332962497057117 
1877	 0.331973734187134 
1878	 0.330838063152422 
1879	 0.329568528238761 
1880	 0.328281980420245 
1881	 0.326839358716652 
1882	 0.32525487218714 
1883	 0.323586764840494 
1884	 0.32179305840346 
1885	 0.31972804803747 
1886	 0.317585184860363 
1887	 0.315244637246662 
1888	 0.312676687371487 
1889	 0.310181214494424 
1890	 0.307507173528795 
1891	 0.304814709517526 
1892	 0.302144023293617 
1893	 0.299368171728025 
1894	 0.296450387070232 
1895	 0.293652216390015 
1896	 0.290799571519041 
1897	 0.287956091334671 
1898	 0.285371516240812 
1899	 0.282751305562618 
1900	 0.280217404505459 
1901	 0.277829857410335 
1902	 0.275354980093458 
1903	 0.273042849308882 
1904	 0.270818633976214 
1905	 0.268662205177558 
1906	 0.266573628261998 
1907	 0.26473679788332 
1908	 0.262915102323979 
1909	 0.261184181731144 
1910	 0.259593356623519 
1911	 0.257977033314327 
1912	 0.256498033468271 
1913	 0.255089677379665 
1914	 0.253709341086242 
1915	 0.252450050962657 
1916	 0.251321293566932 
1917	 0.250200591481964 
1918	 0.249139631200477 
1919	 0.248160230643693 
1920	 0.247157489392465 
1921	 0.246217684511031 
1922	 0.245328648876602 
1923	 0.244481245920753 
1924	 0.243757976682944 
1925	 0.243072865266176 
1926	 0.242432377673499 
1927	 0.241864673829407 
1928	 0.241326737997062 
1929	 0.240812048466233 
1930	 0.240369273788643 
1931	 0.239975121227357 
1932	 0.239616333198439 
1933	 0.239349077279634 
1934	 0.239134239651892 
1935	 0.238960748911004 
1936	 0.238865784938677 
1937	 0.238814468165516 
1938	 0.238805776738864 
1939	 0.238851662715125 
1940	 0.238956595515689 
1941	 0.239116649388001 
1942	 0.239306702411514 
1943	 0.239519765556879 
1944	 0.239757202902099 
1945	 0.240032086057064 
1946	 0.240355977680167 
1947	 0.240699964292171 
1948	 0.241092930237017 
1949	 0.24152585970643 
1950	 0.241947494782632 
1951	 0.242373138041532 
1952	 0.242830089474973 
1953	 0.24330400481935 
1954	 0.243778096992728 
1955	 0.244300106982194 
1956	 0.244808026341508 
1957	 0.245322581085898 
1958	 0.24584396786537 
1959	 0.24633165707426 
1960	 0.246841721759999 
1961	 0.247348208535903 
1962	 0.247841518030818 
1963	 0.248353768069251 
1964	 0.248884232110495 
1965	 0.24940111626905 
1966	 0.249929675645412 
1967	 0.250445591819706 
1968	 0.250927456156646 
1969	 0.251420996576951 
1970	 0.251901295371099 
1971	 0.252367137343242 
1972	 0.25285026740532 
1973	 0.25332223173157 
1974	 0.253800823345685 
1975	 0.254300186018938 
1976	 0.254763208904977 
1977	 0.255218221410397 
1978	 0.255663972332541 
1979	 0.256088155536817 
1980	 0.256489065747392 
1981	 0.256929326392078 
1982	 0.257335416629617 
1983	 0.257731276630181 
1984	 0.258128801063285 
1985	 0.258480726440466 
1986	 0.258837458357632 
1987	 0.259187497556285 
1988	 0.259526003077211 
1989	 0.259859629057866 
1990	 0.260194935346868 
1991	 0.26051249003399 
1992	 0.260823549943225 
1993	 0.261119688979242 
1994	 0.261380053510965 
1995	 0.261636193255785 
1996	 0.261871780898638 
1997	 0.262105964390187 
1998	 0.262337943879021 
1999	 0.262573176328549 
2000	 0.262791711818878 
2001	 0.263014207124793 
2002	 0.263197955363905 
2003	 0.26335961025743 
2004	 0.263513454472829 
2005	 0.263640361653569 
2006	 0.263755931782995 
2007	 0.263865360799155 
2008	 0.263962678005505 
2009	 0.264034628526181 
2010	 0.26407120457312 
2011	 0.264076926424274 
2012	 0.264055987677253 
2013	 0.26398778871525 
2014	 0.263876330302507 
2015	 0.263726062629226 
2016	 0.263544097204326 
2017	 0.263307525298885 
2018	 0.263015258337547 
2019	 0.262696708366841 
2020	 0.262347088916229 
2021	 0.261935166105682 
2022	 0.261491892594386 
2023	 0.260994645562118 
2024	 0.26042189642896 
2025	 0.259820965120521 
2026	 0.259198926194358 
2027	 0.258508892107824 
2028	 0.257865687910606 
2029	 0.257207633769341 
2030	 0.256570766147667 
2031	 0.255950214244606 
2032	 0.255344822197085 
2033	 0.25471644249706 
2034	 0.254162713750447 
2035	 0.253640144630826 
2036	 0.253155025420684 
2037	 0.252758576864816 
2038	 0.252414840016758 
2039	 0.252120772841 
2040	 0.251887259791107 
2041	 0.251702935508657 
2042	 0.251574420315084 
2043	 0.251488404660507 
2044	 0.251460573664309 
2045	 0.251467262695856 
2046	 0.251526328065419 
2047	 0.25160704649093 
2048	 0.251734171200685 
2049	 0.251880721361796 
2050	 0.252059511744365 
2051	 0.252251482131327 
2052	 0.252467906382272 
2053	 0.252724084224953 
2054	 0.252984282355527 
2055	 0.253264244018779 
2056	 0.253557715451593 
2057	 0.25386353518074 
2058	 0.254188109456762 
2059	 0.25454515279016 
2060	 0.254888943144137 
2061	 0.255254784528864 
2062	 0.25560095303987 
2063	 0.255934273787132 
2064	 0.256267672071499 
2065	 0.25659793810424 
2066	 0.256916185810667 
2067	 0.257255187864937 
2068	 0.257574883774608 
2069	 0.257883262572487 
2070	 0.258200028751899 
2071	 0.258476005136086 
2072	 0.258714872319492 
2073	 0.258961215798644 
2074	 0.259191302404033 
2075	 0.259412630043876 
2076	 0.259635100574857 
2077	 0.259835803436067 
2078	 0.260024759822405 
2079	 0.260189420575693 
2080	 0.260341927407421 
2081	 0.26046835472227 
2082	 0.260568403536282 
2083	 0.260636839002353 
2084	 0.260711528397155 
2085	 0.26076636712673 
2086	 0.260813602241088 
2087	 0.26086302178475 
2088	 0.260879886061824 
2089	 0.26087091830715 
2090	 0.260855516113827 
2091	 0.260821579020211 
2092	 0.260778809896927 
2093	 0.260721494438863 
2094	 0.260656826375866 
2095	 0.260594734894585 
2096	 0.260498078754071 
2097	 0.260386900495889 
2098	 0.260250166997652 
2099	 0.260086533802755 
2100	 0.259907979255294 
2101	 0.259697375682649 
2102	 0.259452965318411 
2103	 0.259224024277495 
2104	 0.258967463550672 
2105	 0.258721087480076 
2106	 0.25850162726484 
2107	 0.258241104525282 
2108	 0.257963902170512 
2109	 0.257664381301986 
2110	 0.257336614124496 
2111	 0.25700542676232 
2112	 0.256645379278597 
2113	 0.256291985351167 
2114	 0.255937765160858 
2115	 0.255572849585008 
2116	 0.25519717824067 
2117	 0.254833451341582 
2118	 0.254449486222951 
2119	 0.254046159348854 
2120	 0.253671651361662 
2121	 0.253293447522055 
2122	 0.252930139545929 
2123	 0.25258221938384 
2124	 0.252241838958701 
2125	 0.251905486987794 
2126	 0.25158386368447 
2127	 0.251287406226125 
2128	 0.25098683629343 
2129	 0.250697557083715 
2130	 0.250398970841477 
2131	 0.250120933111175 
2132	 0.249802421540736 
2133	 0.249462131330497 
2134	 0.249115426283843 
2135	 0.248722097714279 
2136	 0.248311627945231 
2137	 0.247905855477485 
2138	 0.247478765675705 
2139	 0.247069987496784 
2140	 0.246668524809756 
2141	 0.246260374559455 
2142	 0.245852325805376 
2143	 0.245447327390205 
2144	 0.245035835917773 
2145	 0.244638512036039 
2146	 0.244233701703271 
2147	 0.243862179847115 
2148	 0.243518044303944 
2149	 0.2431703731044 
2150	 0.242856017845557 
2151	 0.242526344866072 
2152	 0.242194687274916 
2153	 0.241850426814223 
2154	 0.241509637636195 
2155	 0.241143039999149 
2156	 0.240777646565652 
2157	 0.240405269490563 
2158	 0.240013936691509 
2159	 0.239619063219663 
2160	 0.239197715921823 
2161	 0.238748877255712 
2162	 0.238301210428505 
2163	 0.23779882903138 
2164	 0.237379021887328 
2165	 0.236987357709661 
2166	 0.236603896146859 
2167	 0.236277604098195 
2168	 0.235941161216764 
2169	 0.235576966804137 
2170	 0.235266341023469 
2171	 0.23498061092986 
2172	 0.234727600945572 
2173	 0.234517884674648 
2174	 0.234323642885914 
2175	 0.234139209633009 
2176	 0.234001274062036 
2177	 0.233870058391472 
2178	 0.233753011454326 
2179	 0.233659583607542 
2180	 0.23359975700422 
2181	 0.233529799700277 
2182	 0.23347902430729 
2183	 0.233416879228437 
2184	 0.233357836749661 
2185	 0.233290227079615 
2186	 0.233225244770433 
2187	 0.233141228630576 
2188	 0.233041502989745 
2189	 0.232941829852513 
2190	 0.23285432356379 
2191	 0.232719092580994 
2192	 0.232587087538029 
2193	 0.232394759245178 
2194	 0.232139185831424 
2195	 0.231866237761565 
2196	 0.231556979989193 
2197	 0.231213564399733 
2198	 0.230873233028476 
2199	 0.230488519657762 
2200	 0.230047121271498 
2201	 0.22958030619746 
2202	 0.229029698190848 
2203	 0.228406329205167 
2204	 0.22773876359319 
2205	 0.226979190200832 
2206	 0.226248900041336 
2207	 0.225470628742999 
2208	 0.224712616719018 
2209	 0.223965135231619 
2210	 0.223206355911249 
2211	 0.222407148690726 
2212	 0.221677892834486 
2213	 0.22093156595909 
2214	 0.220283878055911 
2215	 0.219711139833937 
2216	 0.219175023738243 
2217	 0.218714389825494 
2218	 0.21828578424716 
2219	 0.217930779059966 
2220	 0.21756283834118 
2221	 0.217229461382233 
2222	 0.216899102244664 
2223	 0.216562453060338 
2224	 0.216180378381955 
2225	 0.215776898098933 
2226	 0.215312703144403 
2227	 0.214748285621553 
2228	 0.214127575426583 
2229	 0.213372139069899 
2230	 0.212485102055008 
2231	 0.211567031228469 
2232	 0.210563067708245 
2233	 0.209468752878401 
2234	 0.208355220545469 
2235	 0.207051288678114 
2236	 0.205588806671764 
2237	 0.204057051434429 
2238	 0.202344302716301 
2239	 0.200642935703994 
2240	 0.198915894562272 
2241	 0.197059623188983 
2242	 0.195189525240481 
2243	 0.193132320053985 
2244	 0.190883085157917 
2245	 0.188593088906716 
2246	 0.186115425165516 
2247	 0.183662776313099 
2248	 0.181187545672977 
2249	 0.178643710466483 
2250	 0.176068243720166 
2251	 0.173460683578185 
2252	 0.170632813740845 
2253	 0.167895403892667 
2254	 0.165106440328657 
2255	 0.162277535093976 
2256	 0.159716285934733 
2257	 0.157148989082189 
2258	 0.154691852792961 
2259	 0.152373657225966 
2260	 0.15005856155962 
2261	 0.147742799565489 
2262	 0.145624147050011 
2263	 0.143541279417339 
2264	 0.141716737799265 
2265	 0.140123460060177 
2266	 0.138590041525162 
2267	 0.137269062419743 
2268	 0.135959169205606 
2269	 0.134712221446179 
2270	 0.133580342137319 
2271	 0.13253447450847 
2272	 0.131583866186161 
2273	 0.130792686215332 
2274	 0.129991832932969 
2275	 0.129288826620719 
2276	 0.128558411965775 
2277	 0.12786186724626 
2278	 0.127137938214649 
2279	 0.126390861111464 
2280	 0.12566607677674 
2281	 0.124939358596293 
2282	 0.124211620872583 
2283	 0.123504647635505 
2284	 0.122815591736837 
2285	 0.122010716161824 
2286	 0.12122031682384 
2287	 0.120408067875833 
2288	 0.119512283371685 
2289	 0.1186456500528 
2290	 0.117749524624639 
2291	 0.116807682242164 
2292	 0.115856192626005 
2293	 0.114916083091735 
2294	 0.114028057364355 
2295	 0.113165868721472 
2296	 0.112362211034833 
2297	 0.111665360785477 
2298	 0.111029092810838 
2299	 0.1105283423336 
2300	 0.110117532538156 
2301	 0.109887474363579 
2302	 0.109793776294515 
2303	 0.109854667593457 
2304	 0.11008756302708 
2305	 0.110463402444122 
2306	 0.111002662458673 
2307	 0.111673925822491 
2308	 0.112498836149479 
2309	 0.113469751869585 
2310	 0.114650525712647 
2311	 0.115841708103732 
2312	 0.117264151082834 
2313	 0.11854482593587 
2314	 0.119837109790967 
2315	 0.121051007810433 
2316	 0.122223362913005 
2317	 0.123303897542105 
2318	 0.124388961179853 
2319	 0.125242469386575 
2320	 0.125966115165654 
2321	 0.126529757968341 
2322	 0.126884538249008 
2323	 0.127133207645054 
2324	 0.12722057922016 
2325	 0.127200972529635 
2326	 0.127045992152442 
2327	 0.12676161178331 
2328	 0.126303718584016 
2329	 0.125814970551693 
2330	 0.125234881193296 
2331	 0.124515544912701 
2332	 0.123780326754132 
2333	 0.122917465685064 
2334	 0.121818400571897 
2335	 0.120664764442132 
2336	 0.119464237787713 
2337	 0.11816127194303 
2338	 0.116924517158046 
2339	 0.115712128352306 
2340	 0.114470008987521 
2341	 0.113287458610267 
2342	 0.112158823991379 
2343	 0.111137692641881 
2344	 0.110227163111507 
2345	 0.109466945776558 
2346	 0.108933153798656 
2347	 0.108578689552254 
2348	 0.108415905072666 
2349	 0.10854290074502 
2350	 0.108833005205515 
2351	 0.109218029396245 
2352	 0.109743216303794 
2353	 0.110322492701038 
2354	 0.110883108391164 
2355	 0.111514356979417 
2356	 0.11215789939975 
2357	 0.112759128517727 
2358	 0.113327925824635 
2359	 0.11380501142652 
2360	 0.114210881271671 
2361	 0.114581874762801 
2362	 0.11497140187175 
2363	 0.115331013555171 
2364	 0.115630433158758 
2365	 0.115867505336859 
2366	 0.116046538928342 
2367	 0.116228301526559 
2368	 0.116396531179845 
2369	 0.116546553518837 
2370	 0.116694444688126 
2371	 0.116834031875491 
2372	 0.116923218919417 
2373	 0.116933616521258 
2374	 0.116955649416245 
2375	 0.116949811847843 
2376	 0.116953235016372 
2377	 0.117058158928181 
2378	 0.117142820527393 
2379	 0.11717400129796 
2380	 0.117231163579794 
2381	 0.117329262237665 
2382	 0.117377071145601 
2383	 0.117397684806647 
2384	 0.117431283106139 
2385	 0.11743796034512 
2386	 0.117459961077033 
2387	 0.117499652051217 
2388	 0.117538954142232 
2389	 0.117575555131232 
2390	 0.117589911963837 
2391	 0.117621945060873 
2392	 0.117614903451657 
2393	 0.117589858233633 
2394	 0.11753081712641 
2395	 0.117412885941749 
2396	 0.117323428074554 
2397	 0.117184129118461 
2398	 0.117136232946916 
2399	 0.117138466392592 
2400	 0.117169901349433 
2401	 0.117284675572667 
2402	 0.117342497335945 
2403	 0.117424047548769 
2404	 0.11747144021237 
2405	 0.117490520132998 
2406	 0.117592474869084 
2407	 0.117685417912964 
2408	 0.117775895575614 
2409	 0.117875944140039 
2410	 0.118024155960387 
2411	 0.118197371427193 
2412	 0.1183004119344 
2413	 0.11839446039856 
2414	 0.118442554714935 
2415	 0.118457160274869 
2416	 0.118530937963465 
2417	 0.118645681636203 
2418	 0.11875166594588 
2419	 0.118774969857885 
2420	 0.118829066445785 
2421	 0.118872265459859 
2422	 0.118855677925203 
2423	 0.118969900040617 
2424	 0.119048601517901 
2425	 0.119090968111112 
2426	 0.119240807761067 
2427	 0.119350897691792 
2428	 0.119403018214541 
2429	 0.119512931381209 
2430	 0.119588843902455 
2431	 0.119584412687159 
2432	 0.11965031075804 
2433	 0.119709492447377 
2434	 0.119781537782219 
2435	 0.119876890396133 
2436	 0.119921437769513 
2437	 0.120066020598695 
2438	 0.120099451913851 
2439	 0.119997632343068 
2440	 0.120018835724963 
2441	 0.119950586494659 
2442	 0.119861268312935 
2443	 0.119908700744369 
2444	 0.120008598535516 
2445	 0.120017924520703 
2446	 0.119992127321369 
2447	 0.120127361162996 
2448	 0.1200179586872 
2449	 0.119842860363224 
2450	 0.119807451945376 
2451	 0.119518237447225 
2452	 0.119354305137043 
2453	 0.119381623158374 
2454	 0.119348335992838 
2455	 0.119440654901981 
2456	 0.119430391568563 
2457	 0.119132849552506 
2458	 0.11895459358234 
2459	 0.118835311055509 
2460	 0.118695100126125 
2461	 0.118720438903875 
2462	 0.11861230954309 
2463	 0.118414138301647 
2464	 0.118266059977617 
2465	 0.118200959764372 
2466	 0.118135559995652 
2467	 0.117983608544096 
2468	 0.117939503686359 
2469	 0.11778891818436 
2470	 0.117758767428881 
2471	 0.11784322314002 
2472	 0.117743433696401 
2473	 0.11790599502491 
2474	 0.118042887797645 
2475	 0.117959884938614 
2476	 0.117999144144968 
2477	 0.117868765062293 
2478	 0.11764653761678 
2479	 0.117656814828099 
2480	 0.11779080754166 
2481	 0.117819078966544 
2482	 0.117811187629144 
2483	 0.117876524480809 
2484	 0.117807407062873 
2485	 0.117646817404666 
2486	 0.117700478232411 
2487	 0.117719364038685 
2488	 0.117571953595638 
2489	 0.117582996482364 
2490	 0.117626588401249 
2491	 0.11760528100312 
2492	 0.117834967453463 
2493	 0.118218655146933 
2494	 0.118340051853621 
2495	 0.118376408406269 
2496	 0.118536253769884 
2497	 0.118557548765569 
2498	 0.11860821977324 
2499	 0.11885453983803 
2500	 0.118952233709413 
