Wavelength	Tablay400124.asd
350	 0.215720204704783 
351	 0.160168431040376 
352	 7.04390644946064E-02 
353	 4.25393186073059E-02 
354	 8.50717750032829E-02 
355	 0.112967482330017 
356	 9.23806846969729E-02 
357	 2.66833120467139E-02 
358	 7.37604433745991E-03 
359	 2.60275340182683E-02 
360	 8.57561716538583E-02 
361	 0.162883825845566 
362	 0.12747114768236 
363	 7.88676285643523E-02 
364	 7.30563742490937E-02 
365	 6.33059441186526E-02 
366	 3.11319428466745E-02 
367	 2.63836205436221E-02 
368	 7.05114481039611E-02 
369	 6.28984766129294E-02 
370	 5.64805687288006E-02 
371	 6.68761513699267E-02 
372	 8.42636393625741E-02 
373	 0.111170505735182 
374	 0.102736035031082 
375	 6.15311923424271E-02 
376	 0.072683492615201 
377	 7.82891154896804E-02 
378	 0.090018259406673 
379	 0.112364612305953 
380	 6.81714066291553E-02 
381	 4.39290557012571E-02 
382	 0.057111541572258 
383	 7.14065045058531E-02 
384	 5.48028439147863E-02 
385	 4.46732333602767E-02 
386	 5.76378740409899E-02 
387	 6.98360624291055E-02 
388	 6.83520998293856E-02 
389	 6.40553563708414E-02 
390	 6.78136694283914E-02 
391	 6.10585741937032E-02 
392	 8.86504056209345E-02 
393	 0.106930147201746 
394	 3.11617465376208E-02 
395	 0.022022434680716 
396	 4.58028130118928E-02 
397	 5.97234970342078E-02 
398	 4.34620231863108E-02 
399	 6.04037181342176E-02 
400	 7.81485045160308E-02 
401	 5.98560267802114E-02 
402	 5.19169036826379E-02 
403	 6.03653429014248E-02 
404	 7.07648851295523E-02 
405	 6.00469117653799E-02 
406	 6.84005585640493E-02 
407	 7.17082684482863E-02 
408	 5.96459571207518E-02 
409	 6.63815815599844E-02 
410	 5.51065910902277E-02 
411	 4.55279836371884E-02 
412	 6.10282099432482E-02 
413	 5.46544022962646E-02 
414	 4.98427513882621E-02 
415	 5.54552071628866E-02 
416	 0.064154146855238 
417	 6.86253306880775E-02 
418	 6.79566572557888E-02 
419	 6.44149280405079E-02 
420	 0.064658027678478 
421	 5.84028592342843E-02 
422	 5.26103972641311E-02 
423	 5.77333596147234E-02 
424	 5.94789173589874E-02 
425	 5.89937830174126E-02 
426	 5.69031882483276E-02 
427	 5.18347067989594E-02 
428	 5.96035314963087E-02 
429	 6.58847936425217E-02 
430	 6.01808086945176E-02 
431	 6.21593262872672E-02 
432	 5.75523094975793E-02 
433	 5.08761283023009E-02 
434	 5.44966604005858E-02 
435	 5.41090560392518E-02 
436	 5.44902053351024E-02 
437	 5.67014888933036E-02 
438	 5.30968612348771E-02 
439	 5.24546206117566E-02 
440	 5.47214108041601E-02 
441	 5.72384113354242E-02 
442	 5.85629730586422E-02 
443	 5.67293803917666E-02 
444	 5.32537743028791E-02 
445	 0.052021601484169 
446	 5.11802335834064E-02 
447	 4.99696126967506E-02 
448	 4.92653583876005E-02 
449	 5.38481179936283E-02 
450	 5.35774244294754E-02 
451	 5.20893954716628E-02 
452	 5.59751475742632E-02 
453	 0.056824645670182 
454	 5.39371639344872E-02 
455	 5.01922917733407E-02 
456	 5.14820842203991E-02 
457	 5.32349927990808E-02 
458	 5.27607786041561E-02 
459	 0.050027393502232 
460	 5.11276547082777E-02 
461	 5.27317533346726E-02 
462	 5.31261002162653E-02 
463	 5.20254440389006E-02 
464	 5.35826183809026E-02 
465	 5.30784377700067E-02 
466	 4.98494922461361E-02 
467	 5.05837990004344E-02 
468	 5.09143057493422E-02 
469	 5.18819104511212E-02 
470	 5.45018420566076E-02 
471	 5.38623807838563E-02 
472	 5.25754998716083E-02 
473	 0.050780373425425 
474	 4.70417062796219E-02 
475	 4.80166000306798E-02 
476	 5.02006534031072E-02 
477	 5.06874746395467E-02 
478	 5.13627966881853E-02 
479	 5.15370044884946E-02 
480	 5.10583643760086E-02 
481	 0.050071762152227 
482	 4.91135929125579E-02 
483	 4.89989211540871E-02 
484	 4.95559226818819E-02 
485	 4.95614426811329E-02 
486	 4.78422695742705E-02 
487	 0.047019428776816 
488	 4.86201454348529E-02 
489	 0.048338250675892 
490	 4.87771579092048E-02 
491	 4.98166152534574E-02 
492	 4.98131439779093E-02 
493	 4.81427059400365E-02 
494	 4.80640542783956E-02 
495	 4.97693803269758E-02 
496	 0.047732273715131 
497	 4.85750889994003E-02 
498	 5.01566260942204E-02 
499	 4.90227072936699E-02 
500	 4.80942859717644E-02 
501	 4.80966525378765E-02 
502	 4.84624237536514E-02 
503	 4.77307582443483E-02 
504	 4.75965790565143E-02 
505	 4.78645600592096E-02 
506	 4.83465994744348E-02 
507	 5.00526186048572E-02 
508	 4.92184094832849E-02 
509	 4.73835850161842E-02 
510	 4.77973207919849E-02 
511	 0.047850636664692 
512	 4.78259314040947E-02 
513	 4.79179525044613E-02 
514	 4.79230215081372E-02 
515	 0.047234349450827 
516	 0.046997101393281 
517	 4.78962557623417E-02 
518	 4.75339281404919E-02 
519	 4.72398869582905E-02 
520	 4.73218752368591E-02 
521	 4.73488789092688E-02 
522	 4.72937530445893E-02 
523	 4.71060082210181E-02 
524	 4.69649039598225E-02 
525	 4.75586050411079E-02 
526	 4.78376406723034E-02 
527	 4.75342829342878E-02 
528	 4.68506469996003E-02 
529	 4.67289762760235E-02 
530	 4.70089003892333E-02 
531	 4.73013469559703E-02 
532	 4.70921431150402E-02 
533	 4.70453945144646E-02 
534	 4.70542906939206E-02 
535	 4.69540176720636E-02 
536	 4.68872424201908E-02 
537	 0.046952376511539 
538	 4.70511563213913E-02 
539	 4.69779146655895E-02 
540	 0.046586218274233 
541	 4.64511863096639E-02 
542	 4.66690114694589E-02 
543	 0.046468559126553 
544	 4.62636963711206E-02 
545	 4.64197026590123E-02 
546	 4.69583487690951E-02 
547	 4.64304757602978E-02 
548	 4.61788976636278E-02 
549	 4.64495242040648E-02 
550	 4.64499610915583E-02 
551	 4.63253403286296E-02 
552	 0.046167314169888 
553	 4.60573784745024E-02 
554	 0.046052184924091 
555	 4.60573750771434E-02 
556	 4.60604820911622E-02 
557	 4.60955247750172E-02 
558	 4.62509453382549E-02 
559	 4.62460992666112E-02 
560	 4.60866187593248E-02 
561	 4.62176415353591E-02 
562	 4.60110040412603E-02 
563	 4.59533139085988E-02 
564	 0.046412860646135 
565	 4.61382416441366E-02 
566	 4.61433949071878E-02 
567	 4.63860156061684E-02 
568	 4.61003435027019E-02 
569	 0.046185710625549 
570	 4.63085551528984E-02 
571	 4.61541029209249E-02 
572	 4.57732407639867E-02 
573	 4.58080894697302E-02 
574	 4.60377032830778E-02 
575	 4.59965043527767E-02 
576	 4.60253726447722E-02 
577	 4.59128384563057E-02 
578	 4.57947869979832E-02 
579	 4.62050242800985E-02 
580	 0.046336904898109 
581	 4.62558207054082E-02 
582	 4.61601928492216E-02 
583	 4.59771403640535E-02 
584	 4.57778939536664E-02 
585	 4.57190620844581E-02 
586	 0.045954304559233 
587	 4.62150222732839E-02 
588	 4.62455234003941E-02 
589	 4.60526870806233E-02 
590	 4.60455407349008E-02 
591	 4.60374096357908E-02 
592	 4.60059836330212E-02 
593	 4.59583516037377E-02 
594	 4.58016561712294E-02 
595	 4.58901480712334E-02 
596	 4.61293277786059E-02 
597	 4.60542996140531E-02 
598	 4.59076294949943E-02 
599	 0.045799949758414 
600	 4.58103670039425E-02 
601	 4.60385863313133E-02 
602	 4.60493514467719E-02 
603	 4.59178218695453E-02 
604	 4.59141721535591E-02 
605	 4.59166160969738E-02 
606	 4.58717585903889E-02 
607	 4.58562617056181E-02 
608	 4.60972894484567E-02 
609	 4.60542349721528E-02 
610	 4.58036301776644E-02 
611	 4.56100867991047E-02 
612	 4.58155352913098E-02 
613	 4.59138089858488E-02 
614	 4.58248960258038E-02 
615	 4.57539599436136E-02 
616	 4.57098521089121E-02 
617	 4.56630978072075E-02 
618	 4.56205312358802E-02 
619	 4.56674812941768E-02 
620	 4.57760468500505E-02 
621	 4.58306635245519E-02 
622	 0.045752094244799 
623	 4.57616334981537E-02 
624	 4.58829834461125E-02 
625	 4.60084786249503E-02 
626	 4.59293594483903E-02 
627	 4.56934209542938E-02 
628	 4.55328381917512E-02 
629	 4.55942459215719E-02 
630	 4.57656474205983E-02 
631	 4.57593710911712E-02 
632	 4.56899870049623E-02 
633	 4.57932836835275E-02 
634	 4.57078235579704E-02 
635	 4.56498814852024E-02 
636	 4.56973368214782E-02 
637	 4.57003545817312E-02 
638	 4.55916518574172E-02 
639	 4.55386412921942E-02 
640	 0.045653229863496 
641	 4.56771053152449E-02 
642	 4.56656102102965E-02 
643	 0.045644361740113 
644	 4.56193525485354E-02 
645	 4.55568454264359E-02 
646	 4.55908350715351E-02 
647	 4.56796203050323E-02 
648	 4.54540330310774E-02 
649	 4.54394199799102E-02 
650	 4.55494801810208E-02 
651	 4.55668825667024E-02 
652	 4.55814748756704E-02 
653	 4.56157786415872E-02 
654	 4.56389964679239E-02 
655	 4.55834922128119E-02 
656	 4.54601600186893E-02 
657	 0.045429725128727 
658	 4.55277874098984E-02 
659	 4.54769423813183E-02 
660	 4.55074574736496E-02 
661	 4.55140121438297E-02 
662	 4.53531015096538E-02 
663	 4.53555767393171E-02 
664	 0.045399479605729 
665	 4.54203925371632E-02 
666	 4.54396790912071E-02 
667	 4.54517563704898E-02 
668	 4.55404883711424E-02 
669	 4.56938485252575E-02 
670	 4.56156737738555E-02 
671	 4.54556900206508E-02 
672	 4.53993953158596E-02 
673	 4.55624481193508E-02 
674	 4.54591649452832E-02 
675	 4.54579550826073E-02 
676	 4.56224602575541E-02 
677	 4.55743271592733E-02 
678	 4.54625883359957E-02 
679	 4.54154296590701E-02 
680	 0.045476860859365 
681	 4.54430158358652E-02 
682	 4.54530606024498E-02 
683	 4.54902349068294E-02 
684	 4.54675752804141E-02 
685	 4.54695444785459E-02 
686	 4.54721784805738E-02 
687	 4.54681269984053E-02 
688	 4.54887957253444E-02 
689	 4.54864747164285E-02 
690	 0.045438896610149 
691	 4.53743606737642E-02 
692	 4.54741904030417E-02 
693	 4.54957213563015E-02 
694	 4.54647547838982E-02 
695	 4.55506524467033E-02 
696	 4.55354186247354E-02 
697	 4.54881230188515E-02 
698	 4.54707324185609E-02 
699	 4.54793202221897E-02 
700	 4.54824826445367E-02 
701	 4.55121260057051E-02 
702	 4.55862034805556E-02 
703	 4.56084925233551E-02 
704	 4.55723460733712E-02 
705	 4.55215708873264E-02 
706	 4.55289393669544E-02 
707	 4.55994502821868E-02 
708	 0.045640371665367 
709	 4.56121488806911E-02 
710	 4.55804863896937E-02 
711	 4.55779942913047E-02 
712	 4.56394064753369E-02 
713	 4.57365088265309E-02 
714	 4.55957587868744E-02 
715	 4.56064297372708E-02 
716	 4.57306802870923E-02 
717	 4.56502697757767E-02 
718	 4.56398471464171E-02 
719	 0.04568924460286 
720	 4.57594446697102E-02 
721	 4.58329845120519E-02 
722	 4.58430288512689E-02 
723	 4.58321433099273E-02 
724	 4.58585896514932E-02 
725	 4.58996520269295E-02 
726	 4.58842043590099E-02 
727	 4.58639429953835E-02 
728	 4.59514062702338E-02 
729	 4.59348950329426E-02 
730	 4.58848024188351E-02 
731	 4.58708142959853E-02 
732	 4.58989129585672E-02 
733	 4.59202868410064E-02 
734	 4.59134334021953E-02 
735	 4.58883254690399E-02 
736	 4.59392998602013E-02 
737	 4.59251240027721E-02 
738	 4.58860289117146E-02 
739	 0.045959249859298 
740	 4.59618677116255E-02 
741	 4.60189208488014E-02 
742	 4.61345501850502E-02 
743	 4.60810725809765E-02 
744	 4.61505114016161E-02 
745	 4.62153637971013E-02 
746	 4.61324826898432E-02 
747	 4.60808502917652E-02 
748	 0.046146681968819 
749	 4.62346947960907E-02 
750	 4.61829531424373E-02 
751	 4.62148207166639E-02 
752	 4.62503166550803E-02 
753	 4.62355586560192E-02 
754	 4.61913069390398E-02 
755	 4.62498964901119E-02 
756	 4.62908682739621E-02 
757	 4.62199039513019E-02 
758	 4.61925840248258E-02 
759	 4.61495853827353E-02 
760	 4.61358127703897E-02 
761	 4.62218210968018E-02 
762	 4.63453473961223E-02 
763	 4.63761737828605E-02 
764	 0.046299898442778 
765	 4.62318520249238E-02 
766	 4.62908871586365E-02 
767	 4.63674796055579E-02 
768	 4.63655035505308E-02 
769	 4.63243414573654E-02 
770	 4.63107670427427E-02 
771	 4.63542002953481E-02 
772	 4.64350573498006E-02 
773	 4.63969984990467E-02 
774	 4.63857347156685E-02 
775	 4.64133311896326E-02 
776	 4.63796462424845E-02 
777	 4.63301532157847E-02 
778	 4.63293832595131E-02 
779	 4.63856879382361E-02 
780	 4.64119349903004E-02 
781	 0.046426748064851 
782	 0.046399025316906 
783	 4.63317782701879E-02 
784	 4.63874543336886E-02 
785	 4.64027026967281E-02 
786	 4.63791262339859E-02 
787	 4.63995211079981E-02 
788	 4.63698363432581E-02 
789	 4.63624392690681E-02 
790	 4.63723730656101E-02 
791	 4.62957090135734E-02 
792	 4.63276638994919E-02 
793	 4.63837044551262E-02 
794	 4.63914491507221E-02 
795	 4.64592429985832E-02 
796	 4.64896225412271E-02 
797	 4.64484466948329E-02 
798	 4.63670296043379E-02 
799	 4.64611687180495E-02 
800	 0.046481993484114 
801	 4.63939245030906E-02 
802	 0.046341523545612 
803	 4.63491574837224E-02 
804	 4.63634073097364E-02 
805	 4.63674044114681E-02 
806	 4.64173587775872E-02 
807	 4.63736901800879E-02 
808	 4.63721198312406E-02 
809	 4.64874754682629E-02 
810	 4.64069798557403E-02 
811	 4.63314650830548E-02 
812	 4.63226027864092E-02 
813	 4.63637732040981E-02 
814	 4.63916708531647E-02 
815	 4.63471659284248E-02 
816	 4.62790541842209E-02 
817	 4.63175585917154E-02 
818	 4.64067079377988E-02 
819	 4.64119438098236E-02 
820	 4.63503022716834E-02 
821	 4.65004991188393E-02 
822	 4.64551446251188E-02 
823	 4.63243215803836E-02 
824	 4.62949418757044E-02 
825	 4.63284465347408E-02 
826	 4.64408035126931E-02 
827	 4.64975448685126E-02 
828	 4.63731711843089E-02 
829	 4.63793372923223E-02 
830	 4.64407773507359E-02 
831	 4.64915052497317E-02 
832	 4.64984540254913E-02 
833	 4.64639549400532E-02 
834	 4.63849233441501E-02 
835	 4.63198627358195E-02 
836	 4.64136206967133E-02 
837	 4.64584766605548E-02 
838	 0.046452280266504 
839	 4.64494850021717E-02 
840	 4.65094814486841E-02 
841	 4.65264492298707E-02 
842	 4.65542158041691E-02 
843	 4.66417285625185E-02 
844	 4.64653548114643E-02 
845	 4.64260053659439E-02 
846	 4.65336589120795E-02 
847	 4.65157900466131E-02 
848	 4.65281042595516E-02 
849	 4.65344265022292E-02 
850	 4.64949400072917E-02 
851	 4.64006082166971E-02 
852	 4.65304662229415E-02 
853	 4.66025042428776E-02 
854	 4.64729590753235E-02 
855	 4.65361188211811E-02 
856	 4.66058709895819E-02 
857	 4.66007163264764E-02 
858	 4.65277882357899E-02 
859	 4.65946925604122E-02 
860	 4.66598624411039E-02 
861	 4.66881674297113E-02 
862	 4.66932797215531E-02 
863	 4.65922408458139E-02 
864	 4.66366062266257E-02 
865	 4.67602182925206E-02 
866	 4.66553405288067E-02 
867	 4.66541297859681E-02 
868	 4.66875020152325E-02 
869	 4.66760919847757E-02 
870	 4.66089079672456E-02 
871	 4.66994402222305E-02 
872	 4.66997829582642E-02 
873	 0.046528576908571 
874	 4.67005797063309E-02 
875	 4.66939723503393E-02 
876	 4.66147661522638E-02 
877	 4.66626629915791E-02 
878	 4.66229187073447E-02 
879	 4.66647042319563E-02 
880	 4.67338346878958E-02 
881	 4.67056032109503E-02 
882	 0.046713517317298 
883	 4.66883625315473E-02 
884	 4.66850678526119E-02 
885	 4.68185298737282E-02 
886	 4.68294916109391E-02 
887	 4.68231375021589E-02 
888	 4.68258701200846E-02 
889	 4.67422086162343E-02 
890	 4.68244067055989E-02 
891	 4.68390814592275E-02 
892	 4.67121141657162E-02 
893	 4.67794470513735E-02 
894	 4.67282504017492E-02 
895	 4.66540220946108E-02 
896	 4.66768716413138E-02 
897	 4.67093353115663E-02 
898	 0.046783086113528 
899	 4.68159675651445E-02 
900	 4.67651086063958E-02 
901	 4.68842076296618E-02 
902	 0.046852607311014 
903	 4.66941638961435E-02 
904	 4.66218708754325E-02 
905	 4.68106164157349E-02 
906	 4.68799315852167E-02 
907	 4.67809156718495E-02 
908	 4.67281793696986E-02 
909	 4.67702647946469E-02 
910	 4.68451488072928E-02 
911	 4.68820375208585E-02 
912	 0.046834443372966 
913	 4.68108311127076E-02 
914	 4.69040472261445E-02 
915	 4.70026763936097E-02 
916	 4.67662906171197E-02 
917	 4.67024441582509E-02 
918	 4.67908915669697E-02 
919	 4.68894993234857E-02 
920	 4.68574517013436E-02 
921	 4.67043835628128E-02 
922	 4.67473113746033E-02 
923	 4.70813322376851E-02 
924	 4.70829584240728E-02 
925	 4.68222135143979E-02 
926	 4.66342478068383E-02 
927	 4.67785216655602E-02 
928	 4.69513685530482E-02 
929	 4.69412486578818E-02 
930	 4.69299974086136E-02 
931	 4.71299607968096E-02 
932	 0.047096809120597 
933	 4.69871568135913E-02 
934	 4.69810850510416E-02 
935	 4.71583514401932E-02 
936	 4.70823746907414E-02 
937	 4.70160434976723E-02 
938	 4.70491842449425E-02 
939	 4.71090794155292E-02 
940	 4.71166177689974E-02 
941	 0.047106308627929 
942	 4.71199607035524E-02 
943	 4.71787446874805E-02 
944	 4.71746306189012E-02 
945	 4.71540545531083E-02 
946	 4.71785590587935E-02 
947	 4.72806438273147E-02 
948	 4.72474330473593E-02 
949	 4.71545887437035E-02 
950	 0.047153881013148 
951	 4.73888319700331E-02 
952	 4.74100375775137E-02 
953	 4.72550809326241E-02 
954	 4.71326611591921E-02 
955	 4.73147989653576E-02 
956	 4.71304174432812E-02 
957	 4.70181590290655E-02 
958	 4.72344082161686E-02 
959	 4.73304634371234E-02 
960	 4.72601966555088E-02 
961	 4.72849406339707E-02 
962	 4.74658582957326E-02 
963	 4.73324257443561E-02 
964	 0.047102288921072 
965	 4.70647319287075E-02 
966	 4.72929930351823E-02 
967	 4.73554736205005E-02 
968	 0.047406486022846 
969	 4.75023613146349E-02 
970	 4.75779762589327E-02 
971	 4.73121546324102E-02 
972	 4.73640892300701E-02 
973	 0.047429691267381 
974	 0.047252245419975 
975	 4.75957862419716E-02 
976	 4.75086967203723E-02 
977	 4.72206795142123E-02 
978	 4.71943547421777E-02 
979	 4.73693298709702E-02 
980	 0.047315657495743 
981	 4.73084520947169E-02 
982	 4.76451285947522E-02 
983	 4.79301165245185E-02 
984	 4.76156240128714E-02 
985	 4.73331477715315E-02 
986	 4.76869387712511E-02 
987	 0.047690002750245 
988	 4.79085961867329E-02 
989	 4.80401765855786E-02 
990	 4.76819203426071E-02 
991	 4.70766683898201E-02 
992	 4.71039243967081E-02 
993	 4.74472452795248E-02 
994	 4.74969371615786E-02 
995	 4.73546097135504E-02 
996	 4.73106466969109E-02 
997	 4.75641138140548E-02 
998	 4.79847126617768E-02 
999	 4.75655057600737E-02 
1000	 4.75075168932853E-02 
1001	 4.89835750592141E-02 
1002	 0.049004612611551 
1003	 4.91506340346957E-02 
1004	 4.91293156965422E-02 
1005	 0.048962161667137 
1006	 4.88361860786298E-02 
1007	 4.85922171173079E-02 
1008	 4.86459116450205E-02 
1009	 4.88305801295923E-02 
1010	 4.89488975579025E-02 
1011	 4.93679411728934E-02 
1012	 4.94318888448569E-02 
1013	 4.91252941673068E-02 
1014	 4.90757986995459E-02 
1015	 4.90656755553512E-02 
1016	 4.90186465822554E-02 
1017	 4.90780279599192E-02 
1018	 4.91176868799895E-02 
1019	 4.91037296091257E-02 
1020	 4.91290892676628E-02 
1021	 4.91222695508211E-02 
1022	 4.91019402874182E-02 
1023	 4.91496029506435E-02 
1024	 4.92379054258978E-02 
1025	 4.92765671795443E-02 
1026	 4.93739685691562E-02 
1027	 4.94157705514961E-02 
1028	 4.94810569525968E-02 
1029	 4.92995233355657E-02 
1030	 4.91706583107058E-02 
1031	 4.90431149793643E-02 
1032	 0.048957809709855 
1033	 4.88897355248602E-02 
1034	 4.88539218659917E-02 
1035	 4.89849141592656E-02 
1036	 4.89870665938642E-02 
1037	 4.89325277231174E-02 
1038	 4.89013761088519E-02 
1039	 4.87885923250257E-02 
1040	 4.87719749277608E-02 
1041	 4.88801471984039E-02 
1042	 4.89038363094373E-02 
1043	 4.89180868553615E-02 
1044	 4.89212705738764E-02 
1045	 4.90335259097417E-02 
1046	 4.89658515929144E-02 
1047	 4.89696443610114E-02 
1048	 4.90009313232125E-02 
1049	 4.87788106063733E-02 
1050	 0.048695307174287 
1051	 4.87384003052399E-02 
1052	 4.87562316077758E-02 
1053	 4.87911019099169E-02 
1054	 4.89551399148744E-02 
1055	 4.89409311516153E-02 
1056	 4.87771775119633E-02 
1057	 4.87228472205139E-02 
1058	 4.86062340622534E-02 
1059	 4.86300463273205E-02 
1060	 4.88647345996024E-02 
1061	 0.049112520164457 
1062	 4.92102904234418E-02 
1063	 4.92763457135453E-02 
1064	 4.91844054719657E-02 
1065	 4.90276259887203E-02 
1066	 4.92198983767116E-02 
1067	 4.93564986167183E-02 
1068	 4.93262260015373E-02 
1069	 4.93142928004802E-02 
1070	 0.049233728287809 
1071	 4.89554385578586E-02 
1072	 4.88500659808023E-02 
1073	 4.89593262642049E-02 
1074	 4.90832218237766E-02 
1075	 0.049350917158181 
1076	 4.94794184078636E-02 
1077	 4.93865521585082E-02 
1078	 4.93590046839841E-02 
1079	 4.93687502591843E-02 
1080	 4.93487535392361E-02 
1081	 0.049447495336453 
1082	 4.95623214770513E-02 
1083	 4.95236148079256E-02 
1084	 4.94667259304928E-02 
1085	 4.94548681507911E-02 
1086	 4.94501073138359E-02 
1087	 4.94070170322677E-02 
1088	 4.94823638565071E-02 
1089	 4.96041857271871E-02 
1090	 4.96015074580719E-02 
1091	 4.96492142691207E-02 
1092	 4.96780258014546E-02 
1093	 4.96449442754892E-02 
1094	 4.96295898605249E-02 
1095	 4.95920170794753E-02 
1096	 4.95755177982301E-02 
1097	 4.95962927319516E-02 
1098	 4.96676257279824E-02 
1099	 4.97577445643568E-02 
1100	 4.98202581775222E-02 
1101	 4.97870727982898E-02 
1102	 4.97045383233264E-02 
1103	 4.96767771890033E-02 
1104	 0.049650060933971 
1105	 4.96299423886021E-02 
1106	 0.049657714264254 
1107	 4.97511564627333E-02 
1108	 4.97726982910107E-02 
1109	 4.96809542614336E-02 
1110	 4.95798494400433E-02 
1111	 4.94394066181667E-02 
1112	 4.94280042229565E-02 
1113	 4.95145933865742E-02 
1114	 4.95474324930666E-02 
1115	 4.96624974383463E-02 
1116	 0.049741300492151 
1117	 4.97440243390557E-02 
1118	 4.97314123184225E-02 
1119	 4.96894115600444E-02 
1120	 4.96838970993019E-02 
1121	 4.96432675185446E-02 
1122	 0.049651252034491 
1123	 4.97181512483357E-02 
1124	 4.97332899906112E-02 
1125	 4.97493106218233E-02 
1126	 4.96696563622054E-02 
1127	 4.94896859936381E-02 
1128	 4.95096576092936E-02 
1129	 4.94802923777203E-02 
1130	 4.94099725485488E-02 
1131	 4.95361884809023E-02 
1132	 4.95613377531946E-02 
1133	 4.95313445963747E-02 
1134	 4.95502018355714E-02 
1135	 4.95369704470758E-02 
1136	 4.94782881666566E-02 
1137	 4.94399901192771E-02 
1138	 4.94056798133014E-02 
1139	 4.93801766542175E-02 
1140	 4.93738959278773E-02 
1141	 4.92971795016457E-02 
1142	 4.92529025622161E-02 
1143	 4.92290264998223E-02 
1144	 0.049188154055522 
1145	 4.92313367372594E-02 
1146	 4.93531050482358E-02 
1147	 4.93741341150935E-02 
1148	 4.92942657001268E-02 
1149	 4.93073816721923E-02 
1150	 4.92827635158335E-02 
1151	 4.92237718301616E-02 
1152	 4.92303355407551E-02 
1153	 4.93481657227839E-02 
1154	 4.93389808789138E-02 
1155	 4.92688379994679E-02 
1156	 4.92647778139294E-02 
1157	 4.92306372707547E-02 
1158	 4.92510388707262E-02 
1159	 4.93644015972397E-02 
1160	 4.93780002393449E-02 
1161	 4.94181979431772E-02 
1162	 4.94393611337781E-02 
1163	 4.93742216557371E-02 
1164	 4.93601500585852E-02 
1165	 4.92959715572711E-02 
1166	 4.91926796534361E-02 
1167	 4.91897995089777E-02 
1168	 0.04922658055763 
1169	 0.049228222050981 
1170	 4.92767913000839E-02 
1171	 4.92932366618412E-02 
1172	 4.92333091149615E-02 
1173	 4.92340008214702E-02 
1174	 4.92791667934636E-02 
1175	 4.93005582768064E-02 
1176	 4.93506937753025E-02 
1177	 4.93765155100071E-02 
1178	 4.93738156266193E-02 
1179	 4.94095743350499E-02 
1180	 4.94029253706434E-02 
1181	 4.92855580004058E-02 
1182	 4.92625611769982E-02 
1183	 0.049258422271037 
1184	 0.049273276533763 
1185	 4.94013476097358E-02 
1186	 4.94352746401609E-02 
1187	 4.94365333138978E-02 
1188	 0.049422105884781 
1189	 4.93708632324686E-02 
1190	 4.93344746692524E-02 
1191	 4.92894660481659E-02 
1192	 4.92711715488733E-02 
1193	 4.92425677040641E-02 
1194	 0.049238512768245 
1195	 4.92435876568725E-02 
1196	 4.92763054478827E-02 
1197	 4.93370907628635E-02 
1198	 4.94349030926202E-02 
1199	 4.94748202861062E-02 
1200	 0.049527984052193 
1201	 4.95518209780786E-02 
1202	 0.049531704246124 
1203	 0.049535694829749 
1204	 4.95336692608114E-02 
1205	 4.95461467043616E-02 
1206	 4.95686611892413E-02 
1207	 4.95653262328024E-02 
1208	 0.049563178447103 
1209	 4.95627651219258E-02 
1210	 4.95355376428233E-02 
1211	 4.95243972130918E-02 
1212	 4.95177907138464E-02 
1213	 0.049521384857926 
1214	 4.95371549885352E-02 
1215	 4.95386547009382E-02 
1216	 4.95687283491037E-02 
1217	 0.049579312941127 
1218	 0.049564591939964 
1219	 4.95206123978113E-02 
1220	 4.95824228076943E-02 
1221	 4.95886596966666E-02 
1222	 4.96037808127941E-02 
1223	 4.96772182410399E-02 
1224	 4.96920559863952E-02 
1225	 4.96541015652582E-02 
1226	 4.96546096571732E-02 
1227	 4.96744139218062E-02 
1228	 4.96641154353026E-02 
1229	 4.96418746151727E-02 
1230	 4.96340911040265E-02 
1231	 4.95961696691181E-02 
1232	 4.95912093012779E-02 
1233	 4.95993438679009E-02 
1234	 4.96387529748682E-02 
1235	 4.97492700831514E-02 
1236	 4.97886952688343E-02 
1237	 4.98177445494065E-02 
1238	 4.98400951184096E-02 
1239	 4.98312475446073E-02 
1240	 4.97884203968432E-02 
1241	 4.97343040730337E-02 
1242	 4.97070738141716E-02 
1243	 4.97018882140765E-02 
1244	 4.96873057894512E-02 
1245	 4.96819453997972E-02 
1246	 4.97146053940139E-02 
1247	 4.97430480097908E-02 
1248	 0.049756355754043 
1249	 4.97700423421805E-02 
1250	 4.98146804347141E-02 
1251	 4.98405657438142E-02 
1252	 4.98517070170166E-02 
1253	 4.98482856777726E-02 
1254	 4.98471703103462E-02 
1255	 4.98352357227344E-02 
1256	 4.97956665483666E-02 
1257	 0.049751072302026 
1258	 4.96783472742116E-02 
1259	 4.96484911021047E-02 
1260	 4.96141313335232E-02 
1261	 4.96044483960332E-02 
1262	 4.96381001961342E-02 
1263	 4.97014305327101E-02 
1264	 4.97204067907553E-02 
1265	 4.97412504080801E-02 
1266	 0.049716928751248 
1267	 4.96433596213938E-02 
1268	 4.96195043439222E-02 
1269	 4.95907455704386E-02 
1270	 4.95629713780442E-02 
1271	 4.95671150835401E-02 
1272	 4.95445553003532E-02 
1273	 4.94670548597649E-02 
1274	 4.94600885137998E-02 
1275	 4.94914482579345E-02 
1276	 4.95168101382131E-02 
1277	 0.049584955472104 
1278	 4.96266603156712E-02 
1279	 4.96674305577549E-02 
1280	 4.96859251650825E-02 
1281	 0.049665817451487 
1282	 4.96801715061253E-02 
1283	 4.96960938279191E-02 
1284	 4.97132745084984E-02 
1285	 4.97409754688522E-02 
1286	 0.049811889660246 
1287	 4.98166152625526E-02 
1288	 4.97828061564641E-02 
1289	 4.97825493882754E-02 
1290	 4.97519206012789E-02 
1291	 0.049782282046937 
1292	 4.98700667133141E-02 
1293	 4.99119460203261E-02 
1294	 4.99399406515867E-02 
1295	 5.00089713942933E-02 
1296	 5.00992215843409E-02 
1297	 5.01553527340465E-02 
1298	 5.02333901751612E-02 
1299	 5.02949886330861E-02 
1300	 5.03307390290964E-02 
1301	 5.03425996528075E-02 
1302	 5.03283492769614E-02 
1303	 5.03487961778522E-02 
1304	 5.03572326140748E-02 
1305	 5.03619716489077E-02 
1306	 5.04093191083857E-02 
1307	 5.04363906117338E-02 
1308	 5.03959815051375E-02 
1309	 5.04060759214097E-02 
1310	 5.04555205870348E-02 
1311	 5.05591442122066E-02 
1312	 5.05949680664464E-02 
1313	 5.06606341299988E-02 
1314	 5.06561873602659E-02 
1315	 5.05505322457381E-02 
1316	 5.05493118586845E-02 
1317	 5.05701136777084E-02 
1318	 5.05954739234165E-02 
1319	 0.050681146956572 
1320	 5.07144194042439E-02 
1321	 5.07278408443161E-02 
1322	 5.07315727530472E-02 
1323	 5.07165614666178E-02 
1324	 5.07018927799633E-02 
1325	 0.050669071341284 
1326	 5.06494494641321E-02 
1327	 5.06459937131157E-02 
1328	 5.06217912444487E-02 
1329	 5.05624826316492E-02 
1330	 5.05466246867938E-02 
1331	 0.050553074546894 
1332	 5.05454641132534E-02 
1333	 5.05359805612209E-02 
1334	 5.05744794798159E-02 
1335	 5.05928568763947E-02 
1336	 0.0506104691365 
1337	 5.05787465219223E-02 
1338	 5.05409672884253E-02 
1339	 5.04999175459318E-02 
1340	 5.03949415040237E-02 
1341	 5.03547199324209E-02 
1342	 5.03557975140037E-02 
1343	 5.03505557708373E-02 
1344	 5.03449540062898E-02 
1345	 5.03584172539318E-02 
1346	 5.04175566532905E-02 
1347	 5.04189785623638E-02 
1348	 5.03824003714455E-02 
1349	 0.050388407018593 
1350	 0.050412172443322 
1351	 5.03895944692223E-02 
1352	 5.03987327906232E-02 
1353	 5.03521051633061E-02 
1354	 5.01643763432952E-02 
1355	 5.01015790106893E-02 
1356	 5.01229359723025E-02 
1357	 5.00886107139975E-02 
1358	 5.00772326673327E-02 
1359	 5.00740344736415E-02 
1360	 5.00544936377588E-02 
1361	 4.99994286524801E-02 
1362	 4.99893221605751E-02 
1363	 4.99864198195552E-02 
1364	 4.99674538327867E-02 
1365	 4.99165468948523E-02 
1366	 4.98971763368215E-02 
1367	 4.99057104201578E-02 
1368	 4.98751480873381E-02 
1369	 4.98315748312302E-02 
1370	 4.97904826284799E-02 
1371	 4.97230461203393E-02 
1372	 4.96875679390579E-02 
1373	 4.96722607598613E-02 
1374	 4.96472937688591E-02 
1375	 4.96375283712317E-02 
1376	 4.96074786747421E-02 
1377	 4.95500894527635E-02 
1378	 4.95202779844948E-02 
1379	 4.94900804696884E-02 
1380	 4.94774662389233E-02 
1381	 4.95219251581331E-02 
1382	 4.95008523441806E-02 
1383	 4.94509354325549E-02 
1384	 4.94001100790474E-02 
1385	 4.92660229536176E-02 
1386	 4.92170442553137E-02 
1387	 4.92661609532624E-02 
1388	 0.049237837228784 
1389	 4.91896081617262E-02 
1390	 4.91672878939661E-02 
1391	 4.91457142052698E-02 
1392	 4.90557974491607E-02 
1393	 4.89965051064939E-02 
1394	 4.89737715368345E-02 
1395	 4.89460559431737E-02 
1396	 4.88842702227276E-02 
1397	 4.88705386158451E-02 
1398	 4.89202107563033E-02 
1399	 4.89002597707336E-02 
1400	 4.88551648384666E-02 
1401	 4.88248535422433E-02 
1402	 4.87653931687011E-02 
1403	 4.87487284492106E-02 
1404	 4.87665298261036E-02 
1405	 4.87527582635542E-02 
1406	 0.048753671239937 
1407	 4.87246126907748E-02 
1408	 0.048638957370804 
1409	 4.86185779690887E-02 
1410	 4.86325868467732E-02 
1411	 4.86195385560514E-02 
1412	 4.86243385766969E-02 
1413	 4.86234031480046E-02 
1414	 4.85970623974551E-02 
1415	 4.85820077470403E-02 
1416	 4.85816273386447E-02 
1417	 0.048586037538291 
1418	 0.048569345532647 
1419	 4.85807140823862E-02 
1420	 4.86377833893035E-02 
1421	 4.86665146668336E-02 
1422	 4.87061102495587E-02 
1423	 4.87255391122006E-02 
1424	 4.87090318786781E-02 
1425	 4.86976012635712E-02 
1426	 4.87642928862942E-02 
1427	 4.87598010950188E-02 
1428	 4.86844441076041E-02 
1429	 4.86903197813536E-02 
1430	 4.87074215791699E-02 
1431	 4.86982540663111E-02 
1432	 4.87169826299276E-02 
1433	 4.88248780362913E-02 
1434	 4.88408146308464E-02 
1435	 4.87684634616236E-02 
1436	 4.87963512080609E-02 
1437	 4.88821305374086E-02 
1438	 0.048895029507516 
1439	 4.89204861426623E-02 
1440	 4.89189646298724E-02 
1441	 4.88297911416317E-02 
1442	 4.88242340088412E-02 
1443	 4.88763372975749E-02 
1444	 4.88872369102239E-02 
1445	 4.89254550135871E-02 
1446	 0.048913421756985 
1447	 4.88320479578803E-02 
1448	 4.88105646416514E-02 
1449	 4.87773976917114E-02 
1450	 4.87830264902336E-02 
1451	 4.88680902627951E-02 
1452	 4.88971258928217E-02 
1453	 4.88907879385396E-02 
1454	 4.89229079917514E-02 
1455	 4.89770794562515E-02 
1456	 0.048991220534449 
1457	 0.049023310691691 
1458	 4.90327244598346E-02 
1459	 4.89599726166832E-02 
1460	 4.89417337718126E-02 
1461	 4.89826781985528E-02 
1462	 4.89777927059309E-02 
1463	 4.89612500104118E-02 
1464	 4.89482417530826E-02 
1465	 4.89012283997155E-02 
1466	 4.88528023010304E-02 
1467	 4.88783941711953E-02 
1468	 4.89511223025043E-02 
1469	 4.90036167121086E-02 
1470	 4.90373170579844E-02 
1471	 4.90669618668126E-02 
1472	 4.90638177946745E-02 
1473	 4.90730645812202E-02 
1474	 4.90969977880329E-02 
1475	 4.91097802288989E-02 
1476	 4.91086722999758E-02 
1477	 4.91015304065995E-02 
1478	 4.90850452807701E-02 
1479	 4.90837675929505E-02 
1480	 4.90838070333921E-02 
1481	 0.049075973630975 
1482	 4.90763075992655E-02 
1483	 4.90820683368123E-02 
1484	 4.90682549112389E-02 
1485	 0.049073308121499 
1486	 4.91098158632847E-02 
1487	 4.91246546462262E-02 
1488	 0.049148011493154 
1489	 4.91352419324792E-02 
1490	 4.90684033761631E-02 
1491	 4.90681380607624E-02 
1492	 0.049084495442153 
1493	 4.90871135036056E-02 
1494	 4.91410939722775E-02 
1495	 4.91572234273803E-02 
1496	 4.91219956985448E-02 
1497	 4.91105249576899E-02 
1498	 4.91093117593512E-02 
1499	 4.91114955861153E-02 
1500	 4.91122561047666E-02 
1501	 4.91153808125998E-02 
1502	 4.91262970285025E-02 
1503	 4.91350425292959E-02 
1504	 4.91460244813896E-02 
1505	 4.91548183365439E-02 
1506	 4.91886607486208E-02 
1507	 4.91794229715692E-02 
1508	 4.91036983179158E-02 
1509	 4.90884612007395E-02 
1510	 4.90812912211491E-02 
1511	 4.90802325181245E-02 
1512	 4.91406270392656E-02 
1513	 4.91709865509597E-02 
1514	 4.91875480129703E-02 
1515	 4.91848588846091E-02 
1516	 4.91365782047748E-02 
1517	 4.91365975513532E-02 
1518	 0.049150353560178 
1519	 4.91621555221822E-02 
1520	 4.92227274815359E-02 
1521	 4.92668405988682E-02 
1522	 4.92542620125689E-02 
1523	 4.92186953215653E-02 
1524	 4.92188240984633E-02 
1525	 4.92151207075546E-02 
1526	 4.92078342451261E-02 
1527	 4.92229494562786E-02 
1528	 4.92160240013479E-02 
1529	 4.91791038188685E-02 
1530	 4.91741854983202E-02 
1531	 4.91866279652987E-02 
1532	 4.91889955190164E-02 
1533	 4.91964806318597E-02 
1534	 4.91918986146276E-02 
1535	 4.91782241237006E-02 
1536	 4.91774442685168E-02 
1537	 4.91808711973215E-02 
1538	 4.91727609309306E-02 
1539	 4.91562751617062E-02 
1540	 4.91671170409894E-02 
1541	 4.91790886753458E-02 
1542	 0.04919664816417 
1543	 4.92662132616728E-02 
1544	 4.92564076470032E-02 
1545	 4.91756015840319E-02 
1546	 4.91765153497104E-02 
1547	 4.91862224376834E-02 
1548	 4.91864068932132E-02 
1549	 4.92463408465255E-02 
1550	 4.92464499755332E-02 
1551	 4.91869285271149E-02 
1552	 0.049157136418915 
1553	 4.91268747434584E-02 
1554	 4.91074927198369E-02 
1555	 4.90854694484778E-02 
1556	 4.90787136497897E-02 
1557	 4.90882782870293E-02 
1558	 4.90995489815964E-02 
1559	 4.91248310770101E-02 
1560	 4.91367486415888E-02 
1561	 4.91705495994313E-02 
1562	 4.91536126418008E-02 
1563	 4.90800761172562E-02 
1564	 4.90585308864409E-02 
1565	 0.049016037648614 
1566	 4.90174705881185E-02 
1567	 0.049083422137489 
1568	 4.91186131987493E-02 
1569	 4.91627013951186E-02 
1570	 4.91882945206789E-02 
1571	 4.92055386468962E-02 
1572	 4.92142846741386E-02 
1573	 4.92130148258774E-02 
1574	 4.92002986438174E-02 
1575	 4.91617208339389E-02 
1576	 4.91492239378533E-02 
1577	 4.91396108493974E-02 
1578	 4.91306880058664E-02 
1579	 4.91426407256744E-02 
1580	 4.91424534615259E-02 
1581	 4.91307009828884E-02 
1582	 4.91226004208695E-02 
1583	 4.91215747381902E-02 
1584	 0.049110141145483 
1585	 4.90663242246817E-02 
1586	 4.90685302920765E-02 
1587	 4.91152635940483E-02 
1588	 4.91184533655581E-02 
1589	 4.91215211045708E-02 
1590	 4.91325798133558E-02 
1591	 4.91277513733137E-02 
1592	 4.91042975994354E-02 
1593	 0.049076249394736 
1594	 0.049065636889745 
1595	 4.90260293849137E-02 
1596	 4.90099102803939E-02 
1597	 4.90359781878697E-02 
1598	 4.90531899741622E-02 
1599	 4.90794058089176E-02 
1600	 4.90814632876179E-02 
1601	 4.90620956209262E-02 
1602	 4.90693635028737E-02 
1603	 4.90860947107033E-02 
1604	 4.90757004205403E-02 
1605	 4.90797776645892E-02 
1606	 4.90705797445378E-02 
1607	 4.89974384849002E-02 
1608	 0.048972711598834 
1609	 4.89943340691453E-02 
1610	 4.89926194045442E-02 
1611	 4.89901114611422E-02 
1612	 4.90007431143901E-02 
1613	 4.90117866294507E-02 
1614	 4.90115658346964E-02 
1615	 4.90260219101915E-02 
1616	 4.90255395410434E-02 
1617	 4.90008219382449E-02 
1618	 4.89915332127519E-02 
1619	 4.89699127061343E-02 
1620	 4.89730602165361E-02 
1621	 4.90169255245253E-02 
1622	 0.049016809775141 
1623	 4.90027522621402E-02 
1624	 4.90003191377673E-02 
1625	 4.89795188229169E-02 
1626	 4.89577073795464E-02 
1627	 4.89415512424422E-02 
1628	 4.89374754638087E-02 
1629	 0.048917388559471 
1630	 4.89136159651822E-02 
1631	 0.048957076027412 
1632	 4.89654333990546E-02 
1633	 4.89601513528287E-02 
1634	 4.89462527248357E-02 
1635	 4.88825761170438E-02 
1636	 4.88712485461619E-02 
1637	 4.89195858168739E-02 
1638	 4.89073841856965E-02 
1639	 4.88507747082605E-02 
1640	 4.88650400543294E-02 
1641	 0.048890317207473 
1642	 4.88914307598377E-02 
1643	 4.89562493936555E-02 
1644	 4.89855946945504E-02 
1645	 4.89599572597765E-02 
1646	 4.89402528813184E-02 
1647	 4.89230274723062E-02 
1648	 0.048905557061444 
1649	 4.88499742523482E-02 
1650	 4.88304549132783E-02 
1651	 4.88599617627866E-02 
1652	 4.88662365951608E-02 
1653	 4.88698190996462E-02 
1654	 4.88767008789059E-02 
1655	 4.88680852677069E-02 
1656	 4.88695985757578E-02 
1657	 4.89015323375762E-02 
1658	 4.88849690759643E-02 
1659	 4.88163652663767E-02 
1660	 4.88128845991245E-02 
1661	 4.88306616925332E-02 
1662	 4.88328426033808E-02 
1663	 4.88992293302452E-02 
1664	 0.048892133889839 
1665	 4.87667574834392E-02 
1666	 4.87482981864897E-02 
1667	 0.048795376497366 
1668	 4.87917107452676E-02 
1669	 4.88073751684822E-02 
1670	 4.88251590390008E-02 
1671	 0.048816097911189 
1672	 4.87896932144186E-02 
1673	 4.87770766723197E-02 
1674	 4.87629255868971E-02 
1675	 4.86908992346739E-02 
1676	 4.86659642664164E-02 
1677	 4.87074045956972E-02 
1678	 4.87042031475478E-02 
1679	 4.86481450296525E-02 
1680	 4.86707317402625E-02 
1681	 4.87615524285848E-02 
1682	 4.87691693963754E-02 
1683	 4.87879548000244E-02 
1684	 4.88011498211755E-02 
1685	 4.87253917027587E-02 
1686	 4.86890690764914E-02 
1687	 4.86856491935737E-02 
1688	 4.86992564825577E-02 
1689	 4.87301456490447E-02 
1690	 4.87398202690905E-02 
1691	 4.87770421374749E-02 
1692	 0.048788367387322 
1693	 0.048746686332117 
1694	 0.048740528862351 
1695	 4.87678968259708E-02 
1696	 4.87706433223672E-02 
1697	 4.87495906202532E-02 
1698	 4.87716588923291E-02 
1699	 4.88202415856805E-02 
1700	 4.88119767541335E-02 
1701	 4.88081476418578E-02 
1702	 4.87653675151986E-02 
1703	 4.86610760647767E-02 
1704	 4.86496295848765E-02 
1705	 0.048653120228786 
1706	 4.86743348512444E-02 
1707	 4.87172396447972E-02 
1708	 4.87776080260691E-02 
1709	 4.88178030284556E-02 
1710	 4.88381714495483E-02 
1711	 4.88436193764365E-02 
1712	 4.87496380717094E-02 
1713	 0.048672804046728 
1714	 0.048681321742192 
1715	 4.86422638552644E-02 
1716	 4.85874707425338E-02 
1717	 4.86480923855082E-02 
1718	 4.87508613231587E-02 
1719	 4.87505147772763E-02 
1720	 4.87301534932175E-02 
1721	 4.87227175280447E-02 
1722	 4.86494831132931E-02 
1723	 4.86691838164804E-02 
1724	 4.87450818324561E-02 
1725	 4.87597385552619E-02 
1726	 4.87872022876465E-02 
1727	 4.87247467566697E-02 
1728	 4.86558963861646E-02 
1729	 4.87176509263503E-02 
1730	 4.87472023166092E-02 
1731	 4.87096238564789E-02 
1732	 0.048704310116508 
1733	 4.86176753186999E-02 
1734	 4.84670051365265E-02 
1735	 4.84214566725514E-02 
1736	 4.84157234865172E-02 
1737	 0.048429544532776 
1738	 4.84313981378908E-02 
1739	 4.84537332516022E-02 
1740	 4.84876189167751E-02 
1741	 4.84840318271296E-02 
1742	 4.84949591987929E-02 
1743	 4.84846758375064E-02 
1744	 4.84054428549054E-02 
1745	 4.84006626188306E-02 
1746	 4.84673778549441E-02 
1747	 4.84654795124495E-02 
1748	 4.84638796942843E-02 
1749	 4.84378889475306E-02 
1750	 4.83379404399212E-02 
1751	 0.048296389915396 
1752	 4.82723300157175E-02 
1753	 4.82845143863329E-02 
1754	 4.83360885237898E-02 
1755	 4.83583633305584E-02 
1756	 4.84037051252208E-02 
1757	 4.83445604276812E-02 
1758	 4.83506495557338E-02 
1759	 4.83213925376667E-02 
1760	 4.82604463507208E-02 
1761	 0.048275236800686 
1762	 4.83103158661497E-02 
1763	 0.048402352956839 
1764	 4.84516042483316E-02 
1765	 4.83873260743495E-02 
1766	 4.82827862707852E-02 
1767	 4.81219579025001E-02 
1768	 4.81243106635284E-02 
1769	 4.82422170188904E-02 
1770	 4.82788875504837E-02 
1771	 4.83141573492469E-02 
1772	 4.82551864195594E-02 
1773	 4.81876622454833E-02 
1774	 4.82191451499235E-02 
1775	 4.82401260051593E-02 
1776	 4.82400795896966E-02 
1777	 4.82046669922244E-02 
1778	 4.81860766008899E-02 
1779	 4.82243155962862E-02 
1780	 4.83203049971273E-02 
1781	 4.84477874381253E-02 
1782	 4.84745405299641E-02 
1783	 4.84815425715486E-02 
1784	 4.85019792217443E-02 
1785	 4.83626714519753E-02 
1786	 4.83012394584174E-02 
1787	 4.81549471439872E-02 
1788	 0.048096001091372 
1789	 4.81656231869682E-02 
1790	 4.81862024263493E-02 
1791	 0.048246629596371 
1792	 4.82336460231652E-02 
1793	 4.81705831374045E-02 
1794	 4.81502669732793E-02 
1795	 4.80628467795617E-02 
1796	 0.048086620430319 
1797	 4.81110973370805E-02 
1798	 4.81126533217239E-02 
1799	 4.81935974407273E-02 
1800	 4.81606429341987E-02 
1801	 4.78073834162202E-02 
1802	 4.76132158771237E-02 
1803	 4.75242118381878E-02 
1804	 4.74962978995565E-02 
1805	 4.74927855508632E-02 
1806	 4.74982403369604E-02 
1807	 4.75230759885283E-02 
1808	 4.75256217777081E-02 
1809	 4.75402885288223E-02 
1810	 4.75603885601615E-02 
1811	 4.75643109715848E-02 
1812	 4.75819234085885E-02 
1813	 4.76411260932911E-02 
1814	 0.047684831932667 
1815	 4.76308412457239E-02 
1816	 4.75795972259962E-02 
1817	 4.75798133998107E-02 
1818	 0.047572356930643 
1819	 4.75890507785988E-02 
1820	 4.77096456747242E-02 
1821	 4.77303805335285E-02 
1822	 4.76964463493738E-02 
1823	 4.76471875866632E-02 
1824	 4.76546892602229E-02 
1825	 4.76457348874177E-02 
1826	 4.76431340451767E-02 
1827	 4.76961404240207E-02 
1828	 4.76978899722355E-02 
1829	 4.76204622434293E-02 
1830	 4.76216785351191E-02 
1831	 4.76604844662541E-02 
1832	 4.77024633981789E-02 
1833	 4.77006833702077E-02 
1834	 4.77336037763055E-02 
1835	 4.77616060687852E-02 
1836	 4.77629993343467E-02 
1837	 4.77526779579063E-02 
1838	 4.77293611893003E-02 
1839	 4.77482721901456E-02 
1840	 4.77682160079512E-02 
1841	 4.77584240820983E-02 
1842	 4.77579967632408E-02 
1843	 4.78037257926752E-02 
1844	 4.77494131182868E-02 
1845	 4.77131348479472E-02 
1846	 4.77479058399427E-02 
1847	 4.77936391995516E-02 
1848	 4.78273847281037E-02 
1849	 4.78949200129773E-02 
1850	 4.79169644716818E-02 
1851	 0.047932908804474 
1852	 4.78894388461177E-02 
1853	 4.78362477659351E-02 
1854	 4.78154027809652E-02 
1855	 4.78267594693883E-02 
1856	 4.78457808061117E-02 
1857	 4.78300638185885E-02 
1858	 4.78494498290085E-02 
1859	 0.047853995593017 
1860	 4.78232378026763E-02 
1861	 4.78188123192027E-02 
1862	 4.78506132774369E-02 
1863	 4.78320570455373E-02 
1864	 4.78367639743991E-02 
1865	 4.78187988836355E-02 
1866	 4.77913727447182E-02 
1867	 4.78384419764026E-02 
1868	 4.78781108215347E-02 
1869	 4.78849787750197E-02 
1870	 4.78922454548055E-02 
1871	 4.79262387823158E-02 
1872	 4.78951149356723E-02 
1873	 0.047793517255573 
1874	 4.77508821736814E-02 
1875	 4.77623927553042E-02 
1876	 4.77419607904203E-02 
1877	 4.76719348980834E-02 
1878	 4.76486580268337E-02 
1879	 4.76164740960334E-02 
1880	 4.75239503567594E-02 
1881	 4.74898626415251E-02 
1882	 4.75296282938305E-02 
1883	 4.75487208924889E-02 
1884	 4.75029951429871E-02 
1885	 4.75241561921759E-02 
1886	 4.75198317027574E-02 
1887	 4.74473624074336E-02 
1888	 4.74316438757534E-02 
1889	 4.74075966377383E-02 
1890	 4.73634727781787E-02 
1891	 4.73756872104816E-02 
1892	 4.73443911042925E-02 
1893	 4.73054547180662E-02 
1894	 4.72407139038833E-02 
1895	 4.71964894493687E-02 
1896	 4.71302497489099E-02 
1897	 4.70884824142543E-02 
1898	 4.70262624644502E-02 
1899	 4.70170374543046E-02 
1900	 4.70559726453464E-02 
1901	 4.70197299027763E-02 
1902	 4.70437243974524E-02 
1903	 4.70379495429597E-02 
1904	 4.70093538506916E-02 
1905	 4.69378261149067E-02 
1906	 0.046941036386993 
1907	 4.69082898388032E-02 
1908	 4.68779149889134E-02 
1909	 4.68285028991691E-02 
1910	 4.67664009206071E-02 
1911	 4.66799231271958E-02 
1912	 4.65884349191275E-02 
1913	 4.65354512606198E-02 
1914	 4.64716081709021E-02 
1915	 4.64431164846802E-02 
1916	 4.64584978636546E-02 
1917	 4.64485932832628E-02 
1918	 4.64216413464154E-02 
1919	 4.64046349202753E-02 
1920	 4.63318668064502E-02 
1921	 4.62635506799791E-02 
1922	 4.62354050090297E-02 
1923	 4.62585307879923E-02 
1924	 4.62807970646593E-02 
1925	 4.62895975202653E-02 
1926	 4.62860032800426E-02 
1927	 4.62500577762963E-02 
1928	 4.62040461210104E-02 
1929	 4.61199199254619E-02 
1930	 4.61197463219536E-02 
1931	 0.046121382031502 
1932	 4.61648492365599E-02 
1933	 4.62281834948137E-02 
1934	 4.62322901836404E-02 
1935	 4.62083563590442E-02 
1936	 4.61519875739748E-02 
1937	 4.61364093809303E-02 
1938	 4.61469295150922E-02 
1939	 4.61569947743118E-02 
1940	 4.61844450832947E-02 
1941	 4.61969286722671E-02 
1942	 4.62317804528956E-02 
1943	 4.62161984029678E-02 
1944	 4.61134609602159E-02 
1945	 4.61033074030173E-02 
1946	 0.046093870824849 
1947	 4.60916226417448E-02 
1948	 4.61730039833093E-02 
1949	 4.62213485455783E-02 
1950	 4.62502317420607E-02 
1951	 4.62474356758777E-02 
1952	 4.62358755929383E-02 
1953	 4.61947571884554E-02 
1954	 4.61909032218298E-02 
1955	 4.61723148466387E-02 
1956	 4.62122905695453E-02 
1957	 4.62625687246889E-02 
1958	 4.63296863469959E-02 
1959	 0.046407565643084 
1960	 0.046433725099949 
1961	 4.64612743262904E-02 
1962	 4.64634441476168E-02 
1963	 4.64846550252816E-02 
1964	 4.65328615580662E-02 
1965	 4.65525931589432E-02 
1966	 4.65593480159691E-02 
1967	 0.046579761246576 
1968	 4.65973474053751E-02 
1969	 4.65267003498676E-02 
1970	 4.65151006887845E-02 
1971	 4.65385023125942E-02 
1972	 4.65225411227987E-02 
1973	 4.65598881640539E-02 
1974	 4.65867776330513E-02 
1975	 4.66032839372502E-02 
1976	 4.66428862704431E-02 
1977	 4.67332930877955E-02 
1978	 0.046764137255321 
1979	 4.67540111962894E-02 
1980	 4.68003030892184E-02 
1981	 4.68537108291699E-02 
1982	 4.68501714008362E-02 
1983	 4.69091506609083E-02 
1984	 4.69900111876721E-02 
1985	 4.69929195365079E-02 
1986	 0.046974075586939 
1987	 4.69768345851702E-02 
1988	 4.69663939877517E-02 
1989	 4.69709341334671E-02 
1990	 4.70162483601408E-02 
1991	 4.70179161824959E-02 
1992	 4.69867693470354E-02 
1993	 4.69659628076373E-02 
1994	 4.69888218727735E-02 
1995	 4.70256648241302E-02 
1996	 4.70928718000116E-02 
1997	 4.71508880228974E-02 
1998	 0.047194900260219 
1999	 4.72131047668059E-02 
2000	 4.72278617979259E-02 
2001	 4.72547095275278E-02 
2002	 4.72597304163502E-02 
2003	 0.047188992740699 
2004	 4.71928380583501E-02 
2005	 4.72349132360414E-02 
2006	 4.72767145010553E-02 
2007	 4.73436075333317E-02 
2008	 4.74568891836182E-02 
2009	 4.75230733031423E-02 
2010	 4.75255501783694E-02 
2011	 4.75142754749538E-02 
2012	 4.74664741704556E-02 
2013	 4.74617856637191E-02 
2014	 4.74823690434606E-02 
2015	 0.047479602328545 
2016	 0.047485233426399 
2017	 4.74820155706418E-02 
2018	 4.74160643597988E-02 
2019	 4.74221979561373E-02 
2020	 4.74568305257346E-02 
2021	 4.75404756415015E-02 
2022	 4.76195590383708E-02 
2023	 4.76628208382915E-02 
2024	 4.77172118578217E-02 
2025	 4.77424480402718E-02 
2026	 4.77658755852229E-02 
2027	 4.78050788726481E-02 
2028	 4.78127745911057E-02 
2029	 0.047761635509694 
2030	 4.77628278352543E-02 
2031	 4.77888421371453E-02 
2032	 4.77999933579706E-02 
2033	 4.78261767762657E-02 
2034	 4.78498157535256E-02 
2035	 4.78391585210474E-02 
2036	 0.047876393844431 
2037	 4.79319445821158E-02 
2038	 4.79503120548576E-02 
2039	 4.79785493953187E-02 
2040	 4.79884289818835E-02 
2041	 4.80463320956311E-02 
2042	 4.81445126182473E-02 
2043	 4.81860534854729E-02 
2044	 4.82398730433914E-02 
2045	 4.82815719737854E-02 
2046	 4.82789064321484E-02 
2047	 4.82868294125885E-02 
2048	 4.82765111346133E-02 
2049	 4.83079923810295E-02 
2050	 4.83675844563643E-02 
2051	 4.83862596797601E-02 
2052	 4.84536560847596E-02 
2053	 4.85542011305134E-02 
2054	 4.85573523457008E-02 
2055	 4.84681245138978E-02 
2056	 4.84623387614026E-02 
2057	 4.84380137770194E-02 
2058	 4.84392987511632E-02 
2059	 4.85129697756292E-02 
2060	 4.85209476461203E-02 
2061	 4.84613020521436E-02 
2062	 4.84724321055767E-02 
2063	 4.85226836898963E-02 
2064	 4.85321380442687E-02 
2065	 4.85261402764669E-02 
2066	 4.85899854769134E-02 
2067	 4.86250302398013E-02 
2068	 0.048569567066703 
2069	 4.85736585779739E-02 
2070	 0.048626112812864 
2071	 4.86250184461031E-02 
2072	 0.048567656051303 
2073	 0.048602708776876 
2074	 4.86988091426598E-02 
2075	 4.87143463882764E-02 
2076	 4.87294689299454E-02 
2077	 4.87596718007214E-02 
2078	 4.87166900414046E-02 
2079	 4.87222757206537E-02 
2080	 4.88154658049356E-02 
2081	 4.88659868807409E-02 
2082	 0.048908435509598 
2083	 4.89508242391952E-02 
2084	 4.89022660290901E-02 
2085	 4.88134682998073E-02 
2086	 0.048759450800906 
2087	 0.048622034014587 
2088	 4.86096931903418E-02 
2089	 4.87032439313536E-02 
2090	 0.048737707008919 
2091	 4.87952935022963E-02 
2092	 4.88378836531884E-02 
2093	 4.88414014528138E-02 
2094	 4.88841901295404E-02 
2095	 4.89774100674645E-02 
2096	 4.90256955183519E-02 
2097	 4.90721557074562E-02 
2098	 4.91118718062907E-02 
2099	 4.90817540974382E-02 
2100	 4.90626846330859E-02 
2101	 4.90822885262211E-02 
2102	 4.91262763191686E-02 
2103	 4.91364062028538E-02 
2104	 4.91526917346662E-02 
2105	 4.91755958808227E-02 
2106	 4.91664673581409E-02 
2107	 4.91883406915629E-02 
2108	 0.049302993879659 
2109	 4.93036391075994E-02 
2110	 4.91905243649706E-02 
2111	 4.91776152502435E-02 
2112	 4.91380727180604E-02 
2113	 4.91441766385423E-02 
2114	 4.92975410145801E-02 
2115	 4.93500294165648E-02 
2116	 0.049350796017606 
2117	 4.93479927552178E-02 
2118	 4.93434915152157E-02 
2119	 4.92807628896776E-02 
2120	 4.93142702796304E-02 
2121	 4.94073636646399E-02 
2122	 4.94439837793914E-02 
2123	 0.049505831162172 
2124	 4.95362497538237E-02 
2125	 0.049507388221002 
2126	 4.95279857739288E-02 
2127	 4.95725943689763E-02 
2128	 4.96047415223555E-02 
2129	 4.96965431634481E-02 
2130	 4.96979686936428E-02 
2131	 4.96299248169934E-02 
2132	 4.95829031302052E-02 
2133	 4.94988344514655E-02 
2134	 4.93894653068843E-02 
2135	 4.93322176970418E-02 
2136	 4.92451571441192E-02 
2137	 4.92073127583552E-02 
2138	 4.91672698338356E-02 
2139	 4.91714359969451E-02 
2140	 4.92516985794746E-02 
2141	 4.92697132414674E-02 
2142	 4.92804886376625E-02 
2143	 4.92758892417482E-02 
2144	 4.92361882062558E-02 
2145	 4.92285656367517E-02 
2146	 4.92704440069965E-02 
2147	 4.92279832721188E-02 
2148	 4.91193788013589E-02 
2149	 4.90633043194361E-02 
2150	 4.89702115519329E-02 
2151	 4.88971367515641E-02 
2152	 4.88461055506927E-02 
2153	 4.88614928933541E-02 
2154	 0.048827416016695 
2155	 4.88087052776409E-02 
2156	 4.87601847985276E-02 
2157	 0.048708711582534 
2158	 4.86727540780257E-02 
2159	 4.85930553325019E-02 
2160	 4.85889147539945E-02 
2161	 4.86937936632961E-02 
2162	 4.86686952626968E-02 
2163	 4.86063468253729E-02 
2164	 4.85530906974954E-02 
2165	 4.84133929048965E-02 
2166	 4.83356223582381E-02 
2167	 4.83296396405065E-02 
2168	 4.82610371541487E-02 
2169	 4.81550834818389E-02 
2170	 4.80764759337235E-02 
2171	 4.79518538319697E-02 
2172	 4.78898745016471E-02 
2173	 4.78540409726487E-02 
2174	 4.78942894439025E-02 
2175	 4.79126121787527E-02 
2176	 4.78719283697773E-02 
2177	 4.78138817433778E-02 
2178	 4.76952994288285E-02 
2179	 0.047616757848837 
2180	 4.75295598417078E-02 
2181	 4.74665672375001E-02 
2182	 4.74376947483529E-02 
2183	 4.73746566597295E-02 
2184	 4.72879422411628E-02 
2185	 4.72334375312263E-02 
2186	 4.71712189819933E-02 
2187	 4.71263447560585E-02 
2188	 4.71079123225935E-02 
2189	 4.71089914039431E-02 
2190	 4.71614591491953E-02 
2191	 4.71359423676985E-02 
2192	 4.70612463236448E-02 
2193	 4.70413959093773E-02 
2194	 4.69801059848966E-02 
2195	 4.69561522652569E-02 
2196	 4.70313161401667E-02 
2197	 4.70852580667818E-02 
2198	 4.69787234654729E-02 
2199	 4.68920200817653E-02 
2200	 4.67973980255418E-02 
2201	 4.65920556097083E-02 
2202	 4.65531128025989E-02 
2203	 4.66267242910652E-02 
2204	 4.66246485607013E-02 
2205	 4.66743949222153E-02 
2206	 4.66801020307228E-02 
2207	 4.66013450927186E-02 
2208	 4.66125467674461E-02 
2209	 4.67287905383765E-02 
2210	 4.67006521836151E-02 
2211	 4.66068726944584E-02 
2212	 4.65689024935109E-02 
2213	 4.64135616801754E-02 
2214	 4.63893939092942E-02 
2215	 0.046577129951632 
2216	 0.046584730503237 
2217	 4.65166459895969E-02 
2218	 4.64838060264351E-02 
2219	 4.63276645908329E-02 
2220	 0.046278368879411 
2221	 4.63294007369497E-02 
2222	 4.63755681577219E-02 
2223	 4.64513608392289E-02 
2224	 4.64307952506786E-02 
2225	 4.64675287257519E-02 
2226	 4.65657173705003E-02 
2227	 4.65647250922227E-02 
2228	 4.65659526027146E-02 
2229	 4.65284721280644E-02 
2230	 4.63575502119617E-02 
2231	 4.63223850877236E-02 
2232	 4.63306941517346E-02 
2233	 4.63925046020495E-02 
2234	 4.66038597773945E-02 
2235	 4.66205332634098E-02 
2236	 4.65669631591217E-02 
2237	 4.65408454772224E-02 
2238	 4.63577495226667E-02 
2239	 4.63421005334295E-02 
2240	 4.64919423406865E-02 
2241	 4.65404194534978E-02 
2242	 0.046591446058547 
2243	 4.66205484405903E-02 
2244	 4.66031825609067E-02 
2245	 4.66075054789046E-02 
2246	 4.66156868273037E-02 
2247	 4.66275992264278E-02 
2248	 4.66134021244312E-02 
2249	 4.66439734773338E-02 
2250	 4.67104362586142E-02 
2251	 4.67818807394014E-02 
2252	 4.68614318783246E-02 
2253	 4.69546586833145E-02 
2254	 4.69762385827413E-02 
2255	 4.70052648393843E-02 
2256	 4.70279920918664E-02 
2257	 4.68936767793355E-02 
2258	 4.68583767764107E-02 
2259	 4.67963648987949E-02 
2260	 0.046802331817732 
2261	 4.68793740161879E-02 
2262	 4.69502976208453E-02 
2263	 4.70826508191143E-02 
2264	 4.70974841991343E-02 
2265	 4.70661157782431E-02 
2266	 4.70311865985087E-02 
2267	 4.68966451091854E-02 
2268	 0.046873471581655 
2269	 4.69140675881719E-02 
2270	 0.046946306361505 
2271	 4.70283283469172E-02 
2272	 4.70334556655629E-02 
2273	 4.69839509202997E-02 
2274	 4.69667695557967E-02 
2275	 4.69157753660543E-02 
2276	 4.69225177515065E-02 
2277	 4.70510336429485E-02 
2278	 4.70661130859492E-02 
2279	 4.70126843577974E-02 
2280	 4.69998004237506E-02 
2281	 4.68629487039065E-02 
2282	 4.68653488409566E-02 
2283	 4.70352359763481E-02 
2284	 4.71026539605682E-02 
2285	 4.71892260796033E-02 
2286	 4.72912485970785E-02 
2287	 0.047306624004628 
2288	 4.73353895011155E-02 
2289	 4.73305677600256E-02 
2290	 4.74146422788429E-02 
2291	 4.75198231391669E-02 
2292	 4.75423663454398E-02 
2293	 4.75879453318896E-02 
2294	 4.75696870998693E-02 
2295	 4.74578566487605E-02 
2296	 4.72912134713818E-02 
2297	 0.047262039381835 
2298	 4.72914931023763E-02 
2299	 4.73571848467654E-02 
2300	 0.047546665619809 
2301	 4.76340398508362E-02 
2302	 4.77081703715575E-02 
2303	 4.76924389856805E-02 
2304	 4.75782090214123E-02 
2305	 4.76005339999241E-02 
2306	 4.76142985655651E-02 
2307	 4.76604843154332E-02 
2308	 4.78460992048645E-02 
2309	 0.047873459675803 
2310	 4.78434790308295E-02 
2311	 4.77832157874221E-02 
2312	 4.75803803038283E-02 
2313	 4.75634323557046E-02 
2314	 4.76003518655689E-02 
2315	 4.75886980219964E-02 
2316	 4.76464624034024E-02 
2317	 4.77121006882175E-02 
2318	 0.047784397995937 
2319	 4.78460519576222E-02 
2320	 4.80136182885565E-02 
2321	 4.80164973161209E-02 
2322	 4.77945542821933E-02 
2323	 4.77371162826759E-02 
2324	 4.77046709970742E-02 
2325	 4.77000674688524E-02 
2326	 4.77653873907696E-02 
2327	 4.78120021390156E-02 
2328	 4.78976526946236E-02 
2329	 4.79370659043452E-02 
2330	 4.79065271501067E-02 
2331	 0.048051507170478 
2332	 4.81788837388173E-02 
2333	 4.80966249908458E-02 
2334	 4.80608179504727E-02 
2335	 4.80349601998818E-02 
2336	 4.78533894573642E-02 
2337	 4.77704183143323E-02 
2338	 0.047903359898605 
2339	 4.79296871207564E-02 
2340	 4.80349593644521E-02 
2341	 4.82489884652377E-02 
2342	 4.83103487979413E-02 
2343	 4.84267768607145E-02 
2344	 4.85288564701728E-02 
2345	 0.048499023660242 
2346	 4.84402655232748E-02 
2347	 4.81733945381743E-02 
2348	 4.76633467859627E-02 
2349	 4.73535734653941E-02 
2350	 4.72638297498691E-02 
2351	 4.73010176842854E-02 
2352	 4.76791151469078E-02 
2353	 4.79374412634679E-02 
2354	 4.80728978795539E-02 
2355	 0.048185357225752 
2356	 4.80197091321075E-02 
2357	 4.79685446825084E-02 
2358	 4.79099361302036E-02 
2359	 4.78596809082969E-02 
2360	 4.78702682395689E-02 
2361	 4.78447330323688E-02 
2362	 4.80038941985108E-02 
2363	 4.80801615104497E-02 
2364	 4.80377431854936E-02 
2365	 4.79956265130332E-02 
2366	 4.77626362979957E-02 
2367	 4.76013256404796E-02 
2368	 4.77190478635547E-02 
2369	 4.79485482184609E-02 
2370	 4.82891136098166E-02 
2371	 4.84351218627822E-02 
2372	 4.84858727118126E-02 
2373	 0.048621940591085 
2374	 0.04853055243054 
2375	 4.83992982268511E-02 
2376	 4.83130088456821E-02 
2377	 4.81802480540045E-02 
2378	 4.81135077738363E-02 
2379	 4.80301457280282E-02 
2380	 4.81474856867737E-02 
2381	 4.83880584206098E-02 
2382	 4.83548099410947E-02 
2383	 4.82900204229211E-02 
2384	 4.81329720554559E-02 
2385	 4.75706768769026E-02 
2386	 4.73596498373782E-02 
2387	 4.73036308306956E-02 
2388	 4.74158400812278E-02 
2389	 4.77494473284707E-02 
2390	 4.79422708511354E-02 
2391	 4.82464281270974E-02 
2392	 0.048361973955137 
2393	 4.83767533803537E-02 
2394	 4.83905950545429E-02 
2395	 0.04837386180897 
2396	 4.81617856685603E-02 
2397	 4.76897010795222E-02 
2398	 0.047581973911843 
2399	 4.75009380845229E-02 
2400	 4.74970159191695E-02 
2401	 4.78662130448309E-02 
2402	 4.77461784340405E-02 
2403	 4.76631886673395E-02 
2404	 0.048027762709167 
2405	 4.80661482965269E-02 
2406	 4.80549187226203E-02 
2407	 4.81527223240452E-02 
2408	 4.81500155022565E-02 
2409	 4.83833630683218E-02 
2410	 0.048553660304537 
2411	 4.88303548625306E-02 
2412	 4.86029833552827E-02 
2413	 4.78320275606251E-02 
2414	 4.74313497296531E-02 
2415	 4.67621760125884E-02 
2416	 4.67087255288486E-02 
2417	 4.71973339875406E-02 
2418	 4.72657426439899E-02 
2419	 4.77367695356751E-02 
2420	 4.80153147896307E-02 
2421	 4.78028690104133E-02 
2422	 4.77318814000462E-02 
2423	 4.75978712074979E-02 
2424	 4.77190755615541E-02 
2425	 4.82650437454953E-02 
2426	 4.83631409080711E-02 
2427	 4.84149524945128E-02 
2428	 4.82255208405329E-02 
2429	 4.76550010900192E-02 
2430	 4.78867965454693E-02 
2431	 4.83385590666184E-02 
2432	 4.84551173873753E-02 
2433	 4.84643590355853E-02 
2434	 4.82053175227597E-02 
2435	 4.75781307902603E-02 
2436	 4.72754217031117E-02 
2437	 4.73425474866644E-02 
2438	 4.75972256594395E-02 
2439	 4.81314945465223E-02 
2440	 4.78376568078268E-02 
2441	 4.74041021334241E-02 
2442	 4.69488123776918E-02 
2443	 4.61607631633788E-02 
2444	 4.63986429470371E-02 
2445	 4.69536589048847E-02 
2446	 4.72158107351926E-02 
2447	 4.73988900381128E-02 
2448	 4.75729499945022E-02 
2449	 4.75961437569825E-02 
2450	 4.74082111884696E-02 
2451	 4.70746385129469E-02 
2452	 4.68900931719698E-02 
2453	 4.72130714906642E-02 
2454	 4.75894075154951E-02 
2455	 4.77756318248612E-02 
2456	 4.73654962590861E-02 
2457	 4.66967802896575E-02 
2458	 0.045995422448818 
2459	 4.62826719835757E-02 
2460	 0.047277625192588 
2461	 4.71611679143942E-02 
2462	 4.69931276466987E-02 
2463	 4.68789866111806E-02 
2464	 4.66695511180407E-02 
2465	 4.66175331889145E-02 
2466	 4.70599663233685E-02 
2467	 4.75997257026217E-02 
2468	 4.75703033350527E-02 
2469	 4.83390685393255E-02 
2470	 4.82905551929002E-02 
2471	 4.71588481605085E-02 
2472	 4.67917785359882E-02 
2473	 4.58829312536841E-02 
2474	 4.56861760354532E-02 
2475	 4.65579953139655E-02 
2476	 4.58353464133945E-02 
2477	 4.57442327435524E-02 
2478	 4.61434453021381E-02 
2479	 4.55533035992661E-02 
2480	 4.66798177532023E-02 
2481	 0.046791180033885 
2482	 4.63587013224935E-02 
2483	 4.65182499927588E-02 
2484	 4.61696452662292E-02 
2485	 4.61509165420893E-02 
2486	 4.59657725175405E-02 
2487	 4.60244422565188E-02 
2488	 4.66717624640267E-02 
2489	 4.62980588714334E-02 
2490	 0.045714465990131 
2491	 4.50353185780591E-02 
2492	 4.40915781261036E-02 
2493	 4.51589875740911E-02 
2494	 0.046779039554589 
2495	 4.69573969337866E-02 
2496	 4.72262799644554E-02 
2497	 4.68671351695174E-02 
2498	 4.56680099585554E-02 
2499	 4.60476300059999E-02 
2500	 4.62994784900261E-02 
