Wavelength	Tablay400066.asd
350	 0.340520330246245 
351	 0.275429359012531 
352	 0.217494682683603 
353	 0.208827848204217 
354	 0.229708327142827 
355	 0.226205569796828 
356	 0.219875393020504 
357	 0.233561074671395 
358	 0.239523165774536 
359	 0.191745650290185 
360	 0.126145599292548 
361	 0.120010854821206 
362	 0.212098874047501 
363	 0.241178871912747 
364	 0.154426183149148 
365	 0.109976943170484 
366	 0.10929420185038 
367	 0.115563284972061 
368	 0.108105513729032 
369	 0.186365864646355 
370	 0.168292621316145 
371	 0.1094480245932 
372	 0.175286480244388 
373	 0.17222608167584 
374	 0.142265369528687 
375	 0.122671446345436 
376	 0.115639997361433 
377	 0.133284390632391 
378	 0.159638775619321 
379	 0.168838326616197 
380	 0.114439395246495 
381	 8.64026236334839E-02 
382	 9.89987552896675E-02 
383	 0.115901088680427 
384	 0.13053924026763 
385	 0.114663341478501 
386	 8.04819268179945E-02 
387	 0.104908266887878 
388	 0.123353771782027 
389	 0.12371158662293 
390	 0.11069262515982 
391	 0.105573046647252 
392	 0.113238481287915 
393	 0.124397288398696 
394	 0.122481351467731 
395	 0.101219974330072 
396	 8.49668715661407E-02 
397	 8.51736421028552E-02 
398	 8.74066735445684E-02 
399	 9.59002413445507E-02 
400	 0.102255725650493 
401	 9.92834728734983E-02 
402	 9.61911930138748E-02 
403	 8.93259320417736E-02 
404	 8.45351707600725E-02 
405	 9.20598475783885E-02 
406	 8.66953492177796E-02 
407	 7.30302196017847E-02 
408	 6.26236593742503E-02 
409	 0.077471321691783 
410	 7.43201915541327E-02 
411	 6.63286058606982E-02 
412	 7.61660974445217E-02 
413	 0.079511552477556 
414	 7.35245422254528E-02 
415	 0.06783259617064 
416	 8.02171625799751E-02 
417	 8.30297119094233E-02 
418	 0.072944097994773 
419	 5.83343171684831E-02 
420	 0.06494545641705 
421	 6.41431200775717E-02 
422	 6.06459869214841E-02 
423	 6.78612620976486E-02 
424	 6.35428491766844E-02 
425	 5.81480334323098E-02 
426	 5.83705692908591E-02 
427	 6.41083294243071E-02 
428	 0.065169929177933 
429	 6.21139838277228E-02 
430	 5.83091412188057E-02 
431	 5.69077888640415E-02 
432	 6.03423659482519E-02 
433	 0.063606605655069 
434	 5.94426549138457E-02 
435	 5.72637838375738E-02 
436	 5.77414744777861E-02 
437	 5.84503267765485E-02 
438	 5.37439961881245E-02 
439	 5.26126896250259E-02 
440	 5.58089142729829E-02 
441	 6.08132783704146E-02 
442	 6.36753113372129E-02 
443	 6.15802331898261E-02 
444	 5.65564543297822E-02 
445	 5.41288492180846E-02 
446	 0.054240677919934 
447	 5.59401310855362E-02 
448	 5.77225646427963E-02 
449	 5.74523108350153E-02 
450	 0.056175054679447 
451	 5.61891900736089E-02 
452	 5.86475376097697E-02 
453	 5.50496544590563E-02 
454	 5.23154210540121E-02 
455	 5.30773465345418E-02 
456	 5.43203933660232E-02 
457	 5.27916970151719E-02 
458	 5.28575987641549E-02 
459	 5.59728767366393E-02 
460	 4.94291091342156E-02 
461	 4.86849592297079E-02 
462	 5.36401797610285E-02 
463	 5.56623485641602E-02 
464	 5.13259935745165E-02 
465	 4.91324502024467E-02 
466	 5.19559548416003E-02 
467	 5.24963195251872E-02 
468	 5.24891836376572E-02 
469	 5.16300341445321E-02 
470	 4.99075963352443E-02 
471	 4.97918670851729E-02 
472	 5.15176146424652E-02 
473	 0.053083057067812 
474	 5.13002617673302E-02 
475	 5.04401334948947E-02 
476	 5.01268967026545E-02 
477	 4.95677653160806E-02 
478	 4.85915994874282E-02 
479	 4.89173892204599E-02 
480	 4.95025470163813E-02 
481	 4.86916661850748E-02 
482	 4.81675798937774E-02 
483	 4.76467008887589E-02 
484	 4.73437013003675E-02 
485	 4.81248823389552E-02 
486	 4.90376415166084E-02 
487	 4.92822510173798E-02 
488	 4.85741798130789E-02 
489	 4.77976268732222E-02 
490	 4.76224596975759E-02 
491	 4.78212883695213E-02 
492	 4.76350665956832E-02 
493	 4.65510428229401E-02 
494	 4.68690172269832E-02 
495	 4.85778843121675E-02 
496	 4.75026381871494E-02 
497	 4.66267404590424E-02 
498	 4.66302019737233E-02 
499	 4.72076430594462E-02 
500	 4.69280023471062E-02 
501	 4.70007336653737E-02 
502	 4.72548722740141E-02 
503	 4.63685256857974E-02 
504	 4.55013613106928E-02 
505	 4.58815146902215E-02 
506	 4.74796058813906E-02 
507	 4.75504233164267E-02 
508	 4.64828075390808E-02 
509	 4.54608812905574E-02 
510	 4.57059495168035E-02 
511	 4.57262045527694E-02 
512	 4.54949797886731E-02 
513	 4.52698282684591E-02 
514	 4.55052457724139E-02 
515	 4.49481103940431E-02 
516	 4.46244027442806E-02 
517	 4.53487190112589E-02 
518	 4.51641048556999E-02 
519	 0.045454608083172 
520	 4.57884108533309E-02 
521	 4.47285299864878E-02 
522	 4.45551223715456E-02 
523	 4.48061299274382E-02 
524	 0.044979957141536 
525	 4.53410756950857E-02 
526	 0.045165583802623 
527	 4.48009049192553E-02 
528	 4.48273642997012E-02 
529	 4.48448976291132E-02 
530	 4.46068615264301E-02 
531	 4.42496078293618E-02 
532	 4.42774888792815E-02 
533	 4.45201547983757E-02 
534	 4.46742188905701E-02 
535	 4.45366399857728E-02 
536	 4.41877407789323E-02 
537	 4.43320256500241E-02 
538	 4.46561393074407E-02 
539	 0.04441248396332 
540	 4.44735573746392E-02 
541	 4.44921305937167E-02 
542	 4.42598562731674E-02 
543	 4.39781094145958E-02 
544	 4.39198387648916E-02 
545	 4.39598570026815E-02 
546	 4.38947368400387E-02 
547	 4.38052168359185E-02 
548	 4.37526361387045E-02 
549	 4.37382956772056E-02 
550	 4.37175488958797E-02 
551	 4.38430610921454E-02 
552	 4.39650169399564E-02 
553	 0.043966360975617 
554	 4.39743454557593E-02 
555	 4.36912062791739E-02 
556	 4.32957691032095E-02 
557	 4.31838409353809E-02 
558	 4.34984588542542E-02 
559	 4.37168134419888E-02 
560	 4.35911600595148E-02 
561	 4.33301508009003E-02 
562	 4.33160498693546E-02 
563	 4.34995580945452E-02 
564	 0.043661532055265 
565	 4.34646322401425E-02 
566	 4.35502129926698E-02 
567	 4.37298101636804E-02 
568	 4.32927881598331E-02 
569	 4.33310403286492E-02 
570	 4.35686389017586E-02 
571	 4.36457571690662E-02 
572	 4.34335986791751E-02 
573	 4.34719216053514E-02 
574	 4.37664704222126E-02 
575	 4.40411344526982E-02 
576	 4.37303470828309E-02 
577	 4.36074661799659E-02 
578	 4.39615199762797E-02 
579	 4.44258909393569E-02 
580	 4.44336871300125E-02 
581	 4.42854686387585E-02 
582	 4.43384223649937E-02 
583	 4.44108943851026E-02 
584	 4.45489691497038E-02 
585	 4.46601516088859E-02 
586	 0.044615410879388 
587	 4.47343814642411E-02 
588	 4.47403780501587E-02 
589	 4.46515189913327E-02 
590	 4.50789008390878E-02 
591	 4.55189439192084E-02 
592	 4.58022634195422E-02 
593	 4.59485750708272E-02 
594	 4.63222000312437E-02 
595	 4.66299322488933E-02 
596	 4.68516764829064E-02 
597	 4.72096996096518E-02 
598	 0.047550631687051 
599	 4.79893783175786E-02 
600	 4.85545753668015E-02 
601	 4.89572729025547E-02 
602	 4.93180232930642E-02 
603	 4.99104252223822E-02 
604	 5.09285590561638E-02 
605	 5.15690619939491E-02 
606	 5.22467078261561E-02 
607	 5.31900202755174E-02 
608	 5.42677242440879E-02 
609	 5.52148263900133E-02 
610	 5.61192118994781E-02 
611	 5.71852808230992E-02 
612	 5.86592642027486E-02 
613	 6.02187225725934E-02 
614	 6.16276627648039E-02 
615	 6.28087999588409E-02 
616	 6.45655103371418E-02 
617	 6.62799315236471E-02 
618	 6.77463028457599E-02 
619	 6.98514580112196E-02 
620	 7.17381848773906E-02 
621	 0.073530703003575 
622	 7.55764396549997E-02 
623	 7.76152195286969E-02 
624	 7.98244988169965E-02 
625	 8.22001339854118E-02 
626	 8.45558192786293E-02 
627	 8.68081766975954E-02 
628	 8.90534636761099E-02 
629	 9.14191179695824E-02 
630	 9.40481820623999E-02 
631	 9.64819362886561E-02 
632	 9.88177798370731E-02 
633	 0.101338720032189 
634	 0.103731148368585 
635	 0.106258523344471 
636	 0.10898464996229 
637	 0.111664248506701 
638	 0.114212560104641 
639	 0.116609156308784 
640	 0.118912584132084 
641	 0.121316247172261 
642	 0.123941919356181 
643	 0.126627570371522 
644	 0.129074670119715 
645	 0.131443976159102 
646	 0.133832739031344 
647	 0.136246383188606 
648	 0.138548256522736 
649	 0.141080206751409 
650	 0.143588135089415 
651	 0.145773529528881 
652	 0.147953191148053 
653	 0.150156328748236 
654	 0.152367319033678 
655	 0.154538013211329 
656	 0.15669164146554 
657	 0.15890452128511 
658	 0.161131968636891 
659	 0.163040571304292 
660	 0.16501094510324 
661	 0.167046369603139 
662	 0.169041197783764 
663	 0.17113355183102 
664	 0.173077368890553 
665	 0.174885286633286 
666	 0.176830847431595 
667	 0.178592920198873 
668	 0.18037386835706 
669	 0.182296588348465 
670	 0.184008893419487 
671	 0.18577958520784 
672	 0.187525474567451 
673	 0.189081530477848 
674	 0.190849160511659 
675	 0.19256557585944 
676	 0.194121173553515 
677	 0.195662835954933 
678	 0.197296086994366 
679	 0.198757352417489 
680	 0.199951532113056 
681	 0.201556455335277 
682	 0.203175493725921 
683	 0.204669684535682 
684	 0.206071699269289 
685	 0.207555223184168 
686	 0.20899141618957 
687	 0.210328848299896 
688	 0.21167763875168 
689	 0.213005726482673 
690	 0.21431791826701 
691	 0.21562547796645 
692	 0.216925985472762 
693	 0.218174387737956 
694	 0.219466661271587 
695	 0.220923171270277 
696	 0.22200595755415 
697	 0.223171610299895 
698	 0.224541591953968 
699	 0.225525155833242 
700	 0.226697022910465 
701	 0.22791022601576 
702	 0.228938494152574 
703	 0.230066873969513 
704	 0.231151409967638 
705	 0.232170607056052 
706	 0.233196539018363 
707	 0.234266007340963 
708	 0.235330140890422 
709	 0.236338723193446 
710	 0.237248491869876 
711	 0.238272291156001 
712	 0.239271733688051 
713	 0.240109499186107 
714	 0.241103496297237 
715	 0.242004211148888 
716	 0.242839988547288 
717	 0.243818877579741 
718	 0.244723511176906 
719	 0.245653336201882 
720	 0.24661850050572 
721	 0.247402484410421 
722	 0.248284301263172 
723	 0.249124767042915 
724	 0.249779583502018 
725	 0.250589530834697 
726	 0.251490566869192 
727	 0.252398452240125 
728	 0.253228813396998 
729	 0.254001883427477 
730	 0.254657987997633 
731	 0.255285696517347 
732	 0.256228334493884 
733	 0.257084917031443 
734	 0.257816537353604 
735	 0.258502006694497 
736	 0.259219305129092 
737	 0.259896496139518 
738	 0.260594235342888 
739	 0.261421087283991 
740	 0.262084620401572 
741	 0.262773423685036 
742	 0.263577451067922 
743	 0.264359466223565 
744	 0.264950604973568 
745	 0.265511883115612 
746	 0.266208162179716 
747	 0.266891704665497 
748	 0.267529111956987 
749	 0.268192746472823 
750	 0.268977385682822 
751	 0.269651757023834 
752	 0.270230485976889 
753	 0.270827320300235 
754	 0.271637913725492 
755	 0.272393970297615 
756	 0.273065552554459 
757	 0.273707044877837 
758	 0.274438525097997 
759	 0.275089327364752 
760	 0.275657895695909 
761	 0.276243517718572 
762	 0.277005061415339 
763	 0.277749927121667 
764	 0.278370204376261 
765	 0.278892936055552 
766	 0.279530439042326 
767	 0.280226172095422 
768	 0.280898749792282 
769	 0.281541270598382 
770	 0.28217533480018 
771	 0.282809022527651 
772	 0.283438310551073 
773	 0.284031212103097 
774	 0.284628157218827 
775	 0.285257756662718 
776	 0.285917444614591 
777	 0.286368726578151 
778	 0.286930304621056 
779	 0.287707371814151 
780	 0.288315741781795 
781	 0.288912588978913 
782	 0.289546713030554 
783	 0.290208281705136 
784	 0.290785645783813 
785	 0.291283383411359 
786	 0.291806080217689 
787	 0.292458792684695 
788	 0.292907557363226 
789	 0.293404979047457 
790	 0.294006625528956 
791	 0.294482758960004 
792	 0.295046879473548 
793	 0.29569785696436 
794	 0.296363924942943 
795	 0.296916130983284 
796	 0.297457418115577 
797	 0.297963465904805 
798	 0.298408473382841 
799	 0.298974204719371 
800	 0.299624615842197 
801	 0.30024097954259 
802	 0.300680516804208 
803	 0.301130726570662 
804	 0.301582316684552 
805	 0.302059963456132 
806	 0.302676159276406 
807	 0.303181769136676 
808	 0.303627724964079 
809	 0.304133708458269 
810	 0.304807629477514 
811	 0.30520496872013 
812	 0.305508205520699 
813	 0.306085268429708 
814	 0.306578640071016 
815	 0.306995672397067 
816	 0.307399888565042 
817	 0.307877944430628 
818	 0.308395511307152 
819	 0.308891401942425 
820	 0.309303767375046 
821	 0.30957659082972 
822	 0.310002548729457 
823	 0.310474449150533 
824	 0.31085809556073 
825	 0.311307625044153 
826	 0.311681241651909 
827	 0.312025131119632 
828	 0.312437062845324 
829	 0.312763220426359 
830	 0.313181398172257 
831	 0.313622117770809 
832	 0.313830120351333 
833	 0.314147483396145 
834	 0.314469561884362 
835	 0.31477984521485 
836	 0.315293011125001 
837	 0.315624647164864 
838	 0.315839107496844 
839	 0.31610427497684 
840	 0.316545482241743 
841	 0.316875219055158 
842	 0.317126541603463 
843	 0.317433230401055 
844	 0.317690655384721 
845	 0.318023112440152 
846	 0.318359804001048 
847	 0.318527026512893 
848	 0.318809573341087 
849	 0.319098866167788 
850	 0.319348007310183 
851	 0.319637177683455 
852	 0.319811423722377 
853	 0.32003280503561 
854	 0.320375166492397 
855	 0.320590583041714 
856	 0.320796761586447 
857	 0.321068491038088 
858	 0.321421341234265 
859	 0.321739028902447 
860	 0.321804976188683 
861	 0.321830257859092 
862	 0.322145748204337 
863	 0.322364833600849 
864	 0.32257640894745 
865	 0.322774858770182 
866	 0.322871685236843 
867	 0.323033155571029 
868	 0.323196287659853 
869	 0.32336097404618 
870	 0.323646706616249 
871	 0.323828242596977 
872	 0.323931865870918 
873	 0.324020589961745 
874	 0.324097295714962 
875	 0.324259265688612 
876	 0.324495235289358 
877	 0.32472943261185 
878	 0.324808289807525 
879	 0.324934645706503 
880	 0.324993938770995 
881	 0.324859993983286 
882	 0.325220431880007 
883	 0.325519645207898 
884	 0.325530573511577 
885	 0.325400746792175 
886	 0.325613030450146 
887	 0.325853503871744 
888	 0.325933239190756 
889	 0.325936936072501 
890	 0.32609583499103 
891	 0.326361771036128 
892	 0.326552530782171 
893	 0.32637467476459 
894	 0.32634614289519 
895	 0.326537783564532 
896	 0.326812539248835 
897	 0.326839872277192 
898	 0.326829545659575 
899	 0.326921577224483 
900	 0.327156733247035 
901	 0.32730862015625 
902	 0.327472082593722 
903	 0.327544288987722 
904	 0.327427276206253 
905	 0.327553559184996 
906	 0.327759978844016 
907	 0.327916838260039 
908	 0.327980837314688 
909	 0.328158759243548 
910	 0.328282287187137 
911	 0.328309643028402 
912	 0.328369745921716 
913	 0.328590945672396 
914	 0.328776679717459 
915	 0.328919093010583 
916	 0.329305960927982 
917	 0.329412798886573 
918	 0.329369238764121 
919	 0.329379069030101 
920	 0.329509906942083 
921	 0.329603198823072 
922	 0.329690696356944 
923	 0.329813800997112 
924	 0.329888432555168 
925	 0.330218886779201 
926	 0.330466616555179 
927	 0.330357836826406 
928	 0.330535066163028 
929	 0.330902582387217 
930	 0.331141645742412 
931	 0.331014461217903 
932	 0.331021122998744 
933	 0.331249372263594 
934	 0.331482912835412 
935	 0.331476830109252 
936	 0.331777038338985 
937	 0.331932796229179 
938	 0.33199575583607 
939	 0.332328729613972 
940	 0.332675796173852 
941	 0.332760988490489 
942	 0.332642601006075 
943	 0.332663190477162 
944	 0.332985791547372 
945	 0.333189275121065 
946	 0.33334738433714 
947	 0.333984777837517 
948	 0.333856862876652 
949	 0.333693906590823 
950	 0.333911606997524 
951	 0.33414669256999 
952	 0.334257894528311 
953	 0.334355588919631 
954	 0.334560579728727 
955	 0.33490464819238 
956	 0.334899613902842 
957	 0.334880439672992 
958	 0.335025379370603 
959	 0.334951945084605 
960	 0.335212935284905 
961	 0.335569928979467 
962	 0.335632305349748 
963	 0.335112686571811 
964	 0.335352015212991 
965	 0.335669663788022 
966	 0.335519217093241 
967	 0.335901651322388 
968	 0.336257461267695 
969	 0.336488137404091 
970	 0.33659086742077 
971	 0.336448875097315 
972	 0.336811413995657 
973	 0.337008853718342 
974	 0.336551225179334 
975	 0.336669591714411 
976	 0.337040312491293 
977	 0.337332088393731 
978	 0.337319580032657 
979	 0.337127552448331 
980	 0.337201092593534 
981	 0.337433888340374 
982	 0.337588681899738 
983	 0.337731250876286 
984	 0.337688355724829 
985	 0.337799871026944 
986	 0.338331613165672 
987	 0.338754587796558 
988	 0.338865974796838 
989	 0.338668076175892 
990	 0.338445289249276 
991	 0.339013058790842 
992	 0.339642219012525 
993	 0.339674089338737 
994	 0.338998420431199 
995	 0.339046428561827 
996	 0.339070700912972 
997	 0.339195779417103 
998	 0.339636496332153 
999	 0.339925352286719 
1000	 0.339824355943876 
1001	 0.34113120743506 
1002	 0.341170396846015 
1003	 0.341370712028112 
1004	 0.3414821635373 
1005	 0.341433224618005 
1006	 0.341453592124948 
1007	 0.341597789514957 
1008	 0.341648634637014 
1009	 0.341540106563282 
1010	 0.341481581444718 
1011	 0.34147519088691 
1012	 0.341458296665889 
1013	 0.341490874077846 
1014	 0.341463345325289 
1015	 0.341324635242438 
1016	 0.341267092628726 
1017	 0.341479179120395 
1018	 0.341509140210391 
1019	 0.341601093642341 
1020	 0.341793979468244 
1021	 0.341944386781881 
1022	 0.341925120722522 
1023	 0.342038300756093 
1024	 0.34242100751672 
1025	 0.34247217964351 
1026	 0.342289370311441 
1027	 0.342302859514697 
1028	 0.342300057942542 
1029	 0.342233985921404 
1030	 0.342336220182235 
1031	 0.342352843327855 
1032	 0.342402892236352 
1033	 0.342553647479408 
1034	 0.342607549964461 
1035	 0.342850679053028 
1036	 0.34306821750057 
1037	 0.343294560621438 
1038	 0.343362132933315 
1039	 0.343411056033117 
1040	 0.34349611299806 
1041	 0.343370805279598 
1042	 0.343485554041287 
1043	 0.343855190353812 
1044	 0.34410361226799 
1045	 0.344115220080217 
1046	 0.34418231311433 
1047	 0.344320527150578 
1048	 0.344447119484881 
1049	 0.344525009351343 
1050	 0.344633559092337 
1051	 0.344677993117129 
1052	 0.344552250100185 
1053	 0.344490842763276 
1054	 0.344513230227556 
1055	 0.344508225386797 
1056	 0.344420811046347 
1057	 0.34445495586501 
1058	 0.344598866566728 
1059	 0.34464860790595 
1060	 0.344726934229998 
1061	 0.34467346409763 
1062	 0.344550635703199 
1063	 0.344558696299376 
1064	 0.344593038658197 
1065	 0.344569819502523 
1066	 0.344589540914159 
1067	 0.344603421284438 
1068	 0.344528842959264 
1069	 0.344503702886169 
1070	 0.344454115160479 
1071	 0.344373836020618 
1072	 0.344324507430391 
1073	 0.344307794836292 
1074	 0.344105796511718 
1075	 0.343941958819449 
1076	 0.343765268125709 
1077	 0.343541220290078 
1078	 0.343517439386358 
1079	 0.34348397714312 
1080	 0.343366110169738 
1081	 0.343315222530358 
1082	 0.343247879625862 
1083	 0.343302656117411 
1084	 0.343431828059883 
1085	 0.343338202361887 
1086	 0.343237692962775 
1087	 0.343077654528471 
1088	 0.342947165176148 
1089	 0.342842434252494 
1090	 0.342828786250608 
1091	 0.342929985863627 
1092	 0.342963611071442 
1093	 0.342856553012642 
1094	 0.342869222779566 
1095	 0.342847786237144 
1096	 0.342824810353298 
1097	 0.34286020179345 
1098	 0.342809960940203 
1099	 0.34279389060703 
1100	 0.342771790648302 
1101	 0.342866913132334 
1102	 0.343031054709838 
1103	 0.34309054770978 
1104	 0.343127107344479 
1105	 0.343177753771566 
1106	 0.343187343201419 
1107	 0.343227600774414 
1108	 0.343367134360654 
1109	 0.343503982720678 
1110	 0.343571203237116 
1111	 0.343634986366746 
1112	 0.343803646328065 
1113	 0.344054094451322 
1114	 0.344289859140709 
1115	 0.344374675544533 
1116	 0.34447809246106 
1117	 0.344593667117387 
1118	 0.344730162432142 
1119	 0.344970537355339 
1120	 0.345171482905845 
1121	 0.345351113990991 
1122	 0.345489155273738 
1123	 0.345737739002679 
1124	 0.345910001659744 
1125	 0.346203737805039 
1126	 0.346493375012029 
1127	 0.346671748074387 
1128	 0.346876421218489 
1129	 0.346981839648523 
1130	 0.347101013042982 
1131	 0.347293871505811 
1132	 0.347485006891923 
1133	 0.347610388479549 
1134	 0.347714040335181 
1135	 0.347920304708733 
1136	 0.348173901757475 
1137	 0.348358319450962 
1138	 0.34864783083568 
1139	 0.348867155270851 
1140	 0.349022201630797 
1141	 0.349057172427491 
1142	 0.34923279028632 
1143	 0.349320328550145 
1144	 0.34930606236243 
1145	 0.34949878127273 
1146	 0.349663075842458 
1147	 0.349728766126596 
1148	 0.349842358453628 
1149	 0.349918174553213 
1150	 0.349849792653193 
1151	 0.34978046478802 
1152	 0.349779016081043 
1153	 0.349752496143482 
1154	 0.349763117551963 
1155	 0.34990964582454 
1156	 0.349950697675858 
1157	 0.349934945260348 
1158	 0.349931357661167 
1159	 0.349888585038027 
1160	 0.349862795856936 
1161	 0.34988246792282 
1162	 0.349848162294432 
1163	 0.349813695070832 
1164	 0.349740321192508 
1165	 0.349665088968607 
1166	 0.34968625209988 
1167	 0.349718983750665 
1168	 0.34972464293224 
1169	 0.349679697322794 
1170	 0.349548252440883 
1171	 0.349505935376378 
1172	 0.349491926802608 
1173	 0.349433622459682 
1174	 0.349403585887733 
1175	 0.349357576168225 
1176	 0.349252711727669 
1177	 0.349167835878857 
1178	 0.349105348534524 
1179	 0.349066841356505 
1180	 0.348959224490262 
1181	 0.348821141672171 
1182	 0.348739426742444 
1183	 0.348677071889058 
1184	 0.348587601061176 
1185	 0.348486878656361 
1186	 0.348439646408075 
1187	 0.3483982167556 
1188	 0.348386253686456 
1189	 0.348472823664489 
1190	 0.34844686434723 
1191	 0.348348615198131 
1192	 0.348295146913091 
1193	 0.348206925235639 
1194	 0.348154784860591 
1195	 0.348108878397433 
1196	 0.348121848332623 
1197	 0.348141140914128 
1198	 0.34824785435711 
1199	 0.348354032259134 
1200	 0.34840833182122 
1201	 0.348459875434363 
1202	 0.348493640041569 
1203	 0.34851812457013 
1204	 0.348680228559057 
1205	 0.348875611479947 
1206	 0.349122932474175 
1207	 0.349348446744422 
1208	 0.349649665521277 
1209	 0.349925599013754 
1210	 0.350115745554367 
1211	 0.350446056271006 
1212	 0.350883769160888 
1213	 0.351294138780467 
1214	 0.351728348016285 
1215	 0.352212207546889 
1216	 0.352726595330304 
1217	 0.35322539145686 
1218	 0.353700391706614 
1219	 0.354330016341838 
1220	 0.354900165603548 
1221	 0.355531739444001 
1222	 0.356219672565426 
1223	 0.356885196159504 
1224	 0.357527196202164 
1225	 0.358150410958081 
1226	 0.358746580215637 
1227	 0.359316142403606 
1228	 0.359893832060367 
1229	 0.360469073582472 
1230	 0.361012011177952 
1231	 0.361567476089091 
1232	 0.362060923858629 
1233	 0.362488810632059 
1234	 0.36291931135654 
1235	 0.363270550443548 
1236	 0.363712096482541 
1237	 0.36424806198265 
1238	 0.364677974607905 
1239	 0.365088275925671 
1240	 0.365508813146005 
1241	 0.365839305246037 
1242	 0.366190186978419 
1243	 0.36657373730714 
1244	 0.367045973668565 
1245	 0.367379335893932 
1246	 0.367654962918673 
1247	 0.367947279919235 
1248	 0.36814900757673 
1249	 0.368464181178321 
1250	 0.36881897288414 
1251	 0.369200415133732 
1252	 0.369681872700357 
1253	 0.370068671981051 
1254	 0.370446608897049 
1255	 0.37080862183406 
1256	 0.371103487530426 
1257	 0.371427550065347 
1258	 0.371746205158377 
1259	 0.372090528782584 
1260	 0.372480907045842 
1261	 0.372824035854863 
1262	 0.373117458344355 
1263	 0.373492330546602 
1264	 0.373834963782589 
1265	 0.374130460439712 
1266	 0.374485182884471 
1267	 0.374911262936923 
1268	 0.375251711195297 
1269	 0.375552064925676 
1270	 0.37588950977359 
1271	 0.37621933939449 
1272	 0.376534290395872 
1273	 0.376886371568837 
1274	 0.37718574523754 
1275	 0.377390679965058 
1276	 0.377682295523678 
1277	 0.378047865171377 
1278	 0.378328814321408 
1279	 0.378638350893808 
1280	 0.378876238218912 
1281	 0.378963201094849 
1282	 0.379135465515419 
1283	 0.379305168783332 
1284	 0.379512643362302 
1285	 0.379753280091064 
1286	 0.380068060090475 
1287	 0.380290146833543 
1288	 0.380505977062558 
1289	 0.380700553931816 
1290	 0.380866399090117 
1291	 0.380990124307866 
1292	 0.38108050992579 
1293	 0.38118920834744 
1294	 0.381272206816205 
1295	 0.381332270839865 
1296	 0.381406999815571 
1297	 0.381454991599743 
1298	 0.381420264102637 
1299	 0.381450122262391 
1300	 0.381515472214282 
1301	 0.381576306746954 
1302	 0.381650382445824 
1303	 0.381726491715001 
1304	 0.381795636416632 
1305	 0.381888480139857 
1306	 0.382000746673338 
1307	 0.382113650124807 
1308	 0.38224455998667 
1309	 0.38237210525055 
1310	 0.382509934229445 
1311	 0.382665152381742 
1312	 0.382772564980259 
1313	 0.382839218173652 
1314	 0.382993371467734 
1315	 0.38315371949668 
1316	 0.383321950727533 
1317	 0.383551802157322 
1318	 0.383768853236173 
1319	 0.383949890958024 
1320	 0.38417527146039 
1321	 0.384485344526128 
1322	 0.384713371300318 
1323	 0.384881269541385 
1324	 0.385101715390162 
1325	 0.385336975742403 
1326	 0.38553939256684 
1327	 0.385707077653971 
1328	 0.385954176742829 
1329	 0.386228719285179 
1330	 0.386482481406933 
1331	 0.386825324066426 
1332	 0.387106573877347 
1333	 0.387294736184088 
1334	 0.387508555476049 
1335	 0.387769965723846 
1336	 0.388064979979266 
1337	 0.388318018372244 
1338	 0.388584779208439 
1339	 0.388850340638806 
1340	 0.389059530791647 
1341	 0.389360892543182 
1342	 0.389774694600835 
1343	 0.390039827703384 
1344	 0.390288622696595 
1345	 0.390494255514396 
1346	 0.390559836559853 
1347	 0.390744109802939 
1348	 0.390986291108348 
1349	 0.391195283430937 
1350	 0.3914626966318 
1351	 0.391643155459921 
1352	 0.391758595387802 
1353	 0.391886297794561 
1354	 0.391967165139781 
1355	 0.392071200609777 
1356	 0.392170587008637 
1357	 0.392297234800349 
1358	 0.392446787335483 
1359	 0.392592297441358 
1360	 0.392779029083719 
1361	 0.392941823073325 
1362	 0.3930233027396 
1363	 0.393076073904723 
1364	 0.393131118576296 
1365	 0.393139265117643 
1366	 0.393159245155501 
1367	 0.393199818109717 
1368	 0.393193852002254 
1369	 0.393156491192035 
1370	 0.393105645961717 
1371	 0.393051348805812 
1372	 0.392953675078166 
1373	 0.392825009022831 
1374	 0.392671061284206 
1375	 0.392471513762697 
1376	 0.392283331173561 
1377	 0.392068737005334 
1378	 0.391866088371904 
1379	 0.391686900599659 
1380	 0.391463696224482 
1381	 0.391238355404563 
1382	 0.390975677782776 
1383	 0.390640637990425 
1384	 0.390347040934647 
1385	 0.390067052998714 
1386	 0.389760129248114 
1387	 0.389450363461786 
1388	 0.38915074269633 
1389	 0.388808207701438 
1390	 0.38851333112173 
1391	 0.388239162297608 
1392	 0.387998354864472 
1393	 0.387834893809791 
1394	 0.387647723379943 
1395	 0.387464159617476 
1396	 0.387340611060964 
1397	 0.38709711970677 
1398	 0.386807484507792 
1399	 0.386483683713201 
1400	 0.38610766586807 
1401	 0.385684388822909 
1402	 0.385274228767788 
1403	 0.384693543011561 
1404	 0.383992361725309 
1405	 0.383283760200662 
1406	 0.382451475895985 
1407	 0.381646847333343 
1408	 0.38084226775785 
1409	 0.379992456334595 
1410	 0.379104406121735 
1411	 0.378202213114651 
1412	 0.377250632006437 
1413	 0.376335295198979 
1414	 0.375370113714029 
1415	 0.374492521821377 
1416	 0.373652555394853 
1417	 0.372860145919166 
1418	 0.372197077566991 
1419	 0.371444146773992 
1420	 0.370656229926897 
1421	 0.369901140703125 
1422	 0.369073747897155 
1423	 0.368328035748132 
1424	 0.367643405430248 
1425	 0.367009149254428 
1426	 0.366398084395129 
1427	 0.365739115520954 
1428	 0.365118536892665 
1429	 0.364598815414458 
1430	 0.36406414432722 
1431	 0.363577153080983 
1432	 0.363081832799687 
1433	 0.36261292199225 
1434	 0.362082626166063 
1435	 0.361511497596392 
1436	 0.361023985576344 
1437	 0.360531510126976 
1438	 0.360062552027283 
1439	 0.35965219564044 
1440	 0.359258775300683 
1441	 0.358838255116831 
1442	 0.358480406982936 
1443	 0.358158353810042 
1444	 0.357929157571342 
1445	 0.357689151681788 
1446	 0.357633385128107 
1447	 0.357689662682477 
1448	 0.357882728069092 
1449	 0.358235767587241 
1450	 0.358649908967641 
1451	 0.359219825473536 
1452	 0.359803292485698 
1453	 0.360457744474758 
1454	 0.361132384862889 
1455	 0.361890396811795 
1456	 0.362615050967107 
1457	 0.36335475882616 
1458	 0.364094499963561 
1459	 0.364821338082717 
1460	 0.36555483043018 
1461	 0.366321341012603 
1462	 0.367047014291352 
1463	 0.36776301490373 
1464	 0.36845221280499 
1465	 0.369105479899366 
1466	 0.369760390334475 
1467	 0.370345510078101 
1468	 0.370920298850109 
1469	 0.371515383562254 
1470	 0.372073349326169 
1471	 0.372664430266945 
1472	 0.373293439349378 
1473	 0.373882781670817 
1474	 0.374462367418139 
1475	 0.375025192830907 
1476	 0.375585728146242 
1477	 0.376105754392445 
1478	 0.376596303630774 
1479	 0.377074262826113 
1480	 0.37752774148625 
1481	 0.377958094407585 
1482	 0.378387772931429 
1483	 0.378756458700054 
1484	 0.379055048851374 
1485	 0.379400292673684 
1486	 0.379716970494594 
1487	 0.380060504912281 
1488	 0.380435905868991 
1489	 0.38080291550015 
1490	 0.381135446500692 
1491	 0.381541501428968 
1492	 0.381959492739928 
1493	 0.382455918621027 
1494	 0.383068337694307 
1495	 0.383602957795656 
1496	 0.384126248200385 
1497	 0.384702288996425 
1498	 0.385258502979519 
1499	 0.385860019878282 
1500	 0.386567699388499 
1501	 0.387211355077737 
1502	 0.387806461075459 
1503	 0.388439407603555 
1504	 0.389105928192775 
1505	 0.389729449642918 
1506	 0.390376195353015 
1507	 0.39097011942414 
1508	 0.391489525023293 
1509	 0.392026759584778 
1510	 0.392590848381821 
1511	 0.393075780358632 
1512	 0.393506138111946 
1513	 0.393939437122272 
1514	 0.394320120402024 
1515	 0.394690460340947 
1516	 0.395071525802938 
1517	 0.395430168156977 
1518	 0.395742440485105 
1519	 0.396055705277117 
1520	 0.396377969443496 
1521	 0.396686812767598 
1522	 0.396909309007461 
1523	 0.39712956761993 
1524	 0.397340101338741 
1525	 0.397486147486876 
1526	 0.397719505120298 
1527	 0.398013175946837 
1528	 0.398231347312249 
1529	 0.398445486373217 
1530	 0.398650542329786 
1531	 0.398820007064329 
1532	 0.398985795681766 
1533	 0.399150241536368 
1534	 0.399334740803253 
1535	 0.399500902635131 
1536	 0.399675992274311 
1537	 0.399880547356326 
1538	 0.400077859692255 
1539	 0.40023701329686 
1540	 0.400460572113137 
1541	 0.400712432496401 
1542	 0.401010391040211 
1543	 0.401360592417116 
1544	 0.401691049217063 
1545	 0.402052334710226 
1546	 0.40241241980004 
1547	 0.402742504123961 
1548	 0.403139148636769 
1549	 0.403599784949829 
1550	 0.404021959797374 
1551	 0.404466630177209 
1552	 0.404883466300856 
1553	 0.405264066410892 
1554	 0.405675347522325 
1555	 0.406105392142329 
1556	 0.40651109505138 
1557	 0.406926589129989 
1558	 0.407312046523375 
1559	 0.407635146294653 
1560	 0.40803391434471 
1561	 0.40847114504303 
1562	 0.408878578954389 
1563	 0.409330414341684 
1564	 0.409731076011981 
1565	 0.410034336552218 
1566	 0.410447853791662 
1567	 0.410929727807015 
1568	 0.411362681733527 
1569	 0.411862789039825 
1570	 0.412271638779259 
1571	 0.412583049735552 
1572	 0.412934170973028 
1573	 0.413255698779428 
1574	 0.413611598361399 
1575	 0.413986018320372 
1576	 0.414366961497513 
1577	 0.414768388036414 
1578	 0.415167996391025 
1579	 0.415600247742727 
1580	 0.415980863384787 
1581	 0.416326473940951 
1582	 0.416686901978964 
1583	 0.417016690670599 
1584	 0.417364749389127 
1585	 0.417741236842698 
1586	 0.418103305342626 
1587	 0.418425133487313 
1588	 0.418805692347996 
1589	 0.419241476257282 
1590	 0.419635666569232 
1591	 0.420089676961114 
1592	 0.420446667377406 
1593	 0.420652192038544 
1594	 0.420990445026368 
1595	 0.421377704870185 
1596	 0.421725777071421 
1597	 0.422121091972276 
1598	 0.422517121982015 
1599	 0.422870130502739 
1600	 0.423234489670004 
1601	 0.423633918806816 
1602	 0.424037714495254 
1603	 0.424441902849823 
1604	 0.424814247220855 
1605	 0.425203613297232 
1606	 0.425576089769218 
1607	 0.42590890423951 
1608	 0.426229952498788 
1609	 0.426547289314669 
1610	 0.426860154159016 
1611	 0.427168492170219 
1612	 0.42742869938618 
1613	 0.427660336234572 
1614	 0.427900585285912 
1615	 0.428088465733446 
1616	 0.428298188167904 
1617	 0.428532310530125 
1618	 0.428764988785212 
1619	 0.428991048840804 
1620	 0.429223702371097 
1621	 0.429510604234222 
1622	 0.429721949025911 
1623	 0.429861306785706 
1624	 0.430047716171806 
1625	 0.430221590130426 
1626	 0.430386562636379 
1627	 0.430607227795167 
1628	 0.430770525878613 
1629	 0.430856576360235 
1630	 0.430975569625678 
1631	 0.43108222165048 
1632	 0.431204371957939 
1633	 0.431342072485226 
1634	 0.431492196967879 
1635	 0.431660821685178 
1636	 0.431817808275487 
1637	 0.43197585733872 
1638	 0.432135671749983 
1639	 0.432319070548766 
1640	 0.432467155742215 
1641	 0.432602394259082 
1642	 0.432719980348934 
1643	 0.432775004499255 
1644	 0.432870856619578 
1645	 0.432999781950287 
1646	 0.433099009753446 
1647	 0.433219102898587 
1648	 0.433293958301134 
1649	 0.433381629845782 
1650	 0.433362512606489 
1651	 0.433246102880201 
1652	 0.433139014793073 
1653	 0.432929246565049 
1654	 0.432765996135588 
1655	 0.432675395675577 
1656	 0.43251162769635 
1657	 0.432307965889792 
1658	 0.432090788832235 
1659	 0.431823332309177 
1660	 0.431549244167096 
1661	 0.431329614066045 
1662	 0.430979105605741 
1663	 0.430565618441194 
1664	 0.43010197030274 
1665	 0.429521213460619 
1666	 0.428925253042826 
1667	 0.428326635205456 
1668	 0.427620482726027 
1669	 0.426870278099206 
1670	 0.426005038805609 
1671	 0.425007294949164 
1672	 0.423987862499706 
1673	 0.422914750777968 
1674	 0.421742587475243 
1675	 0.420513807573469 
1676	 0.41920317091494 
1677	 0.417779959883535 
1678	 0.416316809071553 
1679	 0.414788889493935 
1680	 0.413200943950183 
1681	 0.411589402720279 
1682	 0.409807683165932 
1683	 0.407898725189174 
1684	 0.405989028610984 
1685	 0.403969277374458 
1686	 0.401893017614889 
1687	 0.399744145092391 
1688	 0.397611146203891 
1689	 0.395429908738564 
1690	 0.393189050291385 
1691	 0.391008983919972 
1692	 0.38870393084643 
1693	 0.386257038802045 
1694	 0.383809277361029 
1695	 0.381309343815245 
1696	 0.378752105498877 
1697	 0.376095953602744 
1698	 0.373494052767358 
1699	 0.370916023814927 
1700	 0.368312504220925 
1701	 0.365676276602636 
1702	 0.363134033312773 
1703	 0.360535410176154 
1704	 0.358108538770666 
1705	 0.355783462934802 
1706	 0.353476430140541 
1707	 0.351418674902643 
1708	 0.34946543619505 
1709	 0.347719698290072 
1710	 0.346150977688618 
1711	 0.344579594510807 
1712	 0.343141197087557 
1713	 0.34171929134858 
1714	 0.340373854262849 
1715	 0.339211084894474 
1716	 0.338027886578847 
1717	 0.336924228464427 
1718	 0.335909364154035 
1719	 0.334890062571798 
1720	 0.334003749275476 
1721	 0.333276498621386 
1722	 0.332591325116177 
1723	 0.332000439503253 
1724	 0.331484610476047 
1725	 0.331014828988075 
1726	 0.330697479198503 
1727	 0.330594050938385 
1728	 0.330708839677253 
1729	 0.331126343664632 
1730	 0.331845141762319 
1731	 0.332718280187253 
1732	 0.333866195166746 
1733	 0.33515922603879 
1734	 0.336551908493061 
1735	 0.337971072310987 
1736	 0.339256891041106 
1737	 0.340560894137848 
1738	 0.34160598677287 
1739	 0.342532357445905 
1740	 0.343433698095636 
1741	 0.344014942911145 
1742	 0.344366693058419 
1743	 0.344623238798409 
1744	 0.344593808263678 
1745	 0.344530457650289 
1746	 0.34431169475057 
1747	 0.344167147429243 
1748	 0.343970492702828 
1749	 0.343799746152587 
1750	 0.343618485160962 
1751	 0.343497344966118 
1752	 0.343351748943231 
1753	 0.343344364311908 
1754	 0.343429004405165 
1755	 0.3436742144883 
1756	 0.343967875911321 
1757	 0.344479314327209 
1758	 0.345225183548747 
1759	 0.345950139468742 
1760	 0.346822476473017 
1761	 0.347817717427952 
1762	 0.348779162021568 
1763	 0.35000811352675 
1764	 0.351382320162832 
1765	 0.352839772471832 
1766	 0.354520841361787 
1767	 0.356168676580304 
1768	 0.357943292714273 
1769	 0.359799543839745 
1770	 0.361507266295167 
1771	 0.363266390942852 
1772	 0.364928748234695 
1773	 0.366525403318936 
1774	 0.368134282143234 
1775	 0.36960169834077 
1776	 0.370974648081273 
1777	 0.37213790684673 
1778	 0.373162959316416 
1779	 0.374161454782691 
1780	 0.375150544407869 
1781	 0.376185555818345 
1782	 0.377091414443369 
1783	 0.377848702486067 
1784	 0.37863778974109 
1785	 0.379327106226407 
1786	 0.380010048850118 
1787	 0.380756071022322 
1788	 0.381378715308209 
1789	 0.381898940275686 
1790	 0.382461896252574 
1791	 0.383001326152015 
1792	 0.383459990462505 
1793	 0.38386856751058 
1794	 0.384222032577622 
1795	 0.384581030908432 
1796	 0.385076814989129 
1797	 0.385547997691242 
1798	 0.385913370770501 
1799	 0.386215807111361 
1800	 0.38651284007208 
1801	 0.377891592136346 
1802	 0.378178946902081 
1803	 0.378544636914466 
1804	 0.378955865988906 
1805	 0.379343884516532 
1806	 0.379758315863576 
1807	 0.380256484705666 
1808	 0.380650955472919 
1809	 0.380994358173351 
1810	 0.38134607006026 
1811	 0.381653423086244 
1812	 0.381993373947988 
1813	 0.382287328848304 
1814	 0.382729111857674 
1815	 0.383164310158691 
1816	 0.383467346382201 
1817	 0.383831372986643 
1818	 0.384206115109181 
1819	 0.384571394548749 
1820	 0.384880559251494 
1821	 0.38529108454076 
1822	 0.385750878836232 
1823	 0.386213564937495 
1824	 0.386728866550164 
1825	 0.387299828865252 
1826	 0.387817159495013 
1827	 0.388341954664299 
1828	 0.38881099169173 
1829	 0.389263705695598 
1830	 0.389691379091073 
1831	 0.390072214979799 
1832	 0.39045785071402 
1833	 0.390858148092523 
1834	 0.391175260972941 
1835	 0.391571127151622 
1836	 0.391978200687676 
1837	 0.392336529290922 
1838	 0.392656039091659 
1839	 0.393056622055622 
1840	 0.393451528094547 
1841	 0.393843635827042 
1842	 0.394304388453142 
1843	 0.394746642482971 
1844	 0.395039625354114 
1845	 0.395391720760168 
1846	 0.395792323495673 
1847	 0.396111167644929 
1848	 0.396411588929941 
1849	 0.396778881815689 
1850	 0.396986180975957 
1851	 0.397051467323887 
1852	 0.397167749050909 
1853	 0.397296193468107 
1854	 0.397346083022913 
1855	 0.397424595983142 
1856	 0.397475303133273 
1857	 0.397445541157367 
1858	 0.397384398683591 
1859	 0.397278529688427 
1860	 0.397166574144342 
1861	 0.396957969846702 
1862	 0.39665370025732 
1863	 0.396343665630658 
1864	 0.396063516345844 
1865	 0.39572817157315 
1866	 0.3953827613301 
1867	 0.394963113699724 
1868	 0.394440175673804 
1869	 0.39380474009641 
1870	 0.393090154047511 
1871	 0.392261071018724 
1872	 0.391434615022793 
1873	 0.390544220704968 
1874	 0.389681266449482 
1875	 0.388645942981793 
1876	 0.387481150713278 
1877	 0.386314387564282 
1878	 0.384881922953205 
1879	 0.383404218977251 
1880	 0.381976799784625 
1881	 0.380373829619748 
1882	 0.378586889841969 
1883	 0.376812785126469 
1884	 0.374950496723363 
1885	 0.372826732756223 
1886	 0.370700815014655 
1887	 0.368366223995385 
1888	 0.365868846747205 
1889	 0.363469531458104 
1890	 0.360879919732549 
1891	 0.358232919598869 
1892	 0.355501238732448 
1893	 0.352637757297501 
1894	 0.34959513390323 
1895	 0.346615227147004 
1896	 0.343501398906941 
1897	 0.340376732207964 
1898	 0.33753759121175 
1899	 0.33465979411166 
1900	 0.331840586276666 
1901	 0.329117756219186 
1902	 0.326147789792956 
1903	 0.323269597301623 
1904	 0.320542316097491 
1905	 0.317869009428803 
1906	 0.315265360478193 
1907	 0.313032642729056 
1908	 0.31086181982268 
1909	 0.308706591213006 
1910	 0.306714660223693 
1911	 0.304666978451099 
1912	 0.302719468134352 
1913	 0.30086801478425 
1914	 0.299080813012688 
1915	 0.297427318822039 
1916	 0.295919494560866 
1917	 0.294445118188711 
1918	 0.293048963619287 
1919	 0.291777048931772 
1920	 0.290569376297566 
1921	 0.289386119874673 
1922	 0.288257430806675 
1923	 0.287181264755474 
1924	 0.286122237538922 
1925	 0.285114594382187 
1926	 0.28418973899735 
1927	 0.283344557786296 
1928	 0.282524838434781 
1929	 0.281741873966781 
1930	 0.281071773372676 
1931	 0.280446527105491 
1932	 0.279834275536242 
1933	 0.279381992908772 
1934	 0.278974773107418 
1935	 0.278577077253571 
1936	 0.278376239451376 
1937	 0.278232661045032 
1938	 0.278145976010243 
1939	 0.27817658094243 
1940	 0.278331383087516 
1941	 0.278532375589624 
1942	 0.278851274072845 
1943	 0.279255120498114 
1944	 0.279651885632962 
1945	 0.280125455323569 
1946	 0.280635733664438 
1947	 0.281186818707045 
1948	 0.28189702345929 
1949	 0.282694667562957 
1950	 0.283512831828532 
1951	 0.28443815264058 
1952	 0.28530391410702 
1953	 0.286140534638181 
1954	 0.287051958143241 
1955	 0.288045859537708 
1956	 0.2891005135089 
1957	 0.2902269353624 
1958	 0.291368836155769 
1959	 0.29241809999736 
1960	 0.293479767387163 
1961	 0.294482550182782 
1962	 0.295476117953282 
1963	 0.296387255102826 
1964	 0.297220613597911 
1965	 0.298017726306412 
1966	 0.298761926427843 
1967	 0.299481996384184 
1968	 0.300161311929015 
1969	 0.300883799990423 
1970	 0.301592475335973 
1971	 0.302306233712503 
1972	 0.303021632939932 
1973	 0.303710449572495 
1974	 0.304441760453378 
1975	 0.305209191135518 
1976	 0.30597123621781 
1977	 0.306758700755916 
1978	 0.30751290230415 
1979	 0.308264169556164 
1980	 0.308958548350358 
1981	 0.309688906696132 
1982	 0.310512641986255 
1983	 0.31134809224402 
1984	 0.31218846762148 
1985	 0.313007051077771 
1986	 0.313864398903345 
1987	 0.314739613254412 
1988	 0.315599219262581 
1989	 0.316541312969486 
1990	 0.317530820725056 
1991	 0.318547702935731 
1992	 0.319585549065649 
1993	 0.320753532571163 
1994	 0.32191177349167 
1995	 0.323098983867355 
1996	 0.324278524515003 
1997	 0.325471893490687 
1998	 0.326655900953694 
1999	 0.327843424155015 
2000	 0.328968272205167 
2001	 0.330117222087665 
2002	 0.331158744788363 
2003	 0.332116709072873 
2004	 0.333043470225585 
2005	 0.333917662232955 
2006	 0.334758555954 
2007	 0.335545784597566 
2008	 0.33630715892153 
2009	 0.337068401100514 
2010	 0.33766040261198 
2011	 0.338185914485849 
2012	 0.33869904250023 
2013	 0.339110641269069 
2014	 0.339433192191571 
2015	 0.339717881872866 
2016	 0.339912833808697 
2017	 0.340070050358663 
2018	 0.340174415171494 
2019	 0.34024248654485 
2020	 0.340248843898086 
2021	 0.340262547411021 
2022	 0.340211012084204 
2023	 0.340071055281073 
2024	 0.339867767050756 
2025	 0.339642907989047 
2026	 0.33938265596406 
2027	 0.339066366082502 
2028	 0.338732987834719 
2029	 0.338368859961594 
2030	 0.337983753956757 
2031	 0.337576722751028 
2032	 0.33714843186067 
2033	 0.336668723813563 
2034	 0.336216374578411 
2035	 0.335741009199663 
2036	 0.335269986713438 
2037	 0.334900259018154 
2038	 0.334468583021771 
2039	 0.33404006905965 
2040	 0.333638536020009 
2041	 0.333190126498865 
2042	 0.332695717477006 
2043	 0.3322215943764 
2044	 0.331677433269074 
2045	 0.331256393158457 
2046	 0.330958599427654 
2047	 0.330556426994128 
2048	 0.330155757786047 
2049	 0.329775603820433 
2050	 0.329342548493973 
2051	 0.328872746595409 
2052	 0.328561680278576 
2053	 0.3282992370016 
2054	 0.327985742440496 
2055	 0.327682911272548 
2056	 0.327356194600046 
2057	 0.326984718836916 
2058	 0.32667742305356 
2059	 0.326380174623274 
2060	 0.326109163443156 
2061	 0.325908489469797 
2062	 0.325642297362771 
2063	 0.325360960461926 
2064	 0.325072167670349 
2065	 0.324708845318904 
2066	 0.324450346828557 
2067	 0.324148222032407 
2068	 0.323845122191778 
2069	 0.323610854131928 
2070	 0.323415328602314 
2071	 0.323213374762438 
2072	 0.323118867629021 
2073	 0.322883343761764 
2074	 0.322552800214845 
2075	 0.322276184113643 
2076	 0.321952058619334 
2077	 0.321648232475151 
2078	 0.321347778275678 
2079	 0.321106025267797 
2080	 0.320910967699374 
2081	 0.320675215184469 
2082	 0.320486286406957 
2083	 0.320267230278229 
2084	 0.320034333697876 
2085	 0.319799716038527 
2086	 0.319518547128331 
2087	 0.319223649817541 
2088	 0.318955322467765 
2089	 0.318605935692162 
2090	 0.318361438519637 
2091	 0.31827574519497 
2092	 0.318054531770698 
2093	 0.317768776930912 
2094	 0.317516994598456 
2095	 0.317242761387123 
2096	 0.316935991063462 
2097	 0.316604347327505 
2098	 0.316347731450267 
2099	 0.315978975375413 
2100	 0.315640315324288 
2101	 0.31534883880892 
2102	 0.315103839936123 
2103	 0.314824343774393 
2104	 0.314596341201236 
2105	 0.314274012709437 
2106	 0.313899665561278 
2107	 0.313550431432916 
2108	 0.313175760886161 
2109	 0.312768725022627 
2110	 0.312342100147074 
2111	 0.311916759378063 
2112	 0.311406361494589 
2113	 0.3109894913335 
2114	 0.310691524573326 
2115	 0.310305445624066 
2116	 0.309910857123603 
2117	 0.309529882475548 
2118	 0.30905763403599 
2119	 0.308461751980425 
2120	 0.307991527216742 
2121	 0.307503607419114 
2122	 0.30708244145583 
2123	 0.306777598490761 
2124	 0.306371330330706 
2125	 0.305953333830903 
2126	 0.305530080162746 
2127	 0.305009088889847 
2128	 0.304612770026495 
2129	 0.304285610237287 
2130	 0.303947097745009 
2131	 0.303642689489737 
2132	 0.303374063023224 
2133	 0.303072615504095 
2134	 0.302887540864355 
2135	 0.302774679712349 
2136	 0.302625131140926 
2137	 0.30247376204425 
2138	 0.302341197952612 
2139	 0.302171838629449 
2140	 0.301962773584758 
2141	 0.301798049959702 
2142	 0.301572924965755 
2143	 0.301489947917062 
2144	 0.301527768361373 
2145	 0.301509555845993 
2146	 0.301543846684667 
2147	 0.301581310955014 
2148	 0.301520257024298 
2149	 0.301599447916728 
2150	 0.301847908898237 
2151	 0.302010956897042 
2152	 0.302169755777654 
2153	 0.30240024831872 
2154	 0.302556121006633 
2155	 0.302607237533211 
2156	 0.30269429335003 
2157	 0.302774253769013 
2158	 0.302849831961837 
2159	 0.302908537061184 
2160	 0.302966920020814 
2161	 0.303041402978848 
2162	 0.303070511508036 
2163	 0.303041943457931 
2164	 0.303073603706297 
2165	 0.303099543172659 
2166	 0.303146094900101 
2167	 0.303301691728728 
2168	 0.303323106348123 
2169	 0.303240135106981 
2170	 0.30322508721418 
2171	 0.303152079557705 
2172	 0.303119326611759 
2173	 0.303124171925272 
2174	 0.303197491685233 
2175	 0.303211531575315 
2176	 0.303227775975447 
2177	 0.303233217146685 
2178	 0.30320925760512 
2179	 0.303255998594423 
2180	 0.303315338850447 
2181	 0.303405493856289 
2182	 0.303601345685305 
2183	 0.303683463144461 
2184	 0.303736088100339 
2185	 0.303757575483173 
2186	 0.303723208894793 
2187	 0.303691137938876 
2188	 0.303569305523516 
2189	 0.303573539073557 
2190	 0.303649108914099 
2191	 0.303680112628531 
2192	 0.303850591192772 
2193	 0.303868264333055 
2194	 0.30374014568871 
2195	 0.303645440395361 
2196	 0.30350365271204 
2197	 0.303337400178265 
2198	 0.303239736317262 
2199	 0.303153933971 
2200	 0.303006269814921 
2201	 0.302852808831147 
2202	 0.302659413804123 
2203	 0.302398989374825 
2204	 0.302185746159225 
2205	 0.301964765410207 
2206	 0.301752478792469 
2207	 0.301573347779903 
2208	 0.301334737457227 
2209	 0.301068694298026 
2210	 0.3008210020673 
2211	 0.300612671526108 
2212	 0.300265847642982 
2213	 0.29985957740566 
2214	 0.299435733470803 
2215	 0.298805819779976 
2216	 0.298364666132659 
2217	 0.29800262482579 
2218	 0.297688555741072 
2219	 0.297599248626574 
2220	 0.297306158672548 
2221	 0.296950604753487 
2222	 0.296532039447934 
2223	 0.296117413264416 
2224	 0.295685167037061 
2225	 0.295286688697045 
2226	 0.294964898926705 
2227	 0.294452656676043 
2228	 0.29383889406789 
2229	 0.29313257971961 
2230	 0.292311473665002 
2231	 0.291463963962086 
2232	 0.290503158636623 
2233	 0.289526234236163 
2234	 0.288661052081294 
2235	 0.287414818859191 
2236	 0.285992848560491 
2237	 0.284442827006505 
2238	 0.282511678745491 
2239	 0.280707622407732 
2240	 0.278970333090836 
2241	 0.276973221792936 
2242	 0.274857393881763 
2243	 0.272668406208583 
2244	 0.270292919619833 
2245	 0.267865097125671 
2246	 0.26529342094555 
2247	 0.262747039620613 
2248	 0.260165594941038 
2249	 0.25747020236624 
2250	 0.254695695207001 
2251	 0.252079163539229 
2252	 0.248977119556499 
2253	 0.245914411891947 
2254	 0.242965496044951 
2255	 0.239868079056395 
2256	 0.237061575790247 
2257	 0.234301267835283 
2258	 0.231595355314676 
2259	 0.228998482710457 
2260	 0.226327675348214 
2261	 0.223605694128688 
2262	 0.221097911438289 
2263	 0.218588573212841 
2264	 0.216245680431725 
2265	 0.214185332328954 
2266	 0.212039459825453 
2267	 0.209946401491027 
2268	 0.207815880191741 
2269	 0.205665282183248 
2270	 0.203643276077331 
2271	 0.201642071657951 
2272	 0.199716338493777 
2273	 0.197900419505184 
2274	 0.196097512593786 
2275	 0.194414120932113 
2276	 0.192590300119295 
2277	 0.190768082080265 
2278	 0.18893997533535 
2279	 0.186961666784149 
2280	 0.185051182199848 
2281	 0.183250120627375 
2282	 0.181357646227514 
2283	 0.179430359385013 
2284	 0.177480369917387 
2285	 0.175390979438585 
2286	 0.173297143156847 
2287	 0.17111229576187 
2288	 0.168818192562172 
2289	 0.166651823439633 
2290	 0.164425749950874 
2291	 0.162255446079006 
2292	 0.160067604499009 
2293	 0.157794196693572 
2294	 0.155628563195381 
2295	 0.153485842971468 
2296	 0.151549058710508 
2297	 0.149854573548059 
2298	 0.148354386132413 
2299	 0.147084202229998 
2300	 0.146067321730787 
2301	 0.145244754644565 
2302	 0.144647684066373 
2303	 0.144322402132254 
2304	 0.144219564093094 
2305	 0.144411354504345 
2306	 0.144897335358566 
2307	 0.145584588656125 
2308	 0.146663898357597 
2309	 0.14773769306763 
2310	 0.148937003303073 
2311	 0.150384841533225 
2312	 0.152036113004211 
2313	 0.153739601567134 
2314	 0.155758391990681 
2315	 0.157677222016383 
2316	 0.159637118449534 
2317	 0.161470742348887 
2318	 0.163383094143879 
2319	 0.165046793305538 
2320	 0.166653207505031 
2321	 0.167919455964265 
2322	 0.169001210100344 
2323	 0.169751207576245 
2324	 0.169972835661809 
2325	 0.170314220655453 
2326	 0.170508108275984 
2327	 0.170579739285307 
2328	 0.17071605308079 
2329	 0.17051386491454 
2330	 0.170020154845549 
2331	 0.169394335947511 
2332	 0.168550746058595 
2333	 0.167603387667752 
2334	 0.166477418250284 
2335	 0.16540491239072 
2336	 0.164280227322836 
2337	 0.162872229248423 
2338	 0.161573699343384 
2339	 0.160331206988011 
2340	 0.159185454702527 
2341	 0.158116919360959 
2342	 0.156840932672148 
2343	 0.155468089957304 
2344	 0.154286485226838 
2345	 0.153524130642631 
2346	 0.153169145614916 
2347	 0.153171997912935 
2348	 0.15329428607168 
2349	 0.15358957061511 
2350	 0.15424840662206 
2351	 0.155241611560586 
2352	 0.156661259884945 
2353	 0.158253762045187 
2354	 0.159739127650742 
2355	 0.161174542222644 
2356	 0.162266683494647 
2357	 0.163165017198364 
2358	 0.164184079989405 
2359	 0.165098609729822 
2360	 0.165734124315157 
2361	 0.1662141537567 
2362	 0.166577610900509 
2363	 0.166691637466923 
2364	 0.166773450484357 
2365	 0.166787920508066 
2366	 0.166654515967068 
2367	 0.166447503112557 
2368	 0.166404011071596 
2369	 0.166405060790128 
2370	 0.166267277975061 
2371	 0.166406404213171 
2372	 0.166473328063439 
2373	 0.166367483898214 
2374	 0.166284095253537 
2375	 0.166004078972919 
2376	 0.165832420918911 
2377	 0.165721609598969 
2378	 0.165678353474225 
2379	 0.166011425267402 
2380	 0.16611007873328 
2381	 0.166201233743229 
2382	 0.166394618459328 
2383	 0.166524934444309 
2384	 0.166693730381425 
2385	 0.167095203739672 
2386	 0.167243415185976 
2387	 0.167308707942948 
2388	 0.167455159105446 
2389	 0.16748566306998 
2390	 0.167642258214142 
2391	 0.167917231587277 
2392	 0.167996578299784 
2393	 0.167975855794812 
2394	 0.168025171713852 
2395	 0.16809780602285 
2396	 0.168125131795027 
2397	 0.168108304830732 
2398	 0.168250379203222 
2399	 0.168359982864201 
2400	 0.168463107095908 
2401	 0.168722520857362 
2402	 0.16883273451192 
2403	 0.169028216676788 
2404	 0.169160450430395 
2405	 0.169270436090559 
2406	 0.168944576803005 
2407	 0.168502217663048 
2408	 0.168156600128098 
2409	 0.167891710118189 
2410	 0.168239650061933 
2411	 0.16881757111577 
2412	 0.169433228012649 
2413	 0.16971145634316 
2414	 0.169503429921288 
2415	 0.169226855976416 
2416	 0.168739948205244 
2417	 0.168517110788703 
2418	 0.168720108987803 
2419	 0.169096000210707 
2420	 0.169365207501245 
2421	 0.169330339787981 
2422	 0.169305754433204 
2423	 0.169080327545448 
2424	 0.16896537502679 
2425	 0.16934282120261 
2426	 0.169080098483208 
2427	 0.16852625775953 
2428	 0.168659008786633 
2429	 0.168754797123972 
2430	 0.168826205064565 
2431	 0.16872802607699 
2432	 0.168511006529568 
2433	 0.168565861926966 
2434	 0.168702629089835 
2435	 0.169243725189739 
2436	 0.169194981433718 
2437	 0.168250261480953 
2438	 0.167637445413371 
2439	 0.167192197812926 
2440	 0.167255629489913 
2441	 0.167723273605602 
2442	 0.167020784200613 
2443	 0.166363846215019 
2444	 0.166151553316453 
2445	 0.165211274217569 
2446	 0.165255741442233 
2447	 0.166025561332499 
2448	 0.165938870011291 
2449	 0.165627249589128 
2450	 0.165139310583083 
2451	 0.164090815851536 
2452	 0.162917074030528 
2453	 0.162487753631916 
2454	 0.162544498745882 
2455	 0.162333006609965 
2456	 0.162404461315206 
2457	 0.16235601566283 
2458	 0.162119592824818 
2459	 0.161956201574859 
2460	 0.16148946045809 
2461	 0.160872404550935 
2462	 0.159754371836264 
2463	 0.158909349831934 
2464	 0.158127862638968 
2465	 0.157301568502775 
2466	 0.157206929837386 
2467	 0.156723033116052 
2468	 0.156215423300349 
2469	 0.156033889897972 
2470	 0.155863870116709 
2471	 0.155930088972492 
2472	 0.156125831868673 
2473	 0.15653688145182 
2474	 0.156114569541964 
2475	 0.155445103697942 
2476	 0.155521514069599 
2477	 0.154935343343049 
2478	 0.154909907577055 
2479	 0.155950738494369 
2480	 0.155469386680441 
2481	 0.155515296226787 
2482	 0.15516030783177 
2483	 0.155071881620979 
2484	 0.15503243239566 
2485	 0.155044164499214 
2486	 0.155503398142851 
2487	 0.156329476545049 
2488	 0.157934544672946 
2489	 0.158521225838447 
2490	 0.158631181805812 
2491	 0.158592479961632 
2492	 0.157886773232702 
2493	 0.157621335358262 
2494	 0.156699871090519 
2495	 0.156318058382952 
2496	 0.157768390278166 
2497	 0.158931342533406 
2498	 0.160680172222382 
2499	 0.161906816481965 
2500	 0.161807966313879 
