Wavelength	Tablay400001.asd
350	 0.217122678734853 
351	 0.193468491367632 
352	 0.178900829486368 
353	 0.183346969594193 
354	 0.173103791363051 
355	 0.184672601195801 
356	 0.199261024262666 
357	 0.193763533132813 
358	 0.174867265904556 
359	 0.174184789604859 
360	 0.184939321259317 
361	 0.179956317424597 
362	 0.151110342957635 
363	 0.146683983217951 
364	 0.168072079847981 
365	 0.146481272233435 
366	 0.137902119482906 
367	 0.13969488427414 
368	 0.137201560472791 
369	 0.122877359514226 
370	 0.120634503686237 
371	 0.135594217746591 
372	 0.155926208172298 
373	 0.136091906492955 
374	 0.119726722535635 
375	 0.124732019215025 
376	 0.120398251133856 
377	 0.11782690606996 
378	 0.117310895565428 
379	 0.11523577598311 
380	 9.98432885933906E-02 
381	 0.10822964648799 
382	 0.124099228199857 
383	 0.106595017070946 
384	 9.59144415296694E-02 
385	 0.096277475774534 
386	 0.104937955221185 
387	 0.11650386475923 
388	 0.110288302247785 
389	 9.99274276545417E-02 
390	 0.101406762891811 
391	 0.101591772538003 
392	 0.103215788250873 
393	 0.101963096556453 
394	 0.090787585921761 
395	 8.23832960689918E-02 
396	 0.085766835123603 
397	 9.64967028160823E-02 
398	 8.97653834536661E-02 
399	 8.52462096703113E-02 
400	 8.55442121515197E-02 
401	 8.73571744952151E-02 
402	 8.48303190261673E-02 
403	 8.19735191373525E-02 
404	 8.03773313459488E-02 
405	 7.95347981718257E-02 
406	 0.081526750714412 
407	 7.98953841618471E-02 
408	 7.39402957323714E-02 
409	 7.59923231554147E-02 
410	 0.075067350195522 
411	 7.24653634440118E-02 
412	 7.23144757903748E-02 
413	 7.23731428451754E-02 
414	 7.35650265084691E-02 
415	 7.44382959841797E-02 
416	 0.071779099339533 
417	 7.09412070328779E-02 
418	 7.03209824645556E-02 
419	 6.86992518430369E-02 
420	 6.86873706276619E-02 
421	 6.73090794180623E-02 
422	 6.69043438075917E-02 
423	 7.01854363155415E-02 
424	 6.83393479300927E-02 
425	 6.72339077905911E-02 
426	 0.068212107759221 
427	 6.65649126783664E-02 
428	 6.59248563021373E-02 
429	 6.50213372256307E-02 
430	 6.30558282649501E-02 
431	 6.38335179856964E-02 
432	 6.34719527883008E-02 
433	 6.31352612374477E-02 
434	 6.58414048545432E-02 
435	 6.52545422611754E-02 
436	 6.35303177337673E-02 
437	 6.29240780543067E-02 
438	 6.45418165180198E-02 
439	 6.47680669996158E-02 
440	 6.42362253904929E-02 
441	 6.42922243980088E-02 
442	 6.36633096257693E-02 
443	 6.37085272026124E-02 
444	 6.43874552246343E-02 
445	 6.45369685473429E-02 
446	 6.35808051076951E-02 
447	 6.28243510253766E-02 
448	 6.30887709308354E-02 
449	 6.36871347966226E-02 
450	 6.38448861382503E-02 
451	 6.35423339206398E-02 
452	 6.31462221888734E-02 
453	 6.31275953737297E-02 
454	 6.29332499556122E-02 
455	 0.062635487981849 
456	 6.30008708607849E-02 
457	 6.22365807648657E-02 
458	 6.19359789406695E-02 
459	 6.30392440281898E-02 
460	 0.062584352574145 
461	 6.16339860009478E-02 
462	 6.12979085730472E-02 
463	 6.23249209668331E-02 
464	 6.22616422992013E-02 
465	 6.14645623984444E-02 
466	 6.06469689550423E-02 
467	 6.05391263152618E-02 
468	 6.07970363333671E-02 
469	 6.09322483816605E-02 
470	 6.05958702522852E-02 
471	 6.01269558246407E-02 
472	 5.98619133922802E-02 
473	 5.99306819678153E-02 
474	 6.02640378088421E-02 
475	 6.05343449076857E-02 
476	 6.01998419624113E-02 
477	 0.059402609361386 
478	 5.98240581291005E-02 
479	 0.059830425319215 
480	 5.95484785365419E-02 
481	 5.96240487071623E-02 
482	 5.95583818075519E-02 
483	 5.95367185206309E-02 
484	 5.96721616755477E-02 
485	 5.99459930351386E-02 
486	 6.02104974693079E-02 
487	 6.02054236415764E-02 
488	 5.99776298802946E-02 
489	 6.06312952364142E-02 
490	 6.03938570282281E-02 
491	 5.98179482939519E-02 
492	 6.05217283459183E-02 
493	 6.06571846100809E-02 
494	 6.09848072165619E-02 
495	 6.17487377781764E-02 
496	 6.18909069033636E-02 
497	 6.20568603018372E-02 
498	 6.21827733320943E-02 
499	 6.21297906417018E-02 
500	 6.23049589975774E-02 
501	 6.27215909798074E-02 
502	 0.063231789955751 
503	 6.35868145100804E-02 
504	 6.40194851830089E-02 
505	 6.42773346329154E-02 
506	 6.43431385163265E-02 
507	 0.064920025834939 
508	 6.57690823667373E-02 
509	 6.65066866164957E-02 
510	 6.68157832614024E-02 
511	 6.73602358596051E-02 
512	 6.78608615801479E-02 
513	 6.83209547088042E-02 
514	 6.92002290483357E-02 
515	 6.98504435063423E-02 
516	 7.03963173040129E-02 
517	 7.10723670132807E-02 
518	 7.17669372739381E-02 
519	 7.25046229714449E-02 
520	 0.073336610051448 
521	 7.43101595677046E-02 
522	 7.52235578739001E-02 
523	 7.61640998703894E-02 
524	 7.72149351017912E-02 
525	 7.83941073316339E-02 
526	 7.95035549587668E-02 
527	 8.05623989153273E-02 
528	 8.16913700430742E-02 
529	 8.30930546192886E-02 
530	 8.43334726593751E-02 
531	 8.55121281237478E-02 
532	 8.72830146298352E-02 
533	 8.88420531415702E-02 
534	 9.03517445695558E-02 
535	 9.20498138753661E-02 
536	 9.37638131460128E-02 
537	 9.56669165260941E-02 
538	 9.76533142303432E-02 
539	 9.95087597193184E-02 
540	 0.101502053690403 
541	 0.103529175147393 
542	 0.105568632437009 
543	 0.107794522727307 
544	 0.110066776295755 
545	 0.112311766574305 
546	 0.11452124103793 
547	 0.116879534736893 
548	 0.119257179418523 
549	 0.121623309821875 
550	 0.124043562583878 
551	 0.126538727892775 
552	 0.129030576288699 
553	 0.131486012859212 
554	 0.134020130783718 
555	 0.136585212144901 
556	 0.139158025530019 
557	 0.14171153843408 
558	 0.144147537230614 
559	 0.14655152778305 
560	 0.148953958285802 
561	 0.151285668786499 
562	 0.153550111067457 
563	 0.155697592059258 
564	 0.157727258320046 
565	 0.159846992386434 
566	 0.161935539741909 
567	 0.163921657383088 
568	 0.165797461532231 
569	 0.167800124906727 
570	 0.169784810417691 
571	 0.171625188635089 
572	 0.173348415027281 
573	 0.175093227541515 
574	 0.1767223444404 
575	 0.178066873575548 
576	 0.179434823731229 
577	 0.180746842618914 
578	 0.181950338519597 
579	 0.18305255596891 
580	 0.184046584651239 
581	 0.185019751058258 
582	 0.186012228034263 
583	 0.186846224169488 
584	 0.187701608822125 
585	 0.188532952667246 
586	 0.189188442060679 
587	 0.189851585544661 
588	 0.190395302135424 
589	 0.190811062038246 
590	 0.191335699041304 
591	 0.191848199150791 
592	 0.192285168825123 
593	 0.192630847219747 
594	 0.193010199300984 
595	 0.19333282206579 
596	 0.193580725058312 
597	 0.193799715205474 
598	 0.193883245834306 
599	 0.193868908737556 
600	 0.193822090645538 
601	 0.193822496428557 
602	 0.193692980591421 
603	 0.193466418552684 
604	 0.193267492915169 
605	 0.193145727953479 
606	 0.192968144775357 
607	 0.192713889218314 
608	 0.19251793303844 
609	 0.192267172679581 
610	 0.19196562369918 
611	 0.191647805569207 
612	 0.191334306539111 
613	 0.191149450188613 
614	 0.190967968168668 
615	 0.190542384514292 
616	 0.190139254533648 
617	 0.18981234292792 
618	 0.189560281418016 
619	 0.189346164104601 
620	 0.189062918707924 
621	 0.188755276656268 
622	 0.188486948675391 
623	 0.188126129428044 
624	 0.187782997500791 
625	 0.187532740911805 
626	 0.187392708936553 
627	 0.187117371516092 
628	 0.186778918012854 
629	 0.186492033213386 
630	 0.186328913521142 
631	 0.186097099346502 
632	 0.185807039946543 
633	 0.185567438564532 
634	 0.185457270712321 
635	 0.185299639987289 
636	 0.18505581780231 
637	 0.184883133456446 
638	 0.184797084575424 
639	 0.184713405319969 
640	 0.184567228272928 
641	 0.184447629554164 
642	 0.184339022752755 
643	 0.184263679515429 
644	 0.184248957587648 
645	 0.184153353007104 
646	 0.184064275383469 
647	 0.184036676836095 
648	 0.184028098927532 
649	 0.183992161718663 
650	 0.183990454226392 
651	 0.184078553237464 
652	 0.184142449348657 
653	 0.184162835094624 
654	 0.184182439845496 
655	 0.184284508763422 
656	 0.18442156940828 
657	 0.18455517581701 
658	 0.184678511936804 
659	 0.184852674112734 
660	 0.184992999595034 
661	 0.18512693984438 
662	 0.185314299575464 
663	 0.185543429652272 
664	 0.185783945117152 
665	 0.186044369422199 
666	 0.186367347465706 
667	 0.186620148340139 
668	 0.18686041239363 
669	 0.187156471479067 
670	 0.187498125225971 
671	 0.187912127551524 
672	 0.188338039046824 
673	 0.188697289430142 
674	 0.189074109389931 
675	 0.189488475199876 
676	 0.189935066714405 
677	 0.190386263040457 
678	 0.190851498004853 
679	 0.191341778400538 
680	 0.191853289496078 
681	 0.192330504069074 
682	 0.192848007448364 
683	 0.193428657285277 
684	 0.19405335163347 
685	 0.194627448698125 
686	 0.195216525200442 
687	 0.195854377210004 
688	 0.196505146821054 
689	 0.197249775123355 
690	 0.19797554891849 
691	 0.198597015575422 
692	 0.199289298774968 
693	 0.200043136906454 
694	 0.200822798962804 
695	 0.201583303571937 
696	 0.202367198531085 
697	 0.203167721825124 
698	 0.20398662406036 
699	 0.204848835114692 
700	 0.205750504547118 
701	 0.206643793617036 
702	 0.207492866180167 
703	 0.208342138173052 
704	 0.209237967264451 
705	 0.210196126829525 
706	 0.211197130054556 
707	 0.212129496964147 
708	 0.213047432124119 
709	 0.213997692945444 
710	 0.214971801118548 
711	 0.21596537062523 
712	 0.216963426482813 
713	 0.21795001112226 
714	 0.218914979747811 
715	 0.21989381649827 
716	 0.220919608523768 
717	 0.222004917968249 
718	 0.223000807536377 
719	 0.223984051818224 
720	 0.225009941390845 
721	 0.226044653538564 
722	 0.227044969982976 
723	 0.228035068312447 
724	 0.229047978575463 
725	 0.230062656085479 
726	 0.231082011188139 
727	 0.232075278729856 
728	 0.233002553196258 
729	 0.233991107633284 
730	 0.234922637828447 
731	 0.235772855526407 
732	 0.236724057909586 
733	 0.23768028704618 
734	 0.238591048229219 
735	 0.239441482726366 
736	 0.240302565913453 
737	 0.241123981021152 
738	 0.241890554666237 
739	 0.242615316932917 
740	 0.24334620472354 
741	 0.244031786135326 
742	 0.244658553766048 
743	 0.245288825915418 
744	 0.245850823593416 
745	 0.246402420512357 
746	 0.24698812370234 
747	 0.247492894472807 
748	 0.247959655482134 
749	 0.248400671802599 
750	 0.248809690345292 
751	 0.24917796913301 
752	 0.249548396318711 
753	 0.249906297153112 
754	 0.25016081305221 
755	 0.250421958482674 
756	 0.250645642880889 
757	 0.250797661692903 
758	 0.250981118483684 
759	 0.251094203451598 
760	 0.251139764226197 
761	 0.2511675434873 
762	 0.251176163848332 
763	 0.251157285738796 
764	 0.251105671547616 
765	 0.251020485387259 
766	 0.250892528992104 
767	 0.250745282613949 
768	 0.250573114098866 
769	 0.250282736881247 
770	 0.249996394548516 
771	 0.249734214432139 
772	 0.249463436775243 
773	 0.249107380480839 
774	 0.248699490105 
775	 0.248278618420476 
776	 0.247877503223088 
777	 0.247471731517877 
778	 0.247019383986149 
779	 0.24650303978568 
780	 0.245949364181026 
781	 0.24539237997283 
782	 0.244831668270473 
783	 0.244250951656479 
784	 0.243625125398982 
785	 0.242989799244167 
786	 0.242337249047562 
787	 0.241643936352566 
788	 0.240960870380323 
789	 0.240251609773027 
790	 0.239529372666885 
791	 0.238866166451123 
792	 0.238084978302389 
793	 0.237305423168762 
794	 0.236609303331789 
795	 0.23583494185988 
796	 0.235084634928275 
797	 0.234337376686304 
798	 0.233538958053608 
799	 0.232691345340755 
800	 0.231888666424447 
801	 0.231126953500233 
802	 0.230330423085368 
803	 0.229556720574612 
804	 0.228762828383611 
805	 0.227940313675594 
806	 0.227148808329809 
807	 0.226321276431027 
808	 0.225506794287012 
809	 0.224744324681805 
810	 0.22395917005476 
811	 0.223177939103032 
812	 0.222372999859304 
813	 0.221514480264897 
814	 0.220689378466379 
815	 0.219871936949304 
816	 0.219079155877524 
817	 0.218356311939646 
818	 0.217551484337331 
819	 0.216726423557095 
820	 0.215930246809737 
821	 0.215134114328464 
822	 0.214360420895794 
823	 0.213607937822695 
824	 0.21285902652934 
825	 0.212062634833243 
826	 0.21131236723298 
827	 0.210583224376722 
828	 0.209809916380989 
829	 0.209037950195153 
830	 0.208306890767863 
831	 0.20761909509267 
832	 0.206938365154094 
833	 0.206182041491903 
834	 0.205441143911831 
835	 0.204761488280531 
836	 0.204076706836637 
837	 0.203444884449887 
838	 0.202817748418261 
839	 0.202152859406115 
840	 0.201496074804797 
841	 0.200840472687311 
842	 0.200210121167031 
843	 0.199623322639687 
844	 0.199021678222095 
845	 0.198401491097165 
846	 0.197782905999678 
847	 0.197202105515279 
848	 0.196692801449118 
849	 0.196183852844486 
850	 0.19564808259489 
851	 0.195130869293657 
852	 0.194666611463157 
853	 0.194206865592787 
854	 0.19371060642167 
855	 0.193186358070407 
856	 0.19274549749763 
857	 0.192347707777177 
858	 0.191922102690889 
859	 0.191488648597995 
860	 0.191026470470878 
861	 0.19058681067913 
862	 0.190220910525978 
863	 0.189741143731172 
864	 0.189346980761361 
865	 0.189060549523675 
866	 0.188731692386812 
867	 0.188338549443508 
868	 0.187958125124077 
869	 0.187627125488698 
870	 0.187305217852347 
871	 0.187009444057081 
872	 0.186712321513922 
873	 0.186392797829701 
874	 0.186057379850869 
875	 0.185805572090899 
876	 0.18556898899561 
877	 0.185269829864817 
878	 0.185001626597289 
879	 0.184751197659018 
880	 0.184517890135464 
881	 0.184303883764481 
882	 0.184106604198513 
883	 0.183862263007635 
884	 0.183607318182767 
885	 0.183442325544836 
886	 0.183323127067534 
887	 0.183144773710644 
888	 0.182925176917314 
889	 0.182815318828849 
890	 0.182667869066151 
891	 0.182498587685693 
892	 0.182351458295665 
893	 0.182265402304837 
894	 0.182144615287463 
895	 0.182008730042091 
896	 0.181913349391031 
897	 0.181934571848693 
898	 0.18186701316511 
899	 0.181760193622292 
900	 0.181728771059442 
901	 0.181763669683568 
902	 0.181796523154599 
903	 0.181759042297159 
904	 0.181643754859562 
905	 0.18171996357566 
906	 0.18176811987234 
907	 0.181762035820005 
908	 0.181821585997874 
909	 0.181885682327334 
910	 0.181955388068833 
911	 0.182019755821172 
912	 0.182060391790588 
913	 0.182167822773319 
914	 0.182299593598678 
915	 0.182404707272764 
916	 0.182456340615459 
917	 0.182511953554594 
918	 0.182603707065819 
919	 0.182716882227652 
920	 0.182766008153928 
921	 0.182872014810773 
922	 0.183047960843682 
923	 0.183245127205674 
924	 0.183338787727151 
925	 0.183498208235914 
926	 0.183683982747542 
927	 0.183824362788449 
928	 0.183979071017982 
929	 0.18419481922459 
930	 0.184394128443971 
931	 0.184491643306784 
932	 0.184599842906949 
933	 0.184786750146735 
934	 0.184999736890788 
935	 0.185147060080213 
936	 0.185311780177925 
937	 0.185530358111265 
938	 0.185735217751308 
939	 0.185844794834432 
940	 0.186178022089336 
941	 0.186454690015385 
942	 0.186622962284246 
943	 0.186859145117466 
944	 0.187105398068151 
945	 0.187297630246689 
946	 0.18747490687459 
947	 0.187767263174642 
948	 0.188088972314623 
949	 0.188361333197284 
950	 0.188590009808242 
951	 0.188876415704924 
952	 0.189175358006218 
953	 0.189413712406029 
954	 0.189621362524097 
955	 0.189970755224947 
956	 0.190347232838696 
957	 0.190662757367434 
958	 0.190907014458692 
959	 0.191187534436764 
960	 0.191490135507599 
961	 0.191888507757548 
962	 0.192356289158801 
963	 0.192654653031539 
964	 0.192862417487542 
965	 0.193148971135962 
966	 0.193598983522417 
967	 0.194059040157687 
968	 0.194426399822498 
969	 0.194811872546442 
970	 0.195284865224049 
971	 0.195640836257211 
972	 0.195993915942245 
973	 0.196322615242625 
974	 0.196648035017464 
975	 0.197216967322616 
976	 0.197777475537958 
977	 0.19820079550568 
978	 0.198478527955147 
979	 0.198778678999809 
980	 0.199388302534665 
981	 0.199997739251443 
982	 0.200311043779064 
983	 0.200799932911472 
984	 0.201110534368052 
985	 0.201474231002061 
986	 0.20212404501505 
987	 0.202612492588669 
988	 0.203170947931835 
989	 0.20367545493655 
990	 0.203998936572523 
991	 0.20440814293705 
992	 0.204942867544675 
993	 0.205479637370832 
994	 0.205915453643295 
995	 0.206459141476857 
996	 0.206883120295519 
997	 0.207167069847225 
998	 0.207488971216629 
999	 0.208406924891711 
1000	 0.208936012686131 
1001	 0.201741015679194 
1002	 0.20217976925311 
1003	 0.202601798948379 
1004	 0.20302097397609 
1005	 0.203419905534362 
1006	 0.203881900297794 
1007	 0.204345286892546 
1008	 0.204846845936641 
1009	 0.205396464519242 
1010	 0.205922561909919 
1011	 0.206503186384435 
1012	 0.207023472569181 
1013	 0.20747553106827 
1014	 0.207984063836663 
1015	 0.208511834789461 
1016	 0.208954948348437 
1017	 0.209548254749082 
1018	 0.210219022120384 
1019	 0.210737406445365 
1020	 0.211235098554734 
1021	 0.211778906267276 
1022	 0.212262431955094 
1023	 0.21280837600149 
1024	 0.213414807199536 
1025	 0.21405037565703 
1026	 0.214705405770513 
1027	 0.215317935401921 
1028	 0.215954216404888 
1029	 0.216632036221054 
1030	 0.217206564462777 
1031	 0.217824116890349 
1032	 0.218469044609308 
1033	 0.219130663138673 
1034	 0.219863668302429 
1035	 0.22058367820698 
1036	 0.221294156396727 
1037	 0.222030471877945 
1038	 0.222770051795873 
1039	 0.223500726671432 
1040	 0.224230085347474 
1041	 0.224990371562964 
1042	 0.225732851847856 
1043	 0.226472821163798 
1044	 0.227145047403256 
1045	 0.227839759251724 
1046	 0.228550672545288 
1047	 0.229225015289522 
1048	 0.22996455605128 
1049	 0.230666944479594 
1050	 0.231397352479287 
1051	 0.232235541852085 
1052	 0.232938188278498 
1053	 0.233687929614171 
1054	 0.234533549741713 
1055	 0.235289713819109 
1056	 0.235953348796363 
1057	 0.236716060773511 
1058	 0.237523235633654 
1059	 0.23822632746398 
1060	 0.239026111883324 
1061	 0.239779047275101 
1062	 0.240530421197165 
1063	 0.241316280033879 
1064	 0.242011256585086 
1065	 0.242759796176528 
1066	 0.243472421903013 
1067	 0.244148721662173 
1068	 0.244940484779918 
1069	 0.245703053384073 
1070	 0.246496418787468 
1071	 0.24731843185125 
1072	 0.248186231438651 
1073	 0.248977911093022 
1074	 0.24978815152084 
1075	 0.250563390895546 
1076	 0.25131530381042 
1077	 0.25214235099682 
1078	 0.252951542814942 
1079	 0.253794032456363 
1080	 0.254646898892861 
1081	 0.255416578965646 
1082	 0.256210069345755 
1083	 0.257058203759374 
1084	 0.257902428794736 
1085	 0.258806193618166 
1086	 0.259691055529786 
1087	 0.260604305664598 
1088	 0.261436001660665 
1089	 0.262267438348496 
1090	 0.26308312458243 
1091	 0.263937906434639 
1092	 0.264825585077576 
1093	 0.265701557525033 
1094	 0.2666626945346 
1095	 0.267589524959507 
1096	 0.268516492812313 
1097	 0.269471410097041 
1098	 0.270353385791903 
1099	 0.27126160147267 
1100	 0.272141989369806 
1101	 0.273048755704445 
1102	 0.274046620563541 
1103	 0.275009940737022 
1104	 0.27594927735892 
1105	 0.276958830749038 
1106	 0.277988717702232 
1107	 0.278923788855385 
1108	 0.279927910874923 
1109	 0.280876208270509 
1110	 0.281774602901577 
1111	 0.282797661524001 
1112	 0.283758742674528 
1113	 0.284776389285127 
1114	 0.285867503407787 
1115	 0.286836171752669 
1116	 0.287845877974874 
1117	 0.288850231223491 
1118	 0.28986675848801 
1119	 0.29089683301811 
1120	 0.29193277928361 
1121	 0.292963748385783 
1122	 0.294049241278029 
1123	 0.295106634616989 
1124	 0.296101911401691 
1125	 0.297154471551104 
1126	 0.298140944023714 
1127	 0.299140485861765 
1128	 0.300198351300483 
1129	 0.301176538781444 
1130	 0.302219611320543 
1131	 0.303258955248659 
1132	 0.304222460036853 
1133	 0.305273885687885 
1134	 0.306274621633669 
1135	 0.307264866896981 
1136	 0.30825266300947 
1137	 0.309246611146737 
1138	 0.310210487196864 
1139	 0.311206983663766 
1140	 0.312252962176214 
1141	 0.313200889951448 
1142	 0.314164237833081 
1143	 0.315088967552429 
1144	 0.315988133563429 
1145	 0.31694250426171 
1146	 0.317828225611019 
1147	 0.318773551592151 
1148	 0.319688239617448 
1149	 0.320483053779139 
1150	 0.321363312081713 
1151	 0.322211986786102 
1152	 0.323078405736238 
1153	 0.32398565712764 
1154	 0.324857141250541 
1155	 0.325720767566942 
1156	 0.326567741342687 
1157	 0.327379606394612 
1158	 0.328185572171237 
1159	 0.329000031373823 
1160	 0.329771306385605 
1161	 0.330544171712086 
1162	 0.331329370726253 
1163	 0.332025995060815 
1164	 0.332759158084421 
1165	 0.333516469621983 
1166	 0.334201221610896 
1167	 0.334929315181773 
1168	 0.335666664743026 
1169	 0.336375470534802 
1170	 0.337054279310482 
1171	 0.337743432794431 
1172	 0.338441606387249 
1173	 0.339112108369145 
1174	 0.339777777727951 
1175	 0.340396456116423 
1176	 0.340958073807909 
1177	 0.341551246988763 
1178	 0.342125733863978 
1179	 0.342724480535134 
1180	 0.343306087484635 
1181	 0.343879733818985 
1182	 0.344434477722405 
1183	 0.344935438186332 
1184	 0.345447575059445 
1185	 0.345985382164023 
1186	 0.346515271494206 
1187	 0.347051457171602 
1188	 0.347557037870951 
1189	 0.348059057261126 
1190	 0.348547710373452 
1191	 0.349000508261578 
1192	 0.349460784820323 
1193	 0.349921664184271 
1194	 0.350382687122509 
1195	 0.350833075473987 
1196	 0.351291536985913 
1197	 0.351746386368413 
1198	 0.352237041468184 
1199	 0.352700638285363 
1200	 0.353140981009878 
1201	 0.353613199736441 
1202	 0.354032084425129 
1203	 0.354473672149599 
1204	 0.354978324641421 
1205	 0.355449541340561 
1206	 0.355927939476217 
1207	 0.356403787812312 
1208	 0.35685459034615 
1209	 0.357337953045194 
1210	 0.3578295231374 
1211	 0.358346546998429 
1212	 0.358895535836309 
1213	 0.359446938571274 
1214	 0.359996653204231 
1215	 0.360585795079053 
1216	 0.36121339609839 
1217	 0.36182213995381 
1218	 0.362449615641062 
1219	 0.363084985328638 
1220	 0.363695690817277 
1221	 0.364347963628935 
1222	 0.364960543472971 
1223	 0.365562802598936 
1224	 0.366159470784322 
1225	 0.36673014969577 
1226	 0.367288323519704 
1227	 0.367840865526899 
1228	 0.368395713984085 
1229	 0.368942377584074 
1230	 0.369467931121277 
1231	 0.369994468668237 
1232	 0.370511037707361 
1233	 0.371006149826282 
1234	 0.371478022161334 
1235	 0.371945516535468 
1236	 0.37239973163524 
1237	 0.372833789737845 
1238	 0.373239622087677 
1239	 0.37361536514119 
1240	 0.373998901965165 
1241	 0.374401113188938 
1242	 0.374757377915672 
1243	 0.375129339263176 
1244	 0.375526984934809 
1245	 0.37590176737341 
1246	 0.37624297127945 
1247	 0.376614141207948 
1248	 0.377004098925324 
1249	 0.377381370833428 
1250	 0.377767407329779 
1251	 0.378130283130737 
1252	 0.378463135919452 
1253	 0.378835012518977 
1254	 0.379208623803033 
1255	 0.379590902035351 
1256	 0.380024015779556 
1257	 0.380418190885817 
1258	 0.380799115826284 
1259	 0.381164456235262 
1260	 0.381493223521143 
1261	 0.381843029235487 
1262	 0.382184697188484 
1263	 0.382538585848188 
1264	 0.382900995292583 
1265	 0.383290866923093 
1266	 0.383644046743431 
1267	 0.384011360134857 
1268	 0.384306786629494 
1269	 0.384539602469792 
1270	 0.384813674904579 
1271	 0.385060572639435 
1272	 0.385319293966813 
1273	 0.385632261580491 
1274	 0.385871498072867 
1275	 0.386074023897644 
1276	 0.386251982348221 
1277	 0.386368989742149 
1278	 0.386513547843823 
1279	 0.386645745392455 
1280	 0.386779641699756 
1281	 0.386929826064015 
1282	 0.387066935063431 
1283	 0.387212567409553 
1284	 0.387319668031706 
1285	 0.387405410082863 
1286	 0.387472932417528 
1287	 0.387537167314044 
1288	 0.387565242582206 
1289	 0.38761903780606 
1290	 0.387680788618318 
1291	 0.387743464137853 
1292	 0.387825229449291 
1293	 0.38785970701567 
1294	 0.387862893428916 
1295	 0.387898496264241 
1296	 0.387903105532466 
1297	 0.387947424024587 
1298	 0.388061609914117 
1299	 0.388117494479804 
1300	 0.388145545058989 
1301	 0.388185820155401 
1302	 0.388201536779171 
1303	 0.388237084161659 
1304	 0.388277830496711 
1305	 0.388339203554023 
1306	 0.388413000429396 
1307	 0.388496003482256 
1308	 0.388597743915666 
1309	 0.388714477312139 
1310	 0.388818066057608 
1311	 0.388925908510095 
1312	 0.389019354677654 
1313	 0.389089080031582 
1314	 0.389206672698576 
1315	 0.389339035112572 
1316	 0.389466997060258 
1317	 0.389623404821453 
1318	 0.389767570386609 
1319	 0.389890930544983 
1320	 0.390036558716798 
1321	 0.390209262513921 
1322	 0.390361559514316 
1323	 0.390491176434314 
1324	 0.390654492763201 
1325	 0.39082092026458 
1326	 0.391004682414055 
1327	 0.391230907756393 
1328	 0.391435263517196 
1329	 0.391643757827371 
1330	 0.39183767070157 
1331	 0.392020609393421 
1332	 0.392197559839145 
1333	 0.392342146902182 
1334	 0.392520560994965 
1335	 0.392698563543736 
1336	 0.392874677633769 
1337	 0.393067413016681 
1338	 0.393284616685696 
1339	 0.393474995666917 
1340	 0.393677001991791 
1341	 0.393835984205754 
1342	 0.393956945602202 
1343	 0.394105900261478 
1344	 0.394249738840496 
1345	 0.394381550649178 
1346	 0.39452652878237 
1347	 0.394651024223305 
1348	 0.39475683192131 
1349	 0.394849253672187 
1350	 0.394931680656977 
1351	 0.395013165768706 
1352	 0.395071425291872 
1353	 0.395137076940824 
1354	 0.39521019777405 
1355	 0.395278195410098 
1356	 0.395349900662342 
1357	 0.395405402279193 
1358	 0.395447828109249 
1359	 0.395495354093627 
1360	 0.395534630618649 
1361	 0.39556477998941 
1362	 0.395615244296394 
1363	 0.39568556607495 
1364	 0.395738000485184 
1365	 0.395795250866661 
1366	 0.39583504345683 
1367	 0.395872637143509 
1368	 0.395879458660289 
1369	 0.395865691508383 
1370	 0.395854109053964 
1371	 0.395817051716064 
1372	 0.395792825263481 
1373	 0.395805520815326 
1374	 0.395742149346432 
1375	 0.39564499822567 
1376	 0.395535343102643 
1377	 0.395379536282594 
1378	 0.395217213646101 
1379	 0.395042529372143 
1380	 0.394863858131059 
1381	 0.394651382512157 
1382	 0.394458256783355 
1383	 0.394277259958968 
1384	 0.394087773594344 
1385	 0.393906057321489 
1386	 0.393706831641222 
1387	 0.39349394237037 
1388	 0.393288113508138 
1389	 0.393075584250917 
1390	 0.392862392652419 
1391	 0.392669188725509 
1392	 0.392444763826054 
1393	 0.392200794870937 
1394	 0.391952704076053 
1395	 0.391739009638677 
1396	 0.391524365011422 
1397	 0.391336223081043 
1398	 0.391198908580093 
1399	 0.391013911009051 
1400	 0.390818922227363 
1401	 0.390614615021518 
1402	 0.390418134828244 
1403	 0.39015892255581 
1404	 0.389900213256153 
1405	 0.38955606436642 
1406	 0.389152027441069 
1407	 0.388693768855821 
1408	 0.38816658324405 
1409	 0.387612528427836 
1410	 0.387013343516517 
1411	 0.386367878738098 
1412	 0.385639830796366 
1413	 0.384965111884086 
1414	 0.384199599157975 
1415	 0.38357383722403 
1416	 0.383013560050971 
1417	 0.382515482270303 
1418	 0.382096121041357 
1419	 0.381736468639443 
1420	 0.381444110258103 
1421	 0.381200026110225 
1422	 0.381077984777469 
1423	 0.380906526039016 
1424	 0.380757287792532 
1425	 0.380601977227941 
1426	 0.38040635941006 
1427	 0.380170278001233 
1428	 0.379880535899019 
1429	 0.379560238612504 
1430	 0.379193779646427 
1431	 0.378767471629256 
1432	 0.378331245944757 
1433	 0.377847646714203 
1434	 0.377389762570366 
1435	 0.376900129671724 
1436	 0.376452890467057 
1437	 0.376023902533678 
1438	 0.375619165168881 
1439	 0.375231917105006 
1440	 0.374860067795334 
1441	 0.374512821238103 
1442	 0.374173072552393 
1443	 0.373824531493086 
1444	 0.373536264442722 
1445	 0.373229995448523 
1446	 0.373061229722469 
1447	 0.372933784769793 
1448	 0.372953037124403 
1449	 0.373093235644178 
1450	 0.373334883726491 
1451	 0.373712642713327 
1452	 0.37415028084888 
1453	 0.374732950090437 
1454	 0.375294705860272 
1455	 0.375944075038756 
1456	 0.376549884280338 
1457	 0.377179383249998 
1458	 0.377754896203448 
1459	 0.378273035569835 
1460	 0.378815532504542 
1461	 0.379300544377773 
1462	 0.379841477055011 
1463	 0.380421263415369 
1464	 0.381019639273363 
1465	 0.38162067020882 
1466	 0.382306290743078 
1467	 0.382984043743303 
1468	 0.383664689922193 
1469	 0.384338061482973 
1470	 0.384926920675624 
1471	 0.385487089333259 
1472	 0.385995590987087 
1473	 0.386480384850438 
1474	 0.386921734380022 
1475	 0.387356516190962 
1476	 0.387761300166084 
1477	 0.388153761394657 
1478	 0.388546628779333 
1479	 0.388871392515803 
1480	 0.389145208906186 
1481	 0.389425074440832 
1482	 0.389659714497072 
1483	 0.389906949204687 
1484	 0.390168546158078 
1485	 0.390395917369897 
1486	 0.390592335495576 
1487	 0.390793453613951 
1488	 0.390969050891734 
1489	 0.391173234035833 
1490	 0.3913529335333 
1491	 0.391608658244484 
1492	 0.391917249055417 
1493	 0.39222759161234 
1494	 0.39259546304475 
1495	 0.392941015418614 
1496	 0.393260416826346 
1497	 0.393625127957691 
1498	 0.394028263109601 
1499	 0.39441485831864 
1500	 0.394825430019251 
1501	 0.395222280846297 
1502	 0.395612903881417 
1503	 0.3959848841054 
1504	 0.396364301716213 
1505	 0.396710822937995 
1506	 0.397019756629533 
1507	 0.397328749188336 
1508	 0.397631847614772 
1509	 0.397908516998624 
1510	 0.39816811473452 
1511	 0.398412377217337 
1512	 0.398631440389086 
1513	 0.398838175492094 
1514	 0.399034100138064 
1515	 0.399215772437097 
1516	 0.399357851931285 
1517	 0.399521378868762 
1518	 0.399685929425311 
1519	 0.399852338157307 
1520	 0.400033668223285 
1521	 0.400215346852448 
1522	 0.400375446641892 
1523	 0.400545918496522 
1524	 0.400680554552972 
1525	 0.40079349865879 
1526	 0.400915848350088 
1527	 0.401021841742736 
1528	 0.401129693157555 
1529	 0.401250158282152 
1530	 0.401338872192684 
1531	 0.401399886297854 
1532	 0.401481533769815 
1533	 0.40156059811411 
1534	 0.401636234241339 
1535	 0.401709892437779 
1536	 0.401800156997563 
1537	 0.401887544716828 
1538	 0.401986794723248 
1539	 0.402102082501397 
1540	 0.402228854916734 
1541	 0.402350022318744 
1542	 0.402506071327228 
1543	 0.40268608448057 
1544	 0.402888216633552 
1545	 0.403114303875753 
1546	 0.403351912086683 
1547	 0.403620545016677 
1548	 0.403881287400098 
1549	 0.404138714572537 
1550	 0.404426162470304 
1551	 0.404722490419336 
1552	 0.40504465697591 
1553	 0.405408179459906 
1554	 0.405751663546322 
1555	 0.406110907298253 
1556	 0.406450149074391 
1557	 0.406764347153009 
1558	 0.407107917468187 
1559	 0.407468725699554 
1560	 0.407807221638104 
1561	 0.408156049025896 
1562	 0.408488345548643 
1563	 0.408794128071924 
1564	 0.409105391768214 
1565	 0.40941929469265 
1566	 0.40972728974055 
1567	 0.410028375832142 
1568	 0.410323274193245 
1569	 0.410634571927527 
1570	 0.410900940438132 
1571	 0.411120398310111 
1572	 0.411369862240657 
1573	 0.411610167754136 
1574	 0.411847807649176 
1575	 0.412117155371554 
1576	 0.412347145283466 
1577	 0.412530254698211 
1578	 0.412740910416463 
1579	 0.412945288725293 
1580	 0.413162237221469 
1581	 0.413398406370174 
1582	 0.413626967560542 
1583	 0.413867106815262 
1584	 0.414087374028445 
1585	 0.414285792147298 
1586	 0.414504148680202 
1587	 0.414722866916572 
1588	 0.414937860899743 
1589	 0.415169170743296 
1590	 0.415388752973614 
1591	 0.415594382806793 
1592	 0.415801012228166 
1593	 0.416004985387229 
1594	 0.416213539067871 
1595	 0.41643370091796 
1596	 0.416627644665535 
1597	 0.416802013429136 
1598	 0.416991044033158 
1599	 0.417158277667571 
1600	 0.417348210545942 
1601	 0.417586844371946 
1602	 0.417781191530567 
1603	 0.417958953636089 
1604	 0.41812796720497 
1605	 0.418245835272787 
1606	 0.418410007454868 
1607	 0.418610760274032 
1608	 0.418786033318608 
1609	 0.41898692044627 
1610	 0.419153116265997 
1611	 0.419276067551943 
1612	 0.419408274597199 
1613	 0.419538157343735 
1614	 0.419653370469225 
1615	 0.419755013811494 
1616	 0.419859775715408 
1617	 0.419956063059894 
1618	 0.420048569545072 
1619	 0.420133534230498 
1620	 0.420231934972708 
1621	 0.420364614370362 
1622	 0.420436765334778 
1623	 0.420482162472083 
1624	 0.420527878132583 
1625	 0.420509654452776 
1626	 0.420528167772091 
1627	 0.420583773459055 
1628	 0.420620005657564 
1629	 0.420654085792548 
1630	 0.420683993323045 
1631	 0.420691039401278 
1632	 0.420726927151483 
1633	 0.420775612615478 
1634	 0.420827357094714 
1635	 0.42091396953876 
1636	 0.420971750063406 
1637	 0.421013573234298 
1638	 0.421055036206625 
1639	 0.421094466364474 
1640	 0.421116924894063 
1641	 0.421116806319878 
1642	 0.421134938575151 
1643	 0.421145755595456 
1644	 0.421159098432116 
1645	 0.421209995340864 
1646	 0.421213730648192 
1647	 0.42118797182609 
1648	 0.421158541673631 
1649	 0.421102298355979 
1650	 0.421046690047781 
1651	 0.421006840154458 
1652	 0.420925312787294 
1653	 0.420811931960437 
1654	 0.420694521264074 
1655	 0.42054587302177 
1656	 0.420398580468049 
1657	 0.420272910382726 
1658	 0.42009289494323 
1659	 0.419878563145754 
1660	 0.419651698253814 
1661	 0.419394730546554 
1662	 0.419112416362547 
1663	 0.418817256451599 
1664	 0.418493337610296 
1665	 0.418155915106267 
1666	 0.417747605771196 
1667	 0.417310377207113 
1668	 0.416807359433341 
1669	 0.41622825478709 
1670	 0.415609513167169 
1671	 0.41493006024491 
1672	 0.414228348900657 
1673	 0.413481817584851 
1674	 0.412693191807388 
1675	 0.411882392502635 
1676	 0.411032288113445 
1677	 0.410139314505671 
1678	 0.40919878937578 
1679	 0.408225002077453 
1680	 0.407182995086318 
1681	 0.40607743562973 
1682	 0.404915633279822 
1683	 0.403689473327865 
1684	 0.402451971753356 
1685	 0.401174453451766 
1686	 0.399850945536639 
1687	 0.398487469870497 
1688	 0.397072017610061 
1689	 0.395605574379675 
1690	 0.394084518809792 
1691	 0.39250237170254 
1692	 0.39095406723419 
1693	 0.38938087908109 
1694	 0.387780916190083 
1695	 0.386196742352465 
1696	 0.384521681773179 
1697	 0.382776244273695 
1698	 0.380982887006828 
1699	 0.379125181108651 
1700	 0.377341148855264 
1701	 0.375512479458416 
1702	 0.373759242713304 
1703	 0.372032580352615 
1704	 0.37037902212979 
1705	 0.368733403327157 
1706	 0.367182489141179 
1707	 0.365848036135386 
1708	 0.364538824307473 
1709	 0.363343721975682 
1710	 0.362289045374747 
1711	 0.361198309751833 
1712	 0.360227853503583 
1713	 0.359365675289978 
1714	 0.358529879417789 
1715	 0.357758644367152 
1716	 0.356968179499094 
1717	 0.356211466544829 
1718	 0.355476351601965 
1719	 0.354756186795167 
1720	 0.354154669047422 
1721	 0.353569353017512 
1722	 0.352977574846089 
1723	 0.352504347071923 
1724	 0.352123021452149 
1725	 0.351834700659356 
1726	 0.351702321187638 
1727	 0.35173249329712 
1728	 0.351871995876208 
1729	 0.35214562016793 
1730	 0.352611902998515 
1731	 0.353150354261788 
1732	 0.353792048236903 
1733	 0.354498278828482 
1734	 0.355212636665081 
1735	 0.356005048511759 
1736	 0.35677432824457 
1737	 0.35748079229338 
1738	 0.358200400808071 
1739	 0.358738861253106 
1740	 0.359170706065416 
1741	 0.359483002906953 
1742	 0.359621548589288 
1743	 0.35970658769097 
1744	 0.359697672932787 
1745	 0.359645139805971 
1746	 0.359476453793709 
1747	 0.359332293056705 
1748	 0.35909956116351 
1749	 0.35898113418812 
1750	 0.358907443426343 
1751	 0.358848014491942 
1752	 0.358828765907861 
1753	 0.35887599826995 
1754	 0.358918912307445 
1755	 0.359098734294088 
1756	 0.359387889035533 
1757	 0.359733758357421 
1758	 0.360196697748005 
1759	 0.360708207365016 
1760	 0.36130623214364 
1761	 0.362010824006353 
1762	 0.362747152869838 
1763	 0.363627814087314 
1764	 0.364609517269234 
1765	 0.365633479664894 
1766	 0.366752155694662 
1767	 0.367895272656379 
1768	 0.369095605404589 
1769	 0.37033389097089 
1770	 0.371504931356775 
1771	 0.372665351561808 
1772	 0.373759044037665 
1773	 0.374713502873881 
1774	 0.375669772440956 
1775	 0.376569641047896 
1776	 0.377426416527854 
1777	 0.378301402210387 
1778	 0.379078232225459 
1779	 0.379807011014581 
1780	 0.380460032549677 
1781	 0.381038585645417 
1782	 0.381676607169631 
1783	 0.382278850204908 
1784	 0.382844052919121 
1785	 0.383341938232673 
1786	 0.383790466655657 
1787	 0.384178537686241 
1788	 0.384576324029272 
1789	 0.384981940522293 
1790	 0.385340689728908 
1791	 0.385642450166802 
1792	 0.38597519506632 
1793	 0.386267511805213 
1794	 0.386623602959008 
1795	 0.386954599992969 
1796	 0.387238257647877 
1797	 0.3875655446907 
1798	 0.387839410455586 
1799	 0.388126944994677 
1800	 0.388465782306326 
1801	 0.399689926226823 
1802	 0.400092979887915 
1803	 0.400456813231399 
1804	 0.400811946128247 
1805	 0.40120797883647 
1806	 0.401516284190819 
1807	 0.401787613521191 
1808	 0.402054803773515 
1809	 0.402236126041771 
1810	 0.402491776133542 
1811	 0.402792729231881 
1812	 0.403066739020711 
1813	 0.403336148263083 
1814	 0.403644540430237 
1815	 0.403916527799917 
1816	 0.404185970569333 
1817	 0.404453900234392 
1818	 0.404694520308234 
1819	 0.404988860306656 
1820	 0.40530049960615 
1821	 0.405622037141867 
1822	 0.405987061541036 
1823	 0.406354529866966 
1824	 0.406676036441748 
1825	 0.407019440832565 
1826	 0.407347603255529 
1827	 0.407689774911903 
1828	 0.407972711438783 
1829	 0.408207821688852 
1830	 0.408462670162386 
1831	 0.408684753313325 
1832	 0.408929363377304 
1833	 0.409153548469799 
1834	 0.409429895902535 
1835	 0.409685969853003 
1836	 0.409909898294236 
1837	 0.410193420112216 
1838	 0.410538391125848 
1839	 0.41082983248175 
1840	 0.411117089606604 
1841	 0.411418696236783 
1842	 0.411704615978251 
1843	 0.412008832396234 
1844	 0.412330648098531 
1845	 0.412651546440661 
1846	 0.41292822330895 
1847	 0.413139980820069 
1848	 0.413339891141432 
1849	 0.413494132871342 
1850	 0.413653448754246 
1851	 0.413796859883817 
1852	 0.413934717394588 
1853	 0.414064861775263 
1854	 0.414135444572253 
1855	 0.414134323983551 
1856	 0.414134404873583 
1857	 0.414130222878621 
1858	 0.414093396984376 
1859	 0.414013056390308 
1860	 0.413933283286061 
1861	 0.413777802236362 
1862	 0.413559621681901 
1863	 0.413309049628305 
1864	 0.412996991206615 
1865	 0.412639716566255 
1866	 0.412229917186869 
1867	 0.411751246006657 
1868	 0.411259086195821 
1869	 0.410745186772914 
1870	 0.410206919359752 
1871	 0.409657537397868 
1872	 0.409076180715152 
1873	 0.408471774602289 
1874	 0.407826909992528 
1875	 0.407192062420133 
1876	 0.40643063376077 
1877	 0.405650623997196 
1878	 0.404805095708909 
1879	 0.40384078326994 
1880	 0.402897328266543 
1881	 0.401852546562578 
1882	 0.400722689647143 
1883	 0.399556316229157 
1884	 0.398302847909195 
1885	 0.396844945883836 
1886	 0.395347377815847 
1887	 0.393738154881285 
1888	 0.392019553816168 
1889	 0.390403163880518 
1890	 0.388688937648046 
1891	 0.386908578624325 
1892	 0.385112607724955 
1893	 0.383205995325921 
1894	 0.381143573053853 
1895	 0.379131599228881 
1896	 0.37711151586295 
1897	 0.375056877459712 
1898	 0.373182743284497 
1899	 0.371255185579477 
1900	 0.369341347361292 
1901	 0.367534660421234 
1902	 0.365648947895593 
1903	 0.36387335984099 
1904	 0.362174582767913 
1905	 0.360545048493819 
1906	 0.358946385227207 
1907	 0.357492897962586 
1908	 0.356051139602561 
1909	 0.35466847662152 
1910	 0.353377396076257 
1911	 0.352045989024389 
1912	 0.350803290579644 
1913	 0.34961736699955 
1914	 0.348458902703405 
1915	 0.34737989637032 
1916	 0.346411862689562 
1917	 0.345440040406858 
1918	 0.344505194545581 
1919	 0.343596040709943 
1920	 0.342650663133519 
1921	 0.341784220557734 
1922	 0.340910108028564 
1923	 0.340037341994004 
1924	 0.339262924665794 
1925	 0.338473588470611 
1926	 0.337719108569242 
1927	 0.337007988801133 
1928	 0.336297054902871 
1929	 0.335578416566642 
1930	 0.33493780860164 
1931	 0.334304417000481 
1932	 0.333696069434771 
1933	 0.333209224865566 
1934	 0.33273786182911 
1935	 0.332322847854401 
1936	 0.332011367098432 
1937	 0.331737900046083 
1938	 0.331502713920167 
1939	 0.331358781639358 
1940	 0.331288589925371 
1941	 0.331270268691999 
1942	 0.331328594055109 
1943	 0.33144719062449 
1944	 0.331636105138539 
1945	 0.3318896801745 
1946	 0.332198047036552 
1947	 0.332519317464141 
1948	 0.332873992963931 
1949	 0.333287413267758 
1950	 0.33374949932238 
1951	 0.334259741244684 
1952	 0.334836499394426 
1953	 0.335472797075104 
1954	 0.336146221120017 
1955	 0.336919183451889 
1956	 0.337700138276772 
1957	 0.338518540486152 
1958	 0.339401920818225 
1959	 0.340211038613158 
1960	 0.341000286058503 
1961	 0.341743989566828 
1962	 0.342458644541026 
1963	 0.343094090528569 
1964	 0.343672397689589 
1965	 0.344216163520454 
1966	 0.344699288164942 
1967	 0.34515667552615 
1968	 0.345571589737144 
1969	 0.345943668619219 
1970	 0.346320276163779 
1971	 0.346691367865231 
1972	 0.347076782118 
1973	 0.347503909072619 
1974	 0.34792987456061 
1975	 0.348362918972985 
1976	 0.348810194558297 
1977	 0.349275480227778 
1978	 0.349742509365581 
1979	 0.350222157908625 
1980	 0.350690035964694 
1981	 0.351189283260656 
1982	 0.351686587906759 
1983	 0.352220348426341 
1984	 0.352783913152389 
1985	 0.353313063678601 
1986	 0.353876414645205 
1987	 0.354484114708481 
1988	 0.355093929978392 
1989	 0.355773620756169 
1990	 0.356493517508874 
1991	 0.357289156635233 
1992	 0.358156993240216 
1993	 0.359068298673098 
1994	 0.359994173282317 
1995	 0.36099046629349 
1996	 0.361929923508407 
1997	 0.362871590334578 
1998	 0.363876959418373 
1999	 0.364932552382677 
2000	 0.365953374636703 
2001	 0.367079279030639 
2002	 0.368043412954697 
2003	 0.368921983347486 
2004	 0.369787771189558 
2005	 0.370571283138331 
2006	 0.37133207225512 
2007	 0.372079150140083 
2008	 0.372779194126408 
2009	 0.373458022794082 
2010	 0.374081834358524 
2011	 0.374599289914386 
2012	 0.375119136126825 
2013	 0.375602173763631 
2014	 0.375993445539704 
2015	 0.376412446821504 
2016	 0.376889863803784 
2017	 0.377246659798236 
2018	 0.377547331509862 
2019	 0.377800221397681 
2020	 0.377984365614928 
2021	 0.378101204522817 
2022	 0.378210691715897 
2023	 0.378316459526118 
2024	 0.378404906429035 
2025	 0.378489456989078 
2026	 0.378538715072886 
2027	 0.378581865713617 
2028	 0.37855754386091 
2029	 0.378466848279124 
2030	 0.378391096442242 
2031	 0.378272431708891 
2032	 0.378167993388935 
2033	 0.378075305980644 
2034	 0.377959124036632 
2035	 0.377825193775725 
2036	 0.37768038373032 
2037	 0.377501978497332 
2038	 0.377386090644861 
2039	 0.377257681334783 
2040	 0.377128173679957 
2041	 0.376995434952874 
2042	 0.376867365186433 
2043	 0.376749319719401 
2044	 0.376616919445123 
2045	 0.376527748600962 
2046	 0.376493606920405 
2047	 0.376422232283675 
2048	 0.376349261518453 
2049	 0.376277223951155 
2050	 0.376198881142374 
2051	 0.37609896836795 
2052	 0.376016907287705 
2053	 0.375969587857069 
2054	 0.375895705879483 
2055	 0.375816214403883 
2056	 0.375736318662636 
2057	 0.375631542656702 
2058	 0.375565861114711 
2059	 0.37553845398132 
2060	 0.375474620029911 
2061	 0.375417549453917 
2062	 0.375347417451161 
2063	 0.375247668307962 
2064	 0.375149111000705 
2065	 0.375041240435133 
2066	 0.374955698596302 
2067	 0.374849452084637 
2068	 0.374751201329081 
2069	 0.374644431986431 
2070	 0.374517867751588 
2071	 0.374441424189137 
2072	 0.374388949605138 
2073	 0.374315199228827 
2074	 0.374280638862688 
2075	 0.374216031417544 
2076	 0.37411806587269 
2077	 0.374023769193497 
2078	 0.373933699551381 
2079	 0.373834120409893 
2080	 0.373720817737291 
2081	 0.373601677385634 
2082	 0.373474879965103 
2083	 0.37334969427006 
2084	 0.373209630768539 
2085	 0.373089338030933 
2086	 0.372948581157302 
2087	 0.372781028286575 
2088	 0.372662800018007 
2089	 0.372575094736461 
2090	 0.372450569532562 
2091	 0.372362251664311 
2092	 0.372230885314886 
2093	 0.37204145793802 
2094	 0.371863770423911 
2095	 0.371698212460464 
2096	 0.371502361190535 
2097	 0.371283407901882 
2098	 0.371048132906061 
2099	 0.3708172987743 
2100	 0.370580664149424 
2101	 0.370342107694552 
2102	 0.370116339023676 
2103	 0.369860142748213 
2104	 0.36957376676086 
2105	 0.369305749515517 
2106	 0.369043100226371 
2107	 0.368758094222941 
2108	 0.368493899019216 
2109	 0.368176761752604 
2110	 0.367829514067844 
2111	 0.367447762725663 
2112	 0.366989762420891 
2113	 0.366575678128986 
2114	 0.366140599440476 
2115	 0.365725113941928 
2116	 0.365353054382114 
2117	 0.364980429251481 
2118	 0.364559662553341 
2119	 0.364116617690606 
2120	 0.36367772552475 
2121	 0.363192065964757 
2122	 0.362759954585529 
2123	 0.362345671747464 
2124	 0.361948320650904 
2125	 0.361587947294408 
2126	 0.361205140263789 
2127	 0.360819257079607 
2128	 0.360449820381743 
2129	 0.360054159500414 
2130	 0.359707759918763 
2131	 0.359404416133524 
2132	 0.359105325499561 
2133	 0.358825878057278 
2134	 0.358577536743297 
2135	 0.358290323989337 
2136	 0.358045890664798 
2137	 0.357806788870712 
2138	 0.357569721124536 
2139	 0.357354321898201 
2140	 0.357168004776713 
2141	 0.356974456061329 
2142	 0.356808136713618 
2143	 0.356611461861166 
2144	 0.356390622369385 
2145	 0.356199936271296 
2146	 0.356001894810755 
2147	 0.355808697347945 
2148	 0.355629623411974 
2149	 0.35547422682592 
2150	 0.355346222028352 
2151	 0.355193981649346 
2152	 0.355048243297611 
2153	 0.354903723543717 
2154	 0.354748549380671 
2155	 0.354611913193277 
2156	 0.354482372318322 
2157	 0.354405543487313 
2158	 0.354254274241243 
2159	 0.354077723995689 
2160	 0.353872281396912 
2161	 0.353627749928473 
2162	 0.353387326968949 
2163	 0.353111849438735 
2164	 0.352860527904353 
2165	 0.352600712635369 
2166	 0.352368125895349 
2167	 0.352196236624704 
2168	 0.351946835965912 
2169	 0.351661813270003 
2170	 0.351387920284233 
2171	 0.351058670525032 
2172	 0.350757855801859 
2173	 0.35048979765626 
2174	 0.350207531872953 
2175	 0.349944994398557 
2176	 0.349688376939174 
2177	 0.349491419948719 
2178	 0.349362592002424 
2179	 0.349189802219006 
2180	 0.349044741921004 
2181	 0.348861331579685 
2182	 0.348624240217858 
2183	 0.348451108481434 
2184	 0.348299646656547 
2185	 0.348146177107265 
2186	 0.348043579303392 
2187	 0.347889020836225 
2188	 0.347690618457273 
2189	 0.347523368828381 
2190	 0.347389651872365 
2191	 0.347189776922594 
2192	 0.346981433996652 
2193	 0.346736024034418 
2194	 0.346410859826856 
2195	 0.346098725684072 
2196	 0.345767121788412 
2197	 0.345470605466686 
2198	 0.3451181013494 
2199	 0.344697742289639 
2200	 0.344297950347417 
2201	 0.343890382024393 
2202	 0.343411477404598 
2203	 0.342885848700155 
2204	 0.342394709599118 
2205	 0.341835695913769 
2206	 0.341346400025369 
2207	 0.340920293404215 
2208	 0.340477891281222 
2209	 0.340002420144613 
2210	 0.339612344770939 
2211	 0.33927802460139 
2212	 0.33896130482797 
2213	 0.33872836312853 
2214	 0.338437354706224 
2215	 0.338143789763363 
2216	 0.337835559783705 
2217	 0.33751325180343 
2218	 0.3371769305979 
2219	 0.336808033465971 
2220	 0.336469390728857 
2221	 0.336156338140296 
2222	 0.335797530255327 
2223	 0.335465239194013 
2224	 0.335071434972055 
2225	 0.33462236286342 
2226	 0.33412634133121 
2227	 0.333559532047195 
2228	 0.332942277835642 
2229	 0.332274339276308 
2230	 0.331532429265352 
2231	 0.330754786126275 
2232	 0.329956463762638 
2233	 0.329025084193719 
2234	 0.328065243052355 
2235	 0.326892247021857 
2236	 0.325583375969758 
2237	 0.324160070291988 
2238	 0.322508452325212 
2239	 0.320858019059265 
2240	 0.319140698138709 
2241	 0.31730461915662 
2242	 0.315468347007647 
2243	 0.313393638214973 
2244	 0.311077630909918 
2245	 0.308761853609696 
2246	 0.306199992084839 
2247	 0.303722449073211 
2248	 0.301239645573385 
2249	 0.298771694040334 
2250	 0.296272771515177 
2251	 0.293905187032194 
2252	 0.291362170839937 
2253	 0.288979114669128 
2254	 0.286549337222278 
2255	 0.284045555141459 
2256	 0.281853878152115 
2257	 0.279570402233701 
2258	 0.277379554547797 
2259	 0.275368602141379 
2260	 0.273150199675694 
2261	 0.270847308723658 
2262	 0.268619876702809 
2263	 0.266252900334411 
2264	 0.264088682992197 
2265	 0.262035789517321 
2266	 0.260036283151828 
2267	 0.258144406928014 
2268	 0.25627896132599 
2269	 0.254460091257576 
2270	 0.252776996217632 
2271	 0.251117562284974 
2272	 0.249650854905993 
2273	 0.248417417992214 
2274	 0.247138867493238 
2275	 0.246041750301923 
2276	 0.244821019373146 
2277	 0.243553853084824 
2278	 0.242285555941429 
2279	 0.240990544252992 
2280	 0.239655954284726 
2281	 0.238328656280767 
2282	 0.236922849325939 
2283	 0.235464181902636 
2284	 0.23395704604384 
2285	 0.232271543575194 
2286	 0.230641506226907 
2287	 0.228867962976486 
2288	 0.226879181347395 
2289	 0.225009479704699 
2290	 0.22309457216904 
2291	 0.221269024434057 
2292	 0.219513295680986 
2293	 0.217641092175703 
2294	 0.215840598094386 
2295	 0.213979287510419 
2296	 0.212195296901541 
2297	 0.210678004427549 
2298	 0.209305882504029 
2299	 0.208144373253937 
2300	 0.207227103826013 
2301	 0.206490951140494 
2302	 0.205924434995546 
2303	 0.205604597509616 
2304	 0.205536209439476 
2305	 0.205646529889805 
2306	 0.205990583815128 
2307	 0.206520299000263 
2308	 0.207238820981041 
2309	 0.208210759027795 
2310	 0.209492372421077 
2311	 0.210801140787464 
2312	 0.212416368204273 
2313	 0.21392313963306 
2314	 0.215438975731374 
2315	 0.217025622034727 
2316	 0.21872402739056 
2317	 0.220272807630562 
2318	 0.221906229239715 
2319	 0.223264449631558 
2320	 0.22443498267702 
2321	 0.225512317093897 
2322	 0.226460316423451 
2323	 0.227249754627721 
2324	 0.227901210642733 
2325	 0.228382597979875 
2326	 0.228702485268945 
2327	 0.228826366851409 
2328	 0.228753210114159 
2329	 0.228591365622514 
2330	 0.228295626312671 
2331	 0.22771293377207 
2332	 0.227158839971738 
2333	 0.226344989305781 
2334	 0.225244939563781 
2335	 0.224268662140703 
2336	 0.223190458575649 
2337	 0.221991441334783 
2338	 0.220895918971415 
2339	 0.219699711378245 
2340	 0.218486370076161 
2341	 0.217281884115614 
2342	 0.216114560674062 
2343	 0.215113711636316 
2344	 0.214192641901048 
2345	 0.213521141790719 
2346	 0.21309051396563 
2347	 0.212867325240908 
2348	 0.213002884680899 
2349	 0.213423672048706 
2350	 0.214047285765189 
2351	 0.214835898183439 
2352	 0.215702879595121 
2353	 0.216676028142798 
2354	 0.217627886047566 
2355	 0.218702331034015 
2356	 0.219778114301015 
2357	 0.220641635188502 
2358	 0.221548360061924 
2359	 0.222324704514455 
2360	 0.222770217600206 
2361	 0.223124068102401 
2362	 0.223395169644876 
2363	 0.223389623533475 
2364	 0.223413997208773 
2365	 0.223396676419624 
2366	 0.223222668303536 
2367	 0.223160094483147 
2368	 0.223093548255889 
2369	 0.222965473638992 
2370	 0.22280636057052 
2371	 0.222645207344143 
2372	 0.22251525713741 
2373	 0.222408394148267 
2374	 0.222379960466239 
2375	 0.222302943195209 
2376	 0.222126834137155 
2377	 0.222037805531215 
2378	 0.22201568006515 
2379	 0.221919795760774 
2380	 0.221866151340299 
2381	 0.221886131783498 
2382	 0.221928159732514 
2383	 0.222047450827196 
2384	 0.222028865873411 
2385	 0.221996867944089 
2386	 0.221963392664742 
2387	 0.221801142670454 
2388	 0.221750336432092 
2389	 0.221782182515162 
2390	 0.221763606742476 
2391	 0.221681629920166 
2392	 0.221693869276318 
2393	 0.221791042412338 
2394	 0.221803133567601 
2395	 0.221901585394744 
2396	 0.221904227652912 
2397	 0.221778412573329 
2398	 0.221685269998215 
2399	 0.221445947595254 
2400	 0.221362224332068 
2401	 0.221481936699595 
2402	 0.221496167320952 
2403	 0.221562697034685 
2404	 0.221712007477063 
2405	 0.221525579401312 
2406	 0.221421061698542 
2407	 0.22155393806832 
2408	 0.221680858941965 
2409	 0.221617164604093 
2410	 0.221553175802272 
2411	 0.221576293526921 
2412	 0.221543838185875 
2413	 0.221690757482635 
2414	 0.221970374567812 
2415	 0.222104343043035 
2416	 0.222142591965418 
2417	 0.22200289106914 
2418	 0.22175401745709 
2419	 0.221606977770627 
2420	 0.221580819895116 
2421	 0.221859428818587 
2422	 0.222239564125316 
2423	 0.222438362585203 
2424	 0.22259153924094 
2425	 0.222597712533581 
2426	 0.222618588638192 
2427	 0.222809875285561 
2428	 0.222732575641392 
2429	 0.222512311831639 
2430	 0.222505979439811 
2431	 0.222366338208155 
2432	 0.222300213931301 
2433	 0.222683555321371 
2434	 0.222747564373406 
2435	 0.222546520599174 
2436	 0.222446224042583 
2437	 0.222276112895561 
2438	 0.222097657691926 
2439	 0.221955607378228 
2440	 0.222184554245624 
2441	 0.22225791857384 
2442	 0.222146535811356 
2443	 0.222209468315857 
2444	 0.221950631722395 
2445	 0.221879062748085 
2446	 0.221773180789748 
2447	 0.221363683213312 
2448	 0.22141505435412 
2449	 0.221387404631981 
2450	 0.221188810484451 
2451	 0.221393789119949 
2452	 0.22139929356781 
2453	 0.221060520604542 
2454	 0.22088924972979 
2455	 0.220715035058157 
2456	 0.22047523216744 
2457	 0.220082522923212 
2458	 0.219572077600095 
2459	 0.219171023202137 
2460	 0.218734989158295 
2461	 0.218438700121554 
2462	 0.218059466427961 
2463	 0.217611282255577 
2464	 0.217218378999235 
2465	 0.216461849941635 
2466	 0.216152270436248 
2467	 0.216273764070706 
2468	 0.216300874714162 
2469	 0.216563786270082 
2470	 0.216386306412262 
2471	 0.215993916504253 
2472	 0.215647073021853 
2473	 0.21526631668454 
2474	 0.215546593074751 
2475	 0.215711861607424 
2476	 0.215575532000334 
2477	 0.215525091786654 
2478	 0.215154001390382 
2479	 0.214726173783476 
2480	 0.21420732062514 
2481	 0.214311805024034 
2482	 0.214722583876424 
2483	 0.215259022103905 
2484	 0.215703393764003 
2485	 0.215268777807796 
2486	 0.214952537883892 
2487	 0.215037333688924 
2488	 0.215417862432308 
2489	 0.216053585263264 
2490	 0.21658307099365 
2491	 0.216712890632052 
2492	 0.216575206141558 
2493	 0.216697982084655 
2494	 0.217122714930454 
2495	 0.217615870059465 
2496	 0.218328294822949 
2497	 0.218455493642681 
2498	 0.218255160881968 
2499	 0.218708196923006 
2500	 0.218644615561377 
