Wavelength	Tablay400039.asd
350	 0.364802593996308 
351	 0.180035437715722 
352	 5.95120915335083E-02 
353	 0.128044116665135 
354	 0.226235036051973 
355	 0.245296110468759 
356	 0.219080555974683 
357	 0.202883741043697 
358	 0.171674596925136 
359	 0.162355225468248 
360	 0.192450800764621 
361	 0.244816202388069 
362	 0.149799010009812 
363	 8.14628557530108E-02 
364	 0.127562233396473 
365	 0.153721402745723 
366	 0.150935685158327 
367	 0.136406415203005 
368	 0.137195443602198 
369	 0.1827249861199 
370	 0.156659726313521 
371	 9.40689206754917E-02 
372	 0.109515486663193 
373	 0.116835308329541 
374	 0.107863799677142 
375	 9.73408447273809E-02 
376	 0.123228219615501 
377	 0.151767744587912 
378	 0.165073063005306 
379	 0.153717014787892 
380	 0.128494417470138 
381	 0.108989861780834 
382	 0.104337811410347 
383	 0.109600226160295 
384	 0.102497056608129 
385	 8.61340497115192E-02 
386	 7.63032328059586E-02 
387	 9.89425750901104E-02 
388	 0.106593516044408 
389	 0.109344440365337 
390	 0.120885361245934 
391	 0.109673415630946 
392	 0.104934763180001 
393	 9.74090852528971E-02 
394	 6.12528916833661E-02 
395	 8.19051046446642E-02 
396	 0.108016587471694 
397	 0.103496755785785 
398	 8.51221633007882E-02 
399	 9.83069461044494E-02 
400	 0.119247754150769 
401	 0.114549799620132 
402	 9.22173349789177E-02 
403	 8.08800236855915E-02 
404	 9.10651942552508E-02 
405	 0.114510782136373 
406	 9.86846995374684E-02 
407	 7.66455586028728E-02 
408	 0.073723872422026 
409	 7.93786539898186E-02 
410	 8.41595748143207E-02 
411	 8.76380801051879E-02 
412	 9.01828995588331E-02 
413	 0.078202987548713 
414	 6.82790337026623E-02 
415	 6.79985188190518E-02 
416	 7.44311892307216E-02 
417	 0.085043329735561 
418	 8.33679976294044E-02 
419	 6.81728093716769E-02 
420	 7.76298997732213E-02 
421	 8.07643506358291E-02 
422	 7.70544978379958E-02 
423	 7.64484093227112E-02 
424	 7.30556831419253E-02 
425	 7.17581746324415E-02 
426	 7.26525225163416E-02 
427	 6.99283455676803E-02 
428	 7.20350914991903E-02 
429	 7.34528205332773E-02 
430	 0.070507522252741 
431	 7.39495928029622E-02 
432	 7.26820584257013E-02 
433	 6.86252133437583E-02 
434	 6.96484690264829E-02 
435	 6.91650779223636E-02 
436	 7.19684687655507E-02 
437	 0.076795659599374 
438	 7.15466661927198E-02 
439	 6.97564221235377E-02 
440	 6.94067930062379E-02 
441	 6.70226896348001E-02 
442	 7.25432412275197E-02 
443	 7.38217681324876E-02 
444	 6.93066026140446E-02 
445	 6.60137006726808E-02 
446	 6.48661615427889E-02 
447	 6.64083879130881E-02 
448	 6.96353068375909E-02 
449	 7.13289606811264E-02 
450	 6.86485669418951E-02 
451	 6.63700704310248E-02 
452	 0.069960145452783 
453	 7.05712826811051E-02 
454	 6.93374483017297E-02 
455	 6.79195478707773E-02 
456	 0.067766799459804 
457	 0.069126463579137 
458	 6.94733041654677E-02 
459	 6.75585718514231E-02 
460	 6.73446988814235E-02 
461	 0.06766493934816 
462	 6.79583559802871E-02 
463	 6.79488369112807E-02 
464	 6.72042166672059E-02 
465	 6.68520865845679E-02 
466	 6.70098317255608E-02 
467	 6.60388845919018E-02 
468	 6.60348554707432E-02 
469	 6.63020593347694E-02 
470	 6.60300026806116E-02 
471	 6.75141044909103E-02 
472	 6.74713450917601E-02 
473	 6.59245878351955E-02 
474	 6.54551131720536E-02 
475	 6.54161066177762E-02 
476	 0.066275440944801 
477	 6.73920838952207E-02 
478	 6.51655376864853E-02 
479	 6.44976173212731E-02 
480	 6.56575454472432E-02 
481	 6.68241019419885E-02 
482	 6.53745744773039E-02 
483	 6.46000257407687E-02 
484	 0.065388076812746 
485	 6.55610683104365E-02 
486	 6.56926951704477E-02 
487	 6.60092338332772E-02 
488	 6.62081032904451E-02 
489	 6.42923559550485E-02 
490	 6.39052744937035E-02 
491	 6.48156814513035E-02 
492	 6.47284215892338E-02 
493	 0.064751817740576 
494	 6.52061138761114E-02 
495	 6.58794410362075E-02 
496	 6.57693657404024E-02 
497	 0.067192843002916 
498	 6.79852521039963E-02 
499	 6.61052112059488E-02 
500	 6.60616016954261E-02 
501	 6.65976560958419E-02 
502	 6.71227266732317E-02 
503	 6.77650011520707E-02 
504	 6.72102501602697E-02 
505	 6.64833096211497E-02 
506	 6.66385261231581E-02 
507	 6.80062287006094E-02 
508	 6.86488758629853E-02 
509	 6.85317190699747E-02 
510	 6.85089536733832E-02 
511	 6.90423309877414E-02 
512	 6.93288325932842E-02 
513	 6.91518106320076E-02 
514	 6.91433657304368E-02 
515	 6.97335330166998E-02 
516	 7.03356411535355E-02 
517	 7.03736086195179E-02 
518	 7.02528977491656E-02 
519	 7.00921397533682E-02 
520	 7.02006713926107E-02 
521	 7.09414627388609E-02 
522	 0.071903058404928 
523	 7.26470547453476E-02 
524	 7.29925269091137E-02 
525	 7.31740241462745E-02 
526	 7.35706576350098E-02 
527	 7.40748136352124E-02 
528	 7.44856205722771E-02 
529	 7.53080685325787E-02 
530	 0.075388666098718 
531	 7.50841845013798E-02 
532	 7.63215588086452E-02 
533	 7.71568564103174E-02 
534	 0.077679593812037 
535	 0.078312921795968 
536	 7.91378359273305E-02 
537	 0.079948147204148 
538	 8.06491085291973E-02 
539	 8.12510153913003E-02 
540	 0.082032523580138 
541	 8.29981259486887E-02 
542	 8.39714978768623E-02 
543	 8.45089208307958E-02 
544	 8.55683468819241E-02 
545	 8.65392174477524E-02 
546	 8.67933513086577E-02 
547	 8.78145105814312E-02 
548	 0.089009952842352 
549	 9.00315420255394E-02 
550	 9.08412238486617E-02 
551	 0.091738526332468 
552	 9.27951361899364E-02 
553	 9.39733267557393E-02 
554	 9.51237959083474E-02 
555	 9.59767592720164E-02 
556	 9.69150919772531E-02 
557	 0.098475622947782 
558	 9.97846130874502E-02 
559	 0.101090056113519 
560	 0.102560475785992 
561	 0.104111866051082 
562	 0.10546012390835 
563	 0.106904786871129 
564	 0.108642715320079 
565	 0.109855022511979 
566	 0.111040084386669 
567	 0.112192820366048 
568	 0.112991164142579 
569	 0.114212015854002 
570	 0.11553585449462 
571	 0.116754923987803 
572	 0.118224957988405 
573	 0.119932620996382 
574	 0.121714532191058 
575	 0.123372701372049 
576	 0.124981755165133 
577	 0.126404932489678 
578	 0.127712758745376 
579	 0.129204503009669 
580	 0.130230962514196 
581	 0.131252634061303 
582	 0.132655562835102 
583	 0.133790767831538 
584	 0.134889741445556 
585	 0.136113720403808 
586	 0.13752427177537 
587	 0.138621898404756 
588	 0.139717643219258 
589	 0.140960078735496 
590	 0.142061080081963 
591	 0.143265439491724 
592	 0.14450274395828 
593	 0.145610130773816 
594	 0.146453323642543 
595	 0.147257121750077 
596	 0.148122055677142 
597	 0.149010331801132 
598	 0.149613178358514 
599	 0.150173464691458 
600	 0.150875759234047 
601	 0.151515153851731 
602	 0.152219441520838 
603	 0.152896628993514 
604	 0.153391890505243 
605	 0.15380507351131 
606	 0.154261652490966 
607	 0.154787985041091 
608	 0.155285831448822 
609	 0.155576509376033 
610	 0.155818091766115 
611	 0.156167549723664 
612	 0.156440692930461 
613	 0.156947633006413 
614	 0.157513375093977 
615	 0.157690929013268 
616	 0.157650508670092 
617	 0.157858590825939 
618	 0.158384526896547 
619	 0.158543213088451 
620	 0.158647759155963 
621	 0.158773793791796 
622	 0.158965257206998 
623	 0.159466830565919 
624	 0.159765640509418 
625	 0.159779651266025 
626	 0.159852089655468 
627	 0.159980936448656 
628	 0.16006936488871 
629	 0.160118769162761 
630	 0.160460244273529 
631	 0.16066632255581 
632	 0.160790913564513 
633	 0.161032072111461 
634	 0.160946663198679 
635	 0.16109637537958 
636	 0.161550392154319 
637	 0.161680821845265 
638	 0.161656528887769 
639	 0.161713543549839 
640	 0.161988373520334 
641	 0.162226623230327 
642	 0.162434482583225 
643	 0.162635737300084 
644	 0.162856236331362 
645	 0.162987238551706 
646	 0.163171980906545 
647	 0.163455169228282 
648	 0.163675366876162 
649	 0.16389933395939 
650	 0.164068256509645 
651	 0.164170990807701 
652	 0.164547901912731 
653	 0.164869243820801 
654	 0.16504217868209 
655	 0.165196333221271 
656	 0.165513970540811 
657	 0.16595802273895 
658	 0.16637804534288 
659	 0.166434111931254 
660	 0.166749876764702 
661	 0.167213390360627 
662	 0.16750064124769 
663	 0.167775024997738 
664	 0.168107154832091 
665	 0.16848106216984 
666	 0.168803848782106 
667	 0.169199698161925 
668	 0.169632854366384 
669	 0.170061169504823 
670	 0.170522824610154 
671	 0.170893435632638 
672	 0.171252931033258 
673	 0.171731709617298 
674	 0.172079538790365 
675	 0.172585422644241 
676	 0.1732610060585 
677	 0.173743766695063 
678	 0.17405978232044 
679	 0.174376895067632 
680	 0.174846869367719 
681	 0.175461950869381 
682	 0.176073441002555 
683	 0.176611619787701 
684	 0.17708830948421 
685	 0.17773921103855 
686	 0.178326697210292 
687	 0.178784736484458 
688	 0.179349408196097 
689	 0.180172394646556 
690	 0.180875465537499 
691	 0.181180364007377 
692	 0.181627178862988 
693	 0.182256009626275 
694	 0.182968210223843 
695	 0.183603225789595 
696	 0.18436227896184 
697	 0.185128863151773 
698	 0.185810069851619 
699	 0.186405221804686 
700	 0.187086422830547 
701	 0.187822883324003 
702	 0.188539953840127 
703	 0.189235621543425 
704	 0.190079088104446 
705	 0.190897945243311 
706	 0.191365660087441 
707	 0.192137879697261 
708	 0.192989034634307 
709	 0.193760190475092 
710	 0.194602762886892 
711	 0.195416835856708 
712	 0.196156848539691 
713	 0.196836489027531 
714	 0.197614643249599 
715	 0.198438178024749 
716	 0.19930491815632 
717	 0.200223941366211 
718	 0.200878244528593 
719	 0.201554686217649 
720	 0.202366984104561 
721	 0.202983448596542 
722	 0.203870767811696 
723	 0.204771308739506 
724	 0.205385732302119 
725	 0.20614930577561 
726	 0.206952143035138 
727	 0.207732294520009 
728	 0.208467368921913 
729	 0.20912574117723 
730	 0.20968088212959 
731	 0.210224672528923 
732	 0.211037327822504 
733	 0.211784977983557 
734	 0.212454667092964 
735	 0.213091663884937 
736	 0.213567445536236 
737	 0.214115943397439 
738	 0.21474188409084 
739	 0.215300760860468 
740	 0.21584209305854 
741	 0.216402113096633 
742	 0.216986423550347 
743	 0.217558938549279 
744	 0.218045199078656 
745	 0.218520745064035 
746	 0.219031474581044 
747	 0.219369235755014 
748	 0.21971979974245 
749	 0.220118979816968 
750	 0.220504411562752 
751	 0.220811530902385 
752	 0.221075855861458 
753	 0.221295922159205 
754	 0.2214109382604 
755	 0.221748213825411 
756	 0.222022745067735 
757	 0.222014543760591 
758	 0.222100439201095 
759	 0.222207390332763 
760	 0.22230187284268 
761	 0.222366198937697 
762	 0.222402754638684 
763	 0.222478415198313 
764	 0.222546929369743 
765	 0.222454203833798 
766	 0.222432558680865 
767	 0.222448881688098 
768	 0.222422465521527 
769	 0.222278830715696 
770	 0.222176020922881 
771	 0.222091751292755 
772	 0.221953116679883 
773	 0.221799121759887 
774	 0.221648204576301 
775	 0.221458479724321 
776	 0.221156105597103 
777	 0.2208873400481 
778	 0.220567346733647 
779	 0.220210726797468 
780	 0.220057602909251 
781	 0.21978924028312 
782	 0.219465002104194 
783	 0.219184078587917 
784	 0.218777324086521 
785	 0.21839209314635 
786	 0.21802775911313 
787	 0.217606545062008 
788	 0.217160230984152 
789	 0.216795630938139 
790	 0.216492511187267 
791	 0.216080105201816 
792	 0.215548677698641 
793	 0.215069882462784 
794	 0.214731097874867 
795	 0.214343597664723 
796	 0.213802548461568 
797	 0.21321816448624 
798	 0.212750700100421 
799	 0.212326907284451 
800	 0.211908003296539 
801	 0.211451378695092 
802	 0.210923992475724 
803	 0.21039590526754 
804	 0.209895443902995 
805	 0.209398901515179 
806	 0.208818338917332 
807	 0.208283413302762 
808	 0.207767894237159 
809	 0.207227298769248 
810	 0.206685317476825 
811	 0.206135876150352 
812	 0.205622931814245 
813	 0.205172327572869 
814	 0.204584677134762 
815	 0.204054618319082 
816	 0.203581457407261 
817	 0.202994255765637 
818	 0.202492922060492 
819	 0.201956307986617 
820	 0.201371384805434 
821	 0.200974706599612 
822	 0.200511570477614 
823	 0.199952278279236 
824	 0.199363476543773 
825	 0.198907118762693 
826	 0.198388221181671 
827	 0.197859751405987 
828	 0.197429124143256 
829	 0.196790641466218 
830	 0.19631451101463 
831	 0.196013410427862 
832	 0.195567656165245 
833	 0.19500292018888 
834	 0.194426003799821 
835	 0.193930798278749 
836	 0.193559917311564 
837	 0.193139154111243 
838	 0.192659218366909 
839	 0.192178832199062 
840	 0.191824285903757 
841	 0.19139073749087 
842	 0.190879019949751 
843	 0.190389116222588 
844	 0.190034136997571 
845	 0.189671951704778 
846	 0.189253525594563 
847	 0.188819634266197 
848	 0.188462262376241 
849	 0.188104238703746 
850	 0.187698505402743 
851	 0.187267078777238 
852	 0.186884707587131 
853	 0.186544943829317 
854	 0.186198013847388 
855	 0.18573947474997 
856	 0.185417183415689 
857	 0.185089007434949 
858	 0.184618734614357 
859	 0.184365276297464 
860	 0.184022928118727 
861	 0.183691026260427 
862	 0.183577307806768 
863	 0.183193260716161 
864	 0.182894714202758 
865	 0.18272239793497 
866	 0.18241996487729 
867	 0.182110881916337 
868	 0.181895290412503 
869	 0.181714742691115 
870	 0.181319571235276 
871	 0.181154019853328 
872	 0.180977349586404 
873	 0.180619587634606 
874	 0.180402572953559 
875	 0.18011410985322 
876	 0.179929344667469 
877	 0.179955235021522 
878	 0.179632314761414 
879	 0.179501230104524 
880	 0.179500068333928 
881	 0.179309203388384 
882	 0.178965709770892 
883	 0.178774507904058 
884	 0.178745459292017 
885	 0.178651996924956 
886	 0.178436102454456 
887	 0.178286817860886 
888	 0.178231154344256 
889	 0.178089054782867 
890	 0.177994083271849 
891	 0.177902617904404 
892	 0.177783153553548 
893	 0.177675313226928 
894	 0.177642410177128 
895	 0.17758482692093 
896	 0.177472492284511 
897	 0.177572226571278 
898	 0.177606236429756 
899	 0.177512967313913 
900	 0.177348766701711 
901	 0.177270498369608 
902	 0.177348093266171 
903	 0.177393708965577 
904	 0.177207411638716 
905	 0.177229948603902 
906	 0.177342250655865 
907	 0.177374432906626 
908	 0.177226508858471 
909	 0.177416569348419 
910	 0.177501177961557 
911	 0.177384334364975 
912	 0.177396979394996 
913	 0.177446033566854 
914	 0.177567863936184 
915	 0.177732168394994 
916	 0.177813092483325 
917	 0.177997747626598 
918	 0.178050886905038 
919	 0.177928258386932 
920	 0.178072998121785 
921	 0.178251804827731 
922	 0.178310702617612 
923	 0.178270309140876 
924	 0.178525543410795 
925	 0.178858740577065 
926	 0.179035147729321 
927	 0.178993757701313 
928	 0.179251440453463 
929	 0.179494206528849 
930	 0.17963589550419 
931	 0.179728023034871 
932	 0.179948050506757 
933	 0.180150550193477 
934	 0.180295325072004 
935	 0.180405730040658 
936	 0.180418741594923 
937	 0.18087595879968 
938	 0.181378854396949 
939	 0.181171502024811 
940	 0.181853431728455 
941	 0.18222315346302 
942	 0.182126618421461 
943	 0.182423772650326 
944	 0.182705159057979 
945	 0.182755422595951 
946	 0.182711288831975 
947	 0.183004045962495 
948	 0.183403009864229 
949	 0.183676829544664 
950	 0.183877531231537 
951	 0.184360486524771 
952	 0.18462950819092 
953	 0.184694646027882 
954	 0.184807055180712 
955	 0.185376877430912 
956	 0.185981448058623 
957	 0.186167382535592 
958	 0.186077590428347 
959	 0.186788326667565 
960	 0.187153789309138 
961	 0.187187532042083 
962	 0.187241015318245 
963	 0.187732702643291 
964	 0.188143329011394 
965	 0.188353178313671 
966	 0.188500230414457 
967	 0.189025216756055 
968	 0.189329962694679 
969	 0.189530123718648 
970	 0.189863669066979 
971	 0.190325101835593 
972	 0.190776391252511 
973	 0.191126494508836 
974	 0.19136414863248 
975	 0.191608302530891 
976	 0.192060256107053 
977	 0.192439809348537 
978	 0.192559877723399 
979	 0.192973203511006 
980	 0.193730072143459 
981	 0.194304619526757 
982	 0.194358006902336 
983	 0.194812041685732 
984	 0.194990528159315 
985	 0.195222905997591 
986	 0.195922541473592 
987	 0.196649881252906 
988	 0.196926631703676 
989	 0.197044667118722 
990	 0.197414773274144 
991	 0.197767270476728 
992	 0.197980575896225 
993	 0.198385876772447 
994	 0.19912446037396 
995	 0.199121221642562 
996	 0.199584153561615 
997	 0.200209294370457 
998	 0.200464923232012 
999	 0.200995065795855 
1000	 0.201687348487405 
1001	 0.204896328638024 
1002	 0.205316611803463 
1003	 0.205736427337967 
1004	 0.206041066883451 
1005	 0.206150160260335 
1006	 0.206479237885092 
1007	 0.206805820875143 
1008	 0.20717960900206 
1009	 0.20765072810762 
1010	 0.208140514439009 
1011	 0.208649753363707 
1012	 0.209230651536219 
1013	 0.20989977285524 
1014	 0.210461456205963 
1015	 0.210970951601527 
1016	 0.211619274904767 
1017	 0.212058898544645 
1018	 0.212572595465112 
1019	 0.213164975772604 
1020	 0.213601682888314 
1021	 0.214094765854258 
1022	 0.214669841197888 
1023	 0.215133467292321 
1024	 0.215525355893607 
1025	 0.21596338110977 
1026	 0.21624549292067 
1027	 0.216689781823907 
1028	 0.217294546408366 
1029	 0.217810848250642 
1030	 0.218241220059138 
1031	 0.218939251276545 
1032	 0.219510416532024 
1033	 0.219821466798462 
1034	 0.220268929742105 
1035	 0.22082323818565 
1036	 0.221260984462392 
1037	 0.221668832359932 
1038	 0.222116468705517 
1039	 0.222482981717579 
1040	 0.222899019630432 
1041	 0.223383361331279 
1042	 0.223882808048359 
1043	 0.224416174805788 
1044	 0.224872218512605 
1045	 0.225500637844365 
1046	 0.226006112865976 
1047	 0.226343434066157 
1048	 0.226829241736043 
1049	 0.227327553898676 
1050	 0.227788363128092 
1051	 0.228390348965219 
1052	 0.229092693820788 
1053	 0.229705317471284 
1054	 0.23029214004299 
1055	 0.230821240527175 
1056	 0.23122429990376 
1057	 0.23177427241995 
1058	 0.232318651100269 
1059	 0.232918702634157 
1060	 0.233696568510956 
1061	 0.234439834581704 
1062	 0.235161108004123 
1063	 0.235899373003542 
1064	 0.236500196172483 
1065	 0.23718626916418 
1066	 0.237841226878654 
1067	 0.238411962767127 
1068	 0.239249456491358 
1069	 0.240149459501389 
1070	 0.240852220945323 
1071	 0.241456195941305 
1072	 0.24213370656308 
1073	 0.24283530591256 
1074	 0.243522026252625 
1075	 0.244458914176555 
1076	 0.245393303401785 
1077	 0.246158345806924 
1078	 0.246888184857622 
1079	 0.24753034488516 
1080	 0.248254173052865 
1081	 0.249067664383138 
1082	 0.249837407839144 
1083	 0.250676240463863 
1084	 0.251512653339406 
1085	 0.252368795062404 
1086	 0.253200725869094 
1087	 0.254024176120136 
1088	 0.254784270927966 
1089	 0.255605783674163 
1090	 0.256368893276144 
1091	 0.257138274960717 
1092	 0.258010202974328 
1093	 0.258797393806813 
1094	 0.259498411529481 
1095	 0.260287585850762 
1096	 0.261116089198907 
1097	 0.261859373840731 
1098	 0.26255957981963 
1099	 0.263262872746994 
1100	 0.263951178659697 
1101	 0.264681702422505 
1102	 0.26550978535494 
1103	 0.266285125399838 
1104	 0.267064579569675 
1105	 0.267744969150629 
1106	 0.268414603910771 
1107	 0.269131208978358 
1108	 0.269907507125255 
1109	 0.270627155868735 
1110	 0.271380739753988 
1111	 0.27223869562885 
1112	 0.272956121934829 
1113	 0.273613684638888 
1114	 0.274268465424366 
1115	 0.27487183981143 
1116	 0.275579412538593 
1117	 0.276310319798948 
1118	 0.27700709836227 
1119	 0.27775229736548 
1120	 0.278428223942166 
1121	 0.279019898913456 
1122	 0.279659291797179 
1123	 0.280327938616882 
1124	 0.281018644210636 
1125	 0.281798734812707 
1126	 0.282526103433694 
1127	 0.283143814406631 
1128	 0.283752389977398 
1129	 0.28430693544079 
1130	 0.284874367955591 
1131	 0.285615055938739 
1132	 0.286310326803123 
1133	 0.286938294831574 
1134	 0.287628293816152 
1135	 0.288257886561817 
1136	 0.288812699726497 
1137	 0.289423709660518 
1138	 0.290033234907506 
1139	 0.290658627562607 
1140	 0.291319879360816 
1141	 0.291960068527038 
1142	 0.292549583714019 
1143	 0.293097531227814 
1144	 0.293627844733257 
1145	 0.294231229029159 
1146	 0.294851862717785 
1147	 0.295491293719429 
1148	 0.296149514378241 
1149	 0.296694689821962 
1150	 0.297228289481488 
1151	 0.297817420692388 
1152	 0.298415711923095 
1153	 0.29903162688961 
1154	 0.299620374528883 
1155	 0.300235054293953 
1156	 0.300807538851301 
1157	 0.301301112089004 
1158	 0.301853859834063 
1159	 0.30240946553017 
1160	 0.303041182721697 
1161	 0.303635988109783 
1162	 0.304268910599249 
1163	 0.304910853814294 
1164	 0.305460864807853 
1165	 0.306050708440779 
1166	 0.306551566923764 
1167	 0.306985972683957 
1168	 0.307521652787721 
1169	 0.30804110592578 
1170	 0.308540528597233 
1171	 0.309101260990094 
1172	 0.30974058352411 
1173	 0.310269121705882 
1174	 0.310765845890674 
1175	 0.311294478582189 
1176	 0.311825981492435 
1177	 0.312299139615631 
1178	 0.312793632179438 
1179	 0.313185253994057 
1180	 0.313544998681245 
1181	 0.31403212491252 
1182	 0.314633880864653 
1183	 0.315194950956525 
1184	 0.315682336623511 
1185	 0.316100565992368 
1186	 0.316505506776795 
1187	 0.316794807285056 
1188	 0.317218052899042 
1189	 0.317711226366607 
1190	 0.318137116011153 
1191	 0.318556731293267 
1192	 0.318994440597679 
1193	 0.319422920928361 
1194	 0.319845068510482 
1195	 0.320299069630274 
1196	 0.320745075734228 
1197	 0.321180533022393 
1198	 0.32155680598714 
1199	 0.322044047953416 
1200	 0.322490338421123 
1201	 0.322857128887595 
1202	 0.32330607366663 
1203	 0.323751860603478 
1204	 0.324143198463276 
1205	 0.324572836560874 
1206	 0.325053570481142 
1207	 0.325495019070112 
1208	 0.325893289743289 
1209	 0.326353849628741 
1210	 0.32683863346466 
1211	 0.327322350977156 
1212	 0.327829782708974 
1213	 0.328345847823616 
1214	 0.328854163349734 
1215	 0.329396307041959 
1216	 0.329957903806222 
1217	 0.330535726227986 
1218	 0.331146492307571 
1219	 0.331762521208808 
1220	 0.332359992168862 
1221	 0.333067993057872 
1222	 0.333630472089727 
1223	 0.334176589215559 
1224	 0.334712476205234 
1225	 0.335144334722438 
1226	 0.335700005343918 
1227	 0.336351759164902 
1228	 0.336902260948038 
1229	 0.337481549683324 
1230	 0.337989932255892 
1231	 0.338394754191953 
1232	 0.33885543097494 
1233	 0.339320484896432 
1234	 0.339773341983405 
1235	 0.340222252307752 
1236	 0.340661527605055 
1237	 0.341082907809316 
1238	 0.341520150473067 
1239	 0.341982611658456 
1240	 0.342441484596299 
1241	 0.342783745799251 
1242	 0.343101146669054 
1243	 0.343414918952012 
1244	 0.343623488237591 
1245	 0.343945802171754 
1246	 0.344317826809968 
1247	 0.344699882660239 
1248	 0.345136017039102 
1249	 0.34551885669636 
1250	 0.34591576769658 
1251	 0.34628411051274 
1252	 0.346626398762986 
1253	 0.346940714844064 
1254	 0.347249819775304 
1255	 0.347526399024272 
1256	 0.347726701366479 
1257	 0.347965866760313 
1258	 0.348201594587452 
1259	 0.348449918789168 
1260	 0.348738283714615 
1261	 0.348996543624748 
1262	 0.349253585032771 
1263	 0.349493099872277 
1264	 0.34970347764356 
1265	 0.34987589880637 
1266	 0.350064658732925 
1267	 0.35023920454148 
1268	 0.350417912920936 
1269	 0.35060769784124 
1270	 0.35077091585021 
1271	 0.350893289847766 
1272	 0.351072850987392 
1273	 0.351287923804592 
1274	 0.351458366948423 
1275	 0.351624105292965 
1276	 0.351809631506972 
1277	 0.351933878222814 
1278	 0.35213960785156 
1279	 0.352448487215831 
1280	 0.352704444085327 
1281	 0.352935952325584 
1282	 0.353211248131014 
1283	 0.353492384003889 
1284	 0.35378226452866 
1285	 0.354092018030876 
1286	 0.354460122615649 
1287	 0.354765107068144 
1288	 0.355031682047508 
1289	 0.355349693357816 
1290	 0.355665181805949 
1291	 0.356011736634196 
1292	 0.356414080027457 
1293	 0.356763164170863 
1294	 0.357095606021582 
1295	 0.357441000508055 
1296	 0.357752289453583 
1297	 0.358113279023988 
1298	 0.35852365238084 
1299	 0.358901992290559 
1300	 0.359287168126725 
1301	 0.359666241045003 
1302	 0.360040802322958 
1303	 0.360395168120548 
1304	 0.360767109825694 
1305	 0.361091134192351 
1306	 0.361345645861578 
1307	 0.361629790034579 
1308	 0.361873106957829 
1309	 0.362177758234637 
1310	 0.362451087137635 
1311	 0.362733656296666 
1312	 0.363022714488586 
1313	 0.363316242429919 
1314	 0.363580352441017 
1315	 0.363851056496526 
1316	 0.364104662459881 
1317	 0.364327451062378 
1318	 0.364546037890765 
1319	 0.364762941788938 
1320	 0.364976829197336 
1321	 0.365182123932681 
1322	 0.365362452250892 
1323	 0.365540406499363 
1324	 0.365702971335272 
1325	 0.365844802368965 
1326	 0.365962760009201 
1327	 0.366108674824596 
1328	 0.366170414479799 
1329	 0.366131532236865 
1330	 0.366134043266073 
1331	 0.366078537439702 
1332	 0.366074742652593 
1333	 0.366127164288347 
1334	 0.366160044858952 
1335	 0.366232140073539 
1336	 0.366350340963945 
1337	 0.366397518030334 
1338	 0.366468006408567 
1339	 0.36643865761654 
1340	 0.366294014372888 
1341	 0.366265158923301 
1342	 0.366268059256978 
1343	 0.366200373959236 
1344	 0.366160364786244 
1345	 0.366079165714373 
1346	 0.365899121958951 
1347	 0.365776456599801 
1348	 0.365691006019886 
1349	 0.365591011077253 
1350	 0.365510337912948 
1351	 0.36537555889711 
1352	 0.365200801110708 
1353	 0.365054016947436 
1354	 0.364870536923795 
1355	 0.364708336524471 
1356	 0.36456720024922 
1357	 0.36445298702372 
1358	 0.364384188909918 
1359	 0.364261437247623 
1360	 0.364132185707315 
1361	 0.364001266289614 
1362	 0.363867391610992 
1363	 0.363695705242806 
1364	 0.363598246776498 
1365	 0.363599141037949 
1366	 0.363460121898645 
1367	 0.363281337245023 
1368	 0.363113464247087 
1369	 0.362890199595068 
1370	 0.362670059483678 
1371	 0.362473964629279 
1372	 0.362242215405149 
1373	 0.361943707192241 
1374	 0.361702561410303 
1375	 0.361522091954426 
1376	 0.361252237311188 
1377	 0.360933329669146 
1378	 0.36064594462086 
1379	 0.360336915233742 
1380	 0.360009402994389 
1381	 0.359696268238798 
1382	 0.359371783145442 
1383	 0.358982016133817 
1384	 0.358642076431288 
1385	 0.358363344586543 
1386	 0.358049155121058 
1387	 0.357721986961127 
1388	 0.3574028099562 
1389	 0.357084148274224 
1390	 0.356749557351884 
1391	 0.356376758761219 
1392	 0.356054707249477 
1393	 0.355784710455679 
1394	 0.3554989188131 
1395	 0.355280729391002 
1396	 0.35515611819498 
1397	 0.354971874420374 
1398	 0.35480533554164 
1399	 0.35458298376487 
1400	 0.354334313378051 
1401	 0.354081794968544 
1402	 0.353812740841491 
1403	 0.353500074996408 
1404	 0.353179480196898 
1405	 0.352824186000196 
1406	 0.352409624821419 
1407	 0.351995890734319 
1408	 0.351571116066138 
1409	 0.35113130916849 
1410	 0.350670657195296 
1411	 0.350195036118235 
1412	 0.349651815541194 
1413	 0.349207578075955 
1414	 0.348711137814486 
1415	 0.348385003114855 
1416	 0.348162817078371 
1417	 0.348042181782777 
1418	 0.348084816264934 
1419	 0.348123205932784 
1420	 0.348306681744796 
1421	 0.348401510534034 
1422	 0.348495752599366 
1423	 0.348545053135589 
1424	 0.348528865098877 
1425	 0.348501663901163 
1426	 0.348483250713753 
1427	 0.348470468084575 
1428	 0.348478761160537 
1429	 0.34844802635845 
1430	 0.348421096218742 
1431	 0.348379420985341 
1432	 0.348339329463083 
1433	 0.348280214397202 
1434	 0.348271412421505 
1435	 0.348290761563825 
1436	 0.348272295895566 
1437	 0.348247950835937 
1438	 0.348263422957718 
1439	 0.348264583651785 
1440	 0.348295099710672 
1441	 0.348409988505049 
1442	 0.348449342704775 
1443	 0.348425496450612 
1444	 0.348458658513122 
1445	 0.348463187430973 
1446	 0.348549259410654 
1447	 0.348684599114558 
1448	 0.348861940611832 
1449	 0.349114780889348 
1450	 0.349352393686959 
1451	 0.349612466505759 
1452	 0.349889124963313 
1453	 0.350159456563956 
1454	 0.350469255603215 
1455	 0.350837394376821 
1456	 0.351183445020384 
1457	 0.351531284769826 
1458	 0.351902220901427 
1459	 0.35226696000621 
1460	 0.352658143648726 
1461	 0.35312372051741 
1462	 0.353526246787838 
1463	 0.353906023861317 
1464	 0.354279846946644 
1465	 0.354617575792596 
1466	 0.354948859781341 
1467	 0.355262665909612 
1468	 0.355596238200474 
1469	 0.355947144967406 
1470	 0.356258686350647 
1471	 0.356579904885058 
1472	 0.35691314703575 
1473	 0.357240848615612 
1474	 0.357563224725667 
1475	 0.357860581654388 
1476	 0.358145426131604 
1477	 0.358461945457714 
1478	 0.358772879123853 
1479	 0.359059068009377 
1480	 0.359366816839346 
1481	 0.359660084910088 
1482	 0.359892966780926 
1483	 0.360185914401966 
1484	 0.360542746630283 
1485	 0.360841554625649 
1486	 0.361117031633106 
1487	 0.361407303155932 
1488	 0.361684359300351 
1489	 0.361967446575012 
1490	 0.362285238488744 
1491	 0.362550615838402 
1492	 0.362772706782996 
1493	 0.363017942167521 
1494	 0.36323120079648 
1495	 0.36348213428663 
1496	 0.363766436484652 
1497	 0.364043351102551 
1498	 0.364358516868583 
1499	 0.364621968613089 
1500	 0.364856735775653 
1501	 0.365094399527217 
1502	 0.365286896307761 
1503	 0.365506862077823 
1504	 0.36575736873989 
1505	 0.365987190596526 
1506	 0.366232631882795 
1507	 0.366440291262899 
1508	 0.366581035448215 
1509	 0.366779779557923 
1510	 0.367016692548416 
1511	 0.367208396473187 
1512	 0.367422357160389 
1513	 0.367610468329058 
1514	 0.36772374463915 
1515	 0.367866042225132 
1516	 0.368040740768364 
1517	 0.368192081777729 
1518	 0.368316003184905 
1519	 0.368462264891328 
1520	 0.368644210520675 
1521	 0.36876707029594 
1522	 0.368888698450276 
1523	 0.369015452059207 
1524	 0.369120547416393 
1525	 0.369183528344926 
1526	 0.369277523261886 
1527	 0.369386474308982 
1528	 0.369481861002963 
1529	 0.369583550400181 
1530	 0.369634477186641 
1531	 0.369656085933432 
1532	 0.369704510549425 
1533	 0.369722020377173 
1534	 0.369773216589518 
1535	 0.369860048930136 
1536	 0.369930949189081 
1537	 0.370005107415443 
1538	 0.37005351611176 
1539	 0.370088251891104 
1540	 0.3701489465789 
1541	 0.370189426808289 
1542	 0.370262687843879 
1543	 0.370392902479175 
1544	 0.370465591874246 
1545	 0.370508917232123 
1546	 0.370574751743227 
1547	 0.370616569462367 
1548	 0.37070280558177 
1549	 0.370805469546084 
1550	 0.370946013970943 
1551	 0.371154484521546 
1552	 0.371286811144885 
1553	 0.371424817255123 
1554	 0.371531528597122 
1555	 0.371578631830429 
1556	 0.37163938029825 
1557	 0.371677611639718 
1558	 0.371766339708134 
1559	 0.371869327011661 
1560	 0.371965169323364 
1561	 0.372121962502486 
1562	 0.372212779719062 
1563	 0.37221868040385 
1564	 0.37230931310358 
1565	 0.372441605809403 
1566	 0.372536103534586 
1567	 0.372667465381192 
1568	 0.372755910769846 
1569	 0.372752755134469 
1570	 0.372841222361714 
1571	 0.372995336327015 
1572	 0.373097232923624 
1573	 0.373225287084942 
1574	 0.373317232032624 
1575	 0.373348833004038 
1576	 0.373406254267927 
1577	 0.373464461286038 
1578	 0.373533484642758 
1579	 0.373595604827105 
1580	 0.373680186701482 
1581	 0.373794093865373 
1582	 0.373895852373409 
1583	 0.374008906847887 
1584	 0.37411090926648 
1585	 0.374188113938504 
1586	 0.374294492895689 
1587	 0.374451935995952 
1588	 0.374536523946318 
1589	 0.374584149852668 
1590	 0.374653595941086 
1591	 0.374674772915256 
1592	 0.374721177816327 
1593	 0.37482624721575 
1594	 0.374886019946327 
1595	 0.374897432685121 
1596	 0.374941064560466 
1597	 0.374982829020548 
1598	 0.375036171568811 
1599	 0.375153348317086 
1600	 0.375190701865875 
1601	 0.375159047064711 
1602	 0.37517661183408 
1603	 0.375160307616715 
1604	 0.375174109666357 
1605	 0.375243520542776 
1606	 0.375299622909373 
1607	 0.375377096509591 
1608	 0.375411162930074 
1609	 0.375432775754735 
1610	 0.375445810691848 
1611	 0.375385068546272 
1612	 0.375382682832254 
1613	 0.375449789954538 
1614	 0.375454449642872 
1615	 0.375440537475793 
1616	 0.375436999083649 
1617	 0.37539725932682 
1618	 0.375367422814638 
1619	 0.375381069598871 
1620	 0.375351141399809 
1621	 0.375268400826809 
1622	 0.375218095505992 
1623	 0.375182409904439 
1624	 0.375117008904736 
1625	 0.37504129965282 
1626	 0.374978346165986 
1627	 0.37487809300206 
1628	 0.374819064568738 
1629	 0.374801509316434 
1630	 0.374779269919905 
1631	 0.374789776565581 
1632	 0.374772097382329 
1633	 0.374778756582922 
1634	 0.374720200983161 
1635	 0.374555596437617 
1636	 0.374472463128129 
1637	 0.374404219916908 
1638	 0.374328258393684 
1639	 0.374319333110685 
1640	 0.374272731007352 
1641	 0.374174076730485 
1642	 0.374083566941792 
1643	 0.373986531846035 
1644	 0.373909659156196 
1645	 0.373827113524779 
1646	 0.373766131497339 
1647	 0.373763596532285 
1648	 0.3736989970943 
1649	 0.373634721516059 
1650	 0.373525409682616 
1651	 0.373343603729435 
1652	 0.37318082677946 
1653	 0.37302329485767 
1654	 0.372813979964816 
1655	 0.372585548168243 
1656	 0.372343735190021 
1657	 0.372035321288319 
1658	 0.371753464971102 
1659	 0.371494288317278 
1660	 0.371210102733609 
1661	 0.370937365729666 
1662	 0.370616144946929 
1663	 0.370256289797922 
1664	 0.369875358833525 
1665	 0.369452329903274 
1666	 0.369024168567891 
1667	 0.368629132239302 
1668	 0.368144017414949 
1669	 0.367601640301292 
1670	 0.367023451364669 
1671	 0.366356144076035 
1672	 0.36568081443996 
1673	 0.365050702499069 
1674	 0.364276784677668 
1675	 0.363400889029192 
1676	 0.362514587766758 
1677	 0.361486986043601 
1678	 0.360552278919024 
1679	 0.359683132137585 
1680	 0.358719380455493 
1681	 0.357762380166284 
1682	 0.356724110211709 
1683	 0.355602398410846 
1684	 0.354472094945059 
1685	 0.353343418045583 
1686	 0.352097702491439 
1687	 0.350759306154367 
1688	 0.349366143354072 
1689	 0.347840561485023 
1690	 0.346384270938183 
1691	 0.34494147694157 
1692	 0.343503837319694 
1693	 0.342108902153512 
1694	 0.340603894648983 
1695	 0.339035329545492 
1696	 0.337425668017267 
1697	 0.33573667814608 
1698	 0.334076823557432 
1699	 0.332411566191971 
1700	 0.330751559765638 
1701	 0.329047411809317 
1702	 0.327456789639441 
1703	 0.325903072673606 
1704	 0.324354017049087 
1705	 0.322831720570017 
1706	 0.321338074976845 
1707	 0.32000717525971 
1708	 0.31875942879717 
1709	 0.31765177921047 
1710	 0.316698438510969 
1711	 0.315731009942326 
1712	 0.314838283857509 
1713	 0.314026770369324 
1714	 0.313169512994844 
1715	 0.312371684291806 
1716	 0.311635510043162 
1717	 0.310939008020669 
1718	 0.310348865982692 
1719	 0.309804542200958 
1720	 0.309342220947711 
1721	 0.30899188053379 
1722	 0.308595088372896 
1723	 0.30827048768542 
1724	 0.308059068889234 
1725	 0.30781885360867 
1726	 0.307746132803435 
1727	 0.307836703622281 
1728	 0.307950437696244 
1729	 0.308294178598499 
1730	 0.308850975237691 
1731	 0.309380449149318 
1732	 0.310082323382548 
1733	 0.310871352496273 
1734	 0.31165763854479 
1735	 0.312534746401306 
1736	 0.313292584397297 
1737	 0.314038782507577 
1738	 0.314651374205238 
1739	 0.315129635787757 
1740	 0.315547198330864 
1741	 0.31582487686794 
1742	 0.315918259747611 
1743	 0.316011844586352 
1744	 0.316035459967172 
1745	 0.315974892671329 
1746	 0.315847806305036 
1747	 0.315679658639126 
1748	 0.315370262077952 
1749	 0.315160906066475 
1750	 0.314939282304953 
1751	 0.314776340238362 
1752	 0.314627920467745 
1753	 0.314606277463338 
1754	 0.314650620342135 
1755	 0.314762681271221 
1756	 0.315015210498274 
1757	 0.315254215233187 
1758	 0.315585278577649 
1759	 0.316042459298227 
1760	 0.316454740101359 
1761	 0.317021336941887 
1762	 0.317699497085529 
1763	 0.318392181194391 
1764	 0.319209179356623 
1765	 0.320110458965854 
1766	 0.320970322603671 
1767	 0.321888326860528 
1768	 0.323019442218241 
1769	 0.324134979811091 
1770	 0.325206549131669 
1771	 0.326404436232349 
1772	 0.327432202049346 
1773	 0.328335711135495 
1774	 0.329283812833777 
1775	 0.330009366668222 
1776	 0.330726962543628 
1777	 0.331449447234159 
1778	 0.332057384146133 
1779	 0.332733521855364 
1780	 0.333294732780004 
1781	 0.333768074722054 
1782	 0.334259328050735 
1783	 0.334587969687291 
1784	 0.334873248930122 
1785	 0.335206692508071 
1786	 0.335511748886019 
1787	 0.33590225860225 
1788	 0.336165043392289 
1789	 0.33628008969568 
1790	 0.33650623828554 
1791	 0.336743522747765 
1792	 0.336894767428121 
1793	 0.337047514239094 
1794	 0.337134041191992 
1795	 0.337230926296217 
1796	 0.337389468806979 
1797	 0.337636885221536 
1798	 0.337864248043275 
1799	 0.338052067201127 
1800	 0.33816691590865 
1801	 0.338617575528849 
1802	 0.338864862394197 
1803	 0.339049057884467 
1804	 0.339161066087069 
1805	 0.339345576998554 
1806	 0.339518278211763 
1807	 0.339619586447889 
1808	 0.339861405401689 
1809	 0.340258919247545 
1810	 0.340508678003182 
1811	 0.340755256172023 
1812	 0.341005767917858 
1813	 0.341219500325696 
1814	 0.341350187455804 
1815	 0.341541557865484 
1816	 0.341796391437913 
1817	 0.342040309205862 
1818	 0.342236344255815 
1819	 0.342525297501594 
1820	 0.342938312623382 
1821	 0.343243395762104 
1822	 0.343517866804322 
1823	 0.343843662816895 
1824	 0.344065061233538 
1825	 0.344267003546276 
1826	 0.344536831761302 
1827	 0.344854556187007 
1828	 0.345103719998633 
1829	 0.345352843102366 
1830	 0.345608512163006 
1831	 0.345818512342462 
1832	 0.3460644441284 
1833	 0.34635854849312 
1834	 0.346699409769372 
1835	 0.346989506381618 
1836	 0.347249826303284 
1837	 0.347540318645223 
1838	 0.347825755047466 
1839	 0.348097101978708 
1840	 0.348397508403431 
1841	 0.348666043602205 
1842	 0.348891408478218 
1843	 0.349136724606585 
1844	 0.349397168187697 
1845	 0.349686801055216 
1846	 0.349980550697513 
1847	 0.350166509350725 
1848	 0.350391444392019 
1849	 0.350612483901633 
1850	 0.350829248503498 
1851	 0.351044857681018 
1852	 0.351268503875996 
1853	 0.351449333476977 
1854	 0.351548713587151 
1855	 0.351708283824888 
1856	 0.351876806115934 
1857	 0.352054771823899 
1858	 0.352240646135023 
1859	 0.352332668335664 
1860	 0.352363221900466 
1861	 0.352387005078004 
1862	 0.352375865116025 
1863	 0.352271898703742 
1864	 0.352246438373651 
1865	 0.352147430859067 
1866	 0.351975155920984 
1867	 0.351821205619723 
1868	 0.351635216259461 
1869	 0.35140263727172 
1870	 0.351183281843212 
1871	 0.351034439073282 
1872	 0.350777652965283 
1873	 0.350465987248034 
1874	 0.350113150384439 
1875	 0.349772643503304 
1876	 0.349354291964915 
1877	 0.348981718413724 
1878	 0.348545125523128 
1879	 0.347878708741494 
1880	 0.347155270825215 
1881	 0.346358825617973 
1882	 0.345423693292213 
1883	 0.344459414032257 
1884	 0.343464725716206 
1885	 0.342321646695149 
1886	 0.341181991006922 
1887	 0.339950261768545 
1888	 0.338602671147179 
1889	 0.337289467847171 
1890	 0.335868331024532 
1891	 0.334348431871689 
1892	 0.332729326925527 
1893	 0.331064422003824 
1894	 0.329314553743239 
1895	 0.327570591582602 
1896	 0.325730657944009 
1897	 0.323891394615595 
1898	 0.322202558065483 
1899	 0.320474682902852 
1900	 0.318788929088213 
1901	 0.317277849063633 
1902	 0.315687305731337 
1903	 0.314198722317709 
1904	 0.312800233126974 
1905	 0.311490376533589 
1906	 0.310180200116021 
1907	 0.309023609450581 
1908	 0.307869277487865 
1909	 0.306802720524809 
1910	 0.305860984068788 
1911	 0.30492249405875 
1912	 0.304118917194346 
1913	 0.303358362751309 
1914	 0.302594907898013 
1915	 0.301930415308187 
1916	 0.30137696947905 
1917	 0.30083343291244 
1918	 0.300353871495091 
1919	 0.300017278814331 
1920	 0.299670440011969 
1921	 0.299353874608647 
1922	 0.299033915447911 
1923	 0.298662238830051 
1924	 0.298378754572658 
1925	 0.298202752608953 
1926	 0.298024027307511 
1927	 0.297921622055382 
1928	 0.29775852468716 
1929	 0.297575348465842 
1930	 0.297403134912497 
1931	 0.297275818903245 
1932	 0.297217968435112 
1933	 0.297291483206819 
1934	 0.297403374934795 
1935	 0.297500207939262 
1936	 0.297665257525819 
1937	 0.297822358467175 
1938	 0.297955410980865 
1939	 0.298173712052307 
1940	 0.298431924472116 
1941	 0.298723869105025 
1942	 0.29909752541567 
1943	 0.299503551173195 
1944	 0.29982846282443 
1945	 0.300156659890065 
1946	 0.300554378613269 
1947	 0.300951957673441 
1948	 0.301410052600523 
1949	 0.301864634372684 
1950	 0.302308586802252 
1951	 0.302700326606563 
1952	 0.303156876909498 
1953	 0.303623103279209 
1954	 0.304152130380163 
1955	 0.304717881318865 
1956	 0.305276848304562 
1957	 0.305828231457404 
1958	 0.30640498515601 
1959	 0.306935872568365 
1960	 0.307422574208178 
1961	 0.307914422897511 
1962	 0.308359853556699 
1963	 0.308841480348923 
1964	 0.309371836142915 
1965	 0.309842241866798 
1966	 0.310277801454869 
1967	 0.310762468453341 
1968	 0.311212166363656 
1969	 0.311625219256824 
1970	 0.312030838710073 
1971	 0.312467804337812 
1972	 0.312953729483748 
1973	 0.313402082153098 
1974	 0.313844339359417 
1975	 0.314337845257577 
1976	 0.314764618667275 
1977	 0.315109895286954 
1978	 0.315503306651354 
1979	 0.315881493860526 
1980	 0.316305542645581 
1981	 0.316799817869411 
1982	 0.317220926682937 
1983	 0.317671922478245 
1984	 0.318162358883838 
1985	 0.318579829975801 
1986	 0.319012784408354 
1987	 0.319415186921253 
1988	 0.319760304732549 
1989	 0.320193088596604 
1990	 0.32064469520051 
1991	 0.321091230558454 
1992	 0.321614969296805 
1993	 0.322091508064477 
1994	 0.322498746330361 
1995	 0.32293141019013 
1996	 0.323374481281766 
1997	 0.32381959054942 
1998	 0.324223301594029 
1999	 0.324615382823159 
2000	 0.324971090937901 
2001	 0.325284151101975 
2002	 0.325593234011483 
2003	 0.325870882853101 
2004	 0.326169301568928 
2005	 0.326485337023966 
2006	 0.326745124360951 
2007	 0.326987212695623 
2008	 0.327207529664598 
2009	 0.327417705145643 
2010	 0.327604539123344 
2011	 0.327757832961628 
2012	 0.327973426361651 
2013	 0.328156186774025 
2014	 0.328337525201522 
2015	 0.328465447105613 
2016	 0.328595950800878 
2017	 0.328643894040542 
2018	 0.328597230216602 
2019	 0.32855918849917 
2020	 0.32847999060836 
2021	 0.328420011589011 
2022	 0.328321560681617 
2023	 0.328214233248588 
2024	 0.328110504378452 
2025	 0.328024535163706 
2026	 0.327885041080138 
2027	 0.327727097556859 
2028	 0.327544145966494 
2029	 0.327277701344338 
2030	 0.327086216885375 
2031	 0.326936975463627 
2032	 0.326764830792925 
2033	 0.326599479972355 
2034	 0.326444783032621 
2035	 0.32629100088624 
2036	 0.326131549255817 
2037	 0.325949528819894 
2038	 0.32576073792728 
2039	 0.325550698202358 
2040	 0.325284940669462 
2041	 0.32503747877097 
2042	 0.324785765222821 
2043	 0.324559828754176 
2044	 0.32431960241402 
2045	 0.324106828493452 
2046	 0.323914819208314 
2047	 0.323751096713969 
2048	 0.323621703562573 
2049	 0.323491648637249 
2050	 0.32338462390992 
2051	 0.323306235516676 
2052	 0.323213797500544 
2053	 0.322995651624772 
2054	 0.322814110314109 
2055	 0.322596184650315 
2056	 0.322412518548874 
2057	 0.322220458839081 
2058	 0.322072109277881 
2059	 0.321965750385511 
2060	 0.321849341101765 
2061	 0.321752490682508 
2062	 0.3216358377432 
2063	 0.321501912613985 
2064	 0.321381172227786 
2065	 0.321257748759812 
2066	 0.321151233475796 
2067	 0.321038135949635 
2068	 0.320959302768602 
2069	 0.320849848882049 
2070	 0.320715724589249 
2071	 0.320626146988125 
2072	 0.320561738872356 
2073	 0.320453321438622 
2074	 0.320391649243241 
2075	 0.320234145664042 
2076	 0.319982346479587 
2077	 0.319770547423771 
2078	 0.319491387606993 
2079	 0.319287826521556 
2080	 0.319088736484648 
2081	 0.318953144819974 
2082	 0.318928332970264 
2083	 0.318863787238752 
2084	 0.318728297144921 
2085	 0.318684097085237 
2086	 0.318583801422547 
2087	 0.318401021808547 
2088	 0.318292607304438 
2089	 0.318271046176757 
2090	 0.318146298996059 
2091	 0.317970576470502 
2092	 0.317828247162999 
2093	 0.317651452009459 
2094	 0.317480361972674 
2095	 0.317320001548751 
2096	 0.317180930485172 
2097	 0.317053377963464 
2098	 0.316901368496529 
2099	 0.31678377906447 
2100	 0.316633412771342 
2101	 0.316459478374493 
2102	 0.316232977107511 
2103	 0.316043156784829 
2104	 0.315852071767204 
2105	 0.315670730262876 
2106	 0.315519256358669 
2107	 0.315310714467941 
2108	 0.315091779747172 
2109	 0.314847507509305 
2110	 0.314574840861983 
2111	 0.314264587420167 
2112	 0.313879764786335 
2113	 0.313561567280528 
2114	 0.313265863214334 
2115	 0.312932828914388 
2116	 0.312611739845573 
2117	 0.312313311759852 
2118	 0.311973244658995 
2119	 0.311557206328158 
2120	 0.311203287187141 
2121	 0.310870004670108 
2122	 0.310559874082726 
2123	 0.310233185370382 
2124	 0.309980839384803 
2125	 0.309830843906451 
2126	 0.309598048699751 
2127	 0.309338515312199 
2128	 0.309133248674247 
2129	 0.308907978666955 
2130	 0.308707221775103 
2131	 0.308589993387423 
2132	 0.308445610029715 
2133	 0.308290807924821 
2134	 0.308121911979204 
2135	 0.30798225005422 
2136	 0.307768810617703 
2137	 0.307570012448668 
2138	 0.3073171069455 
2139	 0.307167280038466 
2140	 0.307039889283376 
2141	 0.306950855296866 
2142	 0.306937905450949 
2143	 0.306895170284145 
2144	 0.306882738571382 
2145	 0.306835042101738 
2146	 0.306745938590949 
2147	 0.306727315810987 
2148	 0.306718604866396 
2149	 0.306721228973934 
2150	 0.306759905882164 
2151	 0.306827506912748 
2152	 0.306931803293069 
2153	 0.307005160449622 
2154	 0.307096292476828 
2155	 0.307207765311622 
2156	 0.30724909430256 
2157	 0.307238021257927 
2158	 0.307201999073951 
2159	 0.307118473888293 
2160	 0.307070065704422 
2161	 0.306962549068399 
2162	 0.306949137926632 
2163	 0.30703051931628 
2164	 0.30703218137344 
2165	 0.307057047575696 
2166	 0.307025814830748 
2167	 0.306937615592762 
2168	 0.306845038806198 
2169	 0.306685906173257 
2170	 0.306597029088419 
2171	 0.306545295467732 
2172	 0.30646355795035 
2173	 0.306393779760799 
2174	 0.3063490603406 
2175	 0.306313371183291 
2176	 0.306160090123989 
2177	 0.306076448829364 
2178	 0.306014306370266 
2179	 0.305971618045518 
2180	 0.305988404587181 
2181	 0.305878698580392 
2182	 0.305736898098177 
2183	 0.305583475373875 
2184	 0.305323872199306 
2185	 0.305098217254813 
2186	 0.304865612248027 
2187	 0.304701584247568 
2188	 0.304582162962777 
2189	 0.304396237448168 
2190	 0.304297848301973 
2191	 0.304083980433553 
2192	 0.303723897761969 
2193	 0.303391448128895 
2194	 0.303031295536585 
2195	 0.302676024003819 
2196	 0.302278112691278 
2197	 0.301930817762909 
2198	 0.301611096260578 
2199	 0.301185859593734 
2200	 0.300846579158767 
2201	 0.300566586836428 
2202	 0.300168382302075 
2203	 0.299763998743729 
2204	 0.299300086217589 
2205	 0.298697026288738 
2206	 0.298196687700426 
2207	 0.297694594530982 
2208	 0.29726356198973 
2209	 0.296816071327105 
2210	 0.296545270102392 
2211	 0.296404637065792 
2212	 0.296288764572354 
2213	 0.29631286488989 
2214	 0.296316681166326 
2215	 0.296377581768697 
2216	 0.296382157946234 
2217	 0.296503027980593 
2218	 0.296431157944091 
2219	 0.296185614957017 
2220	 0.295965528030046 
2221	 0.295722068547434 
2222	 0.295314831950833 
2223	 0.294943888071676 
2224	 0.294593651938848 
2225	 0.29402173528325 
2226	 0.29346017326618 
2227	 0.292832879699084 
2228	 0.292140257525405 
2229	 0.291380873787487 
2230	 0.290548498851676 
2231	 0.289708462350202 
2232	 0.288837277964568 
2233	 0.287859972520291 
2234	 0.286901554143376 
2235	 0.285732845295791 
2236	 0.284358396833065 
2237	 0.283010856017847 
2238	 0.281549518302946 
2239	 0.280060512091425 
2240	 0.27859170731289 
2241	 0.276969732336326 
2242	 0.275218367378916 
2243	 0.273440392974544 
2244	 0.271590712522175 
2245	 0.269654336075736 
2246	 0.267633972977981 
2247	 0.265553933428218 
2248	 0.263320537645295 
2249	 0.261129920124442 
2250	 0.258876606022358 
2251	 0.256758089132103 
2252	 0.254451227005101 
2253	 0.252146136588172 
2254	 0.249795339197888 
2255	 0.247462338526746 
2256	 0.245367567805258 
2257	 0.243201217070005 
2258	 0.241055872729226 
2259	 0.238935599349974 
2260	 0.23685232755424 
2261	 0.234731761913973 
2262	 0.232766517861195 
2263	 0.230876925969766 
2264	 0.229101237832739 
2265	 0.227490919577202 
2266	 0.225800700070882 
2267	 0.22419972599069 
2268	 0.222535212714886 
2269	 0.220743802763115 
2270	 0.219146432673633 
2271	 0.217619953974786 
2272	 0.216160490124423 
2273	 0.214961169491266 
2274	 0.213501035450953 
2275	 0.21192950046241 
2276	 0.210398611963275 
2277	 0.208735290821235 
2278	 0.207140148481302 
2279	 0.205696092928987 
2280	 0.204092261517186 
2281	 0.202342003142991 
2282	 0.200632774298022 
2283	 0.198870595552132 
2284	 0.197140058179547 
2285	 0.195310144709199 
2286	 0.193616783017328 
2287	 0.191833681228903 
2288	 0.190027550966559 
2289	 0.188447446811541 
2290	 0.18678942601753 
2291	 0.185077633137851 
2292	 0.183309253720612 
2293	 0.181405493540443 
2294	 0.179654415663104 
2295	 0.178016610836075 
2296	 0.17646847258088 
2297	 0.175184814233587 
2298	 0.174117059962681 
2299	 0.173156271287993 
2300	 0.172368109235165 
2301	 0.171836041774115 
2302	 0.171492454250619 
2303	 0.171316701505723 
2304	 0.171388951150355 
2305	 0.171664072027367 
2306	 0.172113168888076 
2307	 0.172756108633752 
2308	 0.173692973809409 
2309	 0.174731185825823 
2310	 0.175989572189666 
2311	 0.17721385314768 
2312	 0.178598082476463 
2313	 0.179970951081372 
2314	 0.181360951244237 
2315	 0.182782036929002 
2316	 0.184472622189616 
2317	 0.18573301401015 
2318	 0.186689316416412 
2319	 0.187734698504178 
2320	 0.188634942505173 
2321	 0.189469455822373 
2322	 0.190487362457645 
2323	 0.191107949781413 
2324	 0.191448463382645 
2325	 0.191596263371483 
2326	 0.191392254517475 
2327	 0.191278344250563 
2328	 0.191082837728897 
2329	 0.190718396640289 
2330	 0.190310848423094 
2331	 0.189694403615368 
2332	 0.189041203050824 
2333	 0.188286044444377 
2334	 0.187496390688193 
2335	 0.186573294116537 
2336	 0.185512530743465 
2337	 0.184312872970704 
2338	 0.183060734559622 
2339	 0.181974120421395 
2340	 0.180837367728011 
2341	 0.179814933501557 
2342	 0.17887729052422 
2343	 0.178113416478006 
2344	 0.177544487097808 
2345	 0.176860035146767 
2346	 0.176532774332271 
2347	 0.176510453351121 
2348	 0.17668251165164 
2349	 0.17723537884022 
2350	 0.177740904751186 
2351	 0.178468672410015 
2352	 0.179240854035609 
2353	 0.180107038122289 
2354	 0.181187885515317 
2355	 0.181957365782225 
2356	 0.182686394731412 
2357	 0.183406894859127 
2358	 0.184044045577319 
2359	 0.184656455900488 
2360	 0.185261711328424 
2361	 0.185660851205503 
2362	 0.185679905043587 
2363	 0.185649254831065 
2364	 0.185522525364304 
2365	 0.185381329039195 
2366	 0.185498733777906 
2367	 0.185571968200051 
2368	 0.185626792526667 
2369	 0.185640842215019 
2370	 0.1853610034116 
2371	 0.185278005148519 
2372	 0.185163247645715 
2373	 0.184696074811293 
2374	 0.184604533015703 
2375	 0.184657275867902 
2376	 0.184632660828182 
2377	 0.184911679850146 
2378	 0.18508668758599 
2379	 0.185077313358137 
2380	 0.185320201999597 
2381	 0.185436822593125 
2382	 0.185537660423286 
2383	 0.185701893558553 
2384	 0.185788462484347 
2385	 0.18581746855906 
2386	 0.185821886759999 
2387	 0.185719504302399 
2388	 0.185676764388762 
2389	 0.185537066469209 
2390	 0.185535281989543 
2391	 0.185778150362222 
2392	 0.185889235101459 
2393	 0.185886808657899 
2394	 0.185998810288258 
2395	 0.186087740929877 
2396	 0.186169506460528 
2397	 0.186375226445105 
2398	 0.18665460274301 
2399	 0.186993804209807 
2400	 0.187134435115475 
2401	 0.187282891974961 
2402	 0.187128819707289 
2403	 0.186933279387723 
2404	 0.186572967794726 
2405	 0.186527369103122 
2406	 0.186575910388094 
2407	 0.186359987998686 
2408	 0.186416211864607 
2409	 0.186510495250677 
2410	 0.186091486658775 
2411	 0.18612154400552 
2412	 0.186568065715617 
2413	 0.186653845479731 
2414	 0.187087639667401 
2415	 0.187423659600782 
2416	 0.187105956182753 
2417	 0.186959659859441 
2418	 0.186771490716679 
2419	 0.186424533755665 
2420	 0.186513899266473 
2421	 0.186751824760702 
2422	 0.18716770494567 
2423	 0.187609123439747 
2424	 0.1877770704077 
2425	 0.1877273932259 
2426	 0.187141727085583 
2427	 0.18669309279839 
2428	 0.186495709308992 
2429	 0.186324313478175 
2430	 0.186268264178004 
2431	 0.186196776891202 
2432	 0.186062572134672 
2433	 0.18559669134965 
2434	 0.185266567114562 
2435	 0.184957309058238 
2436	 0.184797765679252 
2437	 0.185108822192405 
2438	 0.185008105833937 
2439	 0.184989594455603 
2440	 0.185378755565198 
2441	 0.185031762957539 
2442	 0.184795900097406 
2443	 0.184926342235928 
2444	 0.184571612586693 
2445	 0.184402765539424 
2446	 0.184001159236308 
2447	 0.183116325354259 
2448	 0.182653739336615 
2449	 0.183090223918313 
2450	 0.183456076116078 
2451	 0.183277703049426 
2452	 0.1827158137137 
2453	 0.180891526634318 
2454	 0.179911733300383 
2455	 0.180585300258052 
2456	 0.180987653503438 
2457	 0.18165479038886 
2458	 0.181651902350491 
2459	 0.180869285249922 
2460	 0.180880072542866 
2461	 0.180670721768266 
2462	 0.180141947556859 
2463	 0.180007434293153 
2464	 0.179782311960007 
2465	 0.179121027258148 
2466	 0.178240698334437 
2467	 0.177678979432376 
2468	 0.177315970453612 
2469	 0.177042525647081 
2470	 0.177993745003151 
2471	 0.179101012789531 
2472	 0.178776363128184 
2473	 0.179058109890457 
2474	 0.179411081812655 
2475	 0.178941713043783 
2476	 0.179292766748423 
2477	 0.178806820283491 
2478	 0.177890903263122 
2479	 0.178599609986723 
2480	 0.17917879039187 
2481	 0.179200063570001 
2482	 0.179192355844019 
2483	 0.177861975711182 
2484	 0.177497638905903 
2485	 0.177618295442233 
2486	 0.177720519018917 
2487	 0.17769609870091 
2488	 0.178139477491035 
2489	 0.17863489564008 
2490	 0.17760999751535 
2491	 0.178034987895603 
2492	 0.178071296380941 
2493	 0.176358145313431 
2494	 0.17800971137457 
2495	 0.180022420245969 
2496	 0.180410939870854 
2497	 0.181959271834013 
2498	 0.181625072826701 
2499	 0.180031910641997 
2500	 0.18060479877182 
