Wavelength	Tablay400023.asd
350	 0.31771105838376 
351	 0.314728385154344 
352	 0.288307535036845 
353	 0.262658162602628 
354	 0.220714232549855 
355	 0.238876318170365 
356	 0.288991185782365 
357	 0.325342171638412 
358	 0.320152522916862 
359	 0.272723868229036 
360	 0.234877789971029 
361	 0.257013041351755 
362	 0.234202295141944 
363	 0.244442705534465 
364	 0.280165428105575 
365	 0.199864197680345 
366	 0.190837303556036 
367	 0.218378529655726 
368	 0.213585178362068 
369	 0.202005789020533 
370	 0.193920973502862 
371	 0.18069630052218 
372	 0.153982712884934 
373	 0.183911256105721 
374	 0.198774006652843 
375	 0.17777240204571 
376	 0.19003646585049 
377	 0.169748681679792 
378	 0.154361800033703 
379	 0.171992969122196 
380	 0.145095071505544 
381	 0.147922830743056 
382	 0.178418392099721 
383	 0.18718986433362 
384	 0.151861353593468 
385	 0.129390280497736 
386	 0.138361367068898 
387	 0.13874176931134 
388	 0.135689978763877 
389	 0.147344885499366 
390	 0.173387775560315 
391	 0.133204800543962 
392	 0.122216709631853 
393	 0.143828191276459 
394	 0.140959565916316 
395	 0.121421255480993 
396	 0.11663324558386 
397	 0.130569480615425 
398	 0.119326955535311 
399	 0.114087349404925 
400	 0.12029600228165 
401	 0.131051842456285 
402	 0.117838905337026 
403	 0.102254885160598 
404	 9.52223241325132E-02 
405	 9.77800727282025E-02 
406	 0.106786517528508 
407	 0.108582488909401 
408	 0.100598342152929 
409	 0.10374533403532 
410	 9.79193983485965E-02 
411	 9.14112000854943E-02 
412	 0.09526745842298 
413	 8.81400068442078E-02 
414	 8.49732006811655E-02 
415	 8.89893170834538E-02 
416	 9.15048545218786E-02 
417	 8.94066247398017E-02 
418	 8.54665113429114E-02 
419	 8.27139495209745E-02 
420	 8.24368981260348E-02 
421	 8.19510581799815E-02 
422	 8.22971896130869E-02 
423	 8.41994617912796E-02 
424	 7.54010497041495E-02 
425	 7.48453571596708E-02 
426	 8.31302838836216E-02 
427	 7.91650762327377E-02 
428	 7.63842868299532E-02 
429	 7.45439248194789E-02 
430	 7.20467789599951E-02 
431	 7.18422723527658E-02 
432	 7.42628090018554E-02 
433	 7.71549262598461E-02 
434	 7.73139294762557E-02 
435	 7.43128408726564E-02 
436	 0.073676549117655 
437	 7.57948564668365E-02 
438	 7.26341378873843E-02 
439	 6.95343693536223E-02 
440	 6.84544720738612E-02 
441	 6.96391320264509E-02 
442	 7.08629900827881E-02 
443	 7.03772832069886E-02 
444	 6.85625963246423E-02 
445	 6.74669235944025E-02 
446	 6.87955872331387E-02 
447	 6.91566185943558E-02 
448	 6.74287149137157E-02 
449	 6.92250409311628E-02 
450	 6.87423363896659E-02 
451	 6.72901585666211E-02 
452	 6.80350849117039E-02 
453	 6.85807369297586E-02 
454	 6.87242062880576E-02 
455	 6.84780366685687E-02 
456	 6.79572435034153E-02 
457	 6.80017316397814E-02 
458	 6.80913677128748E-02 
459	 6.79376950348862E-02 
460	 6.89877856222246E-02 
461	 6.89968307799885E-02 
462	 6.81287761655948E-02 
463	 6.78059825494441E-02 
464	 0.0678036269826 
465	 6.94423061441321E-02 
466	 7.16302415887702E-02 
467	 6.94140888982166E-02 
468	 6.90935326176402E-02 
469	 7.03713204509348E-02 
470	 7.11136596317911E-02 
471	 6.96901962262725E-02 
472	 0.070552586477549 
473	 7.27140843659667E-02 
474	 7.14267727256684E-02 
475	 7.26927682576594E-02 
476	 7.42437630270561E-02 
477	 7.41998071812729E-02 
478	 7.41645886641015E-02 
479	 7.41865268403187E-02 
480	 7.54951375188008E-02 
481	 7.86760138844826E-02 
482	 7.81937577969795E-02 
483	 0.078896337243543 
484	 8.15144309906558E-02 
485	 8.15718197667551E-02 
486	 8.20313967006052E-02 
487	 8.33450729938585E-02 
488	 8.51359140653276E-02 
489	 8.63770055348576E-02 
490	 8.70353414807533E-02 
491	 8.81020501555273E-02 
492	 9.07616222246687E-02 
493	 9.23129257572879E-02 
494	 9.39418178280237E-02 
495	 9.60987885453194E-02 
496	 9.72470557802673E-02 
497	 9.94881431051854E-02 
498	 0.101994491908306 
499	 0.103578992283402 
500	 0.105646958920261 
501	 0.107232456240104 
502	 0.108757546611042 
503	 0.111728129269615 
504	 0.113843159721947 
505	 0.115520613070853 
506	 0.117555242489889 
507	 0.120598208994523 
508	 0.122703964937094 
509	 0.124307013754394 
510	 0.126688751298472 
511	 0.129171323533721 
512	 0.131299980963174 
513	 0.133115939222638 
514	 0.13523794105356 
515	 0.137774728903519 
516	 0.140390216215692 
517	 0.14272180044721 
518	 0.144752201666891 
519	 0.146847348480828 
520	 0.149235862107206 
521	 0.151948696464417 
522	 0.154122916844837 
523	 0.156286870131874 
524	 0.158798306813637 
525	 0.161370087846528 
526	 0.163670490439192 
527	 0.165783128765041 
528	 0.167946431168135 
529	 0.170264325996486 
530	 0.172354278017995 
531	 0.174319597022812 
532	 0.176762116766171 
533	 0.179505019863815 
534	 0.181764506570531 
535	 0.183251843736611 
536	 0.185367338919547 
537	 0.187683733530114 
538	 0.190014213540919 
539	 0.192276510777721 
540	 0.194155086235951 
541	 0.196082336513406 
542	 0.198173837806927 
543	 0.199897538752967 
544	 0.201823268060332 
545	 0.203843006063537 
546	 0.205681154129652 
547	 0.207246419208529 
548	 0.209031992528545 
549	 0.211060187343098 
550	 0.212938471351101 
551	 0.214937482018183 
552	 0.216794775541339 
553	 0.218414371798965 
554	 0.220339342394882 
555	 0.222234950284188 
556	 0.224059664341354 
557	 0.225901920874518 
558	 0.227798029646753 
559	 0.229496908077473 
560	 0.231018929191118 
561	 0.232792500518446 
562	 0.234405437726331 
563	 0.235987835110061 
564	 0.237684317903033 
565	 0.239132506105708 
566	 0.240535516132229 
567	 0.241859491657381 
568	 0.242940756041589 
569	 0.244370224486761 
570	 0.245666295144461 
571	 0.246596501616042 
572	 0.247751660047337 
573	 0.24923780688252 
574	 0.250706774463144 
575	 0.251751991266849 
576	 0.252895941396393 
577	 0.253897666517826 
578	 0.25478210602347 
579	 0.255915468384057 
580	 0.256987906390551 
581	 0.258086943696374 
582	 0.259300348886452 
583	 0.260434031605911 
584	 0.261530812030333 
585	 0.262697342583954 
586	 0.264036311133048 
587	 0.265265808045629 
588	 0.266323061820881 
589	 0.267306856510389 
590	 0.268520510818193 
591	 0.269709801882764 
592	 0.27089102747349 
593	 0.272093475953194 
594	 0.273022695174691 
595	 0.274057765827393 
596	 0.275211459052387 
597	 0.276165913376051 
598	 0.276902598818453 
599	 0.277717301223412 
600	 0.278785574505225 
601	 0.279897864982814 
602	 0.280744712187452 
603	 0.281521109825078 
604	 0.282562163504571 
605	 0.283438667803226 
606	 0.284292722290694 
607	 0.285181914511946 
608	 0.286000408174147 
609	 0.286883321271678 
610	 0.287755494353877 
611	 0.2885136348016 
612	 0.289086592000653 
613	 0.289957845977212 
614	 0.290997960227061 
615	 0.291715487605343 
616	 0.292306678174841 
617	 0.292945740793364 
618	 0.293687426955964 
619	 0.29438602060129 
620	 0.295044376865879 
621	 0.295737559144746 
622	 0.296515848521792 
623	 0.297182629102802 
624	 0.297782685908648 
625	 0.298363586173167 
626	 0.298966399490531 
627	 0.29965325010648 
628	 0.300224207123803 
629	 0.300651207813537 
630	 0.301480321932188 
631	 0.302120807417514 
632	 0.302601420692812 
633	 0.30319267923789 
634	 0.303767161582368 
635	 0.304352803412142 
636	 0.304932144904107 
637	 0.305418917222782 
638	 0.305895562255749 
639	 0.306399845214858 
640	 0.306939057895067 
641	 0.307474130649598 
642	 0.307935447790009 
643	 0.308377181043823 
644	 0.308897184720779 
645	 0.309193113552531 
646	 0.309622557733523 
647	 0.310274083760459 
648	 0.310674844079296 
649	 0.311050643320868 
650	 0.31143478155086 
651	 0.311820359133221 
652	 0.312257942795373 
653	 0.312687785558055 
654	 0.313076061833464 
655	 0.313422647139549 
656	 0.313857622581798 
657	 0.314236669190521 
658	 0.314498415667263 
659	 0.314842563152121 
660	 0.315220637068043 
661	 0.315594264945819 
662	 0.315930925881024 
663	 0.316246746559559 
664	 0.316554521795088 
665	 0.316891998585662 
666	 0.31731123454384 
667	 0.317616894423004 
668	 0.31781276586289 
669	 0.318001937828008 
670	 0.318448596540717 
671	 0.318767406969346 
672	 0.318949843486903 
673	 0.319161835531636 
674	 0.319439536872227 
675	 0.319716169268672 
676	 0.319974487558435 
677	 0.320267878177862 
678	 0.320436185492858 
679	 0.320633036145134 
680	 0.320970948253014 
681	 0.321220453959604 
682	 0.321408930975133 
683	 0.321646662387373 
684	 0.322025692308787 
685	 0.322076006526188 
686	 0.322192254744413 
687	 0.322515490628375 
688	 0.32271213587678 
689	 0.322869213038595 
690	 0.323008884093604 
691	 0.323164735536244 
692	 0.323452009407155 
693	 0.323700297909239 
694	 0.323874817445488 
695	 0.324033468833325 
696	 0.324197026745957 
697	 0.324370947691906 
698	 0.324557521518737 
699	 0.324758353310357 
700	 0.325038481114667 
701	 0.325198257894421 
702	 0.325125484578351 
703	 0.325301969181658 
704	 0.325552959287811 
705	 0.32579241058332 
706	 0.326000540054041 
707	 0.326104635480053 
708	 0.326194814990497 
709	 0.326350912989727 
710	 0.326605161663977 
711	 0.326769660754521 
712	 0.326878674536712 
713	 0.327016589749631 
714	 0.327155505319643 
715	 0.327352452775758 
716	 0.327600911068716 
717	 0.327835035624508 
718	 0.327894388506631 
719	 0.327910625047036 
720	 0.328011657253901 
721	 0.328250638092421 
722	 0.328491301922905 
723	 0.328645811339086 
724	 0.328707015454208 
725	 0.328896800950103 
726	 0.329083044435216 
727	 0.329271783359952 
728	 0.329549665444476 
729	 0.329739614946907 
730	 0.329808558936836 
731	 0.329837367780627 
732	 0.330054922832005 
733	 0.330213244543108 
734	 0.330341311722491 
735	 0.330520122384726 
736	 0.330704951233474 
737	 0.33090725301248 
738	 0.331124618717603 
739	 0.33134109471565 
740	 0.331511987535527 
741	 0.331725314373217 
742	 0.331992060139581 
743	 0.332188346064376 
744	 0.332328758613603 
745	 0.332514705410062 
746	 0.332806232697131 
747	 0.333052788449152 
748	 0.333240399920706 
749	 0.333411680209022 
750	 0.333639466881858 
751	 0.333946703630522 
752	 0.334210452169937 
753	 0.334411252114235 
754	 0.334678832799931 
755	 0.334898886661697 
756	 0.335092171649715 
757	 0.335307449782283 
758	 0.335582991197499 
759	 0.335862334844924 
760	 0.336096797719115 
761	 0.3362791129726 
762	 0.336621131635551 
763	 0.336933704567656 
764	 0.337171806373 
765	 0.337472268345599 
766	 0.337798054995732 
767	 0.338110559870403 
768	 0.33840178640862 
769	 0.338744168600837 
770	 0.339005456997486 
771	 0.339285695412674 
772	 0.339706002358919 
773	 0.340061775264153 
774	 0.340324163819591 
775	 0.340542680703384 
776	 0.340824366319326 
777	 0.341233044687791 
778	 0.341622178756693 
779	 0.341924981914838 
780	 0.342260769599664 
781	 0.34260457777546 
782	 0.342926747451998 
783	 0.343225614193995 
784	 0.343612051529301 
785	 0.343963788851605 
786	 0.344277815530348 
787	 0.344611015688728 
788	 0.344893699543406 
789	 0.345239517128424 
790	 0.345635826416286 
791	 0.345914065106085 
792	 0.346221586768304 
793	 0.346591855170341 
794	 0.347006917766837 
795	 0.347393711544535 
796	 0.347707404172886 
797	 0.348008168308347 
798	 0.348357738835046 
799	 0.348600247030844 
800	 0.34888574977162 
801	 0.349233922029535 
802	 0.349559263036738 
803	 0.349905939786462 
804	 0.350195670307339 
805	 0.350434246841039 
806	 0.350769186285286 
807	 0.351101500858239 
808	 0.351423458937902 
809	 0.351740230836181 
810	 0.352023177400873 
811	 0.352345821282614 
812	 0.352652689069025 
813	 0.352860355523867 
814	 0.353066715299258 
815	 0.353360876250862 
816	 0.353714038906384 
817	 0.353997327730901 
818	 0.354195662681248 
819	 0.354388572005021 
820	 0.354619335879179 
821	 0.354843400964555 
822	 0.355176630064762 
823	 0.355473358418675 
824	 0.355628701951569 
825	 0.35587647654583 
826	 0.356172547000489 
827	 0.356433521627095 
828	 0.356575621934533 
829	 0.356619528189313 
830	 0.356824278793018 
831	 0.357141179761678 
832	 0.357275872871114 
833	 0.357492209268011 
834	 0.357665856400516 
835	 0.357757138384407 
836	 0.35793531622013 
837	 0.358147669953555 
838	 0.35836382744322 
839	 0.358537599576201 
840	 0.358551917824067 
841	 0.358698439970759 
842	 0.358897385737259 
843	 0.358966607879355 
844	 0.359034906540073 
845	 0.359228495065906 
846	 0.359459385473862 
847	 0.359516278677074 
848	 0.359559036183617 
849	 0.359693025100142 
850	 0.359870134681768 
851	 0.359876025659072 
852	 0.359916030413736 
853	 0.359992480990202 
854	 0.36008156254457 
855	 0.360200626100492 
856	 0.360235376293349 
857	 0.360286099467589 
858	 0.360439695631966 
859	 0.360476691661673 
860	 0.360514150482426 
861	 0.360621082226268 
862	 0.360789737521799 
863	 0.3607453954527 
864	 0.360781430731147 
865	 0.360896514544076 
866	 0.360841585064836 
867	 0.360912651916138 
868	 0.360917671951954 
869	 0.360844257751298 
870	 0.360993558309717 
871	 0.360960290139503 
872	 0.361010217802451 
873	 0.361234376430332 
874	 0.361007376347438 
875	 0.361015346069337 
876	 0.361168728780032 
877	 0.361193767092903 
878	 0.361075730003868 
879	 0.361177739524206 
880	 0.361299616055022 
881	 0.36110374749551 
882	 0.361115179441991 
883	 0.361263188569457 
884	 0.361358267508326 
885	 0.361217205879622 
886	 0.361266637163252 
887	 0.361296833794821 
888	 0.361237057259641 
889	 0.361249984995698 
890	 0.361245205577418 
891	 0.361205293147519 
892	 0.36116508918624 
893	 0.361222109017043 
894	 0.361233267247782 
895	 0.361267339320695 
896	 0.361368840831801 
897	 0.361385799075151 
898	 0.361326197824178 
899	 0.361294419343065 
900	 0.361365441767513 
901	 0.361370631010732 
902	 0.361343383287348 
903	 0.361331278012146 
904	 0.361354891102734 
905	 0.361241362688976 
906	 0.36128893654217 
907	 0.361414428146453 
908	 0.361309622386759 
909	 0.361289045724445 
910	 0.361371949537301 
911	 0.361470850673058 
912	 0.361435167562295 
913	 0.361252520733455 
914	 0.361252189289495 
915	 0.36151288595575 
916	 0.361706144983185 
917	 0.361574823528156 
918	 0.361504971013422 
919	 0.36162734475914 
920	 0.361354435175293 
921	 0.361401629215553 
922	 0.361632196002386 
923	 0.361809446702174 
924	 0.362062945921853 
925	 0.362103489224117 
926	 0.361986407501112 
927	 0.361907230472205 
928	 0.362098478837444 
929	 0.362207364405366 
930	 0.36220735593937 
931	 0.362219637029715 
932	 0.362315180590711 
933	 0.362384907613535 
934	 0.362502760831797 
935	 0.362764938278632 
936	 0.362824801360422 
937	 0.362868076971142 
938	 0.362917475016437 
939	 0.362900457434543 
940	 0.363039506856521 
941	 0.36326458293331 
942	 0.363439901031885 
943	 0.36343464118711 
944	 0.363391777028998 
945	 0.363416588999568 
946	 0.363559501632643 
947	 0.363790744553644 
948	 0.363831841237287 
949	 0.363910221250449 
950	 0.364064185784099 
951	 0.364022679789769 
952	 0.363950905672506 
953	 0.363990416525794 
954	 0.364171862891578 
955	 0.36436740089132 
956	 0.364393357809334 
957	 0.364369863268882 
958	 0.364419894024353 
959	 0.364540997516771 
960	 0.364587790430298 
961	 0.364712368317945 
962	 0.36493525580854 
963	 0.364894520757807 
964	 0.364864823861979 
965	 0.36484116977996 
966	 0.364788945162594 
967	 0.364760843307726 
968	 0.364977769067209 
969	 0.365073046883869 
970	 0.364892666633749 
971	 0.365238186406902 
972	 0.365409156427228 
973	 0.365313469216319 
974	 0.365172810516786 
975	 0.365520305552275 
976	 0.365595027647355 
977	 0.365463555426109 
978	 0.365425040879411 
979	 0.365583768269989 
980	 0.365747506476825 
981	 0.365843571285328 
982	 0.36587465920059 
983	 0.365938014402902 
984	 0.365779476846096 
985	 0.365950178921889 
986	 0.366716513398045 
987	 0.36650632790688 
988	 0.366496319381465 
989	 0.366563890323347 
990	 0.366359913953109 
991	 0.366400793909175 
992	 0.366699950896216 
993	 0.366980478617249 
994	 0.367007844832006 
995	 0.367110225915707 
996	 0.366901645470429 
997	 0.366785050353487 
998	 0.367144428016242 
999	 0.367380238843584 
1000	 0.36730265059567 
1001	 0.359012961665528 
1002	 0.359166339948535 
1003	 0.35931601283735 
1004	 0.359378949695484 
1005	 0.359298952814557 
1006	 0.359377665628728 
1007	 0.359525650317301 
1008	 0.359635534364094 
1009	 0.359729371381389 
1010	 0.359892111488842 
1011	 0.36010574678358 
1012	 0.360246297688208 
1013	 0.36048195018373 
1014	 0.360638902505483 
1015	 0.360683324928989 
1016	 0.360719715887077 
1017	 0.360873337349375 
1018	 0.36083791493004 
1019	 0.360843947922685 
1020	 0.36090585299927 
1021	 0.360892814242105 
1022	 0.360801320082565 
1023	 0.360807086391231 
1024	 0.36079152586127 
1025	 0.360805994549068 
1026	 0.360894326729963 
1027	 0.360991531762136 
1028	 0.361078634920148 
1029	 0.361231169005309 
1030	 0.361410397589126 
1031	 0.361468786679924 
1032	 0.361451987614475 
1033	 0.361442102674724 
1034	 0.361539264455595 
1035	 0.361559125618275 
1036	 0.361584774922951 
1037	 0.361671907388953 
1038	 0.361761602591068 
1039	 0.36174980791825 
1040	 0.361856564247179 
1041	 0.362135415442167 
1042	 0.362230336871604 
1043	 0.362248470147985 
1044	 0.362298101029416 
1045	 0.362411562725902 
1046	 0.362401313499119 
1047	 0.362398168259243 
1048	 0.362594485477688 
1049	 0.362576219768186 
1050	 0.362490022757948 
1051	 0.362556009630748 
1052	 0.362544773393631 
1053	 0.362599114915312 
1054	 0.362711730651925 
1055	 0.362870952656874 
1056	 0.36312526287695 
1057	 0.363252693293723 
1058	 0.363350482330997 
1059	 0.363468822683816 
1060	 0.363547502667828 
1061	 0.363669367771189 
1062	 0.363823992682054 
1063	 0.363872537427912 
1064	 0.363917751360353 
1065	 0.363973318712098 
1066	 0.364026033849841 
1067	 0.364136349562832 
1068	 0.364207747977751 
1069	 0.36432101484772 
1070	 0.364432199075824 
1071	 0.364563143393024 
1072	 0.364701498578067 
1073	 0.364835813460501 
1074	 0.364830000290647 
1075	 0.364772653565397 
1076	 0.364786696677017 
1077	 0.364834164258437 
1078	 0.364870823801012 
1079	 0.364943924025808 
1080	 0.365053303885435 
1081	 0.365163876324251 
1082	 0.365234862770644 
1083	 0.36531821171712 
1084	 0.365458370590575 
1085	 0.365506384690325 
1086	 0.365602197755412 
1087	 0.365739265244572 
1088	 0.365947787419085 
1089	 0.365970072963277 
1090	 0.366048071063242 
1091	 0.366170633615722 
1092	 0.36619002913742 
1093	 0.366307501753631 
1094	 0.366434014644313 
1095	 0.366483048012388 
1096	 0.366612781367182 
1097	 0.366801087337877 
1098	 0.366896944264798 
1099	 0.366996109221312 
1100	 0.367126044389716 
1101	 0.367138372933239 
1102	 0.367158574250149 
1103	 0.367246834417827 
1104	 0.367388657329915 
1105	 0.367468487986196 
1106	 0.367605583624361 
1107	 0.36781995367868 
1108	 0.367988987143396 
1109	 0.368140180815493 
1110	 0.368249727834674 
1111	 0.368322229805687 
1112	 0.368425638394592 
1113	 0.36856727219757 
1114	 0.368766032552747 
1115	 0.368956994391213 
1116	 0.369112405703369 
1117	 0.369219564430332 
1118	 0.369329603962845 
1119	 0.369409800100245 
1120	 0.369532191982326 
1121	 0.369669655343255 
1122	 0.369780587714485 
1123	 0.369969615047514 
1124	 0.370128260478307 
1125	 0.370195092389296 
1126	 0.370350151619921 
1127	 0.370467958081241 
1128	 0.370485703435524 
1129	 0.370591894331651 
1130	 0.370689249342111 
1131	 0.370748010218551 
1132	 0.370880569397854 
1133	 0.371032076803951 
1134	 0.371202400145905 
1135	 0.371372716593637 
1136	 0.371588713818735 
1137	 0.371732161831028 
1138	 0.371865857344905 
1139	 0.371936111576034 
1140	 0.371932280946902 
1141	 0.371961317483507 
1142	 0.371974736797609 
1143	 0.371979503354887 
1144	 0.371998136912269 
1145	 0.371999882701076 
1146	 0.37202375889776 
1147	 0.372060031393028 
1148	 0.372083125433982 
1149	 0.372104219309621 
1150	 0.372064973047711 
1151	 0.372046059698441 
1152	 0.372026600073196 
1153	 0.372012494669421 
1154	 0.37198493570635 
1155	 0.371965126927512 
1156	 0.371918071333286 
1157	 0.371841371198411 
1158	 0.371779613527223 
1159	 0.371724014436025 
1160	 0.371651198285135 
1161	 0.371536697114953 
1162	 0.371470627666514 
1163	 0.371343646819709 
1164	 0.371223526999485 
1165	 0.371176350108944 
1166	 0.371127021083403 
1167	 0.371079279971946 
1168	 0.371024627415844 
1169	 0.370933313055602 
1170	 0.37078375526815 
1171	 0.370665277682583 
1172	 0.370528952320123 
1173	 0.370414989509134 
1174	 0.370329111695958 
1175	 0.370230696183423 
1176	 0.37012733022884 
1177	 0.370036172496615 
1178	 0.369941181233816 
1179	 0.369859061254172 
1180	 0.369776194088193 
1181	 0.369700969325599 
1182	 0.369615810447301 
1183	 0.369514915081069 
1184	 0.369417458141231 
1185	 0.369327178607596 
1186	 0.369280659295234 
1187	 0.369267499136542 
1188	 0.369238907295789 
1189	 0.369241007592252 
1190	 0.369236934264808 
1191	 0.369208541327255 
1192	 0.369214117251677 
1193	 0.369240870591895 
1194	 0.369283672062312 
1195	 0.369341527542704 
1196	 0.369409868991208 
1197	 0.369518445318302 
1198	 0.369590486077845 
1199	 0.369647771511514 
1200	 0.369720977817398 
1201	 0.36980212277725 
1202	 0.369925872699219 
1203	 0.370066448740395 
1204	 0.370246518513255 
1205	 0.370451658848012 
1206	 0.37066594848478 
1207	 0.370926560625779 
1208	 0.371209589432478 
1209	 0.371566870864187 
1210	 0.37197577062019 
1211	 0.372417338583489 
1212	 0.372926997744285 
1213	 0.373467470317793 
1214	 0.374007604534422 
1215	 0.374637442634795 
1216	 0.375387158730866 
1217	 0.376086820983868 
1218	 0.376814657250679 
1219	 0.377549159790801 
1220	 0.378271543809319 
1221	 0.379072203043282 
1222	 0.379864165022174 
1223	 0.380709448878069 
1224	 0.381482803490882 
1225	 0.382223581298402 
1226	 0.382933514571 
1227	 0.383602759535622 
1228	 0.384278527264735 
1229	 0.384921961630332 
1230	 0.38558778251195 
1231	 0.386294553990334 
1232	 0.386939542721122 
1233	 0.387555658880727 
1234	 0.388154761644246 
1235	 0.38872370476308 
1236	 0.389265880577667 
1237	 0.389790273239598 
1238	 0.390308308781409 
1239	 0.390818399501322 
1240	 0.391253691513834 
1241	 0.391740026234587 
1242	 0.39220562871129 
1243	 0.392696567165864 
1244	 0.39320043227396 
1245	 0.393686332457405 
1246	 0.394202274573116 
1247	 0.394649638223308 
1248	 0.395043350443231 
1249	 0.395471008124484 
1250	 0.395882348334242 
1251	 0.396285020404538 
1252	 0.3967227456388 
1253	 0.3970955518519 
1254	 0.397404986286462 
1255	 0.397743640686695 
1256	 0.398040490816357 
1257	 0.398388232938735 
1258	 0.39881169801241 
1259	 0.39916139563883 
1260	 0.399474781732963 
1261	 0.39981705302165 
1262	 0.400130068212955 
1263	 0.400453063144244 
1264	 0.400773311727367 
1265	 0.401125420301415 
1266	 0.401461311614065 
1267	 0.401757700856069 
1268	 0.402104789258186 
1269	 0.402480365818136 
1270	 0.402871554525804 
1271	 0.403305638420232 
1272	 0.403692874013318 
1273	 0.404093261420959 
1274	 0.404458996542198 
1275	 0.404781217924102 
1276	 0.405103619630415 
1277	 0.405394371549403 
1278	 0.405721905563862 
1279	 0.406057373327362 
1280	 0.406385849811177 
1281	 0.406727041050041 
1282	 0.407079807456075 
1283	 0.407467680558209 
1284	 0.407793478170401 
1285	 0.408095958222879 
1286	 0.408378857002871 
1287	 0.408704909942719 
1288	 0.408989136043271 
1289	 0.409324176026551 
1290	 0.409769466970531 
1291	 0.41006950158009 
1292	 0.410287403613103 
1293	 0.410548296805797 
1294	 0.410762562847421 
1295	 0.41101027066168 
1296	 0.411300879979483 
1297	 0.41155700635397 
1298	 0.411791516880235 
1299	 0.412031617839217 
1300	 0.412264134301943 
1301	 0.412501385847624 
1302	 0.412725676309322 
1303	 0.412973463709268 
1304	 0.413253133507948 
1305	 0.413504416939009 
1306	 0.413775181296443 
1307	 0.414009246932385 
1308	 0.414180239075167 
1309	 0.41437429433097 
1310	 0.414602814004594 
1311	 0.414838701685074 
1312	 0.415073547891992 
1313	 0.415372968087726 
1314	 0.415565045958273 
1315	 0.415684118691244 
1316	 0.415855215596521 
1317	 0.415993307758681 
1318	 0.416165843569225 
1319	 0.416379601283399 
1320	 0.416574865605047 
1321	 0.416781842928015 
1322	 0.416953809966034 
1323	 0.417109951946209 
1324	 0.41726676219035 
1325	 0.417390321642513 
1326	 0.417531062733033 
1327	 0.417694126535958 
1328	 0.417840521211138 
1329	 0.417986261387575 
1330	 0.418114139606411 
1331	 0.418253363038347 
1332	 0.418346425649985 
1333	 0.418389670306486 
1334	 0.418443033854612 
1335	 0.418485834737878 
1336	 0.418490745657959 
1337	 0.418538987512238 
1338	 0.418621502225511 
1339	 0.418651928770289 
1340	 0.418667134352216 
1341	 0.418692885679932 
1342	 0.418711314662394 
1343	 0.41870255002099 
1344	 0.418717359253517 
1345	 0.418663303366056 
1346	 0.418530831937736 
1347	 0.418441658809067 
1348	 0.418350815476932 
1349	 0.418243894633207 
1350	 0.418132449130463 
1351	 0.418025866752106 
1352	 0.417922896217755 
1353	 0.41778698971001 
1354	 0.417629620736883 
1355	 0.417492366803064 
1356	 0.417316897854314 
1357	 0.41717702348451 
1358	 0.417102988014104 
1359	 0.416988030402814 
1360	 0.416880554188923 
1361	 0.416738466513523 
1362	 0.416530092415986 
1363	 0.416338072144905 
1364	 0.41611599068499 
1365	 0.415861967815205 
1366	 0.415603561582128 
1367	 0.415345448512763 
1368	 0.415047092330661 
1369	 0.414736137437705 
1370	 0.414367989492455 
1371	 0.413962379070451 
1372	 0.413535092176541 
1373	 0.413060211712193 
1374	 0.412579238299261 
1375	 0.412076703330442 
1376	 0.411557407204666 
1377	 0.411014277320376 
1378	 0.410454703324687 
1379	 0.409886644922925 
1380	 0.409287347612535 
1381	 0.408680314814456 
1382	 0.408013674317236 
1383	 0.407296633914247 
1384	 0.406565838419457 
1385	 0.405774106324942 
1386	 0.405001810422464 
1387	 0.404216949304567 
1388	 0.403455170679708 
1389	 0.402701898130255 
1390	 0.40195946734298 
1391	 0.401241330206529 
1392	 0.400496128655036 
1393	 0.399830863696119 
1394	 0.399165757451019 
1395	 0.398467197322042 
1396	 0.397814901973892 
1397	 0.397048196469319 
1398	 0.396237258832209 
1399	 0.395331625378456 
1400	 0.394379860378733 
1401	 0.393306262517649 
1402	 0.39213121812724 
1403	 0.390881195274257 
1404	 0.389510380554094 
1405	 0.388147244753827 
1406	 0.386712099729678 
1407	 0.385272777358034 
1408	 0.383815414800779 
1409	 0.382324244879949 
1410	 0.380772550040652 
1411	 0.379252621317196 
1412	 0.377698214377319 
1413	 0.376207239718812 
1414	 0.374755188872596 
1415	 0.373308014015524 
1416	 0.371843624233948 
1417	 0.370463967428906 
1418	 0.369131387219027 
1419	 0.367819203454824 
1420	 0.366575154476662 
1421	 0.365358070914234 
1422	 0.364109820665188 
1423	 0.362962818223043 
1424	 0.361927209799753 
1425	 0.360873073815567 
1426	 0.359908185972781 
1427	 0.358950871909917 
1428	 0.357950855866714 
1429	 0.357037742245878 
1430	 0.356114754913808 
1431	 0.355215472198663 
1432	 0.35429883978205 
1433	 0.353415823975224 
1434	 0.352458091033161 
1435	 0.351482199082626 
1436	 0.350435354627907 
1437	 0.349334882831968 
1438	 0.348215306129775 
1439	 0.346989875522861 
1440	 0.345884242054821 
1441	 0.344737634176674 
1442	 0.343754180408322 
1443	 0.34278679477871 
1444	 0.342085522883219 
1445	 0.341477277078922 
1446	 0.341170010020889 
1447	 0.341088931035238 
1448	 0.341255780532076 
1449	 0.341727683741909 
1450	 0.342313856253227 
1451	 0.343168673407205 
1452	 0.344078475129259 
1453	 0.345200167557477 
1454	 0.346257929205699 
1455	 0.34740371278308 
1456	 0.348527561283156 
1457	 0.349681756711363 
1458	 0.350756222529417 
1459	 0.351836474902063 
1460	 0.352850188855348 
1461	 0.353789554875662 
1462	 0.354665001892446 
1463	 0.35548073302314 
1464	 0.35626719077786 
1465	 0.356961990559261 
1466	 0.357659136145553 
1467	 0.358345966667444 
1468	 0.359032153449124 
1469	 0.359705849572754 
1470	 0.360317064096666 
1471	 0.360950206671477 
1472	 0.361577456918329 
1473	 0.362177072866524 
1474	 0.362778012135439 
1475	 0.36332736121192 
1476	 0.36383545498064 
1477	 0.364337652509079 
1478	 0.364837100245917 
1479	 0.365251133558438 
1480	 0.36561890803181 
1481	 0.365961362000013 
1482	 0.366245335812548 
1483	 0.366495842603187 
1484	 0.366720381389106 
1485	 0.366923521862847 
1486	 0.367043437894262 
1487	 0.367219175299472 
1488	 0.367396235190575 
1489	 0.367607830950752 
1490	 0.367772966276605 
1491	 0.36809995529269 
1492	 0.368484312578925 
1493	 0.368985489349232 
1494	 0.369635676962194 
1495	 0.370315092063544 
1496	 0.371069494662071 
1497	 0.371882577194097 
1498	 0.372806265584838 
1499	 0.373702156255951 
1500	 0.374660767066992 
1501	 0.375583537417189 
1502	 0.376503294946456 
1503	 0.377388669904242 
1504	 0.378279298498859 
1505	 0.379114984942585 
1506	 0.379902303129397 
1507	 0.380669332796019 
1508	 0.381431302470366 
1509	 0.382112240445408 
1510	 0.382735384542862 
1511	 0.383319521988089 
1512	 0.383824206415242 
1513	 0.384312030587516 
1514	 0.384765168239201 
1515	 0.385204644261898 
1516	 0.385642456703737 
1517	 0.38601198401113 
1518	 0.386333675671578 
1519	 0.386633023189821 
1520	 0.386874446347923 
1521	 0.387088176280405 
1522	 0.387273761972753 
1523	 0.38746781218467 
1524	 0.387631154582426 
1525	 0.387761529874336 
1526	 0.387880912786498 
1527	 0.387988624297576 
1528	 0.38808629714985 
1529	 0.388151350836586 
1530	 0.388241459829849 
1531	 0.388348987753336 
1532	 0.388418903681439 
1533	 0.388471928069618 
1534	 0.388536578880242 
1535	 0.38856545460212 
1536	 0.388658758608508 
1537	 0.388757255858179 
1538	 0.388947160957 
1539	 0.389193650899015 
1540	 0.389473194799815 
1541	 0.389816402325144 
1542	 0.390192937164048 
1543	 0.390599036581113 
1544	 0.391049232613837 
1545	 0.391546628473619 
1546	 0.392096486465335 
1547	 0.392707466469663 
1548	 0.393306340360544 
1549	 0.39397384058908 
1550	 0.394587239356609 
1551	 0.395166310857292 
1552	 0.395765372519534 
1553	 0.396363077688647 
1554	 0.396966112643778 
1555	 0.397598411991024 
1556	 0.398174752578007 
1557	 0.398721480985042 
1558	 0.399276872368251 
1559	 0.39979352613342 
1560	 0.40033634068623 
1561	 0.400923842778081 
1562	 0.401452303126799 
1563	 0.401960872390637 
1564	 0.402447353292263 
1565	 0.402875086612992 
1566	 0.403345212426441 
1567	 0.403834793105979 
1568	 0.404294744646724 
1569	 0.404753717633376 
1570	 0.405210669201917 
1571	 0.405665429325327 
1572	 0.406078598077805 
1573	 0.40646679688179 
1574	 0.406870469285673 
1575	 0.407224256753149 
1576	 0.407620925128201 
1577	 0.40808823991636 
1578	 0.408491777920098 
1579	 0.408858408193382 
1580	 0.40924443849567 
1581	 0.409610071106444 
1582	 0.409986395531613 
1583	 0.410406691118434 
1584	 0.41077236154478 
1585	 0.41109258108559 
1586	 0.411432989734407 
1587	 0.411727465552092 
1588	 0.412079962093581 
1589	 0.412500219110596 
1590	 0.412872284825703 
1591	 0.413247532289827 
1592	 0.4136182737294 
1593	 0.413949561682264 
1594	 0.414303517599543 
1595	 0.41469736872122 
1596	 0.415050736141201 
1597	 0.415377074663195 
1598	 0.415714219622651 
1599	 0.416042371991234 
1600	 0.416361635939818 
1601	 0.416666809860846 
1602	 0.416996729854389 
1603	 0.417322126528164 
1604	 0.417661693455705 
1605	 0.418062605554658 
1606	 0.418403929032581 
1607	 0.418705214628774 
1608	 0.419016792104143 
1609	 0.419317259767871 
1610	 0.419601256929424 
1611	 0.419902509184021 
1612	 0.420155739556519 
1613	 0.420323294454941 
1614	 0.420551171328982 
1615	 0.420801310962684 
1616	 0.421033776907554 
1617	 0.42131189961968 
1618	 0.421542051519895 
1619	 0.421749211578852 
1620	 0.421909733775053 
1621	 0.421999959970736 
1622	 0.422127027139112 
1623	 0.422220664619651 
1624	 0.422336955633159 
1625	 0.422517488124653 
1626	 0.422653726785918 
1627	 0.42274312572302 
1628	 0.42286628341132 
1629	 0.423022767834252 
1630	 0.423121117174628 
1631	 0.423202441312093 
1632	 0.423280770353055 
1633	 0.423303951376278 
1634	 0.423352997681459 
1635	 0.423414350723043 
1636	 0.423487690896064 
1637	 0.423563315672931 
1638	 0.423647198366822 
1639	 0.423800506143891 
1640	 0.423868015436789 
1641	 0.423869557945509 
1642	 0.423891478174396 
1643	 0.423864928684294 
1644	 0.423862686678821 
1645	 0.423910327929509 
1646	 0.423916658510894 
1647	 0.423924110151781 
1648	 0.423870823406531 
1649	 0.423758786084711 
1650	 0.423660532327317 
1651	 0.423514103622151 
1652	 0.423391596578404 
1653	 0.42333808834157 
1654	 0.423182972627773 
1655	 0.422966363990888 
1656	 0.422746513782353 
1657	 0.422480552456996 
1658	 0.422179706014883 
1659	 0.421872391208406 
1660	 0.421531533816912 
1661	 0.421146868600676 
1662	 0.420728951190728 
1663	 0.420301658239435 
1664	 0.419801176448101 
1665	 0.419240123053137 
1666	 0.418621223545506 
1667	 0.417958461059362 
1668	 0.417235412501077 
1669	 0.416479030168822 
1670	 0.415609703647803 
1671	 0.41463640816844 
1672	 0.413614740284485 
1673	 0.412497542867845 
1674	 0.4113238407103 
1675	 0.410107787418152 
1676	 0.408845437981641 
1677	 0.407500481782793 
1678	 0.40613679320465 
1679	 0.404751663593397 
1680	 0.403278224325051 
1681	 0.401756891818121 
1682	 0.400128367351888 
1683	 0.398413975318637 
1684	 0.396665154374208 
1685	 0.394829624358982 
1686	 0.392968357554861 
1687	 0.391027383241913 
1688	 0.389079929261366 
1689	 0.387118129955282 
1690	 0.385077498949825 
1691	 0.383032600064459 
1692	 0.380913906194422 
1693	 0.378691368959268 
1694	 0.376476141406405 
1695	 0.374205329579972 
1696	 0.371925436716511 
1697	 0.369657555273202 
1698	 0.367274626061437 
1699	 0.36484602803791 
1700	 0.362408110771212 
1701	 0.359851587376654 
1702	 0.35739020310009 
1703	 0.354911068624969 
1704	 0.352537700335216 
1705	 0.350176093353789 
1706	 0.347955721587946 
1707	 0.345956081799695 
1708	 0.344040460849695 
1709	 0.342260483608742 
1710	 0.340643828987804 
1711	 0.339084674893626 
1712	 0.33767341834544 
1713	 0.336267481482559 
1714	 0.334866986451635 
1715	 0.333581723221943 
1716	 0.332271020974816 
1717	 0.331055816684237 
1718	 0.329897031585885 
1719	 0.328667290734901 
1720	 0.327563293672358 
1721	 0.32650807789071 
1722	 0.325451079494311 
1723	 0.324603124073017 
1724	 0.323841101831828 
1725	 0.323181916096407 
1726	 0.322740328376886 
1727	 0.322420510519004 
1728	 0.322239171571319 
1729	 0.322285364370295 
1730	 0.322569727227444 
1731	 0.322995072301899 
1732	 0.323617439190253 
1733	 0.324327963651419 
1734	 0.325087075394061 
1735	 0.325976652500645 
1736	 0.326897381160761 
1737	 0.327768860413312 
1738	 0.328571435255906 
1739	 0.329148362315849 
1740	 0.329546251272923 
1741	 0.329809937558936 
1742	 0.329869500396494 
1743	 0.32989072313846 
1744	 0.329765852988645 
1745	 0.329600872704164 
1746	 0.329341160156888 
1747	 0.329114518046012 
1748	 0.328818873747454 
1749	 0.328612869736934 
1750	 0.328413667807139 
1751	 0.328300096220115 
1752	 0.328215429106738 
1753	 0.3282614502428 
1754	 0.328387005164669 
1755	 0.328620273426342 
1756	 0.328984182500637 
1757	 0.32936034745889 
1758	 0.329937583618105 
1759	 0.330583363825239 
1760	 0.331295885682981 
1761	 0.332282457981589 
1762	 0.333286994143501 
1763	 0.334360775295298 
1764	 0.335602922618625 
1765	 0.336833849208191 
1766	 0.338200073482318 
1767	 0.339678720095747 
1768	 0.341134591785656 
1769	 0.34260400243999 
1770	 0.344014818816767 
1771	 0.345456847655482 
1772	 0.346877441672629 
1773	 0.348163835575805 
1774	 0.349493759161524 
1775	 0.350709256458402 
1776	 0.351771322029506 
1777	 0.35279581092251 
1778	 0.35364169978743 
1779	 0.354417600399737 
1780	 0.355172894001765 
1781	 0.355875209040598 
1782	 0.356588614857837 
1783	 0.357236565150057 
1784	 0.357899890027417 
1785	 0.358597105425764 
1786	 0.3592294433226 
1787	 0.359853429191687 
1788	 0.360407178678752 
1789	 0.360875584453356 
1790	 0.361381727892253 
1791	 0.361874011656023 
1792	 0.362364952976809 
1793	 0.362865136487623 
1794	 0.363270255962033 
1795	 0.363671375077384 
1796	 0.364107401353871 
1797	 0.364605773669053 
1798	 0.365062402375276 
1799	 0.365500017425367 
1800	 0.365905933005875 
1801	 0.376846478921878 
1802	 0.377213033844264 
1803	 0.377591927832272 
1804	 0.377964958002007 
1805	 0.378350058181883 
1806	 0.378709360950311 
1807	 0.379081305061131 
1808	 0.379437683022651 
1809	 0.379755720271418 
1810	 0.380093655731201 
1811	 0.380428803856934 
1812	 0.380787783085505 
1813	 0.38113635038899 
1814	 0.381530728802634 
1815	 0.381983636058334 
1816	 0.382417750110473 
1817	 0.382827064754984 
1818	 0.38322159666508 
1819	 0.383638420659678 
1820	 0.384057461089244 
1821	 0.384458957747214 
1822	 0.384855668978301 
1823	 0.385304933071594 
1824	 0.385682339912315 
1825	 0.385999814353572 
1826	 0.386379889432617 
1827	 0.386789134591201 
1828	 0.387151603675999 
1829	 0.387533714663419 
1830	 0.387876031448285 
1831	 0.388154154884117 
1832	 0.388490740583993 
1833	 0.388825204406128 
1834	 0.389131971234717 
1835	 0.389435277411366 
1836	 0.389741881981269 
1837	 0.390034825619039 
1838	 0.390268423155261 
1839	 0.390575524226692 
1840	 0.390947798936017 
1841	 0.391246659902179 
1842	 0.391540869192749 
1843	 0.391871976219157 
1844	 0.392056775539397 
1845	 0.392201772284407 
1846	 0.39235069029235 
1847	 0.392439151639445 
1848	 0.392513634246462 
1849	 0.392601995556801 
1850	 0.39260530509371 
1851	 0.39255761017125 
1852	 0.392462685878386 
1853	 0.392308644699043 
1854	 0.392177910800823 
1855	 0.391977044850096 
1856	 0.391698080550178 
1857	 0.391407466538126 
1858	 0.391002287679753 
1859	 0.390540191339842 
1860	 0.390034733067591 
1861	 0.389434609850769 
1862	 0.388739771285385 
1863	 0.388003296978471 
1864	 0.387199740637328 
1865	 0.386359743335864 
1866	 0.385438254322706 
1867	 0.384427587589696 
1868	 0.3834076015633 
1869	 0.382246039915852 
1870	 0.380994434372445 
1871	 0.379694218652962 
1872	 0.378308023869092 
1873	 0.376817270719244 
1874	 0.375251859785242 
1875	 0.373616877714348 
1876	 0.371757706662325 
1877	 0.369831280031995 
1878	 0.36780552749545 
1879	 0.36566105479278 
1880	 0.363604373208217 
1881	 0.361369107195653 
1882	 0.359001966317379 
1883	 0.356540802753806 
1884	 0.354021084172291 
1885	 0.351168870412988 
1886	 0.348276912930666 
1887	 0.345268819138034 
1888	 0.342020507600272 
1889	 0.33887355483295 
1890	 0.33560228956298 
1891	 0.332261234684196 
1892	 0.328926888385343 
1893	 0.325427526667458 
1894	 0.321761916087081 
1895	 0.318135788113448 
1896	 0.31436420139399 
1897	 0.310499962835519 
1898	 0.306904293422813 
1899	 0.303168813760958 
1900	 0.29950034799868 
1901	 0.295974950032316 
1902	 0.292218069888054 
1903	 0.28862992640085 
1904	 0.285103618141143 
1905	 0.281602520115355 
1906	 0.278131776145858 
1907	 0.275026786960318 
1908	 0.271913188197542 
1909	 0.268938301644329 
1910	 0.266132186917602 
1911	 0.263188227043208 
1912	 0.260443342297166 
1913	 0.257715324071009 
1914	 0.255026778682441 
1915	 0.252555215697114 
1916	 0.250320129969981 
1917	 0.247990418848321 
1918	 0.245762810594569 
1919	 0.243696691181511 
1920	 0.24151004575605 
1921	 0.239451608069531 
1922	 0.237453091065823 
1923	 0.235448412492109 
1924	 0.233637606034805 
1925	 0.231844485583068 
1926	 0.23010369709972 
1927	 0.228488644190601 
1928	 0.226856328420828 
1929	 0.225174017722207 
1930	 0.223649309051644 
1931	 0.222246923493582 
1932	 0.22094804830801 
1933	 0.219848377403097 
1934	 0.218766744334898 
1935	 0.217757344290962 
1936	 0.216878616619093 
1937	 0.216134408052594 
1938	 0.215488676434758 
1939	 0.215027454414635 
1940	 0.21471917170666 
1941	 0.214567148179668 
1942	 0.214499804588742 
1943	 0.21453209531845 
1944	 0.214656303427474 
1945	 0.214828624614133 
1946	 0.215113453733379 
1947	 0.215430780585829 
1948	 0.215918605545642 
1949	 0.216526291402492 
1950	 0.21722701654009 
1951	 0.218069635134687 
1952	 0.219040147293255 
1953	 0.220103775050781 
1954	 0.221280169075841 
1955	 0.222655336563278 
1956	 0.223991173353173 
1957	 0.225370029840119 
1958	 0.226805622347859 
1959	 0.22809123384221 
1960	 0.229361408469999 
1961	 0.230560566250636 
1962	 0.231690690893692 
1963	 0.232735835113522 
1964	 0.233739686936935 
1965	 0.234623955891511 
1966	 0.235407241767459 
1967	 0.236111081413356 
1968	 0.236727961922874 
1969	 0.237392228607699 
1970	 0.238069360561579 
1971	 0.238715241719644 
1972	 0.239404561614122 
1973	 0.240116987719846 
1974	 0.240851133479631 
1975	 0.241617002086197 
1976	 0.242391488517055 
1977	 0.243208553200961 
1978	 0.24400678737953 
1979	 0.244789659855412 
1980	 0.245567803570343 
1981	 0.246467910391936 
1982	 0.247362338792852 
1983	 0.24833028817161 
1984	 0.249384836328127 
1985	 0.250356728166266 
1986	 0.251359026114378 
1987	 0.252469995513264 
1988	 0.253592585450445 
1989	 0.254876928488976 
1990	 0.256252793342668 
1991	 0.257760170281312 
1992	 0.259413150142487 
1993	 0.261185880991552 
1994	 0.262910658476658 
1995	 0.264833750564158 
1996	 0.266684043289973 
1997	 0.268495849396729 
1998	 0.270431901022436 
1999	 0.272485278591958 
2000	 0.274439806183147 
2001	 0.276517966400834 
2002	 0.278384767466554 
2003	 0.280162041811887 
2004	 0.281848247087339 
2005	 0.283360112480838 
2006	 0.284892735328803 
2007	 0.286415080978947 
2008	 0.287818274434469 
2009	 0.289178777508616 
2010	 0.290477818757164 
2011	 0.291574461959754 
2012	 0.292576722920536 
2013	 0.293544840296964 
2014	 0.294397861140984 
2015	 0.295267728052671 
2016	 0.296138183245326 
2017	 0.296900807535499 
2018	 0.297646329221363 
2019	 0.298272253534799 
2020	 0.298758095632523 
2021	 0.299217825142281 
2022	 0.299665001824902 
2023	 0.300021655835153 
2024	 0.300367672862003 
2025	 0.30074168058109 
2026	 0.301023329267934 
2027	 0.301244118929454 
2028	 0.301425290794739 
2029	 0.301555555436452 
2030	 0.301625864213849 
2031	 0.301611745711356 
2032	 0.30163067616206 
2033	 0.301613558105165 
2034	 0.301595914978628 
2035	 0.301588449315232 
2036	 0.30154545060916 
2037	 0.30154691636811 
2038	 0.301505441305983 
2039	 0.301477595921382 
2040	 0.301484787289121 
2041	 0.301462262249271 
2042	 0.301392252120577 
2043	 0.301372432370437 
2044	 0.301362596782163 
2045	 0.301373522898633 
2046	 0.301418883441663 
2047	 0.301456365877147 
2048	 0.301530552551239 
2049	 0.301568958643235 
2050	 0.301580519993356 
2051	 0.301574111953943 
2052	 0.301632501421801 
2053	 0.301734640083783 
2054	 0.30179153268455 
2055	 0.301889878516462 
2056	 0.301933033931239 
2057	 0.301919595520891 
2058	 0.301908524785466 
2059	 0.301872198650575 
2060	 0.301884141573798 
2061	 0.301901675846528 
2062	 0.301902772778194 
2063	 0.301952254658155 
2064	 0.301969780641813 
2065	 0.301949674093506 
2066	 0.301901528111303 
2067	 0.301899238401995 
2068	 0.301940345755031 
2069	 0.301977033707957 
2070	 0.302040393327211 
2071	 0.302088261322501 
2072	 0.302168001986182 
2073	 0.302163173817442 
2074	 0.302100692532458 
2075	 0.302080054580649 
2076	 0.302030093172242 
2077	 0.301988627821852 
2078	 0.301992689498754 
2079	 0.301957774723681 
2080	 0.301889008556245 
2081	 0.301812266831744 
2082	 0.301770095033866 
2083	 0.301636426240698 
2084	 0.301428503370305 
2085	 0.301286009005752 
2086	 0.301147033958205 
2087	 0.301014916127531 
2088	 0.300846432263433 
2089	 0.300702861069121 
2090	 0.300510976464266 
2091	 0.300248142844584 
2092	 0.300013315977262 
2093	 0.299790052288738 
2094	 0.29955841368895 
2095	 0.299320578521893 
2096	 0.299062932327285 
2097	 0.298792814861129 
2098	 0.298533514370686 
2099	 0.298256405431901 
2100	 0.297896507000431 
2101	 0.297558132143464 
2102	 0.297194266488353 
2103	 0.296851701613751 
2104	 0.296528965482776 
2105	 0.29616801538158 
2106	 0.295824248766866 
2107	 0.295401399871939 
2108	 0.294914997804111 
2109	 0.294414034907921 
2110	 0.29385191755982 
2111	 0.293320989060947 
2112	 0.292758876390379 
2113	 0.292224100192938 
2114	 0.291735172049922 
2115	 0.291202702140427 
2116	 0.290654379406945 
2117	 0.290142341562959 
2118	 0.289535518846752 
2119	 0.288850921067711 
2120	 0.288228966690386 
2121	 0.287575748301592 
2122	 0.286949245268625 
2123	 0.286370289776233 
2124	 0.285757017013929 
2125	 0.285130984767393 
2126	 0.284492113511898 
2127	 0.283833571569377 
2128	 0.283202398898134 
2129	 0.28255616479766 
2130	 0.281928446494879 
2131	 0.281294189003791 
2132	 0.280720149375558 
2133	 0.280189078928865 
2134	 0.279679740120707 
2135	 0.279126749008479 
2136	 0.278603168286907 
2137	 0.27806746244048 
2138	 0.277479924448003 
2139	 0.276924458791412 
2140	 0.276416321701668 
2141	 0.275870869092127 
2142	 0.275259529114884 
2143	 0.274737410374205 
2144	 0.274252816437685 
2145	 0.273795874074485 
2146	 0.273386386071727 
2147	 0.272980438908672 
2148	 0.272570116867356 
2149	 0.272216072609806 
2150	 0.271951579218145 
2151	 0.271624614041343 
2152	 0.27125534257019 
2153	 0.270981527421392 
2154	 0.270667386091303 
2155	 0.270383060589844 
2156	 0.270126361673597 
2157	 0.269949265022365 
2158	 0.26971366499047 
2159	 0.269432701383539 
2160	 0.269226399050144 
2161	 0.269081032726025 
2162	 0.268884666883117 
2163	 0.268702869542702 
2164	 0.268505820066068 
2165	 0.268259331404865 
2166	 0.268035358405932 
2167	 0.267834881758499 
2168	 0.267623767882143 
2169	 0.267390153754918 
2170	 0.267189713739955 
2171	 0.267015577926639 
2172	 0.266831993706927 
2173	 0.266654529660853 
2174	 0.266483096783573 
2175	 0.266326956120137 
2176	 0.266147926328545 
2177	 0.265992364986807 
2178	 0.26584349473221 
2179	 0.265736008552389 
2180	 0.265623235989549 
2181	 0.2655811825609 
2182	 0.265625492321284 
2183	 0.265620572398165 
2184	 0.265675092422766 
2185	 0.265637565886046 
2186	 0.265532896964272 
2187	 0.265448015564823 
2188	 0.265296243246653 
2189	 0.265203167842679 
2190	 0.265176712329291 
2191	 0.265091229920081 
2192	 0.265006334721162 
2193	 0.264899921684227 
2194	 0.264733008448127 
2195	 0.264590794151373 
2196	 0.264420811290013 
2197	 0.264321870565612 
2198	 0.264244936898166 
2199	 0.264088403693937 
2200	 0.263921957401616 
2201	 0.263736355812056 
2202	 0.263551251810583 
2203	 0.263325256127446 
2204	 0.263141048167871 
2205	 0.262992985232086 
2206	 0.262792062460522 
2207	 0.262551150366978 
2208	 0.262357370228824 
2209	 0.262205265201869 
2210	 0.261973105062947 
2211	 0.261686174355869 
2212	 0.261481041961841 
2213	 0.26120137281341 
2214	 0.261039342123997 
2215	 0.261061423231878 
2216	 0.260989914389275 
2217	 0.260865278825034 
2218	 0.260816041127096 
2219	 0.260806131643564 
2220	 0.260775338448909 
2221	 0.260752281546946 
2222	 0.260813408665953 
2223	 0.260777955349016 
2224	 0.260750107806269 
2225	 0.260819833656498 
2226	 0.260823804421768 
2227	 0.260823281217571 
2228	 0.260868032798269 
2229	 0.260775617100807 
2230	 0.260626462753874 
2231	 0.260392102162308 
2232	 0.260089193848204 
2233	 0.259670439527681 
2234	 0.259166806495108 
2235	 0.258561972375296 
2236	 0.257863012879299 
2237	 0.257031740396224 
2238	 0.256072706890175 
2239	 0.255037862017316 
2240	 0.253831696785958 
2241	 0.252624327729317 
2242	 0.251453437852324 
2243	 0.250053021957392 
2244	 0.24851820344619 
2245	 0.246907476854878 
2246	 0.245039732212678 
2247	 0.24322122571464 
2248	 0.241409549194472 
2249	 0.239496115955725 
2250	 0.237524353170267 
2251	 0.235501077540792 
2252	 0.233319949191257 
2253	 0.231201448956092 
2254	 0.229033371763713 
2255	 0.22685405151452 
2256	 0.224810799401024 
2257	 0.22264820525472 
2258	 0.220587659549958 
2259	 0.218601223724038 
2260	 0.216575450793136 
2261	 0.214560131536591 
2262	 0.212584380071386 
2263	 0.210551884441998 
2264	 0.208650746596867 
2265	 0.206832814134224 
2266	 0.205061198774752 
2267	 0.203420038593404 
2268	 0.20172788172415 
2269	 0.200049426384167 
2270	 0.198409238850528 
2271	 0.19672827450461 
2272	 0.195155675092995 
2273	 0.193701926132029 
2274	 0.192200282424928 
2275	 0.190775189282046 
2276	 0.189285463883582 
2277	 0.187762227064101 
2278	 0.186234326423628 
2279	 0.184668253740656 
2280	 0.183096205738202 
2281	 0.181546516266854 
2282	 0.179916027968365 
2283	 0.178248777796292 
2284	 0.176562648384257 
2285	 0.174656846600554 
2286	 0.172799390734824 
2287	 0.170883041102183 
2288	 0.168923847111116 
2289	 0.167223149065263 
2290	 0.165302564611229 
2291	 0.163353137435614 
2292	 0.161472074951507 
2293	 0.159394047120439 
2294	 0.157513436000267 
2295	 0.155736927928154 
2296	 0.153989596853342 
2297	 0.15241212692884 
2298	 0.150897897406685 
2299	 0.149706287779286 
2300	 0.148718086161464 
2301	 0.147906143936423 
2302	 0.147384829642934 
2303	 0.14704248176306 
2304	 0.146835808981078 
2305	 0.146915148252236 
2306	 0.147309714582283 
2307	 0.147788229731507 
2308	 0.148474336809387 
2309	 0.149297801335774 
2310	 0.150303212985225 
2311	 0.151456764395657 
2312	 0.152837354519151 
2313	 0.15424245141042 
2314	 0.155806410610675 
2315	 0.157402178702707 
2316	 0.159124481008995 
2317	 0.160741589478385 
2318	 0.162480465946506 
2319	 0.163940143243141 
2320	 0.165360621528409 
2321	 0.166442522146421 
2322	 0.167296264715512 
2323	 0.167952038773333 
2324	 0.168244636067841 
2325	 0.168474951356623 
2326	 0.168508263026025 
2327	 0.168444439381804 
2328	 0.168192094251782 
2329	 0.167913757444185 
2330	 0.167575857764121 
2331	 0.167124126431283 
2332	 0.166591598644809 
2333	 0.165907133585691 
2334	 0.1648278386918 
2335	 0.163732106291472 
2336	 0.162450807907672 
2337	 0.161039627870137 
2338	 0.159864067872598 
2339	 0.158563236993017 
2340	 0.157306797715097 
2341	 0.156141974495637 
2342	 0.15492357842851 
2343	 0.153756672766981 
2344	 0.152684599042945 
2345	 0.151909040234312 
2346	 0.151319751713659 
2347	 0.151030619975091 
2348	 0.151051915720062 
2349	 0.151199185457696 
2350	 0.151609572968611 
2351	 0.152236492576943 
2352	 0.153012189367937 
2353	 0.154029251188831 
2354	 0.155202909052095 
2355	 0.156501504780426 
2356	 0.157579363027999 
2357	 0.158392333483948 
2358	 0.159166583393076 
2359	 0.159647071796345 
2360	 0.160005201981323 
2361	 0.160313886444374 
2362	 0.160309551168204 
2363	 0.160105118521506 
2364	 0.159858363649719 
2365	 0.159562886581037 
2366	 0.15933340775624 
2367	 0.159101199676056 
2368	 0.158914520374872 
2369	 0.158853167028356 
2370	 0.158717273540051 
2371	 0.158727094649582 
2372	 0.158587378043814 
2373	 0.158190696964692 
2374	 0.157928488165393 
2375	 0.157400274056558 
2376	 0.156995360933763 
2377	 0.157066990544085 
2378	 0.157104924806506 
2379	 0.157078228463125 
2380	 0.157058685778665 
2381	 0.156879235648309 
2382	 0.156591661597316 
2383	 0.156010109245204 
2384	 0.155849362106232 
2385	 0.155815360254916 
2386	 0.155704616377344 
2387	 0.155816896607736 
2388	 0.155734888844941 
2389	 0.155464382957569 
2390	 0.155205746580421 
2391	 0.154983831815154 
2392	 0.154766087316126 
2393	 0.154459384400923 
2394	 0.154253136602899 
2395	 0.154134395821887 
2396	 0.153921039569518 
2397	 0.153646786590307 
2398	 0.153406572887366 
2399	 0.15312727037587 
2400	 0.152845225595988 
2401	 0.152607903256005 
2402	 0.152416243400166 
2403	 0.152473919122755 
2404	 0.152534239675395 
2405	 0.152135609837373 
2406	 0.151922720239168 
2407	 0.151604916676583 
2408	 0.151320413002927 
2409	 0.151406126509522 
2410	 0.151266656854612 
2411	 0.151018853639267 
2412	 0.150902469679951 
2413	 0.150565942903104 
2414	 0.149941366669386 
2415	 0.149453759069358 
2416	 0.14903950833582 
2417	 0.148676068813248 
2418	 0.14861310195222 
2419	 0.148342512324798 
2420	 0.147900359907734 
2421	 0.14778870708078 
2422	 0.147632387108454 
2423	 0.14727549547735 
2424	 0.14708852300118 
2425	 0.146818040478705 
2426	 0.146336451312153 
2427	 0.14636846975263 
2428	 0.146430511616879 
2429	 0.146175239269235 
2430	 0.14616182906859 
2431	 0.145996872962364 
2432	 0.145776602672101 
2433	 0.145786228021681 
2434	 0.145681829350996 
2435	 0.145317011957114 
2436	 0.145126626850479 
2437	 0.144948595866682 
2438	 0.144405484710802 
2439	 0.144086560445268 
2440	 0.143759753097831 
2441	 0.143314281115531 
2442	 0.143217894171511 
2443	 0.143137873856758 
2444	 0.142701653369268 
2445	 0.142248834411438 
2446	 0.1420453766305 
2447	 0.141540614123362 
2448	 0.14108669029296 
2449	 0.140657440067465 
2450	 0.139883136629729 
2451	 0.139708659701469 
2452	 0.139739631366195 
2453	 0.139624776306628 
2454	 0.139387868238675 
2455	 0.138645182668276 
2456	 0.138455997677916 
2457	 0.138383992876842 
2458	 0.137940774816696 
2459	 0.137606407958407 
2460	 0.136875280735069 
2461	 0.136176503688257 
2462	 0.135930268530915 
2463	 0.136143269056942 
2464	 0.135646067623401 
2465	 0.134782743850167 
2466	 0.134762666690304 
2467	 0.134161982395169 
2468	 0.133573272198196 
2469	 0.133455057019142 
2470	 0.132592859902802 
2471	 0.132016145364565 
2472	 0.13220049308366 
2473	 0.132277986420516 
2474	 0.132282377564113 
2475	 0.132077443007861 
2476	 0.13214548993035 
2477	 0.132609117511279 
2478	 0.132260101268662 
2479	 0.131889311570756 
2480	 0.131437594319538 
2481	 0.130740532211737 
2482	 0.13013761330883 
2483	 0.129635626625098 
2484	 0.129095990533747 
2485	 0.129194548745793 
2486	 0.129578602535933 
2487	 0.129066769522441 
2488	 0.128948656642522 
2489	 0.128481381429985 
2490	 0.127890352749949 
2491	 0.12903911238475 
2492	 0.130045185517336 
2493	 0.13051894669898 
2494	 0.131910251519943 
2495	 0.132222121700641 
2496	 0.131635196421209 
2497	 0.131812128852641 
2498	 0.131071565181344 
2499	 0.130835630384448 
2500	 0.131675134720195 
