Wavelength	Tablay400127.asd
350	 0.375022060932233 
351	 0.379959041914091 
352	 0.353977179096315 
353	 0.304281658052358 
354	 0.322557237709074 
355	 0.319488927634914 
356	 0.295391152351407 
357	 0.28170566310806 
358	 0.375704683674219 
359	 0.374050389865564 
360	 0.322293803647318 
361	 0.36708600798045 
362	 0.29680358507976 
363	 0.247945337440816 
364	 0.28304730184305 
365	 0.286898630851863 
366	 0.259443811793733 
367	 0.228024003679454 
368	 0.22669323596963 
369	 0.317286130083766 
370	 0.290569319874677 
371	 0.216423245954625 
372	 0.309836303509726 
373	 0.341043947045612 
374	 0.295825892092559 
375	 0.229376652360035 
376	 0.279552867133415 
377	 0.301192422703061 
378	 0.3012139450704 
379	 0.30332433915568 
380	 0.228349483771353 
381	 0.226986919751957 
382	 0.27709699087986 
383	 0.259741766785936 
384	 0.261672811444304 
385	 0.236431366220468 
386	 0.190178095786666 
387	 0.232970606750467 
388	 0.256257400638066 
389	 0.264056120970724 
390	 0.274163510674852 
391	 0.242756704880175 
392	 0.237302480600646 
393	 0.251588105302141 
394	 0.236521530832691 
395	 0.233072293619852 
396	 0.242104252005595 
397	 0.255134039891768 
398	 0.256650064970061 
399	 0.260336905388402 
400	 0.265731247361092 
401	 0.265819641190886 
402	 0.237877799320619 
403	 0.230515785790805 
404	 0.246964744226743 
405	 0.255827538023056 
406	 0.265467319979415 
407	 0.265366492680319 
408	 0.253980216508546 
409	 0.249740165503362 
410	 0.249131926768436 
411	 0.25268300620074 
412	 0.259773033505356 
413	 0.261815108816984 
414	 0.258549610454684 
415	 0.253687398929213 
416	 0.253141077612779 
417	 0.252067361264127 
418	 0.255465377252412 
419	 0.263092822628171 
420	 0.257960823556163 
421	 0.258978212800069 
422	 0.262242078794785 
423	 0.257507197125545 
424	 0.254427936249475 
425	 0.260506495068966 
426	 0.270334642389245 
427	 0.265859330053043 
428	 0.266703644819701 
429	 0.269061771897485 
430	 0.267527981081298 
431	 0.266794526157367 
432	 0.267544812929425 
433	 0.269257464941521 
434	 0.270825753970286 
435	 0.272814346279249 
436	 0.275838894261434 
437	 0.278446158451132 
438	 0.276030942237845 
439	 0.278224719880736 
440	 0.282629866083344 
441	 0.284329778836054 
442	 0.283258881879278 
443	 0.282854707190165 
444	 0.284777908706088 
445	 0.288836094712376 
446	 0.290847181087512 
447	 0.290544236262878 
448	 0.289897084667495 
449	 0.294619198619896 
450	 0.295452131309958 
451	 0.295011504627975 
452	 0.298561210211704 
453	 0.298725541827779 
454	 0.300194591874553 
455	 0.303591287430092 
456	 0.304454105039946 
457	 0.303180687828491 
458	 0.303377906373255 
459	 0.306627987749452 
460	 0.306573636398222 
461	 0.308753138026444 
462	 0.311879139937243 
463	 0.311899465009395 
464	 0.314769151681459 
465	 0.314995705527589 
466	 0.312489876718202 
467	 0.31690219171611 
468	 0.320496239205394 
469	 0.321650127194494 
470	 0.321124408925389 
471	 0.321598665844409 
472	 0.322543129641835 
473	 0.324167648776952 
474	 0.327020465934954 
475	 0.327053970005366 
476	 0.327590262673381 
477	 0.330178103107978 
478	 0.329984335104293 
479	 0.330869142534677 
480	 0.332782372492582 
481	 0.334290599597637 
482	 0.334844035873687 
483	 0.337023207666297 
484	 0.339943928211739 
485	 0.338861025759278 
486	 0.339880177027362 
487	 0.341464283247089 
488	 0.341720589124178 
489	 0.343006588557565 
490	 0.344159275266964 
491	 0.344991679967378 
492	 0.345884210080373 
493	 0.346955312266737 
494	 0.348071843654069 
495	 0.34925557756504 
496	 0.35088059582749 
497	 0.352480792031453 
498	 0.353493684099436 
499	 0.353857197179106 
500	 0.355665591852772 
501	 0.357240096318038 
502	 0.358091091143273 
503	 0.358886855427886 
504	 0.360031149350322 
505	 0.361440664616833 
506	 0.362971506941154 
507	 0.36482725814157 
508	 0.365034751483686 
509	 0.365174977934814 
510	 0.367666624940499 
511	 0.369216770040252 
512	 0.370246071016283 
513	 0.371083566456527 
514	 0.371503055272127 
515	 0.372678828584548 
516	 0.374510679013402 
517	 0.376432891027944 
518	 0.377572527617155 
519	 0.378742916968813 
520	 0.379931154922169 
521	 0.380657256105304 
522	 0.382133241660024 
523	 0.38382753272425 
524	 0.385223188096551 
525	 0.38626440946756 
526	 0.387751981579493 
527	 0.389240443686592 
528	 0.390120763793176 
529	 0.391547468804972 
530	 0.392616395658093 
531	 0.393361888438188 
532	 0.394865812469611 
533	 0.396441680823582 
534	 0.39756319508091 
535	 0.398141496396072 
536	 0.399151000273728 
537	 0.400313500668334 
538	 0.401496868736036 
539	 0.402664319443081 
540	 0.403978947602893 
541	 0.405173284195443 
542	 0.406151143206743 
543	 0.407158552120556 
544	 0.407820288467237 
545	 0.40864116677564 
546	 0.410071838179065 
547	 0.411192789621474 
548	 0.411996629592782 
549	 0.412675466732757 
550	 0.41353917591628 
551	 0.41426536304055 
552	 0.414946599597645 
553	 0.41576674047322 
554	 0.41706445044369 
555	 0.417548270572352 
556	 0.417755568778326 
557	 0.418880112870877 
558	 0.419858199643331 
559	 0.420443069256885 
560	 0.420886894211145 
561	 0.422021725705106 
562	 0.422515916214115 
563	 0.422812547082983 
564	 0.423562283064981 
565	 0.424277641504375 
566	 0.424908679206496 
567	 0.425547816817403 
568	 0.42633666818475 
569	 0.42661628282151 
570	 0.426756809910691 
571	 0.427077243902397 
572	 0.427446727306743 
573	 0.42796185338111 
574	 0.428487577391566 
575	 0.428824203451977 
576	 0.428901551010321 
577	 0.429248019417991 
578	 0.429925829132821 
579	 0.430440034841021 
580	 0.430795836304369 
581	 0.431157909661293 
582	 0.431595400219877 
583	 0.431700253055536 
584	 0.431969547529999 
585	 0.432428518232226 
586	 0.43281342248799 
587	 0.4330499376945 
588	 0.433125244363776 
589	 0.433157638167661 
590	 0.433446405158317 
591	 0.433927725016371 
592	 0.434281116177607 
593	 0.434279380258338 
594	 0.434432852930389 
595	 0.434736592697174 
596	 0.435098998890879 
597	 0.435370974774424 
598	 0.435506467838564 
599	 0.435630392440966 
600	 0.435823114928428 
601	 0.435995627219731 
602	 0.436007740666878 
603	 0.436019548807368 
604	 0.436257053241004 
605	 0.436408802644073 
606	 0.436477384909058 
607	 0.436512619837297 
608	 0.436586525623486 
609	 0.436651167176035 
610	 0.436653914411249 
611	 0.43661939218317 
612	 0.436850627985106 
613	 0.436933478464822 
614	 0.436890185944029 
615	 0.437008874044111 
616	 0.437183514847979 
617	 0.437147872942284 
618	 0.436933087116685 
619	 0.43713561759901 
620	 0.437279639845064 
621	 0.437249276321623 
622	 0.437101736264482 
623	 0.437083632344387 
624	 0.437293598216653 
625	 0.437562425265382 
626	 0.437509550588084 
627	 0.437425715525762 
628	 0.437347749682446 
629	 0.437293016009889 
630	 0.437350350447908 
631	 0.43747038694863 
632	 0.437466955723725 
633	 0.43719287617732 
634	 0.437154354322094 
635	 0.437401090826657 
636	 0.437626186317707 
637	 0.437158490511445 
638	 0.437135734812316 
639	 0.437290244976095 
640	 0.437194560503945 
641	 0.437097194802913 
642	 0.43704086985874 
643	 0.436967830098695 
644	 0.436790955354916 
645	 0.436787980157838 
646	 0.436866581834669 
647	 0.436885081767392 
648	 0.436699489339082 
649	 0.436425559531808 
650	 0.436266082720935 
651	 0.436323987547936 
652	 0.436177594350964 
653	 0.436110226860952 
654	 0.436146527740272 
655	 0.43609005501764 
656	 0.435923835448512 
657	 0.435736922013279 
658	 0.435610766550697 
659	 0.435588615028871 
660	 0.435432216543264 
661	 0.435250647399988 
662	 0.435215663884153 
663	 0.435063990541531 
664	 0.43489063877975 
665	 0.434720916948944 
666	 0.434495950357172 
667	 0.434361061134038 
668	 0.434236928084315 
669	 0.434072659443013 
670	 0.43401554007107 
671	 0.433944133786003 
672	 0.433804829087486 
673	 0.433588794157768 
674	 0.433356459918653 
675	 0.433101685498253 
676	 0.432890256187492 
677	 0.432873173290842 
678	 0.432707418743385 
679	 0.43250687163725 
680	 0.432380761511268 
681	 0.432053202985782 
682	 0.431909834355738 
683	 0.431838023047214 
684	 0.431524691035288 
685	 0.431455371170681 
686	 0.431324256776087 
687	 0.430997426802305 
688	 0.430685614299984 
689	 0.430643961807622 
690	 0.430575234868561 
691	 0.430223569193416 
692	 0.43001770965267 
693	 0.429822741068824 
694	 0.429646504521219 
695	 0.429571083520788 
696	 0.429514702145592 
697	 0.429264101554567 
698	 0.428834578816275 
699	 0.42860501445586 
700	 0.428424340459982 
701	 0.428285848949212 
702	 0.428185284855086 
703	 0.428001059600238 
704	 0.427822389904903 
705	 0.427687586893041 
706	 0.427581904630583 
707	 0.427360420261133 
708	 0.427184835276619 
709	 0.427104749483384 
710	 0.426920699426356 
711	 0.426674178689176 
712	 0.426521551625363 
713	 0.426522511797545 
714	 0.426198071623088 
715	 0.42601237177293 
716	 0.426000893308151 
717	 0.425887181385871 
718	 0.425729284676746 
719	 0.425574151650015 
720	 0.425450411495945 
721	 0.425348837536944 
722	 0.425378907041903 
723	 0.425345131921233 
724	 0.42508664561662 
725	 0.424932573423303 
726	 0.424897857313382 
727	 0.424914417650993 
728	 0.424870485387315 
729	 0.424834761544016 
730	 0.424734024434773 
731	 0.424587738738677 
732	 0.42459190780501 
733	 0.424570617415959 
734	 0.424611884489012 
735	 0.424766553327869 
736	 0.424663359392972 
737	 0.424571012520719 
738	 0.424551729143326 
739	 0.424533476918354 
740	 0.424620667139345 
741	 0.424758783984925 
742	 0.424846454771053 
743	 0.424740218067322 
744	 0.424885093808737 
745	 0.425141533978657 
746	 0.425269989670204 
747	 0.425271984632777 
748	 0.425283591336885 
749	 0.425364168235355 
750	 0.425509214486138 
751	 0.425635091559719 
752	 0.425774674551932 
753	 0.425949328950554 
754	 0.426148882091097 
755	 0.42640735636247 
756	 0.426673891883543 
757	 0.426898568238635 
758	 0.427097819297664 
759	 0.427191281287608 
760	 0.427329425771729 
761	 0.427701164108479 
762	 0.428025564637813 
763	 0.428216564772601 
764	 0.428369208070674 
765	 0.428731789969571 
766	 0.429046886848519 
767	 0.42932948503142 
768	 0.429621123818836 
769	 0.429892949772279 
770	 0.430217851498059 
771	 0.430590883123148 
772	 0.430967769666278 
773	 0.431277345482735 
774	 0.431617964556986 
775	 0.432003207152579 
776	 0.432371807850731 
777	 0.432711497743885 
778	 0.433094911783193 
779	 0.433529576836851 
780	 0.433895100638017 
781	 0.434237330665399 
782	 0.434570122674591 
783	 0.434916847529093 
784	 0.435365468562636 
785	 0.435740233456716 
786	 0.436109289838319 
787	 0.436625420767685 
788	 0.436943971660552 
789	 0.437283797088719 
790	 0.437702327690146 
791	 0.438015621624215 
792	 0.438458906700537 
793	 0.438943411189497 
794	 0.439374136778581 
795	 0.439813193360477 
796	 0.440191413959194 
797	 0.440552845022222 
798	 0.440952962801022 
799	 0.441276083797367 
800	 0.441707463197909 
801	 0.442183431974246 
802	 0.442472777271267 
803	 0.442784915397263 
804	 0.443156780584941 
805	 0.443570817852151 
806	 0.443966347810249 
807	 0.444282494285521 
808	 0.444578398519477 
809	 0.444917418912748 
810	 0.4452822711644 
811	 0.445588964198372 
812	 0.445896508038034 
813	 0.446292600827239 
814	 0.446639119522808 
815	 0.44686096047916 
816	 0.447088439562448 
817	 0.447574343221036 
818	 0.447852629608181 
819	 0.448042246937457 
820	 0.448274407062511 
821	 0.448545819006182 
822	 0.448803987655601 
823	 0.448976384951717 
824	 0.449080275379632 
825	 0.449414546021152 
826	 0.449727022303504 
827	 0.449908920110915 
828	 0.449981638710833 
829	 0.450233449658146 
830	 0.450653612022533 
831	 0.45097039038017 
832	 0.450806004464336 
833	 0.450949473488138 
834	 0.451192069319132 
835	 0.451316561387719 
836	 0.451332790895162 
837	 0.451572346038583 
838	 0.451788431247827 
839	 0.451770593154679 
840	 0.451814151527498 
841	 0.452042716291615 
842	 0.452215532807721 
843	 0.452092394307737 
844	 0.452254464487616 
845	 0.452293825949444 
846	 0.452215159266103 
847	 0.452321524480657 
848	 0.452464653627497 
849	 0.452506341651117 
850	 0.452447816681638 
851	 0.452454935983006 
852	 0.452428557718894 
853	 0.452431601962495 
854	 0.452489298218059 
855	 0.452484272051176 
856	 0.452490391975924 
857	 0.452473265869258 
858	 0.452405667337686 
859	 0.452408777551235 
860	 0.452340871699366 
861	 0.452289159969717 
862	 0.452386575193159 
863	 0.452299771528376 
864	 0.452176707135321 
865	 0.452049820426564 
866	 0.451851852874565 
867	 0.451849335141267 
868	 0.45187824879237 
869	 0.451847695392888 
870	 0.451849414806398 
871	 0.451810799897094 
872	 0.451733565562009 
873	 0.451631359146633 
874	 0.451499513867872 
875	 0.451454963192112 
876	 0.451416485851158 
877	 0.451284475201995 
878	 0.451129926912815 
879	 0.451007546489579 
880	 0.450983748886935 
881	 0.451051765912078 
882	 0.450825566110922 
883	 0.450701317911947 
884	 0.450686325480271 
885	 0.450503790690954 
886	 0.450425682505302 
887	 0.450402780785071 
888	 0.45039152992824 
889	 0.45038410046298 
890	 0.450107983931069 
891	 0.449847797468473 
892	 0.449784665264326 
893	 0.449749114547913 
894	 0.449579399101257 
895	 0.449420819605294 
896	 0.44940749678656 
897	 0.449431026543051 
898	 0.44943969612466 
899	 0.449228077203731 
900	 0.448768705736829 
901	 0.448818142345316 
902	 0.448934020388926 
903	 0.448923281109856 
904	 0.448763375702941 
905	 0.448513287068644 
906	 0.44851077983497 
907	 0.448597869060475 
908	 0.448367359093668 
909	 0.448474664517173 
910	 0.448436382282404 
911	 0.448207523191844 
912	 0.448249181209892 
913	 0.448333387774651 
914	 0.448211101132252 
915	 0.447947849779308 
916	 0.448004135247967 
917	 0.448030657164369 
918	 0.447967634025493 
919	 0.447866111734742 
920	 0.44786459899844 
921	 0.447880002032461 
922	 0.447823519001903 
923	 0.447692356426757 
924	 0.447692767990901 
925	 0.447728879724051 
926	 0.447735695787728 
927	 0.447734150084809 
928	 0.44802630291744 
929	 0.448052062540087 
930	 0.447883174058442 
931	 0.447841768393689 
932	 0.448018101379512 
933	 0.448160458095027 
934	 0.448111685997426 
935	 0.447914610037129 
936	 0.448278416573995 
937	 0.448304402765698 
938	 0.448018972320211 
939	 0.448088604654565 
940	 0.448403566795249 
941	 0.44857713591345 
942	 0.448546316087935 
943	 0.448565553628947 
944	 0.448814404311534 
945	 0.44898461315255 
946	 0.449008152160516 
947	 0.449106172790057 
948	 0.449039449382293 
949	 0.44906073479763 
950	 0.449161579557365 
951	 0.448978366527769 
952	 0.449136993446155 
953	 0.449336150602551 
954	 0.449368685912955 
955	 0.449413188855688 
956	 0.44935354571782 
957	 0.449388885095948 
958	 0.449571500985494 
959	 0.44961163204366 
960	 0.449607524578221 
961	 0.449728879996209 
962	 0.44996077533923 
963	 0.44991145855138 
964	 0.449855854866054 
965	 0.449755579979176 
966	 0.44958336583425 
967	 0.449488830959138 
968	 0.449922329735356 
969	 0.450154899650293 
970	 0.449767467134138 
971	 0.449951286911574 
972	 0.450306295697582 
973	 0.450386052814109 
974	 0.450070908609326 
975	 0.450176179983093 
976	 0.45039764094651 
977	 0.450370230989342 
978	 0.450011684854667 
979	 0.450105214037859 
980	 0.45057038419759 
981	 0.450653014220567 
982	 0.450001377600027 
983	 0.450245525091377 
984	 0.450469349894466 
985	 0.450496957162609 
986	 0.450499464735725 
987	 0.450900030398988 
988	 0.451250563550092 
989	 0.451151080855768 
990	 0.450656179818992 
991	 0.451196556757027 
992	 0.450947138141628 
993	 0.450549715353348 
994	 0.450962150871783 
995	 0.450987954400325 
996	 0.450901545842847 
997	 0.450913930822717 
998	 0.451085112658326 
999	 0.450985110563189 
1000	 0.451328615238203 
1001	 0.452629769624397 
1002	 0.452489530530217 
1003	 0.45269316177187 
1004	 0.452808328404247 
1005	 0.452823219425059 
1006	 0.452886376907083 
1007	 0.453109946249292 
1008	 0.453093302057891 
1009	 0.452764002058735 
1010	 0.45277256296509 
1011	 0.45304300577233 
1012	 0.453087040464358 
1013	 0.453103592903974 
1014	 0.453152966932119 
1015	 0.453104621588868 
1016	 0.453002347385862 
1017	 0.453005256320279 
1018	 0.453001458163063 
1019	 0.45301901167873 
1020	 0.45309193890043 
1021	 0.453272034181384 
1022	 0.453798709474785 
1023	 0.453876641767591 
1024	 0.45379542731116 
1025	 0.45370310734495 
1026	 0.453303751897191 
1027	 0.453183867903929 
1028	 0.453222145412074 
1029	 0.453145071643724 
1030	 0.45331899078744 
1031	 0.453405734021308 
1032	 0.453400696199624 
1033	 0.453561877215562 
1034	 0.453571884511982 
1035	 0.453451602487733 
1036	 0.453456125015343 
1037	 0.453529704906696 
1038	 0.453551387457048 
1039	 0.453589658576143 
1040	 0.453636499087805 
1041	 0.453640567385968 
1042	 0.45367147318182 
1043	 0.453765219909361 
1044	 0.453762593794622 
1045	 0.453842709315201 
1046	 0.453960901440114 
1047	 0.453859023096483 
1048	 0.453816171582856 
1049	 0.453774422741481 
1050	 0.453786580477664 
1051	 0.454067111538939 
1052	 0.454220195423463 
1053	 0.45420939081224 
1054	 0.454003782513211 
1055	 0.453973035690657 
1056	 0.453803302789809 
1057	 0.453822551345571 
1058	 0.4540955242233 
1059	 0.454236701295384 
1060	 0.454197416401089 
1061	 0.45429527489387 
1062	 0.454505020886158 
1063	 0.454686475127205 
1064	 0.454725196751268 
1065	 0.454740608989939 
1066	 0.454701579236175 
1067	 0.454491030985811 
1068	 0.454558119573835 
1069	 0.454921291761286 
1070	 0.455079216935076 
1071	 0.455206217725362 
1072	 0.455326540573898 
1073	 0.455333058177809 
1074	 0.455191465286303 
1075	 0.455171828632402 
1076	 0.45525943641763 
1077	 0.455420348592581 
1078	 0.455592579273311 
1079	 0.455711716385467 
1080	 0.455774347910415 
1081	 0.455744157018184 
1082	 0.455804530106087 
1083	 0.455989520198709 
1084	 0.456072109363455 
1085	 0.456295083139496 
1086	 0.456487755702883 
1087	 0.456657047042742 
1088	 0.456651927236568 
1089	 0.456817496364173 
1090	 0.456973106158667 
1091	 0.457062249915444 
1092	 0.457055834345658 
1093	 0.457045023099656 
1094	 0.457134457155483 
1095	 0.457156287470748 
1096	 0.457241026002244 
1097	 0.457327639267154 
1098	 0.457395816697868 
1099	 0.457507135172378 
1100	 0.457577407952005 
1101	 0.457782559641109 
1102	 0.458037397440426 
1103	 0.458219041693212 
1104	 0.458355362531016 
1105	 0.458568792550301 
1106	 0.458755879900021 
1107	 0.458814700222267 
1108	 0.458830560145141 
1109	 0.458896935013558 
1110	 0.458935781841073 
1111	 0.458996326277486 
1112	 0.459221598443547 
1113	 0.459449488020794 
1114	 0.459604143466142 
1115	 0.459737355875257 
1116	 0.459857735259209 
1117	 0.460026578684839 
1118	 0.460214572840106 
1119	 0.460523771900735 
1120	 0.460710563883953 
1121	 0.460852565195668 
1122	 0.460950838692258 
1123	 0.461103406327665 
1124	 0.461283147975674 
1125	 0.461535554717203 
1126	 0.461701050115246 
1127	 0.461855162297118 
1128	 0.462049447942131 
1129	 0.462190972206691 
1130	 0.462413354921069 
1131	 0.46263044111149 
1132	 0.462747158370765 
1133	 0.462797464093162 
1134	 0.46287217077296 
1135	 0.463041227331682 
1136	 0.463292511695441 
1137	 0.463449096558729 
1138	 0.463677115069508 
1139	 0.463850233977517 
1140	 0.463919658304578 
1141	 0.463971333238211 
1142	 0.464246160169797 
1143	 0.464412871330861 
1144	 0.464427785226882 
1145	 0.46447645558399 
1146	 0.464457983977831 
1147	 0.464451944067105 
1148	 0.464656121305363 
1149	 0.464881193680568 
1150	 0.465008231207408 
1151	 0.465084804136462 
1152	 0.465127434346513 
1153	 0.465054432485392 
1154	 0.465083575170244 
1155	 0.465141896194497 
1156	 0.4651862584996 
1157	 0.465214053412347 
1158	 0.465282905353647 
1159	 0.46537915636532 
1160	 0.465493585356517 
1161	 0.465512802302375 
1162	 0.465593636663047 
1163	 0.465629002824137 
1164	 0.465562009491348 
1165	 0.465539971102973 
1166	 0.465561801473544 
1167	 0.465547192930405 
1168	 0.465547573611085 
1169	 0.465589939817397 
1170	 0.465696252237715 
1171	 0.465773976840026 
1172	 0.465884124637613 
1173	 0.465942004992821 
1174	 0.465957286011695 
1175	 0.466018784416528 
1176	 0.466081604573513 
1177	 0.46613931405159 
1178	 0.466240986213528 
1179	 0.466300524467197 
1180	 0.466318381857825 
1181	 0.466329303832697 
1182	 0.466394016541571 
1183	 0.466525664499255 
1184	 0.466659640000302 
1185	 0.466773131897496 
1186	 0.466870604198306 
1187	 0.466898879419723 
1188	 0.467033752140945 
1189	 0.46722129593315 
1190	 0.467390456455759 
1191	 0.467619377107259 
1192	 0.467807075746043 
1193	 0.467927224461014 
1194	 0.468118639542096 
1195	 0.468356077551412 
1196	 0.46857733934784 
1197	 0.468813482806497 
1198	 0.469063636772549 
1199	 0.469305926408036 
1200	 0.469583276419941 
1201	 0.469923666579216 
1202	 0.470259511765144 
1203	 0.470537268148114 
1204	 0.470850573059659 
1205	 0.471204770965237 
1206	 0.471535266531019 
1207	 0.471954121943413 
1208	 0.472454994021951 
1209	 0.47297670726289 
1210	 0.473506739494652 
1211	 0.47412066261684 
1212	 0.474819485278102 
1213	 0.475529407149516 
1214	 0.476329262894372 
1215	 0.477095186669784 
1216	 0.477806367472582 
1217	 0.478603998147193 
1218	 0.47943363141215 
1219	 0.480300426470068 
1220	 0.481223962613206 
1221	 0.482248180022557 
1222	 0.483153355762788 
1223	 0.484027723230126 
1224	 0.484876333680146 
1225	 0.485663539162084 
1226	 0.486477690980495 
1227	 0.487280715063263 
1228	 0.488077009095359 
1229	 0.488866089205438 
1230	 0.489657388756262 
1231	 0.490461332462278 
1232	 0.491240691505216 
1233	 0.492029878985856 
1234	 0.492768306909572 
1235	 0.493438496444565 
1236	 0.494149243244955 
1237	 0.494871768808 
1238	 0.495560069226408 
1239	 0.49623122122761 
1240	 0.496908983025375 
1241	 0.497665429676572 
1242	 0.49834964908456 
1243	 0.49903306533687 
1244	 0.499766105458098 
1245	 0.500437489129385 
1246	 0.501041137357131 
1247	 0.501662537112664 
1248	 0.502269333739708 
1249	 0.50290690892274 
1250	 0.503511568063789 
1251	 0.504169265881972 
1252	 0.504961753800005 
1253	 0.505600456370669 
1254	 0.506158717631104 
1255	 0.506740164623453 
1256	 0.50724128250006 
1257	 0.50778048848891 
1258	 0.508416118666245 
1259	 0.508944161106705 
1260	 0.509372012600473 
1261	 0.509840441062438 
1262	 0.510220891052452 
1263	 0.51068470654109 
1264	 0.511231759679925 
1265	 0.511883132978912 
1266	 0.512470069946787 
1267	 0.513120786420351 
1268	 0.513694096986379 
1269	 0.51421835742887 
1270	 0.514733832169804 
1271	 0.51520820663098 
1272	 0.515732613036783 
1273	 0.516270151011041 
1274	 0.516775233559091 
1275	 0.517278802887971 
1276	 0.517801903455874 
1277	 0.518268779069637 
1278	 0.51880728208313 
1279	 0.51941843989378 
1280	 0.520025661191053 
1281	 0.520710469737192 
1282	 0.521306692282887 
1283	 0.521853159991835 
1284	 0.522410377518027 
1285	 0.522946317700631 
1286	 0.523398599663285 
1287	 0.523966506041296 
1288	 0.524608014732593 
1289	 0.525182075836439 
1290	 0.525767696550784 
1291	 0.526333803624732 
1292	 0.526886375276647 
1293	 0.527388508983005 
1294	 0.52788127768643 
1295	 0.528342373854972 
1296	 0.528701278049332 
1297	 0.529146671276215 
1298	 0.529602704225417 
1299	 0.530097441535419 
1300	 0.530663387343025 
1301	 0.531183575575439 
1302	 0.531742915841358 
1303	 0.532235982119158 
1304	 0.532646956882683 
1305	 0.533097942399947 
1306	 0.533517608873773 
1307	 0.533968063584943 
1308	 0.534442930683155 
1309	 0.534951082946362 
1310	 0.535423175328322 
1311	 0.535904731214787 
1312	 0.536341553079532 
1313	 0.536746322814108 
1314	 0.537160537610155 
1315	 0.537534317222245 
1316	 0.53796455335898 
1317	 0.538460982291214 
1318	 0.538851835810203 
1319	 0.53920704523506 
1320	 0.539579489622921 
1321	 0.53989136853997 
1322	 0.540228390786102 
1323	 0.540627737079284 
1324	 0.540959853082262 
1325	 0.541241509124251 
1326	 0.541524608101825 
1327	 0.541751507384165 
1328	 0.542039351359859 
1329	 0.54236592543832 
1330	 0.542664056322185 
1331	 0.543021654319388 
1332	 0.543309699076356 
1333	 0.543531184076857 
1334	 0.543753206939422 
1335	 0.543949881017292 
1336	 0.544108538628044 
1337	 0.544288029991516 
1338	 0.544448671977869 
1339	 0.544644423166296 
1340	 0.544878392934029 
1341	 0.545047073699312 
1342	 0.545246743381816 
1343	 0.545329724018239 
1344	 0.545299654021706 
1345	 0.545334454738963 
1346	 0.545334967454844 
1347	 0.545349044695283 
1348	 0.545374734506398 
1349	 0.545421985136778 
1350	 0.545504813691498 
1351	 0.54551931037711 
1352	 0.545532735619775 
1353	 0.545528875547129 
1354	 0.545466329361898 
1355	 0.545399600667598 
1356	 0.545303919220322 
1357	 0.545259928668697 
1358	 0.545234936272639 
1359	 0.545180473650091 
1360	 0.545132489584299 
1361	 0.545130339780238 
1362	 0.545070377832827 
1363	 0.544984726989626 
1364	 0.544940072972681 
1365	 0.544962704172678 
1366	 0.544863219524056 
1367	 0.544724528705985 
1368	 0.544569539300234 
1369	 0.544331942248022 
1370	 0.544148724753315 
1371	 0.543992139391955 
1372	 0.543809134463135 
1373	 0.543647620386549 
1374	 0.543411797670953 
1375	 0.543121480578205 
1376	 0.542849159742753 
1377	 0.542570681472618 
1378	 0.542225835057308 
1379	 0.54181516015601 
1380	 0.541470801535301 
1381	 0.541119883663407 
1382	 0.540741480586265 
1383	 0.540447976611232 
1384	 0.540056724708312 
1385	 0.53955335199137 
1386	 0.539072900999145 
1387	 0.538564159106357 
1388	 0.538071276961088 
1389	 0.537518870897014 
1390	 0.537061242980302 
1391	 0.536629571912473 
1392	 0.536263122468254 
1393	 0.53603227912203 
1394	 0.535790154047912 
1395	 0.53558785506346 
1396	 0.53548171353001 
1397	 0.535242205902832 
1398	 0.535012837852444 
1399	 0.534654849163384 
1400	 0.534255724593623 
1401	 0.533660907168179 
1402	 0.532928477567012 
1403	 0.532141967244485 
1404	 0.53119564373741 
1405	 0.530241027903062 
1406	 0.529278741117641 
1407	 0.528185494839853 
1408	 0.526929743529794 
1409	 0.52573494252582 
1410	 0.524493819038833 
1411	 0.523246313436745 
1412	 0.522006442608061 
1413	 0.520759275850969 
1414	 0.519453744442046 
1415	 0.518192979964466 
1416	 0.51695274531411 
1417	 0.515721942034448 
1418	 0.514511067394487 
1419	 0.513296619724326 
1420	 0.512056465927894 
1421	 0.510887328720977 
1422	 0.50974370368116 
1423	 0.508630851330667 
1424	 0.507602438544009 
1425	 0.506546882085488 
1426	 0.505521016923995 
1427	 0.504453124243805 
1428	 0.503387288068406 
1429	 0.502371024094471 
1430	 0.501328603583757 
1431	 0.50032777116826 
1432	 0.499191604407351 
1433	 0.498050219152225 
1434	 0.496729398553942 
1435	 0.495276041220415 
1436	 0.49375694202392 
1437	 0.49211681259534 
1438	 0.490460219287091 
1439	 0.488679638874442 
1440	 0.486982252759015 
1441	 0.485181950804539 
1442	 0.483594366075183 
1443	 0.481942297435646 
1444	 0.480739075713808 
1445	 0.479678118087029 
1446	 0.479058482225091 
1447	 0.478784258832107 
1448	 0.478873057095633 
1449	 0.479313672911131 
1450	 0.480106120601402 
1451	 0.48139138123673 
1452	 0.482779832613186 
1453	 0.484593236595609 
1454	 0.486330915029857 
1455	 0.488260559716842 
1456	 0.490097501460603 
1457	 0.492045208409387 
1458	 0.493803818688251 
1459	 0.495435356391471 
1460	 0.497045067303917 
1461	 0.498575460528386 
1462	 0.4999923082317 
1463	 0.501358260933259 
1464	 0.502643920783422 
1465	 0.503758511572207 
1466	 0.504887790410042 
1467	 0.505925777106084 
1468	 0.506980585278918 
1469	 0.508009030521384 
1470	 0.508910501722806 
1471	 0.509810644096227 
1472	 0.51067928460479 
1473	 0.511522394618118 
1474	 0.512319192126126 
1475	 0.513089899859482 
1476	 0.513858978759702 
1477	 0.51454437147542 
1478	 0.515194500004821 
1479	 0.515728759590912 
1480	 0.516196113900538 
1481	 0.516570894171637 
1482	 0.516824431315245 
1483	 0.517054936445715 
1484	 0.517236616503273 
1485	 0.517331955494085 
1486	 0.517280942566764 
1487	 0.517352820551115 
1488	 0.517323792794051 
1489	 0.517503836359229 
1490	 0.517782314754349 
1491	 0.518201486624688 
1492	 0.518743855385941 
1493	 0.519394981236645 
1494	 0.520169206500998 
1495	 0.521070260700608 
1496	 0.522086343218144 
1497	 0.523220068004024 
1498	 0.52456164642255 
1499	 0.525876252910522 
1500	 0.527293239991571 
1501	 0.528687242041181 
1502	 0.530123792122584 
1503	 0.531504782369122 
1504	 0.532938780483239 
1505	 0.534239106692726 
1506	 0.535455836966003 
1507	 0.536617640583339 
1508	 0.537716252573515 
1509	 0.53871371693796 
1510	 0.539616984818718 
1511	 0.540473742682837 
1512	 0.54123019229814 
1513	 0.541941709253124 
1514	 0.542625230987457 
1515	 0.543242430139403 
1516	 0.543767297215681 
1517	 0.544264970194749 
1518	 0.544711631945393 
1519	 0.545125206995477 
1520	 0.545499415375878 
1521	 0.545840811937608 
1522	 0.546169291667537 
1523	 0.546405649329712 
1524	 0.546637505247207 
1525	 0.54684527481007 
1526	 0.546976975330614 
1527	 0.54705814268931 
1528	 0.547108978360176 
1529	 0.547082961917841 
1530	 0.547083269723246 
1531	 0.547055453797456 
1532	 0.547072192655947 
1533	 0.547076929169074 
1534	 0.547145781795425 
1535	 0.547241103302351 
1536	 0.547406063446142 
1537	 0.547590180827037 
1538	 0.547906910038614 
1539	 0.548297880330657 
1540	 0.548800066028255 
1541	 0.549439841130295 
1542	 0.550081626271854 
1543	 0.550789166519896 
1544	 0.551560911062251 
1545	 0.552338829683776 
1546	 0.553280120529466 
1547	 0.554377182263108 
1548	 0.555449369826148 
1549	 0.556639496233272 
1550	 0.557767294550206 
1551	 0.558885265089316 
1552	 0.559994386744011 
1553	 0.561115482961689 
1554	 0.562199921029334 
1555	 0.56324837446253 
1556	 0.56431282815658 
1557	 0.565402915687311 
1558	 0.566409209528941 
1559	 0.567394429955046 
1560	 0.568332862000421 
1561	 0.569189338123691 
1562	 0.570050571794852 
1563	 0.570891857427155 
1564	 0.571722833740806 
1565	 0.572474553483945 
1566	 0.573334243834917 
1567	 0.574284560871457 
1568	 0.575146640205875 
1569	 0.576041488749739 
1570	 0.576883995537386 
1571	 0.577650911381148 
1572	 0.578406844576579 
1573	 0.579174622975049 
1574	 0.579882626783225 
1575	 0.580495029053257 
1576	 0.581155229927483 
1577	 0.581806627697232 
1578	 0.582470941304551 
1579	 0.583153662036783 
1580	 0.583831992655635 
1581	 0.584519573705816 
1582	 0.585187679983731 
1583	 0.585858195624222 
1584	 0.58651097118891 
1585	 0.587094191777868 
1586	 0.58776819620376 
1587	 0.588529313719658 
1588	 0.589201529892223 
1589	 0.589884968391535 
1590	 0.590547652115182 
1591	 0.591098172911115 
1592	 0.591731651465037 
1593	 0.592438125684997 
1594	 0.593111526181064 
1595	 0.593783834390871 
1596	 0.594461834717018 
1597	 0.595148217122265 
1598	 0.595812097740757 
1599	 0.596502160702411 
1600	 0.597135964664664 
1601	 0.597698264741618 
1602	 0.598293098370068 
1603	 0.598866205478619 
1604	 0.599451958616202 
1605	 0.600085545838395 
1606	 0.600670015055209 
1607	 0.601197122208651 
1608	 0.601775169234024 
1609	 0.602360317109306 
1610	 0.602940243909469 
1611	 0.60361865993332 
1612	 0.604167099936319 
1613	 0.604593438433453 
1614	 0.605070556879384 
1615	 0.605464779068327 
1616	 0.605940860959824 
1617	 0.60653847650918 
1618	 0.607056800874534 
1619	 0.60756498451089 
1620	 0.608047689398367 
1621	 0.60850217508752 
1622	 0.608913259706757 
1623	 0.609294255895688 
1624	 0.609666681045286 
1625	 0.609968784937089 
1626	 0.610301839879427 
1627	 0.610673790192679 
1628	 0.610995904570396 
1629	 0.611283535153675 
1630	 0.611586220985021 
1631	 0.611878641164305 
1632	 0.612156860555565 
1633	 0.612390713974019 
1634	 0.612710031067917 
1635	 0.613104221577002 
1636	 0.613421543363949 
1637	 0.613759655807117 
1638	 0.61408313669287 
1639	 0.614325626502948 
1640	 0.614593468209612 
1641	 0.614911703647956 
1642	 0.615199869633389 
1643	 0.615470391080944 
1644	 0.615702920427804 
1645	 0.615937740667128 
1646	 0.616117628756669 
1647	 0.616230551442929 
1648	 0.616343579143068 
1649	 0.616454826784416 
1650	 0.616497684529086 
1651	 0.616480957921206 
1652	 0.616468207592632 
1653	 0.616444900943414 
1654	 0.616349786108961 
1655	 0.61621367619698 
1656	 0.616063638659642 
1657	 0.615843186923082 
1658	 0.61560788590406 
1659	 0.615428415171413 
1660	 0.615117870909472 
1661	 0.614719523340025 
1662	 0.614275442260743 
1663	 0.61377244580177 
1664	 0.61316673903878 
1665	 0.61248484976868 
1666	 0.611711053116297 
1667	 0.610804278560157 
1668	 0.609896006372867 
1669	 0.608999036748362 
1670	 0.607929396416427 
1671	 0.606757038182685 
1672	 0.605501930019481 
1673	 0.60409658410376 
1674	 0.602636498044185 
1675	 0.601153695692721 
1676	 0.599538775190031 
1677	 0.597808922183103 
1678	 0.595994896089138 
1679	 0.594014482041566 
1680	 0.592059247698052 
1681	 0.59009046894374 
1682	 0.587980015555646 
1683	 0.585846502116284 
1684	 0.583591484937387 
1685	 0.581181299529876 
1686	 0.578723429141419 
1687	 0.576142495181955 
1688	 0.57355667365488 
1689	 0.570941639487215 
1690	 0.568190768452334 
1691	 0.565420100446105 
1692	 0.562575324986149 
1693	 0.559551825161475 
1694	 0.556573726301765 
1695	 0.553583741989719 
1696	 0.550498968526727 
1697	 0.547347100150515 
1698	 0.544169597326171 
1699	 0.540952424035601 
1700	 0.537765329923261 
1701	 0.534531572948847 
1702	 0.531405417220896 
1703	 0.528256130291854 
1704	 0.525183698842816 
1705	 0.522145569111012 
1706	 0.51916977785447 
1707	 0.516563193770199 
1708	 0.514136975562148 
1709	 0.511765637159413 
1710	 0.509574825269668 
1711	 0.507466346707645 
1712	 0.505555162242924 
1713	 0.503786447249738 
1714	 0.502040068506677 
1715	 0.500348490350269 
1716	 0.498594021385992 
1717	 0.496860422955943 
1718	 0.495171437705857 
1719	 0.493472193382076 
1720	 0.491909533299194 
1721	 0.49048884751134 
1722	 0.48911716645858 
1723	 0.487942687946705 
1724	 0.486853722561229 
1725	 0.485866576631067 
1726	 0.485214897268084 
1727	 0.484708209204957 
1728	 0.484388583097452 
1729	 0.484309254660399 
1730	 0.484340261013425 
1731	 0.484627192015432 
1732	 0.485266888564641 
1733	 0.486011376787194 
1734	 0.486853713071343 
1735	 0.487806843936672 
1736	 0.488640536494504 
1737	 0.489375558358855 
1738	 0.490143910480391 
1739	 0.490692403652969 
1740	 0.491127477525861 
1741	 0.491355430569231 
1742	 0.491384352055517 
1743	 0.491269337287527 
1744	 0.490870155716987 
1745	 0.490558582981178 
1746	 0.49013923414966 
1747	 0.489780749184564 
1748	 0.489377500295223 
1749	 0.489134929676058 
1750	 0.488887291603467 
1751	 0.488863395044124 
1752	 0.489057580170898 
1753	 0.489352640799357 
1754	 0.489777069890712 
1755	 0.49030656280397 
1756	 0.490921346055092 
1757	 0.491670189990169 
1758	 0.492683046673914 
1759	 0.493794051678052 
1760	 0.495036329223984 
1761	 0.496384359062948 
1762	 0.49775869196337 
1763	 0.499291051489373 
1764	 0.500985223873245 
1765	 0.502840954902617 
1766	 0.504879143971186 
1767	 0.506899450518393 
1768	 0.508935370898156 
1769	 0.510981283903893 
1770	 0.512882089201588 
1771	 0.51477198458318 
1772	 0.516564457266169 
1773	 0.518300909411056 
1774	 0.520060957633388 
1775	 0.521667505960863 
1776	 0.523335484270847 
1777	 0.524881514661304 
1778	 0.526174978494492 
1779	 0.527523153226074 
1780	 0.528747865024362 
1781	 0.529852310891747 
1782	 0.530986360460376 
1783	 0.531997860819209 
1784	 0.532981887526236 
1785	 0.533971190968578 
1786	 0.534933768629531 
1787	 0.535912401030212 
1788	 0.536880268477449 
1789	 0.537828238871699 
1790	 0.5387498747976 
1791	 0.539676686358485 
1792	 0.540539349111705 
1793	 0.541312285396048 
1794	 0.542221808224087 
1795	 0.542994112438936 
1796	 0.543768811863262 
1797	 0.544572163681305 
1798	 0.545272382160263 
1799	 0.545955722758223 
1800	 0.54661408393208 
1801	 0.54957814869509 
1802	 0.550366040076769 
1803	 0.551051693131403 
1804	 0.551661594199835 
1805	 0.552358520043882 
1806	 0.552984196897026 
1807	 0.553561942862917 
1808	 0.554130010121616 
1809	 0.554691272465305 
1810	 0.55523136154709 
1811	 0.555666192438049 
1812	 0.556206830255088 
1813	 0.556798670687526 
1814	 0.557434015154646 
1815	 0.558003101503231 
1816	 0.558661799631023 
1817	 0.559233658823489 
1818	 0.559723727091133 
1819	 0.56024409150647 
1820	 0.560702150735018 
1821	 0.561268207245576 
1822	 0.561867250523259 
1823	 0.562534533629309 
1824	 0.563208470287193 
1825	 0.56387120669016 
1826	 0.564464465582647 
1827	 0.564998216215722 
1828	 0.56548362261371 
1829	 0.565897901790334 
1830	 0.56636001076742 
1831	 0.566750366890754 
1832	 0.567256320625754 
1833	 0.567780873061981 
1834	 0.568257083611255 
1835	 0.568697875165161 
1836	 0.569030001014974 
1837	 0.569368930686365 
1838	 0.569657967436843 
1839	 0.569969215705795 
1840	 0.570268664337658 
1841	 0.570552995578475 
1842	 0.570851325900488 
1843	 0.571104226631744 
1844	 0.571297465637775 
1845	 0.571481837204214 
1846	 0.571629365014196 
1847	 0.571741081231794 
1848	 0.57180639019735 
1849	 0.571852314160706 
1850	 0.571837112614332 
1851	 0.571813518433639 
1852	 0.571648175319336 
1853	 0.571373311428741 
1854	 0.571058916850646 
1855	 0.57058562894835 
1856	 0.570079486433809 
1857	 0.569537433393462 
1858	 0.568860588736019 
1859	 0.56812454114052 
1860	 0.567293252984422 
1861	 0.566393040316321 
1862	 0.565415469588908 
1863	 0.564438187945113 
1864	 0.56323952776029 
1865	 0.561962232296002 
1866	 0.560583214772072 
1867	 0.558963300321236 
1868	 0.557434559042505 
1869	 0.555748182736924 
1870	 0.553886322061984 
1871	 0.551930205004943 
1872	 0.549872415864745 
1873	 0.547630051211714 
1874	 0.545340105955001 
1875	 0.543005838530951 
1876	 0.540386505727185 
1877	 0.53775712698691 
1878	 0.535007745141528 
1879	 0.53212206946179 
1880	 0.529340430064964 
1881	 0.526365388146239 
1882	 0.52324186844102 
1883	 0.520020478259603 
1884	 0.516711244322247 
1885	 0.51301051414541 
1886	 0.509336959613734 
1887	 0.505553987130542 
1888	 0.50156530200677 
1889	 0.497837583197798 
1890	 0.493903260331397 
1891	 0.489802455851507 
1892	 0.48573636006641 
1893	 0.481593091008736 
1894	 0.477275096479362 
1895	 0.47304939969487 
1896	 0.468850849376083 
1897	 0.464666030831096 
1898	 0.460662234604055 
1899	 0.456632733929831 
1900	 0.452754379126452 
1901	 0.448948817250847 
1902	 0.444940145318694 
1903	 0.441172854669939 
1904	 0.437442684139967 
1905	 0.433706925401722 
1906	 0.430030336999747 
1907	 0.426760550141384 
1908	 0.423405890848744 
1909	 0.420225486810223 
1910	 0.417304626789597 
1911	 0.414201843579891 
1912	 0.411313901103402 
1913	 0.408402337815375 
1914	 0.405377449422146 
1915	 0.402611624251188 
1916	 0.400068825156496 
1917	 0.397444023078008 
1918	 0.394933087194167 
1919	 0.392520822332112 
1920	 0.389857603173236 
1921	 0.387310578360554 
1922	 0.384666343922061 
1923	 0.381957006474331 
1924	 0.379419082993138 
1925	 0.376702280286157 
1926	 0.374154330363318 
1927	 0.371750479493727 
1928	 0.369281534224169 
1929	 0.366761015360094 
1930	 0.364479634491577 
1931	 0.362192775370464 
1932	 0.359951281325879 
1933	 0.358103537597189 
1934	 0.356312604035736 
1935	 0.354595057352977 
1936	 0.353198788197425 
1937	 0.351940747512585 
1938	 0.350765895157249 
1939	 0.349933889802833 
1940	 0.349380317288807 
1941	 0.349001426522812 
1942	 0.348805097188639 
1943	 0.348726135526416 
1944	 0.348767931440219 
1945	 0.348908758142447 
1946	 0.349260632133681 
1947	 0.349801423604806 
1948	 0.350512731274572 
1949	 0.351433140137559 
1950	 0.352517172953783 
1951	 0.353806863262771 
1952	 0.35523366007225 
1953	 0.356796197092378 
1954	 0.358546983977847 
1955	 0.360645392958624 
1956	 0.362830682956763 
1957	 0.365198301777711 
1958	 0.367701611168526 
1959	 0.369899880087893 
1960	 0.372028487520603 
1961	 0.373926667583058 
1962	 0.375617831244963 
1963	 0.377153747264449 
1964	 0.378503476887002 
1965	 0.379693215654297 
1966	 0.380723296154508 
1967	 0.381638123387487 
1968	 0.382305604889245 
1969	 0.382981748319318 
1970	 0.383637699402186 
1971	 0.384309485485718 
1972	 0.38507210803759 
1973	 0.385859526598466 
1974	 0.386703274010134 
1975	 0.387555409710691 
1976	 0.388518624245862 
1977	 0.389599544898153 
1978	 0.390677381613937 
1979	 0.391801642279341 
1980	 0.392979315234441 
1981	 0.394184566261293 
1982	 0.395331062042155 
1983	 0.396562115025048 
1984	 0.397884485389823 
1985	 0.39920952179628 
1986	 0.400673206217762 
1987	 0.402274582718958 
1988	 0.403860772001792 
1989	 0.40580887495416 
1990	 0.407992239818835 
1991	 0.410356069851771 
1992	 0.412955238120233 
1993	 0.415844923238269 
1994	 0.418724589433586 
1995	 0.421853344465313 
1996	 0.425040063443993 
1997	 0.428315788110703 
1998	 0.431728765374187 
1999	 0.435363553157438 
2000	 0.438777445545261 
2001	 0.442412184481661 
2002	 0.445650979366305 
2003	 0.44864599020118 
2004	 0.451561215005263 
2005	 0.454199509723042 
2006	 0.456861880588079 
2007	 0.459522634501236 
2008	 0.462029890313949 
2009	 0.464361967155273 
2010	 0.466618678782834 
2011	 0.468500429683036 
2012	 0.470227217874261 
2013	 0.47187478313728 
2014	 0.473328871101384 
2015	 0.474764195805721 
2016	 0.476145896719733 
2017	 0.477379899742793 
2018	 0.478501783024919 
2019	 0.479583951979477 
2020	 0.480564207042417 
2021	 0.481452680094308 
2022	 0.482288358211316 
2023	 0.482977576275884 
2024	 0.483568207847907 
2025	 0.484037849458876 
2026	 0.484433122266975 
2027	 0.484765820887225 
2028	 0.484961576326461 
2029	 0.484976717549028 
2030	 0.485035091425151 
2031	 0.484949512148137 
2032	 0.484983116275835 
2033	 0.485119495573469 
2034	 0.485147223622735 
2035	 0.485175198076112 
2036	 0.485142245781891 
2037	 0.485071485116993 
2038	 0.48499175110034 
2039	 0.484970640592774 
2040	 0.484999314095663 
2041	 0.485038083771262 
2042	 0.485121389570313 
2043	 0.485158150573938 
2044	 0.485208470204248 
2045	 0.485242442431147 
2046	 0.485206690993781 
2047	 0.485225099931378 
2048	 0.485314480423646 
2049	 0.485335833332038 
2050	 0.485311122374123 
2051	 0.48534670219045 
2052	 0.485346012421901 
2053	 0.485341070912791 
2054	 0.485316840900073 
2055	 0.485312772140619 
2056	 0.485260331578565 
2057	 0.485151449766185 
2058	 0.485056855023385 
2059	 0.484956987669971 
2060	 0.484868756709462 
2061	 0.484764086034008 
2062	 0.484680654019363 
2063	 0.484590785034858 
2064	 0.484532803549738 
2065	 0.484516719132247 
2066	 0.484474329729629 
2067	 0.484422972464368 
2068	 0.484458492219793 
2069	 0.484446567960941 
2070	 0.484403692890091 
2071	 0.484408455062595 
2072	 0.484450124582373 
2073	 0.484450720044286 
2074	 0.484462970927353 
2075	 0.484450387802947 
2076	 0.484459818042274 
2077	 0.484376308094649 
2078	 0.484236017776951 
2079	 0.484086029448522 
2080	 0.483855347283523 
2081	 0.483609231190106 
2082	 0.483320972704049 
2083	 0.483113508517169 
2084	 0.482775701945117 
2085	 0.482463048161046 
2086	 0.482148179568228 
2087	 0.481824573907791 
2088	 0.481487869816328 
2089	 0.481161675928283 
2090	 0.48080606091721 
2091	 0.480455870568158 
2092	 0.480043158963093 
2093	 0.479613768137615 
2094	 0.479123423837745 
2095	 0.478472137283669 
2096	 0.47796149447134 
2097	 0.477534441566138 
2098	 0.477019568408425 
2099	 0.476565329672163 
2100	 0.476128413167152 
2101	 0.475579415498243 
2102	 0.474911723555983 
2103	 0.474309669512406 
2104	 0.473674304822412 
2105	 0.473077753757964 
2106	 0.472540380239239 
2107	 0.471901996596807 
2108	 0.471266460906114 
2109	 0.470551480898065 
2110	 0.469713272680559 
2111	 0.468920484017785 
2112	 0.468086905382919 
2113	 0.467288729194287 
2114	 0.46652799548821 
2115	 0.465721534149921 
2116	 0.464881305201763 
2117	 0.464096675414209 
2118	 0.46327386778869 
2119	 0.462409888763041 
2120	 0.461600229157716 
2121	 0.460826759035438 
2122	 0.460002102686993 
2123	 0.459135412074736 
2124	 0.458352831273182 
2125	 0.457579383805495 
2126	 0.456829901492632 
2127	 0.456124675569171 
2128	 0.455460128674142 
2129	 0.454828879142828 
2130	 0.454193323252975 
2131	 0.453601338732694 
2132	 0.453031027104134 
2133	 0.452476305929389 
2134	 0.451885060529797 
2135	 0.451370745644179 
2136	 0.450881760286555 
2137	 0.450349941204108 
2138	 0.449765449349858 
2139	 0.449279000062077 
2140	 0.448828543277488 
2141	 0.448362095256969 
2142	 0.44796880797703 
2143	 0.447519220038917 
2144	 0.447005323593604 
2145	 0.446547521466755 
2146	 0.446098060285376 
2147	 0.445663597510561 
2148	 0.44526721110548 
2149	 0.444852576430587 
2150	 0.444461280594852 
2151	 0.444042031947929 
2152	 0.443555588985983 
2153	 0.443153335615465 
2154	 0.44270345983105 
2155	 0.442316707758146 
2156	 0.442000909837791 
2157	 0.44179369048169 
2158	 0.441448604259627 
2159	 0.441135463062011 
2160	 0.440732937098621 
2161	 0.440200537638874 
2162	 0.439745921642463 
2163	 0.439314824471204 
2164	 0.438846935318321 
2165	 0.438371606651297 
2166	 0.437879008559943 
2167	 0.437356324247934 
2168	 0.436826789733209 
2169	 0.436240179180366 
2170	 0.435732204530299 
2171	 0.435180699733873 
2172	 0.434765356677944 
2173	 0.434522337518512 
2174	 0.434215146899156 
2175	 0.433930631265596 
2176	 0.433727037725765 
2177	 0.433415947236489 
2178	 0.433011052841865 
2179	 0.432726662290819 
2180	 0.432429122519834 
2181	 0.432226626753155 
2182	 0.432133068552632 
2183	 0.43198216638416 
2184	 0.431898895011371 
2185	 0.431726615476972 
2186	 0.431501604119372 
2187	 0.431279110090852 
2188	 0.431036932732868 
2189	 0.430752691905411 
2190	 0.430467370098717 
2191	 0.430122223877852 
2192	 0.429679065901927 
2193	 0.429267715243553 
2194	 0.42884318777591 
2195	 0.428411295711945 
2196	 0.427982748068795 
2197	 0.427563607333016 
2198	 0.427105140295228 
2199	 0.426527901926801 
2200	 0.425985960464514 
2201	 0.425463761706015 
2202	 0.424778132124639 
2203	 0.424001815709687 
2204	 0.423256212874001 
2205	 0.42234834144149 
2206	 0.421591175185643 
2207	 0.420963282741746 
2208	 0.420247709779093 
2209	 0.419557086284911 
2210	 0.41877740107932 
2211	 0.417869822731029 
2212	 0.41710123221271 
2213	 0.416284605677212 
2214	 0.41561663443586 
2215	 0.415090157656755 
2216	 0.414577997859879 
2217	 0.414113606900883 
2218	 0.413725196762405 
2219	 0.413415785150918 
2220	 0.413168812576161 
2221	 0.412977550332594 
2222	 0.412894837341692 
2223	 0.412845654045562 
2224	 0.412720656265921 
2225	 0.412659178141983 
2226	 0.412516742105696 
2227	 0.412323892019669 
2228	 0.412111229862296 
2229	 0.411779708306742 
2230	 0.411394172574665 
2231	 0.410897377503841 
2232	 0.410339249513033 
2233	 0.409580683854649 
2234	 0.408706732045862 
2235	 0.40761342075396 
2236	 0.406322966651175 
2237	 0.404915228514479 
2238	 0.403321292540861 
2239	 0.401600479126411 
2240	 0.399676258458109 
2241	 0.397695327603166 
2242	 0.395694521685346 
2243	 0.393429790782425 
2244	 0.391033748958224 
2245	 0.388435582484639 
2246	 0.385431396748083 
2247	 0.382491478861659 
2248	 0.379380876637663 
2249	 0.376345792214533 
2250	 0.373348951701655 
2251	 0.37034135353304 
2252	 0.367211777680526 
2253	 0.364082256778187 
2254	 0.360840100865199 
2255	 0.357611383647843 
2256	 0.354659120214124 
2257	 0.351661555688005 
2258	 0.348602527851084 
2259	 0.345591396533101 
2260	 0.342511677211803 
2261	 0.339235101561846 
2262	 0.336273847719361 
2263	 0.333394221880136 
2264	 0.330679103250046 
2265	 0.328201708553455 
2266	 0.325641103254037 
2267	 0.323167700516316 
2268	 0.320715578410173 
2269	 0.318265781875454 
2270	 0.315920589618897 
2271	 0.313622759345843 
2272	 0.311427637944602 
2273	 0.309361135049542 
2274	 0.307250935742234 
2275	 0.305319056419379 
2276	 0.303206343797315 
2277	 0.30092125714021 
2278	 0.298766157615736 
2279	 0.29667299881109 
2280	 0.294417578997628 
2281	 0.292200953989104 
2282	 0.289846809146626 
2283	 0.287317150640557 
2284	 0.284675321135206 
2285	 0.281957467995635 
2286	 0.27935905540801 
2287	 0.276804779687695 
2288	 0.274070591454395 
2289	 0.271449440667712 
2290	 0.268772328151621 
2291	 0.265870344973198 
2292	 0.263009677299736 
2293	 0.260151053685635 
2294	 0.257304296566209 
2295	 0.254536133209586 
2296	 0.252051744614087 
2297	 0.249873327867061 
2298	 0.247958718981242 
2299	 0.24624476142085 
2300	 0.244793165511532 
2301	 0.243673669957653 
2302	 0.242770272467641 
2303	 0.242292599078201 
2304	 0.242349854597795 
2305	 0.24245935475392 
2306	 0.242758365725651 
2307	 0.243438434005839 
2308	 0.244368103212934 
2309	 0.245633817311995 
2310	 0.247405379756271 
2311	 0.24917931330082 
2312	 0.251231620416845 
2313	 0.253290562417415 
2314	 0.255482202943668 
2315	 0.257789254882824 
2316	 0.260253225771349 
2317	 0.262705353546635 
2318	 0.265453501749824 
2319	 0.267704372187824 
2320	 0.269884700133542 
2321	 0.271687026054021 
2322	 0.273091950018885 
2323	 0.274350877445774 
2324	 0.275400917557856 
2325	 0.276097529338662 
2326	 0.276398969176546 
2327	 0.276628691393835 
2328	 0.27658404629763 
2329	 0.276421111837614 
2330	 0.276195556564932 
2331	 0.275683276615717 
2332	 0.274874990988955 
2333	 0.273857240395582 
2334	 0.272621970026158 
2335	 0.271022373784614 
2336	 0.269459064911473 
2337	 0.267731372240011 
2338	 0.265752789504846 
2339	 0.264050775540824 
2340	 0.262222793137729 
2341	 0.260388895321448 
2342	 0.258782861010083 
2343	 0.257266513295077 
2344	 0.256035925197931 
2345	 0.255110424079866 
2346	 0.254617612980951 
2347	 0.254458333657706 
2348	 0.254324877546006 
2349	 0.25456146709782 
2350	 0.255330082275884 
2351	 0.256353474474605 
2352	 0.25769455829421 
2353	 0.259420027993743 
2354	 0.260938740480328 
2355	 0.262445143657487 
2356	 0.263907009639867 
2357	 0.264932214056674 
2358	 0.266082865247667 
2359	 0.267159849716762 
2360	 0.26811385584721 
2361	 0.268938502031373 
2362	 0.269064659190219 
2363	 0.268755695345653 
2364	 0.268292155834696 
2365	 0.267863014840043 
2366	 0.26779525021789 
2367	 0.267565516037999 
2368	 0.267034432634622 
2369	 0.266625372007089 
2370	 0.266257161176433 
2371	 0.266105782747712 
2372	 0.266055737042841 
2373	 0.265795185839682 
2374	 0.265295398484606 
2375	 0.264691347002949 
2376	 0.264494647392936 
2377	 0.264379965441373 
2378	 0.264186360896626 
2379	 0.264138985619876 
2380	 0.263712780018685 
2381	 0.263228112871384 
2382	 0.262735981299226 
2383	 0.262024244632907 
2384	 0.261667958179546 
2385	 0.261365895010406 
2386	 0.261272091609803 
2387	 0.261735572436808 
2388	 0.261553247185387 
2389	 0.261265791848536 
2390	 0.260923404952791 
2391	 0.260164003176974 
2392	 0.259700944176003 
2393	 0.259207122912084 
2394	 0.258866268136758 
2395	 0.25868008495576 
2396	 0.258456818616914 
2397	 0.258515194111745 
2398	 0.258162561879661 
2399	 0.257427165289207 
2400	 0.256972241295725 
2401	 0.25650540273509 
2402	 0.256261395761416 
2403	 0.256199691118825 
2404	 0.255840431945018 
2405	 0.25521624733398 
2406	 0.25467045321788 
2407	 0.254133288714208 
2408	 0.253744640318706 
2409	 0.253590991939673 
2410	 0.253526025581494 
2411	 0.253530114278729 
2412	 0.253686676872087 
2413	 0.253769648817741 
2414	 0.253711577160658 
2415	 0.253308214254326 
2416	 0.252707187830971 
2417	 0.25201351740426 
2418	 0.251457958538701 
2419	 0.251326702550552 
2420	 0.251175572632305 
2421	 0.250776883387776 
2422	 0.25013846215421 
2423	 0.249557890068583 
2424	 0.248922222178976 
2425	 0.248631254748026 
2426	 0.24873852930062 
2427	 0.248563965927541 
2428	 0.249073738705957 
2429	 0.249408220417475 
2430	 0.24841078351303 
2431	 0.247856566025352 
2432	 0.247368262651897 
2433	 0.246416704983379 
2434	 0.246561599972855 
2435	 0.246828909988542 
2436	 0.246396563941603 
2437	 0.245770572874664 
2438	 0.24500737067791 
2439	 0.24440564841416 
2440	 0.243644271401497 
2441	 0.24316275539896 
2442	 0.243034617489648 
2443	 0.242597798197715 
2444	 0.242369881921055 
2445	 0.242720079280124 
2446	 0.243178971779332 
2447	 0.243647788317089 
2448	 0.243882215427056 
2449	 0.243072075754003 
2450	 0.242310632781667 
2451	 0.241990651291225 
2452	 0.241568832384388 
2453	 0.241668684896174 
2454	 0.241538569519145 
2455	 0.240755411415397 
2456	 0.240155465950475 
2457	 0.240526207082995 
2458	 0.241116024325747 
2459	 0.240935004629087 
2460	 0.24075497640622 
2461	 0.239574438153493 
2462	 0.237556339730748 
2463	 0.236891666033111 
2464	 0.236800750847814 
2465	 0.236509868836746 
2466	 0.236884107703909 
2467	 0.236903329914868 
2468	 0.236095146251292 
2469	 0.235545318424209 
2470	 0.235078201953395 
2471	 0.235150726181208 
2472	 0.235688797972312 
2473	 0.235972439946836 
2474	 0.235981458394875 
2475	 0.235361606040453 
2476	 0.234317208346026 
2477	 0.234034714690336 
2478	 0.233859315852211 
2479	 0.233699764971361 
2480	 0.234388392349683 
2481	 0.234816767009037 
2482	 0.236298434511159 
2483	 0.236159741108855 
2484	 0.236016378820109 
2485	 0.235221558835029 
2486	 0.235396914087057 
2487	 0.235559388747658 
2488	 0.235340091203119 
2489	 0.236906845766434 
2490	 0.237206186704921 
2491	 0.237417730195945 
2492	 0.238451288689533 
2493	 0.238090893051463 
2494	 0.237898073084948 
2495	 0.238376112085765 
2496	 0.239944525524433 
2497	 0.241194543658882 
2498	 0.241079600297996 
2499	 0.241646849950783 
2500	 0.241795394380253 
