Wavelength	Tablay400065.asd
350	 0.362775896609365 
351	 0.257048115906548 
352	 0.221093814406598 
353	 0.284991779268707 
354	 0.245919063179852 
355	 0.292984527054528 
356	 0.324282079363967 
357	 0.244976001341112 
358	 0.226464358999472 
359	 0.20285622234515 
360	 0.195000964026533 
361	 0.239800281854997 
362	 0.170696404854282 
363	 0.151432185242164 
364	 0.212993761932172 
365	 0.155085328479409 
366	 0.166518832466702 
367	 0.205183695287162 
368	 0.195209657685731 
369	 0.129581357940073 
370	 0.158571219579139 
371	 0.241951668850259 
372	 0.221642033652995 
373	 0.196529196657488 
374	 0.173902369379517 
375	 0.159267225362683 
376	 0.170730974343446 
377	 0.164273616814606 
378	 0.166744104738793 
379	 0.193896347891302 
380	 0.165999212919272 
381	 0.124810504024349 
382	 0.113707080095985 
383	 0.155421957561914 
384	 0.126635637633094 
385	 9.01993645212982E-02 
386	 9.10453727099427E-02 
387	 0.113273285720462 
388	 0.146159332400559 
389	 0.169088920556191 
390	 0.167551604396813 
391	 0.149004260834897 
392	 0.126740697511303 
393	 0.121176234231348 
394	 0.148407360399821 
395	 0.116831573838841 
396	 0.104573575888407 
397	 0.134697427645647 
398	 0.115059170818364 
399	 0.118955376435914 
400	 0.132030037821473 
401	 0.126525082234794 
402	 0.118073319724966 
403	 0.118910858013906 
404	 0.124936640655523 
405	 0.121483893352646 
406	 0.125701782805841 
407	 0.120303071116113 
408	 0.104081092676101 
409	 0.115077091630411 
410	 0.127626207318926 
411	 0.133570297206103 
412	 0.131971972232545 
413	 0.125072227368239 
414	 0.120288475748686 
415	 0.117105883026569 
416	 0.108506418442155 
417	 0.115764684032349 
418	 0.118493952030825 
419	 0.106690794309793 
420	 0.10933734226557 
421	 0.113091859520915 
422	 0.112870848013617 
423	 0.108685488797758 
424	 0.112685971267615 
425	 0.118349861973429 
426	 0.118135665491979 
427	 0.105356496878306 
428	 0.107852126820989 
429	 0.11188676841353 
430	 0.10613484413143 
431	 0.115008524188931 
432	 0.114043694086921 
433	 0.108326555098497 
434	 0.115538765530271 
435	 0.11334564156865 
436	 0.112443848572078 
437	 0.116884039222789 
438	 0.115922282503761 
439	 0.113552325629083 
440	 0.112751350019907 
441	 0.114966303564656 
442	 0.117030449455715 
443	 0.116160395588849 
444	 0.113963605677632 
445	 0.114859232869747 
446	 0.112764829182798 
447	 0.112824695016005 
448	 0.11759944648525 
449	 0.121751200884863 
450	 0.118350890775024 
451	 0.114879999774423 
452	 0.120803718662103 
453	 0.122079713779995 
454	 0.121043020437134 
455	 0.119668775156526 
456	 0.118358624194881 
457	 0.117215547939498 
458	 0.118090721423726 
459	 0.120954180660883 
460	 0.119266716101835 
461	 0.120131187348737 
462	 0.122469294592943 
463	 0.121660417302016 
464	 0.123560682435885 
465	 0.122935087684637 
466	 0.119795891659485 
467	 0.123753501141605 
468	 0.123670233410188 
469	 0.122232605088201 
470	 0.12382884944214 
471	 0.1230818138241 
472	 0.122621901816025 
473	 0.123465625639209 
474	 0.125028502323078 
475	 0.124494611112729 
476	 0.124475474346172 
477	 0.125941083476087 
478	 0.124227005063256 
479	 0.124460075828933 
480	 0.1256774754893 
481	 0.125293670954044 
482	 0.125887558173297 
483	 0.126268004130206 
484	 0.126474972614891 
485	 0.12810804673123 
486	 0.127496400041712 
487	 0.126330910688091 
488	 0.12661203505618 
489	 0.12771212899667 
490	 0.127571478997282 
491	 0.126993774238702 
492	 0.127999951466349 
493	 0.127112605280438 
494	 0.127063407706163 
495	 0.128702609478227 
496	 0.128814677166227 
497	 0.128951784344127 
498	 0.128591937628889 
499	 0.127452823913177 
500	 0.128890733969604 
501	 0.129997228957631 
502	 0.129758355614047 
503	 0.129073465820995 
504	 0.129377984424983 
505	 0.130152057398746 
506	 0.130786276228002 
507	 0.131417947993707 
508	 0.131927405682372 
509	 0.132131527707008 
510	 0.132001800078264 
511	 0.132668708705832 
512	 0.133398861996439 
513	 0.133859211512911 
514	 0.13443105224339 
515	 0.134466780314688 
516	 0.134804598563724 
517	 0.135967982992031 
518	 0.136170969035605 
519	 0.136114385256882 
520	 0.136261867318622 
521	 0.136874207288995 
522	 0.138289702029575 
523	 0.139258325900892 
524	 0.139493150444889 
525	 0.141028268498184 
526	 0.142099103211574 
527	 0.142490573617408 
528	 0.142785703503947 
529	 0.144809777913536 
530	 0.146310166481441 
531	 0.146788230225031 
532	 0.147791348692924 
533	 0.149727069291317 
534	 0.151381998403106 
535	 0.152192684845273 
536	 0.15449901388394 
537	 0.157191996413041 
538	 0.159613829224562 
539	 0.161552760467086 
540	 0.164403434117053 
541	 0.167344230493113 
542	 0.170110831096181 
543	 0.173688871113443 
544	 0.177810424251959 
545	 0.182142913487963 
546	 0.186446682266981 
547	 0.191005406591548 
548	 0.196145465206577 
549	 0.201757199804369 
550	 0.207360580870463 
551	 0.213132752962849 
552	 0.219154266885091 
553	 0.225470190108575 
554	 0.232030151143894 
555	 0.238859354487288 
556	 0.245921771223345 
557	 0.253118871682463 
558	 0.260232584569525 
559	 0.267403141736554 
560	 0.274615942908163 
561	 0.281606499544522 
562	 0.288392866105166 
563	 0.295123177309752 
564	 0.301789153098958 
565	 0.307689772161957 
566	 0.313265175150358 
567	 0.318407248350621 
568	 0.322712326878268 
569	 0.327465759251841 
570	 0.332203033698368 
571	 0.336348284066154 
572	 0.339602162132452 
573	 0.342899275395155 
574	 0.346124573273198 
575	 0.3488984506047 
576	 0.351845605354667 
577	 0.354284476861617 
578	 0.356279901708035 
579	 0.358796455226964 
580	 0.360953754984558 
581	 0.362750352143202 
582	 0.364369588940613 
583	 0.365883130885696 
584	 0.367296992240731 
585	 0.36856509470183 
586	 0.369615417898172 
587	 0.370440061657999 
588	 0.371256711176488 
589	 0.372184698037323 
590	 0.373155174010742 
591	 0.373984024250132 
592	 0.374619697599667 
593	 0.375129342909007 
594	 0.375866457651409 
595	 0.376336951293015 
596	 0.376738153255465 
597	 0.377795865981525 
598	 0.378293671425009 
599	 0.378464776260704 
600	 0.378734735064687 
601	 0.379388631305488 
602	 0.379689598738809 
603	 0.379724910008978 
604	 0.37994677849933 
605	 0.380560079534848 
606	 0.380952950734366 
607	 0.381014762001672 
608	 0.381327065730237 
609	 0.381522781800732 
610	 0.381671868526484 
611	 0.381858588700305 
612	 0.381830901448701 
613	 0.382022286176407 
614	 0.382337787969872 
615	 0.382385299096614 
616	 0.38251524343155 
617	 0.382682397926146 
618	 0.382790078481434 
619	 0.38273029628317 
620	 0.382735375993461 
621	 0.382850001776875 
622	 0.383017727931578 
623	 0.383054174199125 
624	 0.383102127148544 
625	 0.383183824667422 
626	 0.383201724323502 
627	 0.383242618353489 
628	 0.383182052363887 
629	 0.383023854049897 
630	 0.383204451464884 
631	 0.383246363305075 
632	 0.383221719322128 
633	 0.383378414172452 
634	 0.383348947802443 
635	 0.383427090748595 
636	 0.383622716921645 
637	 0.383537521969807 
638	 0.383349166691415 
639	 0.383237763691988 
640	 0.383288720799267 
641	 0.38327635819708 
642	 0.383293306071164 
643	 0.38332932486159 
644	 0.383317963301839 
645	 0.383299122676284 
646	 0.3832082365532 
647	 0.383094417202076 
648	 0.383220320688402 
649	 0.383149487891793 
650	 0.383012094191772 
651	 0.383020590321235 
652	 0.38295401695473 
653	 0.382802737833213 
654	 0.382645002206339 
655	 0.382604765283151 
656	 0.382473339308701 
657	 0.382338619183589 
658	 0.382264506481497 
659	 0.382155834417099 
660	 0.382148979135309 
661	 0.382119685397232 
662	 0.381917511423692 
663	 0.381789324258225 
664	 0.381788475304809 
665	 0.381795878691106 
666	 0.381557864826465 
667	 0.381538756545116 
668	 0.381471126794212 
669	 0.381203445440203 
670	 0.381272630565906 
671	 0.381298066110233 
672	 0.381145920565925 
673	 0.380849129675446 
674	 0.380734477188463 
675	 0.380637848296325 
676	 0.380483291161856 
677	 0.38035227899805 
678	 0.380182158825502 
679	 0.379975104979575 
680	 0.379769394861826 
681	 0.379665851954679 
682	 0.379561835790687 
683	 0.379408902935664 
684	 0.379214826699461 
685	 0.379168794999185 
686	 0.379118841164885 
687	 0.378927832607843 
688	 0.378527171984468 
689	 0.37835839252144 
690	 0.378335738332133 
691	 0.378256872182573 
692	 0.378076473805346 
693	 0.37779967603216 
694	 0.377539097082754 
695	 0.377444308991325 
696	 0.377366355575178 
697	 0.377179536399354 
698	 0.376919459754579 
699	 0.376864363161938 
700	 0.376712012373674 
701	 0.376483367927871 
702	 0.376280735695554 
703	 0.376143130742135 
704	 0.375977160711388 
705	 0.37579797627884 
706	 0.375680491569711 
707	 0.375464881713277 
708	 0.375284056690679 
709	 0.375193371554938 
710	 0.375059033036768 
711	 0.374920899092027 
712	 0.374801238352533 
713	 0.374685543320454 
714	 0.37442557472668 
715	 0.374179015153189 
716	 0.373996168874563 
717	 0.373838161715288 
718	 0.373657029113954 
719	 0.373467419950724 
720	 0.373316356305395 
721	 0.373295127822387 
722	 0.373180588228288 
723	 0.372990671772566 
724	 0.37283012088265 
725	 0.372826415435577 
726	 0.372776458055335 
727	 0.372614583563646 
728	 0.37239589546198 
729	 0.372250861930887 
730	 0.372160375065617 
731	 0.37208470181428 
732	 0.371991830174354 
733	 0.371864805721216 
734	 0.371715496533083 
735	 0.371565047247507 
736	 0.371418156577079 
737	 0.371339964124399 
738	 0.371335549687902 
739	 0.371358162205671 
740	 0.371315730625711 
741	 0.371177770686869 
742	 0.370995164824898 
743	 0.370916407219877 
744	 0.370934645933424 
745	 0.370992649686816 
746	 0.3710255205899 
747	 0.371016360563291 
748	 0.370917339287788 
749	 0.370809754022355 
750	 0.370819688215585 
751	 0.370799147744109 
752	 0.370771046204342 
753	 0.370733946534529 
754	 0.370635872298725 
755	 0.370689699873158 
756	 0.370734339977297 
757	 0.370635331469166 
758	 0.370583480110113 
759	 0.370596172481905 
760	 0.37062375116622 
761	 0.370602164016254 
762	 0.370625283358985 
763	 0.370661848378908 
764	 0.370702151885345 
765	 0.370770142090087 
766	 0.370929111273889 
767	 0.370979480942689 
768	 0.370886083832986 
769	 0.371122337295406 
770	 0.371193109982703 
771	 0.371188701959361 
772	 0.371335332129797 
773	 0.371399669058461 
774	 0.37151497074016 
775	 0.371667399687854 
776	 0.371722316678331 
777	 0.371718169465101 
778	 0.371760134106876 
779	 0.371870657732605 
780	 0.371915137617205 
781	 0.372094379548656 
782	 0.372280021837109 
783	 0.37231158483336 
784	 0.372227088041041 
785	 0.372398098961654 
786	 0.372695209495557 
787	 0.372748241309368 
788	 0.372778643217741 
789	 0.372833981078929 
790	 0.372920334954637 
791	 0.373013541015963 
792	 0.373201681678411 
793	 0.373383699776111 
794	 0.373469295033057 
795	 0.37347861698402 
796	 0.373513188641277 
797	 0.373620576667665 
798	 0.373795950030786 
799	 0.373938491605972 
800	 0.373981685080228 
801	 0.373985295961065 
802	 0.374084060766344 
803	 0.374134733118095 
804	 0.374183780183712 
805	 0.374272593756514 
806	 0.374397431876799 
807	 0.374466319861936 
808	 0.374582153425282 
809	 0.37479420133793 
810	 0.374850394320363 
811	 0.37487213865505 
812	 0.374889762597293 
813	 0.374905004468559 
814	 0.374987088314278 
815	 0.3750410105088 
816	 0.37509216130563 
817	 0.375249536117693 
818	 0.375170725930214 
819	 0.375189617023885 
820	 0.37540012584501 
821	 0.375344553973434 
822	 0.375401784514501 
823	 0.37548040466055 
824	 0.375466226213362 
825	 0.375576609657105 
826	 0.375611910024992 
827	 0.375548870653229 
828	 0.375464812146225 
829	 0.375458800965305 
830	 0.375587283630567 
831	 0.375674037232805 
832	 0.375417860448603 
833	 0.375380730859665 
834	 0.375440362854741 
835	 0.375456302765387 
836	 0.375424225193037 
837	 0.375586625830918 
838	 0.375673068962182 
839	 0.375484230206451 
840	 0.375360957588112 
841	 0.375407704440792 
842	 0.375475353968918 
843	 0.375372706991513 
844	 0.37530811061052 
845	 0.375270870146826 
846	 0.375218525698262 
847	 0.375114011437957 
848	 0.375138436918977 
849	 0.3751059663623 
850	 0.374964947697299 
851	 0.374879630023899 
852	 0.374840818582805 
853	 0.374738690670364 
854	 0.374552768801841 
855	 0.374494307885002 
856	 0.374463494285243 
857	 0.374379322696693 
858	 0.374240528028282 
859	 0.374328522321635 
860	 0.374226467802598 
861	 0.374035354036618 
862	 0.374044038493498 
863	 0.373901981857115 
864	 0.373716462403423 
865	 0.373572029194713 
866	 0.373498079634478 
867	 0.373462586879225 
868	 0.373443234911422 
869	 0.373394974770551 
870	 0.373247341921841 
871	 0.373062687251141 
872	 0.372880036041314 
873	 0.372730632944537 
874	 0.372637409618817 
875	 0.372631271092168 
876	 0.372646798571937 
877	 0.372564945695291 
878	 0.372160627815893 
879	 0.372110064335564 
880	 0.372153191468879 
881	 0.371756626187893 
882	 0.371620963818641 
883	 0.371507341625046 
884	 0.371397274853544 
885	 0.371428841848225 
886	 0.371274368477523 
887	 0.371084408439299 
888	 0.370931237616301 
889	 0.370744681899502 
890	 0.370744321859479 
891	 0.370669979222538 
892	 0.370446408491224 
893	 0.370449553251729 
894	 0.370199897475813 
895	 0.369960331458695 
896	 0.369967277390146 
897	 0.369913589409888 
898	 0.369721576425825 
899	 0.369527894109888 
900	 0.36947135993625 
901	 0.369376797779566 
902	 0.369202272607926 
903	 0.3689643502144 
904	 0.368731957490247 
905	 0.36863442447242 
906	 0.368641482826385 
907	 0.368568977387622 
908	 0.368235643650072 
909	 0.368230373990253 
910	 0.368287624694782 
911	 0.368160488170782 
912	 0.367778251542241 
913	 0.367740586542431 
914	 0.367628732255809 
915	 0.367359746634757 
916	 0.367478238221989 
917	 0.367412186638917 
918	 0.367201819643546 
919	 0.366965813049461 
920	 0.366716658523396 
921	 0.366851646277363 
922	 0.366952970843382 
923	 0.366741495975331 
924	 0.366852222347044 
925	 0.366833368929281 
926	 0.366767463739934 
927	 0.36681895464056 
928	 0.366856187515004 
929	 0.366650485319258 
930	 0.36639735000078 
931	 0.366383500913967 
932	 0.366440591284923 
933	 0.366442385706746 
934	 0.366413856684935 
935	 0.36642218587867 
936	 0.366220645923878 
937	 0.366330668639386 
938	 0.366647879239646 
939	 0.366652895584307 
940	 0.366330085099474 
941	 0.36640583563024 
942	 0.366688046081171 
943	 0.366332189427209 
944	 0.366484659222645 
945	 0.366462598146404 
946	 0.36620323543547 
947	 0.366411191633792 
948	 0.366420682905433 
949	 0.366329942398252 
950	 0.366294605263535 
951	 0.366376921659025 
952	 0.366317966390321 
953	 0.366308415558462 
954	 0.3664610089316 
955	 0.366646524126017 
956	 0.366638217548231 
957	 0.366497538381456 
958	 0.366324932103163 
959	 0.366160521275665 
960	 0.366210431530367 
961	 0.366239943099635 
962	 0.366168095171498 
963	 0.366419646700617 
964	 0.366345638334916 
965	 0.36612353209991 
966	 0.366040137216845 
967	 0.366111223753003 
968	 0.365861517028514 
969	 0.36567029303392 
970	 0.365889048428337 
971	 0.366187848371236 
972	 0.366001503491966 
973	 0.365700330745131 
974	 0.365693502950855 
975	 0.365620743091905 
976	 0.365246259244707 
977	 0.365152746472244 
978	 0.365663142464578 
979	 0.365486920196712 
980	 0.365773631715505 
981	 0.365807980936895 
982	 0.365022579624069 
983	 0.365312700818622 
984	 0.365496655059704 
985	 0.365386730832449 
986	 0.365231896680513 
987	 0.365499766587099 
988	 0.365592502535257 
989	 0.365411354877899 
990	 0.365134296289365 
991	 0.365124622273239 
992	 0.365277731875443 
993	 0.365192681456573 
994	 0.364731570357684 
995	 0.364933191445109 
996	 0.365322309679441 
997	 0.365495376306042 
998	 0.365254275779557 
999	 0.364935400913245 
1000	 0.364774160529787 
1001	 0.369548223144448 
1002	 0.369488885161946 
1003	 0.369483451288351 
1004	 0.369405341321161 
1005	 0.36929965908279 
1006	 0.369244986080749 
1007	 0.369151466770495 
1008	 0.369156168552842 
1009	 0.369334367531343 
1010	 0.36938978193611 
1011	 0.369384750397569 
1012	 0.369362344142577 
1013	 0.369323901491137 
1014	 0.369270053810965 
1015	 0.369164639893588 
1016	 0.36914776219362 
1017	 0.36907562723877 
1018	 0.368838653412984 
1019	 0.368970648399682 
1020	 0.369047893228448 
1021	 0.368994712219956 
1022	 0.368966467426213 
1023	 0.368972216621487 
1024	 0.368875167618198 
1025	 0.368763682235786 
1026	 0.368630460439431 
1027	 0.368546090539775 
1028	 0.368411531657432 
1029	 0.368348720368335 
1030	 0.368158468330027 
1031	 0.368274196082861 
1032	 0.368327587534015 
1033	 0.368143179859727 
1034	 0.36820819000931 
1035	 0.368265937869916 
1036	 0.36819473783786 
1037	 0.368028778281401 
1038	 0.367954819936363 
1039	 0.367836627657725 
1040	 0.367683763399217 
1041	 0.367490466567383 
1042	 0.367405434194353 
1043	 0.367335007152596 
1044	 0.367267629142603 
1045	 0.36723495616947 
1046	 0.367290885362792 
1047	 0.367264978715593 
1048	 0.367297596069962 
1049	 0.367291174015908 
1050	 0.367183799040037 
1051	 0.367008351352849 
1052	 0.366841187703465 
1053	 0.366765104403618 
1054	 0.366876829051333 
1055	 0.366811361195176 
1056	 0.366630273156667 
1057	 0.366555520238412 
1058	 0.366459695985001 
1059	 0.366433708734047 
1060	 0.366473078495696 
1061	 0.366532209264775 
1062	 0.366575326582836 
1063	 0.36659384995667 
1064	 0.36651689952766 
1065	 0.36649735709331 
1066	 0.366459593363659 
1067	 0.366277256657595 
1068	 0.366185311951016 
1069	 0.366097766685093 
1070	 0.366072544288218 
1071	 0.366071598169437 
1072	 0.366165550791912 
1073	 0.366149555189466 
1074	 0.36620295609412 
1075	 0.36631196975345 
1076	 0.366471361895283 
1077	 0.366697966084225 
1078	 0.366785151761298 
1079	 0.366787691641928 
1080	 0.366749441511151 
1081	 0.366682145300367 
1082	 0.366705324770335 
1083	 0.366716267570603 
1084	 0.366619148248705 
1085	 0.366568867743522 
1086	 0.366579625431735 
1087	 0.36663140767769 
1088	 0.366722041553435 
1089	 0.366788421746423 
1090	 0.366892816848009 
1091	 0.366968760573818 
1092	 0.366921595428709 
1093	 0.367005590358234 
1094	 0.367036534617045 
1095	 0.366984793627889 
1096	 0.367012874067916 
1097	 0.366981856466 
1098	 0.366927037832138 
1099	 0.366959522508096 
1100	 0.367035523695666 
1101	 0.367048152879051 
1102	 0.36713097351724 
1103	 0.367183483568081 
1104	 0.367232441291352 
1105	 0.367158947172252 
1106	 0.367183142580472 
1107	 0.367205538241972 
1108	 0.367180656520138 
1109	 0.367258831729941 
1110	 0.3673301092471 
1111	 0.367352849653963 
1112	 0.367319287914602 
1113	 0.367301328619872 
1114	 0.367378788888279 
1115	 0.367358592534408 
1116	 0.367406497984911 
1117	 0.367511907955287 
1118	 0.367553452647025 
1119	 0.367557563205182 
1120	 0.367613127933859 
1121	 0.367698281273535 
1122	 0.367690257975501 
1123	 0.367630604080703 
1124	 0.367515155484964 
1125	 0.367515077843991 
1126	 0.367537948559061 
1127	 0.367639761809938 
1128	 0.367759760748604 
1129	 0.367663343511211 
1130	 0.367551406345651 
1131	 0.367500183023541 
1132	 0.367440884093695 
1133	 0.367426260626252 
1134	 0.367399540269232 
1135	 0.367399896396231 
1136	 0.367413860772716 
1137	 0.36740944194081 
1138	 0.367455126395368 
1139	 0.367459162001275 
1140	 0.367400391279938 
1141	 0.367357464445434 
1142	 0.367448378863892 
1143	 0.367442522267892 
1144	 0.367456578244873 
1145	 0.367454119093665 
1146	 0.36734021265543 
1147	 0.367300646223311 
1148	 0.367253453282754 
1149	 0.367168946501583 
1150	 0.367126483445403 
1151	 0.367060535131051 
1152	 0.366974844911807 
1153	 0.366861793020015 
1154	 0.366800209855973 
1155	 0.366756061047899 
1156	 0.366669044921602 
1157	 0.366626703585254 
1158	 0.366544935624768 
1159	 0.366408173809921 
1160	 0.366231549791145 
1161	 0.366185896678471 
1162	 0.366091678663579 
1163	 0.365983626613088 
1164	 0.365945182228152 
1165	 0.365807546951771 
1166	 0.365709297248688 
1167	 0.365643917048093 
1168	 0.365522234228312 
1169	 0.365437775296441 
1170	 0.365387759790281 
1171	 0.365284661520961 
1172	 0.36518724330928 
1173	 0.365061610162348 
1174	 0.36486028673822 
1175	 0.364700980993045 
1176	 0.364524662327283 
1177	 0.364399057000327 
1178	 0.36429563851061 
1179	 0.364273584414932 
1180	 0.364176887245363 
1181	 0.364062554180728 
1182	 0.363928662470587 
1183	 0.363703840960218 
1184	 0.363554647584534 
1185	 0.363459052873445 
1186	 0.363313193684095 
1187	 0.363160814378783 
1188	 0.36302068751962 
1189	 0.362843402358915 
1190	 0.362698417177998 
1191	 0.362564995215798 
1192	 0.362478664749015 
1193	 0.362440920314621 
1194	 0.36236923148198 
1195	 0.362271462344844 
1196	 0.36225119464954 
1197	 0.362270491259854 
1198	 0.362277977206701 
1199	 0.362277385961773 
1200	 0.362299696180725 
1201	 0.362243697960421 
1202	 0.362186484956679 
1203	 0.362245724689382 
1204	 0.362332694922948 
1205	 0.362443475013349 
1206	 0.362592879636952 
1207	 0.362758341789161 
1208	 0.362926925717484 
1209	 0.363164840825798 
1210	 0.363453196824102 
1211	 0.363731651740406 
1212	 0.364034343238864 
1213	 0.364403267907906 
1214	 0.364728170799156 
1215	 0.365210840836633 
1216	 0.365884442005466 
1217	 0.366474922143695 
1218	 0.367097559344636 
1219	 0.367742742408048 
1220	 0.368379192247459 
1221	 0.369080240233903 
1222	 0.369800416300184 
1223	 0.370609197937747 
1224	 0.371298333350578 
1225	 0.371915133521015 
1226	 0.37255558072628 
1227	 0.37314144780675 
1228	 0.373790328342702 
1229	 0.374522613204024 
1230	 0.375144716755992 
1231	 0.375735328339071 
1232	 0.376313600264594 
1233	 0.376839660879201 
1234	 0.377339849610562 
1235	 0.377817364834457 
1236	 0.378309525500281 
1237	 0.378754492697929 
1238	 0.379210325243507 
1239	 0.37971972528689 
1240	 0.380194154138459 
1241	 0.380570770752673 
1242	 0.380931319523871 
1243	 0.381343492920448 
1244	 0.38175909155932 
1245	 0.382142844514348 
1246	 0.382559318494228 
1247	 0.382936617586626 
1248	 0.383228337843831 
1249	 0.383594051512297 
1250	 0.384041131392884 
1251	 0.384389302314197 
1252	 0.384721869862035 
1253	 0.385013184975942 
1254	 0.385216694710669 
1255	 0.385460926586917 
1256	 0.385686335466419 
1257	 0.385944419932719 
1258	 0.386208649383272 
1259	 0.386497000243455 
1260	 0.386865106308244 
1261	 0.387150684016449 
1262	 0.387341125769771 
1263	 0.387657152618564 
1264	 0.38792489054725 
1265	 0.388150580352757 
1266	 0.388413215033108 
1267	 0.388735796238063 
1268	 0.38897998071413 
1269	 0.389136803329639 
1270	 0.389413503060849 
1271	 0.389741233326701 
1272	 0.390031869421396 
1273	 0.390400850521185 
1274	 0.390682207228862 
1275	 0.390854109412452 
1276	 0.391100003894863 
1277	 0.391351172822183 
1278	 0.391622633330559 
1279	 0.391960385405771 
1280	 0.392239720526818 
1281	 0.392497064072057 
1282	 0.392750741426983 
1283	 0.392962726285895 
1284	 0.393190329186447 
1285	 0.393422260421435 
1286	 0.393661505333715 
1287	 0.39390152852523 
1288	 0.39414332975277 
1289	 0.394387220591815 
1290	 0.394631744886863 
1291	 0.394889616298657 
1292	 0.395135814070645 
1293	 0.395424405708439 
1294	 0.395742015184247 
1295	 0.396063541563368 
1296	 0.396403303288918 
1297	 0.396759084960763 
1298	 0.397197110524952 
1299	 0.397502266908811 
1300	 0.397726883767683 
1301	 0.398003642589456 
1302	 0.398202756793451 
1303	 0.398447736127202 
1304	 0.398753112583967 
1305	 0.399066707131989 
1306	 0.399373000237451 
1307	 0.39969077626062 
1308	 0.400076183799344 
1309	 0.400435398736218 
1310	 0.400707453989283 
1311	 0.400921435423394 
1312	 0.401158623463771 
1313	 0.40132761490325 
1314	 0.401560242718349 
1315	 0.401826627715429 
1316	 0.40209373904691 
1317	 0.402376694432129 
1318	 0.402640982882714 
1319	 0.402939857679227 
1320	 0.403170506287024 
1321	 0.403328023229301 
1322	 0.403544081952656 
1323	 0.403771357151426 
1324	 0.40397115995228 
1325	 0.404189436696302 
1326	 0.40439116528289 
1327	 0.404567913124665 
1328	 0.404724889857895 
1329	 0.404878035037312 
1330	 0.40502292175814 
1331	 0.405113204758012 
1332	 0.40523609719482 
1333	 0.405348265182439 
1334	 0.405532978514176 
1335	 0.405671817102735 
1336	 0.405807993274041 
1337	 0.405960132341751 
1338	 0.406129946992816 
1339	 0.406242276808219 
1340	 0.406370298181623 
1341	 0.40642347429768 
1342	 0.406401445183839 
1343	 0.406394431892974 
1344	 0.406346719241578 
1345	 0.406335222636752 
1346	 0.406349300482692 
1347	 0.406313804462618 
1348	 0.406264678044981 
1349	 0.406216931401288 
1350	 0.406137719351386 
1351	 0.40606011993308 
1352	 0.406003476251922 
1353	 0.405921743932521 
1354	 0.405788334559145 
1355	 0.405694896166643 
1356	 0.405616500464324 
1357	 0.405540940172876 
1358	 0.405474161413634 
1359	 0.405425421467731 
1360	 0.405445717597708 
1361	 0.405362002504834 
1362	 0.405269646160003 
1363	 0.405221402918106 
1364	 0.405110915120841 
1365	 0.404942476372386 
1366	 0.404808302976828 
1367	 0.404681424846312 
1368	 0.404520973875393 
1369	 0.404375910548739 
1370	 0.404145268946569 
1371	 0.403851747279815 
1372	 0.403582769718944 
1373	 0.40326534977821 
1374	 0.402972710142517 
1375	 0.402709948800752 
1376	 0.402407731971751 
1377	 0.402093573095621 
1378	 0.40175013073669 
1379	 0.40137026682199 
1380	 0.401001822234007 
1381	 0.400602182582786 
1382	 0.400220319862874 
1383	 0.399856108863658 
1384	 0.399487436533152 
1385	 0.399128996058698 
1386	 0.398750319191907 
1387	 0.398322936736947 
1388	 0.397964988282922 
1389	 0.39762139831674 
1390	 0.397308817168879 
1391	 0.397038085733738 
1392	 0.396801980488551 
1393	 0.396628804597261 
1394	 0.396446730586968 
1395	 0.396306103414687 
1396	 0.396237329528911 
1397	 0.396123083278012 
1398	 0.39602431117892 
1399	 0.395867690193504 
1400	 0.395729146435146 
1401	 0.395471169607446 
1402	 0.395156584907036 
1403	 0.394749743809186 
1404	 0.394244100564145 
1405	 0.39371501648682 
1406	 0.393139643142028 
1407	 0.392477110432678 
1408	 0.391706769910935 
1409	 0.390979282229928 
1410	 0.390182416152569 
1411	 0.389418289943318 
1412	 0.388682975854551 
1413	 0.387960457283882 
1414	 0.38719171530354 
1415	 0.386498990132127 
1416	 0.385842759475274 
1417	 0.385241601369896 
1418	 0.38472519863365 
1419	 0.384185495764393 
1420	 0.383665732650664 
1421	 0.38317881475334 
1422	 0.382726611952917 
1423	 0.382237608149847 
1424	 0.381785841508929 
1425	 0.381273950196487 
1426	 0.380766974681393 
1427	 0.380288700905645 
1428	 0.379797926326858 
1429	 0.379377527061519 
1430	 0.378867133281742 
1431	 0.378299703475459 
1432	 0.377768684486892 
1433	 0.377238253804439 
1434	 0.376656581307924 
1435	 0.37605143127977 
1436	 0.375475664643935 
1437	 0.374872831722651 
1438	 0.374281099749262 
1439	 0.373731956407291 
1440	 0.373143264010793 
1441	 0.372440658813094 
1442	 0.371922891775934 
1443	 0.371445358432922 
1444	 0.371080183402557 
1445	 0.37081756686752 
1446	 0.37066889688146 
1447	 0.370548390033434 
1448	 0.37064837187407 
1449	 0.370930600711162 
1450	 0.371309389819191 
1451	 0.371879767786606 
1452	 0.372499219590269 
1453	 0.373238745564149 
1454	 0.374006341319283 
1455	 0.374870014967981 
1456	 0.37574492466022 
1457	 0.376721586047856 
1458	 0.377615486378156 
1459	 0.378483482279438 
1460	 0.379363627662278 
1461	 0.380209928897087 
1462	 0.381045544637743 
1463	 0.381916605412434 
1464	 0.382745778498944 
1465	 0.383489041314338 
1466	 0.384291803413039 
1467	 0.385108760309098 
1468	 0.385896281314821 
1469	 0.386643911191638 
1470	 0.38733618452133 
1471	 0.388057538276336 
1472	 0.388725880148444 
1473	 0.389440275639699 
1474	 0.390231484663636 
1475	 0.39089064952336 
1476	 0.391496285359784 
1477	 0.392079927989128 
1478	 0.392610793300127 
1479	 0.393113395925966 
1480	 0.39360871740719 
1481	 0.394024403623834 
1482	 0.394347263532888 
1483	 0.394706523498084 
1484	 0.395038746960068 
1485	 0.395360071333317 
1486	 0.395670905383429 
1487	 0.39599101304171 
1488	 0.396285693875425 
1489	 0.396601509734497 
1490	 0.396905474896095 
1491	 0.397291877187582 
1492	 0.397703119926324 
1493	 0.398148261097213 
1494	 0.398654248525061 
1495	 0.399194031248735 
1496	 0.399758901568741 
1497	 0.400353042579568 
1498	 0.401044308140217 
1499	 0.401679300573558 
1500	 0.402301886901722 
1501	 0.40291751209853 
1502	 0.403509973407753 
1503	 0.404111869798071 
1504	 0.404725940407284 
1505	 0.405315916726898 
1506	 0.405947756224516 
1507	 0.406481390609546 
1508	 0.406939042339268 
1509	 0.407394211620276 
1510	 0.407788689812123 
1511	 0.40816776484005 
1512	 0.408533047406122 
1513	 0.408888623229794 
1514	 0.409210671931681 
1515	 0.409528773785053 
1516	 0.409841672815955 
1517	 0.410152015006993 
1518	 0.410492113792948 
1519	 0.410755675319293 
1520	 0.410957839978398 
1521	 0.411177747733253 
1522	 0.411367494199636 
1523	 0.411494786557328 
1524	 0.411664165927041 
1525	 0.411870558592953 
1526	 0.412018534827126 
1527	 0.41215363724152 
1528	 0.412226111616464 
1529	 0.412236476941349 
1530	 0.412307161737783 
1531	 0.412355560703611 
1532	 0.412415502265911 
1533	 0.412509962605473 
1534	 0.412599351741525 
1535	 0.412642726746567 
1536	 0.412774437208507 
1537	 0.412978552101675 
1538	 0.413146982404138 
1539	 0.413329994800254 
1540	 0.413520633608333 
1541	 0.413684131623311 
1542	 0.413925517470292 
1543	 0.414185727037552 
1544	 0.414532422637021 
1545	 0.414981012636976 
1546	 0.41537466416138 
1547	 0.41580811982979 
1548	 0.416226017562602 
1549	 0.416600034787458 
1550	 0.417030187416026 
1551	 0.417527099668778 
1552	 0.417959592979367 
1553	 0.418380636761785 
1554	 0.41879317311433 
1555	 0.419182475150576 
1556	 0.419559885704918 
1557	 0.419915306148807 
1558	 0.420300665118228 
1559	 0.420687732040854 
1560	 0.421060848857959 
1561	 0.421451920697607 
1562	 0.421833533728044 
1563	 0.422193926434891 
1564	 0.422550085108378 
1565	 0.422910439353085 
1566	 0.423273136933296 
1567	 0.423625381805275 
1568	 0.42396846588998 
1569	 0.424320767340284 
1570	 0.424663143430389 
1571	 0.424990145281291 
1572	 0.425304128513178 
1573	 0.425588358979223 
1574	 0.425923181015742 
1575	 0.426273476153292 
1576	 0.426615118704565 
1577	 0.426986827894577 
1578	 0.427358966638371 
1579	 0.427744625103772 
1580	 0.428074298101656 
1581	 0.428397935133341 
1582	 0.428707317725568 
1583	 0.428953402647614 
1584	 0.429213491152299 
1585	 0.429455478220919 
1586	 0.42975413932074 
1587	 0.430085433952849 
1588	 0.430387414147066 
1589	 0.430745909704133 
1590	 0.431049508466815 
1591	 0.431240015604013 
1592	 0.431535257990868 
1593	 0.431903503751292 
1594	 0.432223289341238 
1595	 0.432566820826037 
1596	 0.432901368147369 
1597	 0.433195565993391 
1598	 0.433500112182177 
1599	 0.433833251786403 
1600	 0.434149602530052 
1601	 0.434435012569349 
1602	 0.434737503041341 
1603	 0.435106241796193 
1604	 0.435368988760634 
1605	 0.435544293785146 
1606	 0.43576838224085 
1607	 0.435888433725101 
1608	 0.436130233478786 
1609	 0.43653899720902 
1610	 0.436837716637373 
1611	 0.437153313007102 
1612	 0.437418531478602 
1613	 0.437584704674427 
1614	 0.437774325753338 
1615	 0.437956372878474 
1616	 0.4381440329122 
1617	 0.438338754687923 
1618	 0.438514584284922 
1619	 0.43867069249615 
1620	 0.438839689959714 
1621	 0.438978632777424 
1622	 0.439160140262687 
1623	 0.439411576169911 
1624	 0.439613648831888 
1625	 0.439822699088779 
1626	 0.43999553229701 
1627	 0.44011497296108 
1628	 0.440244358277953 
1629	 0.440339037737496 
1630	 0.440472240454682 
1631	 0.440638240904096 
1632	 0.440776148919093 
1633	 0.440941580641435 
1634	 0.441068961080499 
1635	 0.441129044779144 
1636	 0.441231562465021 
1637	 0.441338563710601 
1638	 0.441459860578232 
1639	 0.44164051293669 
1640	 0.441758111418756 
1641	 0.441828735838043 
1642	 0.441919736316054 
1643	 0.44197741088881 
1644	 0.442061406664357 
1645	 0.442217934028813 
1646	 0.442300968284632 
1647	 0.442360313760295 
1648	 0.44238259862702 
1649	 0.442365998736379 
1650	 0.44230032201724 
1651	 0.442177194431401 
1652	 0.442055891259698 
1653	 0.441888520546696 
1654	 0.44173294950719 
1655	 0.44158899825495 
1656	 0.441407684598528 
1657	 0.441216069056063 
1658	 0.440975826529492 
1659	 0.440721463929252 
1660	 0.440428366749922 
1661	 0.440094965934149 
1662	 0.439714496202852 
1663	 0.439290536276576 
1664	 0.438806920831245 
1665	 0.438296728621971 
1666	 0.437693807502373 
1667	 0.437022894437632 
1668	 0.436283025843858 
1669	 0.435464852406043 
1670	 0.434570954859736 
1671	 0.433582581328245 
1672	 0.432558692505539 
1673	 0.431503553911289 
1674	 0.430331263665516 
1675	 0.429086007901013 
1676	 0.427786423367429 
1677	 0.426374865952763 
1678	 0.424912266890744 
1679	 0.423405265855573 
1680	 0.421819541988948 
1681	 0.420142696182245 
1682	 0.418400561987473 
1683	 0.416631045224521 
1684	 0.41477090262987 
1685	 0.412832192661003 
1686	 0.410791847957359 
1687	 0.408652348294487 
1688	 0.406392781013516 
1689	 0.404020432545696 
1690	 0.401570120027406 
1691	 0.398966836206807 
1692	 0.396449941218697 
1693	 0.393892356675413 
1694	 0.391323657689013 
1695	 0.388834455801183 
1696	 0.386155775026265 
1697	 0.383378232832673 
1698	 0.380512470895637 
1699	 0.377523828903225 
1700	 0.374569931566334 
1701	 0.371514962165572 
1702	 0.368584955772761 
1703	 0.36561930319609 
1704	 0.36280957852361 
1705	 0.360060195080417 
1706	 0.357405946515459 
1707	 0.355090873031295 
1708	 0.352791737238216 
1709	 0.350616007724602 
1710	 0.348633004126807 
1711	 0.346628053265795 
1712	 0.344881076420145 
1713	 0.3432164417651 
1714	 0.341552579408227 
1715	 0.340095499688974 
1716	 0.338553481973864 
1717	 0.337127783260768 
1718	 0.335928367023713 
1719	 0.33465090282926 
1720	 0.333533843576685 
1721	 0.332556115433272 
1722	 0.331586538492096 
1723	 0.330797942470791 
1724	 0.330105573678725 
1725	 0.329534225271231 
1726	 0.329171175289022 
1727	 0.32903340473421 
1728	 0.329119248261735 
1729	 0.329525227041736 
1730	 0.330211892333438 
1731	 0.331050296991707 
1732	 0.332263134619663 
1733	 0.33357683430511 
1734	 0.334971665223006 
1735	 0.336562461419609 
1736	 0.338062579373686 
1737	 0.339582462023805 
1738	 0.340958067496758 
1739	 0.342102771107198 
1740	 0.343108136661137 
1741	 0.343862387513345 
1742	 0.344478799096919 
1743	 0.344811200861717 
1744	 0.344762874211559 
1745	 0.344700322422883 
1746	 0.344364815813107 
1747	 0.344119697737556 
1748	 0.343839303130098 
1749	 0.343581251266382 
1750	 0.343315207906974 
1751	 0.343075167209903 
1752	 0.342842586507174 
1753	 0.342644874536791 
1754	 0.342363713287977 
1755	 0.342351380604618 
1756	 0.342438831462135 
1757	 0.342733955079858 
1758	 0.343250276188448 
1759	 0.343777167491751 
1760	 0.344441987204398 
1761	 0.345356636765391 
1762	 0.346363070317954 
1763	 0.347639840833276 
1764	 0.349063945818631 
1765	 0.350554400345334 
1766	 0.352275707802861 
1767	 0.353951374612227 
1768	 0.355779893098615 
1769	 0.357787174827716 
1770	 0.359591994376006 
1771	 0.361460117259212 
1772	 0.363337003131357 
1773	 0.365062589388573 
1774	 0.366830203474585 
1775	 0.368478968839561 
1776	 0.369941956270214 
1777	 0.371272776888447 
1778	 0.372500897516904 
1779	 0.373703976003636 
1780	 0.374838353604006 
1781	 0.375963671684446 
1782	 0.377046792971993 
1783	 0.377999300416287 
1784	 0.378967024264152 
1785	 0.379666572498719 
1786	 0.38037809833353 
1787	 0.381009816145733 
1788	 0.381672700035749 
1789	 0.382447180341665 
1790	 0.383031243707416 
1791	 0.383501127866689 
1792	 0.384016878999652 
1793	 0.384367671518831 
1794	 0.384938381563459 
1795	 0.385411782826842 
1796	 0.385698994662212 
1797	 0.386061981003352 
1798	 0.386375318596316 
1799	 0.386800076363003 
1800	 0.3873638205584 
1801	 0.386634150698217 
1802	 0.386998035223147 
1803	 0.387401372454359 
1804	 0.3878310228583 
1805	 0.388270082078676 
1806	 0.388660875375445 
1807	 0.389046828260192 
1808	 0.389408017187844 
1809	 0.389669494288323 
1810	 0.39005457365947 
1811	 0.390534887286547 
1812	 0.390925605852626 
1813	 0.391283715027361 
1814	 0.391732940583229 
1815	 0.39212776551094 
1816	 0.392519004672578 
1817	 0.392959933324374 
1818	 0.393462897921827 
1819	 0.393954937792088 
1820	 0.394496249160625 
1821	 0.394982820831667 
1822	 0.395425569718978 
1823	 0.395962826926184 
1824	 0.396447527187561 
1825	 0.396808214864111 
1826	 0.397275355437398 
1827	 0.397795693756444 
1828	 0.398263917430065 
1829	 0.398758014118601 
1830	 0.399208950030233 
1831	 0.399609654686508 
1832	 0.400043485395214 
1833	 0.400453416521831 
1834	 0.400857818009633 
1835	 0.401208044170529 
1836	 0.401512095516477 
1837	 0.401868040895075 
1838	 0.402180085828877 
1839	 0.402562750854738 
1840	 0.403024253955868 
1841	 0.403464599876763 
1842	 0.403930162263197 
1843	 0.404381028697203 
1844	 0.404816932354817 
1845	 0.405176373835838 
1846	 0.405464628814815 
1847	 0.405796601943853 
1848	 0.406096010342515 
1849	 0.406408525894872 
1850	 0.406636383495109 
1851	 0.406814292303803 
1852	 0.406977589536335 
1853	 0.407143103465803 
1854	 0.407258899006083 
1855	 0.407380314372814 
1856	 0.407412873846269 
1857	 0.40736528051452 
1858	 0.407330610346337 
1859	 0.407234996645837 
1860	 0.407139120145342 
1861	 0.406955730621622 
1862	 0.406713973607789 
1863	 0.406357163205113 
1864	 0.406039628181578 
1865	 0.405730453946032 
1866	 0.405342735840295 
1867	 0.40495925345924 
1868	 0.404482327042744 
1869	 0.40378114986615 
1870	 0.403069514849626 
1871	 0.402280968116985 
1872	 0.40146122597074 
1873	 0.400578874208679 
1874	 0.399701327343043 
1875	 0.398738354890355 
1876	 0.397632152701959 
1877	 0.396421329316713 
1878	 0.395156574229662 
1879	 0.393805726691664 
1880	 0.392423161593406 
1881	 0.390951582073628 
1882	 0.389409998316936 
1883	 0.387761393723822 
1884	 0.386026125205072 
1885	 0.384134384928115 
1886	 0.382177298325547 
1887	 0.380099805491885 
1888	 0.377856418135171 
1889	 0.375652248319023 
1890	 0.373362951249169 
1891	 0.371086333255209 
1892	 0.368813265443554 
1893	 0.366416847686144 
1894	 0.363903254202647 
1895	 0.36143995302521 
1896	 0.358852662286691 
1897	 0.356288629890514 
1898	 0.353999217682351 
1899	 0.351648912517324 
1900	 0.349377242854112 
1901	 0.347194443823112 
1902	 0.344864179437227 
1903	 0.342691020647179 
1904	 0.340579250264932 
1905	 0.338521710165627 
1906	 0.336488360457046 
1907	 0.334690781896837 
1908	 0.332834679107213 
1909	 0.331060548490043 
1910	 0.329495114772999 
1911	 0.327866706485163 
1912	 0.326377079925158 
1913	 0.32500113540521 
1914	 0.323560693180961 
1915	 0.322224672563772 
1916	 0.320998061559161 
1917	 0.319812657556215 
1918	 0.318535316299333 
1919	 0.317321850198879 
1920	 0.316075209476727 
1921	 0.314800200691298 
1922	 0.313571368124513 
1923	 0.312367054203402 
1924	 0.311294151134419 
1925	 0.310130212807307 
1926	 0.308973999162489 
1927	 0.307832707407317 
1928	 0.30672090877882 
1929	 0.305538387140724 
1930	 0.30450837472283 
1931	 0.303567051498134 
1932	 0.302611602133503 
1933	 0.30175618000708 
1934	 0.300949618128297 
1935	 0.300286779800841 
1936	 0.299749355013182 
1937	 0.299261753698682 
1938	 0.29887173560834 
1939	 0.298602729660269 
1940	 0.29838892868319 
1941	 0.298307259345387 
1942	 0.298382526182241 
1943	 0.298506728308775 
1944	 0.298743226026737 
1945	 0.298995570787093 
1946	 0.299316302650902 
1947	 0.299745642647403 
1948	 0.300223666802605 
1949	 0.300835245958159 
1950	 0.301523875195414 
1951	 0.302338774172208 
1952	 0.30318080262209 
1953	 0.30408181799541 
1954	 0.305077223640296 
1955	 0.306110134013382 
1956	 0.307228280905257 
1957	 0.308400547181342 
1958	 0.309575588691291 
1959	 0.310725529567888 
1960	 0.311810463454913 
1961	 0.312799127247326 
1962	 0.313694467525151 
1963	 0.31454316798837 
1964	 0.315315057504185 
1965	 0.316043927955015 
1966	 0.316744683687806 
1967	 0.317339596836296 
1968	 0.317869455690021 
1969	 0.318426045814639 
1970	 0.318942483318517 
1971	 0.319479778463462 
1972	 0.320048897963131 
1973	 0.320575253811 
1974	 0.321141817815856 
1975	 0.321735554005063 
1976	 0.322332391015706 
1977	 0.322932990789159 
1978	 0.323567276847702 
1979	 0.324205538543758 
1980	 0.324874196302685 
1981	 0.325599453121396 
1982	 0.326325263378595 
1983	 0.327142017757841 
1984	 0.327969797330391 
1985	 0.328763954058487 
1986	 0.32965224484883 
1987	 0.330571716894854 
1988	 0.331496778284197 
1989	 0.332481399497638 
1990	 0.333517571330414 
1991	 0.334617939548959 
1992	 0.335748465358078 
1993	 0.33694814424019 
1994	 0.338268992556339 
1995	 0.339717929988298 
1996	 0.341123556211842 
1997	 0.342534309353517 
1998	 0.343968000165003 
1999	 0.345413829746772 
2000	 0.346813152571477 
2001	 0.348301946029627 
2002	 0.349639724419574 
2003	 0.350902503895573 
2004	 0.352093942872401 
2005	 0.353153046069775 
2006	 0.35421498133941 
2007	 0.355246792505571 
2008	 0.3562020124139 
2009	 0.357154230280482 
2010	 0.358120605484471 
2011	 0.358943580060127 
2012	 0.359679925710894 
2013	 0.360376232822286 
2014	 0.360982718651697 
2015	 0.361569741304691 
2016	 0.362126069787486 
2017	 0.36261228251514 
2018	 0.363030051363056 
2019	 0.3634035749504 
2020	 0.363698302091792 
2021	 0.364007309800378 
2022	 0.364265730495499 
2023	 0.364460375866855 
2024	 0.364548444476111 
2025	 0.364634830191609 
2026	 0.364695819960144 
2027	 0.364683257106373 
2028	 0.364687574071818 
2029	 0.364696329057697 
2030	 0.36467790692852 
2031	 0.364628175819058 
2032	 0.364589746144011 
2033	 0.364552240712173 
2034	 0.364508262396166 
2035	 0.364462023411117 
2036	 0.364403533261951 
2037	 0.364347290280127 
2038	 0.36421816283994 
2039	 0.364074006238118 
2040	 0.363865946257481 
2041	 0.363712936042687 
2042	 0.36356237393524 
2043	 0.363421864021364 
2044	 0.363275149981409 
2045	 0.363171069848565 
2046	 0.36310554839559 
2047	 0.363003949184981 
2048	 0.362963919668996 
2049	 0.36286164547186 
2050	 0.362724423331102 
2051	 0.362487274266105 
2052	 0.362341471820625 
2053	 0.36227186882117 
2054	 0.362172884277943 
2055	 0.362142650975341 
2056	 0.362066692188402 
2057	 0.361948866330636 
2058	 0.361840831862955 
2059	 0.361752573582024 
2060	 0.361636801718527 
2061	 0.361475845427457 
2062	 0.361353726081849 
2063	 0.361253876706272 
2064	 0.361124682980514 
2065	 0.36097363212746 
2066	 0.360866439156845 
2067	 0.360746532123066 
2068	 0.360670551862809 
2069	 0.360570341708108 
2070	 0.360510196095832 
2071	 0.360393914999654 
2072	 0.36022787694504 
2073	 0.360103764597706 
2074	 0.359996374654964 
2075	 0.35985044085638 
2076	 0.35969920364696 
2077	 0.359538902509288 
2078	 0.359323385691458 
2079	 0.359165926979876 
2080	 0.359061005474938 
2081	 0.358911164775505 
2082	 0.358729401047739 
2083	 0.358598880074071 
2084	 0.358493068190169 
2085	 0.358328827325098 
2086	 0.358180703937911 
2087	 0.358083401146116 
2088	 0.35791819805373 
2089	 0.357678489796011 
2090	 0.35749887660524 
2091	 0.357354607282561 
2092	 0.357141118657534 
2093	 0.356892229824873 
2094	 0.356681623721591 
2095	 0.356488461058596 
2096	 0.356217957770156 
2097	 0.355919279453363 
2098	 0.355638816742156 
2099	 0.355302517454073 
2100	 0.354981169429433 
2101	 0.354677279665394 
2102	 0.354462649447361 
2103	 0.354129356905685 
2104	 0.353713105010853 
2105	 0.353359018737258 
2106	 0.352990352135799 
2107	 0.352634457538612 
2108	 0.352348494040676 
2109	 0.351959691831212 
2110	 0.351559139714922 
2111	 0.351080596862184 
2112	 0.350493471046348 
2113	 0.349919895152475 
2114	 0.349250182925786 
2115	 0.348646799086348 
2116	 0.348043695265606 
2117	 0.347509144207396 
2118	 0.346970191635219 
2119	 0.346478980730383 
2120	 0.345961984475477 
2121	 0.345425598353245 
2122	 0.344942225355763 
2123	 0.344453302840992 
2124	 0.344035697090018 
2125	 0.343711735767382 
2126	 0.343341068419482 
2127	 0.342937545136508 
2128	 0.342641122857715 
2129	 0.342351186982441 
2130	 0.342129512503823 
2131	 0.342070048898205 
2132	 0.341952969509421 
2133	 0.341835557620115 
2134	 0.341718751994343 
2135	 0.341647516721911 
2136	 0.34154747332574 
2137	 0.341450625604468 
2138	 0.341362641845382 
2139	 0.341286600063261 
2140	 0.34117290001627 
2141	 0.34113986084474 
2142	 0.341207012468715 
2143	 0.341189282069283 
2144	 0.341139699199139 
2145	 0.341138765501271 
2146	 0.341078307213093 
2147	 0.341109399192677 
2148	 0.341226237809366 
2149	 0.341357419240401 
2150	 0.341597012150727 
2151	 0.341740794736104 
2152	 0.341879734055515 
2153	 0.341984412895394 
2154	 0.34198621214156 
2155	 0.342013901553847 
2156	 0.34206343201719 
2157	 0.342119261076897 
2158	 0.342184815850947 
2159	 0.3422969156655 
2160	 0.342321896205209 
2161	 0.342347212703403 
2162	 0.342298485227473 
2163	 0.34214614984278 
2164	 0.342041940654234 
2165	 0.341881679538109 
2166	 0.341792170865601 
2167	 0.341792492820775 
2168	 0.341704869224082 
2169	 0.341604169093096 
2170	 0.341491647794726 
2171	 0.341285506893738 
2172	 0.34114538720929 
2173	 0.341036347048401 
2174	 0.340973078435847 
2175	 0.340868412604968 
2176	 0.340662870350029 
2177	 0.340568018557484 
2178	 0.340480845998407 
2179	 0.340382557948167 
2180	 0.34038167747611 
2181	 0.340259801375004 
2182	 0.340004904659531 
2183	 0.339877941856033 
2184	 0.339801641685769 
2185	 0.339661930135997 
2186	 0.339556904753486 
2187	 0.33940081620504 
2188	 0.339209873026939 
2189	 0.338946708761036 
2190	 0.338643487811316 
2191	 0.338333211447789 
2192	 0.337853850611999 
2193	 0.337529137948451 
2194	 0.337338628182899 
2195	 0.337081464531027 
2196	 0.336916488311666 
2197	 0.3366427784273 
2198	 0.336295435407333 
2199	 0.335832748581354 
2200	 0.335394234247453 
2201	 0.334927725635522 
2202	 0.334388103718775 
2203	 0.333782274141292 
2204	 0.33322518371037 
2205	 0.332581556823827 
2206	 0.33203032804478 
2207	 0.331615296023431 
2208	 0.331047946813639 
2209	 0.33043814479767 
2210	 0.329796631475209 
2211	 0.329030641829926 
2212	 0.32836736260907 
2213	 0.327742828128142 
2214	 0.327102049083825 
2215	 0.326539045756888 
2216	 0.325885555402141 
2217	 0.325148585051045 
2218	 0.324446340500623 
2219	 0.323600190774341 
2220	 0.322938013434869 
2221	 0.32240184824779 
2222	 0.321941029110048 
2223	 0.321321726056573 
2224	 0.320847488829952 
2225	 0.320258124670228 
2226	 0.319464504718567 
2227	 0.318765403039873 
2228	 0.318192860450581 
2229	 0.317319832535404 
2230	 0.316333193471004 
2231	 0.31521678086961 
2232	 0.313861768306459 
2233	 0.312564019591684 
2234	 0.311248871093943 
2235	 0.309798025690509 
2236	 0.30833655163454 
2237	 0.30665453760271 
2238	 0.304738487257736 
2239	 0.302792844663713 
2240	 0.3007576505375 
2241	 0.298577273966869 
2242	 0.296385681433249 
2243	 0.293954770326272 
2244	 0.291206920422146 
2245	 0.28848623721807 
2246	 0.285574252925595 
2247	 0.282672629828283 
2248	 0.279792750836141 
2249	 0.276814246382996 
2250	 0.273751942237636 
2251	 0.270700079539549 
2252	 0.267338940320472 
2253	 0.264157729709239 
2254	 0.260949613527954 
2255	 0.257599425276823 
2256	 0.254625430545817 
2257	 0.251550036051478 
2258	 0.24848073018657 
2259	 0.245481784681972 
2260	 0.242426897946297 
2261	 0.239256373598305 
2262	 0.236294772589845 
2263	 0.233370175060917 
2264	 0.230575516799608 
2265	 0.227933298546524 
2266	 0.225268104017597 
2267	 0.2226724239857 
2268	 0.220145047579387 
2269	 0.21774158887217 
2270	 0.215287765289223 
2271	 0.212826618803406 
2272	 0.210440791553796 
2273	 0.208012116821645 
2274	 0.205675561455151 
2275	 0.203545314623959 
2276	 0.201289237144461 
2277	 0.199042099154799 
2278	 0.196737707997508 
2279	 0.194307749865572 
2280	 0.191955026296696 
2281	 0.189678362695008 
2282	 0.18726892176828 
2283	 0.184857408499089 
2284	 0.182362500708069 
2285	 0.179635000926933 
2286	 0.176944411026743 
2287	 0.174214156856438 
2288	 0.171432871950742 
2289	 0.168741140372624 
2290	 0.165945213532264 
2291	 0.163208916988423 
2292	 0.160320766653536 
2293	 0.157221539439734 
2294	 0.154284430146032 
2295	 0.151276544297838 
2296	 0.148417369538785 
2297	 0.145852771855864 
2298	 0.143501626069706 
2299	 0.141380288228372 
2300	 0.139470551141781 
2301	 0.137925204385139 
2302	 0.136745269340299 
2303	 0.135727972405905 
2304	 0.134915272718645 
2305	 0.134493576458927 
2306	 0.134305936566598 
2307	 0.134578321011219 
2308	 0.13537854366212 
2309	 0.136393026273669 
2310	 0.137717070989542 
2311	 0.139333488168572 
2312	 0.141466835859654 
2313	 0.143520330343752 
2314	 0.145823207445417 
2315	 0.148191672014174 
2316	 0.150695701864293 
2317	 0.153077370642516 
2318	 0.155691285574483 
2319	 0.157915106363653 
2320	 0.159979770329025 
2321	 0.161733287803227 
2322	 0.163371170647024 
2323	 0.164597348941751 
2324	 0.165290142694321 
2325	 0.165938559137526 
2326	 0.166174849011235 
2327	 0.166434516167067 
2328	 0.166710687211086 
2329	 0.166773778244803 
2330	 0.166748313461892 
2331	 0.166525230016513 
2332	 0.165826410353943 
2333	 0.165061628249547 
2334	 0.163990782837152 
2335	 0.162690591120556 
2336	 0.161444886629019 
2337	 0.159843823574999 
2338	 0.158012247448298 
2339	 0.156343438117095 
2340	 0.154707580515996 
2341	 0.153075990469529 
2342	 0.151658900411293 
2343	 0.15009326051272 
2344	 0.148347340162072 
2345	 0.147097281541153 
2346	 0.146360952692791 
2347	 0.145865689400875 
2348	 0.145856477987638 
2349	 0.146330835149941 
2350	 0.146952318092884 
2351	 0.148017709458544 
2352	 0.149379127234091 
2353	 0.150757839857992 
2354	 0.152215358006986 
2355	 0.153786451655394 
2356	 0.155292896248358 
2357	 0.156657323540734 
2358	 0.157918595459959 
2359	 0.15878805815334 
2360	 0.159577415007235 
2361	 0.160347831424487 
2362	 0.16062841382833 
2363	 0.160749375417073 
2364	 0.160865805417011 
2365	 0.160744580572939 
2366	 0.160824683700885 
2367	 0.160983144897803 
2368	 0.160881413758656 
2369	 0.160827316621119 
2370	 0.160797497930587 
2371	 0.160753975199569 
2372	 0.160737959011179 
2373	 0.160703365335152 
2374	 0.160413028744529 
2375	 0.159872094484342 
2376	 0.159759477585663 
2377	 0.159729382143379 
2378	 0.159750251554801 
2379	 0.160169288038595 
2380	 0.16006006491472 
2381	 0.159612164221873 
2382	 0.159483931988193 
2383	 0.159294310792458 
2384	 0.159348805892144 
2385	 0.15994238957035 
2386	 0.159919643527909 
2387	 0.1595611607719 
2388	 0.159480377716197 
2389	 0.159126400786118 
2390	 0.159125011936105 
2391	 0.159566517344972 
2392	 0.159789197719255 
2393	 0.159991504581061 
2394	 0.160197817225696 
2395	 0.160533333669334 
2396	 0.160617227834531 
2397	 0.160523835297216 
2398	 0.160524856010269 
2399	 0.160201292718497 
2400	 0.160350051974556 
2401	 0.160975324755697 
2402	 0.16105802365864 
2403	 0.161147623354643 
2404	 0.160829428215318 
2405	 0.160700845402023 
2406	 0.161204293280408 
2407	 0.161803365782526 
2408	 0.162342167088994 
2409	 0.162338312010852 
2410	 0.161595954606398 
2411	 0.160995860161496 
2412	 0.160676004705524 
2413	 0.16065528098081 
2414	 0.160896164663806 
2415	 0.161178288052174 
2416	 0.161356901617561 
2417	 0.161263828113688 
2418	 0.161491565319767 
2419	 0.161771200272548 
2420	 0.161738773873969 
2421	 0.161739496066923 
2422	 0.161429468048366 
2423	 0.161339808732378 
2424	 0.161557624975411 
2425	 0.161514264956834 
2426	 0.162147690328904 
2427	 0.162432096742995 
2428	 0.161862424462476 
2429	 0.162196182187686 
2430	 0.162312547821371 
2431	 0.161636647063865 
2432	 0.161534743421599 
2433	 0.161295934838107 
2434	 0.160953649156845 
2435	 0.161558511412639 
2436	 0.162283005772363 
2437	 0.162273785060485 
2438	 0.161741944836248 
2439	 0.161101118231436 
2440	 0.160562685493793 
2441	 0.160648079056924 
2442	 0.160970218833816 
2443	 0.160717363529107 
2444	 0.160721497147814 
2445	 0.160966003787507 
2446	 0.161162635750867 
2447	 0.161597178021456 
2448	 0.161621844806581 
2449	 0.161340466747068 
2450	 0.160882153887489 
2451	 0.160850144767712 
2452	 0.161447949687954 
2453	 0.161184053118212 
2454	 0.16078078086613 
2455	 0.160727560271372 
2456	 0.160196983638234 
2457	 0.159883854497842 
2458	 0.159897936568885 
2459	 0.159456522591256 
2460	 0.158828310500591 
2461	 0.158640558735913 
2462	 0.158798236059847 
2463	 0.159401757861356 
2464	 0.160121199003645 
2465	 0.160612761471737 
2466	 0.160648377821621 
2467	 0.160256877058007 
2468	 0.160195549435588 
2469	 0.160057260632953 
2470	 0.160419809241076 
2471	 0.161345052826703 
2472	 0.161474461662425 
2473	 0.161299608911801 
2474	 0.16067121086573 
2475	 0.159992636496467 
2476	 0.159838568878686 
2477	 0.159940256323149 
2478	 0.161023611498467 
2479	 0.161962808524787 
2480	 0.162908674920534 
2481	 0.163096081406688 
2482	 0.162518866577733 
2483	 0.162991277134377 
2484	 0.163052426628058 
2485	 0.164046555323616 
2486	 0.165274326460626 
2487	 0.165315014394277 
2488	 0.165358734950229 
2489	 0.166390886003126 
2490	 0.166739839944455 
2491	 0.166884939923925 
2492	 0.16732950511209 
2493	 0.167508083156523 
2494	 0.167738014919342 
2495	 0.1682510727058 
2496	 0.169248237023507 
2497	 0.168998972242965 
2498	 0.168667372233669 
2499	 0.169785347068251 
2500	 0.170219393278803 
