Wavelength	Tablay400009.asd
350	 0.263064522734034 
351	 0.217136767540527 
352	 0.180983586083438 
353	 0.195353966976751 
354	 0.228112642850745 
355	 0.228698679798654 
356	 0.211219050202727 
357	 0.199644535626758 
358	 0.183487587468435 
359	 0.184889585040952 
360	 0.19802887402617 
361	 0.201306717690111 
362	 0.18291157390311 
363	 0.17745436543246 
364	 0.191781720875351 
365	 0.189264223909729 
366	 0.178650742278086 
367	 0.167247261755679 
368	 0.161517020784137 
369	 0.168771923399411 
370	 0.164958402419011 
371	 0.154045107832935 
372	 0.154743756283234 
373	 0.160249805000847 
374	 0.158607579512281 
375	 0.149835598711387 
376	 0.152005831468867 
377	 0.141518839179985 
378	 0.13861811948725 
379	 0.155229093682862 
380	 0.140675962808931 
381	 0.135448018437244 
382	 0.142346026398278 
383	 0.140942289380574 
384	 0.136226978581962 
385	 0.126834731843126 
386	 0.119251293003671 
387	 0.13279708898637 
388	 0.12941677958701 
389	 0.119478793892639 
390	 0.119729023601367 
391	 0.118590858630842 
392	 0.115622069887648 
393	 0.111609609503331 
394	 0.107995090379585 
395	 0.103770264351483 
396	 0.102842314641023 
397	 0.105865003716327 
398	 0.108097745825011 
399	 0.104048175902956 
400	 0.100929371126767 
401	 0.104520280462143 
402	 0.099935338324256 
403	 9.57512632619291E-02 
404	 9.46984426309343E-02 
405	 9.45230824326154E-02 
406	 9.66695657980662E-02 
407	 9.73870806118053E-02 
408	 9.45611299674712E-02 
409	 0.089289516880901 
410	 9.01488997620024E-02 
411	 9.19095975122631E-02 
412	 8.77563846887946E-02 
413	 8.66704134064948E-02 
414	 8.56947434599575E-02 
415	 8.44015820976975E-02 
416	 0.084916390157312 
417	 8.60824835455815E-02 
418	 8.51580819029378E-02 
419	 8.23751895466266E-02 
420	 0.085898900694261 
421	 8.31199664115997E-02 
422	 7.88882713939949E-02 
423	 0.082295235876021 
424	 0.082014608844898 
425	 8.08461606629214E-02 
426	 0.080380106161254 
427	 7.96690990953701E-02 
428	 8.04978166294744E-02 
429	 8.09817709484907E-02 
430	 7.97540030631606E-02 
431	 7.90353375741182E-02 
432	 7.90475830072297E-02 
433	 7.93059798650647E-02 
434	 7.91253707611641E-02 
435	 7.99250428774305E-02 
436	 8.03271351312478E-02 
437	 7.99727910970514E-02 
438	 8.04697788505223E-02 
439	 7.97297211027701E-02 
440	 8.00895597198201E-02 
441	 8.31779307676684E-02 
442	 8.30053212465919E-02 
443	 8.18677193709542E-02 
444	 8.13650091837473E-02 
445	 8.21557364444285E-02 
446	 8.19729729375101E-02 
447	 8.23706949252723E-02 
448	 8.41591657053623E-02 
449	 0.08553507910117 
450	 8.54876900301599E-02 
451	 8.51434763589627E-02 
452	 0.086036683774741 
453	 8.64808745283761E-02 
454	 8.68632116331678E-02 
455	 8.77410062797639E-02 
456	 8.96532452068646E-02 
457	 0.090503351540378 
458	 9.13158406341089E-02 
459	 9.28199671955858E-02 
460	 9.26327324607961E-02 
461	 9.40889386170722E-02 
462	 9.61100835355855E-02 
463	 9.59102472696656E-02 
464	 9.80310402961571E-02 
465	 9.98761643706278E-02 
466	 0.100418123076399 
467	 0.102064394631664 
468	 0.103626655194096 
469	 0.105076698997871 
470	 0.106599967598974 
471	 0.107939349140379 
472	 0.109615810165066 
473	 0.111551088042792 
474	 0.113236995106839 
475	 0.115062949941874 
476	 0.117287511060581 
477	 0.119700316963366 
478	 0.121015358279637 
479	 0.123198007531796 
480	 0.125805114392608 
481	 0.127764102387113 
482	 0.130248430336061 
483	 0.132543114435981 
484	 0.134479232612369 
485	 0.136605699925092 
486	 0.139106411487844 
487	 0.141667429912615 
488	 0.143975842355583 
489	 0.146103384542082 
490	 0.148290516852515 
491	 0.150509184315886 
492	 0.152600720963185 
493	 0.154777887777051 
494	 0.157160189847506 
495	 0.159622639605161 
496	 0.161676365072029 
497	 0.163690296764672 
498	 0.165787796519156 
499	 0.16792941925069 
500	 0.169643088369109 
501	 0.171593869615485 
502	 0.17381522712973 
503	 0.175775566586764 
504	 0.177336158452946 
505	 0.179069545337443 
506	 0.181297844080296 
507	 0.183554544600377 
508	 0.185351836080976 
509	 0.186838208105359 
510	 0.188442050897042 
511	 0.190256435054109 
512	 0.1920128232676 
513	 0.193651824719439 
514	 0.195421889293208 
515	 0.19682933432631 
516	 0.198293468984864 
517	 0.20017247517739 
518	 0.201834330178678 
519	 0.203322950445262 
520	 0.204817109124937 
521	 0.206530065958395 
522	 0.207983958816672 
523	 0.209485523685589 
524	 0.211170290270983 
525	 0.212623354343941 
526	 0.214262770634883 
527	 0.215875155836545 
528	 0.217167969866544 
529	 0.218666658078488 
530	 0.220158404828311 
531	 0.221586440904961 
532	 0.223091809805581 
533	 0.224573091806675 
534	 0.225836165107519 
535	 0.22689353972891 
536	 0.228393127487138 
537	 0.229839453390894 
538	 0.231173780698268 
539	 0.232561132717968 
540	 0.233837745416368 
541	 0.235126416930518 
542	 0.236454268462446 
543	 0.237644602376238 
544	 0.238830115835374 
545	 0.240075025076581 
546	 0.241386952688779 
547	 0.242617824122329 
548	 0.243928307055662 
549	 0.245331241532113 
550	 0.246702196571623 
551	 0.248077517711754 
552	 0.249436285271049 
553	 0.250793220737311 
554	 0.252285287769414 
555	 0.253692821649045 
556	 0.254943439928748 
557	 0.25606889472107 
558	 0.257270715509335 
559	 0.258477521244257 
560	 0.259654844970181 
561	 0.260863033423785 
562	 0.261813189646503 
563	 0.262652731255643 
564	 0.263554796229197 
565	 0.264279777596201 
566	 0.265069798945379 
567	 0.265921044387584 
568	 0.26666772356247 
569	 0.267588007264299 
570	 0.268598129862869 
571	 0.269601280445275 
572	 0.270593165138168 
573	 0.271603384567282 
574	 0.272544515642366 
575	 0.273308112436135 
576	 0.273931027000469 
577	 0.274501423878846 
578	 0.275023348635174 
579	 0.275407501637802 
580	 0.275926810833661 
581	 0.276474534400219 
582	 0.27695849010782 
583	 0.277614016263324 
584	 0.278322999647303 
585	 0.279004191864484 
586	 0.279611368787445 
587	 0.280206435950657 
588	 0.280780668841157 
589	 0.281369793395346 
590	 0.282093767069912 
591	 0.282888997606931 
592	 0.283626070756741 
593	 0.284256533366662 
594	 0.28517967281724 
595	 0.28606597557873 
596	 0.286785300800025 
597	 0.287415483694161 
598	 0.288101582194262 
599	 0.288747561184563 
600	 0.289265700738506 
601	 0.289681947426674 
602	 0.290129821764361 
603	 0.290590522359656 
604	 0.29099198227469 
605	 0.291427682443621 
606	 0.291857298204726 
607	 0.292241561974743 
608	 0.29255608764218 
609	 0.292923290021968 
610	 0.293344625803733 
611	 0.293769622174645 
612	 0.294079778382317 
613	 0.294471200764507 
614	 0.294917064653387 
615	 0.295254598445151 
616	 0.295510269549333 
617	 0.295882008974519 
618	 0.296387589465842 
619	 0.296692382752972 
620	 0.296952765398835 
621	 0.297276776964667 
622	 0.29770188122405 
623	 0.298000452422407 
624	 0.298187461377084 
625	 0.298409794532294 
626	 0.298893286776657 
627	 0.299181929616598 
628	 0.299366412678922 
629	 0.299585627831123 
630	 0.299818613271348 
631	 0.300120077903226 
632	 0.300403616397031 
633	 0.300557621083528 
634	 0.300764850526643 
635	 0.301015240837086 
636	 0.301240303657836 
637	 0.301324084706426 
638	 0.301509695544303 
639	 0.301769640374788 
640	 0.30201740322806 
641	 0.302223955855775 
642	 0.302364458728861 
643	 0.302491986497555 
644	 0.302692186498751 
645	 0.302870729475493 
646	 0.303018677497252 
647	 0.30315226264913 
648	 0.303312778315583 
649	 0.303422964298576 
650	 0.303517465601544 
651	 0.303652044131589 
652	 0.303829497088339 
653	 0.303894422102379 
654	 0.303911253140572 
655	 0.304097754451133 
656	 0.304173520502599 
657	 0.304208006342634 
658	 0.304285189205481 
659	 0.304399717042256 
660	 0.304538962095156 
661	 0.30468008023628 
662	 0.304786345854501 
663	 0.304766833367829 
664	 0.304765216333959 
665	 0.304840833384978 
666	 0.304951062242367 
667	 0.30505893426512 
668	 0.305094651266497 
669	 0.305055603248672 
670	 0.305114441733344 
671	 0.30518904988209 
672	 0.305259589127778 
673	 0.305318301176788 
674	 0.305254264932123 
675	 0.305206006819658 
676	 0.305252897773021 
677	 0.305374941530386 
678	 0.305334881437904 
679	 0.305294435250585 
680	 0.30537572617511 
681	 0.305260189132367 
682	 0.305271455044646 
683	 0.305380826223354 
684	 0.305376337940053 
685	 0.305276194469674 
686	 0.305187646824699 
687	 0.30518588984884 
688	 0.305287844524382 
689	 0.305303787398162 
690	 0.305220756861214 
691	 0.305118243194762 
692	 0.30520257864978 
693	 0.305251157874236 
694	 0.305226774682134 
695	 0.305209669394347 
696	 0.305156881024479 
697	 0.305088014057157 
698	 0.305057404092946 
699	 0.305166677373718 
700	 0.305199308310845 
701	 0.305130028020101 
702	 0.305011444353753 
703	 0.304927911830911 
704	 0.304958777269539 
705	 0.305045261493895 
706	 0.305038919307792 
707	 0.304926394220398 
708	 0.304793741800531 
709	 0.304729480420907 
710	 0.304805847245048 
711	 0.304864751553063 
712	 0.304849206211741 
713	 0.304767798736093 
714	 0.304734317204064 
715	 0.304712867656141 
716	 0.304700980392967 
717	 0.304714533957275 
718	 0.304680083791278 
719	 0.304624055674946 
720	 0.304572961485886 
721	 0.304522453823319 
722	 0.30460865443699 
723	 0.304690524465496 
724	 0.304630865977456 
725	 0.304659664143667 
726	 0.304717154434763 
727	 0.304747021673656 
728	 0.304715950148118 
729	 0.304760241687998 
730	 0.304786436554126 
731	 0.304751637472933 
732	 0.304740418731698 
733	 0.304842148671738 
734	 0.3049807039276 
735	 0.305055812794868 
736	 0.305090213349385 
737	 0.305101809353697 
738	 0.305094792278429 
739	 0.305073714009081 
740	 0.305142784185718 
741	 0.305188297757045 
742	 0.305179309432418 
743	 0.305246969822042 
744	 0.305271519400954 
745	 0.305287065077005 
746	 0.305341697368248 
747	 0.305390367195203 
748	 0.305425849817844 
749	 0.305473346917846 
750	 0.305565701944213 
751	 0.305634451109305 
752	 0.3057277399717 
753	 0.305855602514656 
754	 0.305965257237381 
755	 0.306075771803101 
756	 0.306149912029363 
757	 0.306189582641564 
758	 0.306342588500788 
759	 0.306481605034666 
760	 0.306590478085106 
761	 0.306708310155963 
762	 0.30686044435674 
763	 0.307003718361267 
764	 0.307133428744284 
765	 0.307289525685839 
766	 0.30743069061993 
767	 0.307608820292318 
768	 0.307827439409583 
769	 0.307933143574072 
770	 0.308084200301821 
771	 0.308256152725385 
772	 0.308384453169349 
773	 0.308554464557463 
774	 0.308743282652346 
775	 0.308919787493243 
776	 0.30905867121954 
777	 0.30923231054628 
778	 0.309413448253765 
779	 0.309590291142447 
780	 0.309804458397885 
781	 0.309947596756352 
782	 0.310088777979447 
783	 0.310295405558553 
784	 0.310433968453714 
785	 0.310627543133716 
786	 0.31082380462997 
787	 0.310900724589134 
788	 0.311017738869993 
789	 0.311192691604332 
790	 0.311387885507262 
791	 0.311522746170122 
792	 0.31165575411321 
793	 0.311822007483641 
794	 0.312023790264495 
795	 0.312198197052031 
796	 0.312366639203852 
797	 0.312553045903141 
798	 0.312761814512538 
799	 0.312895027198522 
800	 0.313035573546959 
801	 0.313227778078744 
802	 0.313469512954324 
803	 0.313690197718759 
804	 0.313890905683913 
805	 0.314075089898091 
806	 0.314233562745925 
807	 0.314411394022581 
808	 0.314603294503099 
809	 0.314800657744154 
810	 0.31503324321274 
811	 0.315237522803461 
812	 0.315388200758935 
813	 0.315498095643651 
814	 0.315662684070471 
815	 0.315852588340552 
816	 0.316027628980695 
817	 0.316151900515575 
818	 0.316260584288447 
819	 0.316375322174199 
820	 0.31650745315712 
821	 0.316654989794468 
822	 0.316812831493425 
823	 0.316947341400554 
824	 0.317028339343482 
825	 0.317046277302282 
826	 0.317126331681011 
827	 0.31725158397272 
828	 0.317340946025107 
829	 0.317384702821536 
830	 0.317446904078915 
831	 0.317517981170937 
832	 0.317532874901002 
833	 0.31760880931373 
834	 0.317697204641087 
835	 0.3177561523857 
836	 0.317793513549244 
837	 0.317861867250993 
838	 0.317935962395431 
839	 0.317976412746568 
840	 0.317955109260966 
841	 0.318004812534091 
842	 0.318074540184938 
843	 0.318076995516338 
844	 0.318155361893711 
845	 0.318240990074343 
846	 0.318261687500889 
847	 0.318186569546998 
848	 0.318288352896759 
849	 0.318336570620733 
850	 0.318300398536066 
851	 0.31845431638088 
852	 0.318548163495436 
853	 0.31857600403177 
854	 0.318601250113391 
855	 0.318724096009352 
856	 0.318830371920897 
857	 0.318880999773695 
858	 0.318879631225586 
859	 0.318880253729499 
860	 0.318891466671489 
861	 0.318919063421411 
862	 0.318951363518338 
863	 0.318890973295643 
864	 0.318889111121237 
865	 0.318970034660379 
866	 0.319030810387454 
867	 0.319012250387808 
868	 0.318985024537623 
869	 0.318983150285274 
870	 0.318963486766956 
871	 0.318955056256092 
872	 0.318924922649586 
873	 0.318868735989494 
874	 0.318870883228023 
875	 0.318890960449126 
876	 0.318899879470104 
877	 0.318865769077521 
878	 0.318732630975644 
879	 0.318622172812498 
880	 0.318564392158858 
881	 0.318532781670295 
882	 0.318490804562491 
883	 0.318443457864658 
884	 0.318390743494922 
885	 0.318331865347551 
886	 0.318307417096988 
887	 0.318279890815622 
888	 0.318236482138312 
889	 0.318202173588119 
890	 0.318177162001211 
891	 0.318062115346915 
892	 0.317893218107643 
893	 0.317951739832147 
894	 0.317964564941236 
895	 0.31788262363565 
896	 0.317783640064853 
897	 0.317933425253078 
898	 0.317836372138049 
899	 0.317688859769769 
900	 0.317789526990145 
901	 0.317853853194367 
902	 0.317920791260107 
903	 0.317928867357981 
904	 0.317822047699259 
905	 0.317805136095001 
906	 0.317886575536373 
907	 0.318003025666899 
908	 0.318065809980438 
909	 0.318159527276236 
910	 0.318211289243508 
911	 0.318226668054309 
912	 0.318292127947159 
913	 0.318311081402259 
914	 0.318342976185133 
915	 0.318424286665954 
916	 0.318524780333495 
917	 0.318550466680664 
918	 0.318485586776513 
919	 0.318417635918566 
920	 0.31857432395542 
921	 0.31862078445972 
922	 0.318656486722586 
923	 0.31877548706078 
924	 0.318756350865377 
925	 0.318777375243552 
926	 0.318863868670849 
927	 0.318956353527433 
928	 0.318889170065342 
929	 0.318894877185527 
930	 0.318984044447596 
931	 0.319082079340656 
932	 0.319224972641613 
933	 0.319271394661171 
934	 0.319209459214296 
935	 0.319131024935784 
936	 0.31921499806758 
937	 0.319312434536691 
938	 0.319337963567357 
939	 0.319301066803016 
940	 0.319396122887611 
941	 0.319491107736573 
942	 0.319544882877333 
943	 0.319619191987084 
944	 0.319723394092877 
945	 0.319766281372989 
946	 0.319749421815664 
947	 0.319778337159069 
948	 0.319864984255686 
949	 0.319916658660533 
950	 0.319907230527599 
951	 0.319913754371932 
952	 0.319954793098289 
953	 0.319999608916352 
954	 0.320065207425014 
955	 0.320237905361513 
956	 0.320186906380085 
957	 0.320081693787545 
958	 0.320104686668073 
959	 0.320259533948414 
960	 0.320528839583107 
961	 0.320748682641349 
962	 0.320800571991307 
963	 0.320722678131492 
964	 0.320706895871987 
965	 0.320821584838217 
966	 0.32101694395314 
967	 0.32108248303645 
968	 0.321316241415618 
969	 0.321578747864889 
970	 0.321697072992822 
971	 0.321737405645282 
972	 0.321913841544836 
973	 0.322004315196248 
974	 0.32186728835188 
975	 0.321966862825174 
976	 0.322090834905947 
977	 0.322201362944939 
978	 0.322321006191026 
979	 0.322491428896787 
980	 0.322693640128919 
981	 0.32289175208454 
982	 0.323013958623045 
983	 0.322881055969333 
984	 0.322894728275212 
985	 0.323124692340047 
986	 0.323424137303971 
987	 0.323406802350605 
988	 0.323562510002893 
989	 0.323701150157655 
990	 0.323589672670563 
991	 0.323731781039366 
992	 0.323719067108178 
993	 0.323720061364127 
994	 0.323943599374742 
995	 0.32401001013395 
996	 0.323988860927638 
997	 0.32413248858961 
998	 0.324516685228199 
999	 0.324432846128853 
1000	 0.324414088587453 
1001	 0.307443711971128 
1002	 0.307462535525768 
1003	 0.307430542971038 
1004	 0.307438455514365 
1005	 0.307475474299606 
1006	 0.307473769894963 
1007	 0.307456077584162 
1008	 0.307448634763347 
1009	 0.307434723212744 
1010	 0.307386312420926 
1011	 0.307309274797426 
1012	 0.307280745176973 
1013	 0.307251311521356 
1014	 0.307226184630713 
1015	 0.307227530186925 
1016	 0.307234540812733 
1017	 0.307254019520848 
1018	 0.307259771127061 
1019	 0.307202375008538 
1020	 0.307153035212487 
1021	 0.307128793642947 
1022	 0.307046191774386 
1023	 0.307030763542343 
1024	 0.307084051085968 
1025	 0.307132907489272 
1026	 0.307180239881346 
1027	 0.307242612052974 
1028	 0.307316717131329 
1029	 0.307447850872828 
1030	 0.307594688772223 
1031	 0.307721113242066 
1032	 0.307819851692161 
1033	 0.307859203815632 
1034	 0.307871533539228 
1035	 0.307968776711347 
1036	 0.308055661796365 
1037	 0.308212379366887 
1038	 0.308292531978785 
1039	 0.308310578756057 
1040	 0.308370346283832 
1041	 0.308431897179914 
1042	 0.308511140042409 
1043	 0.308622833042093 
1044	 0.308719003168539 
1045	 0.308800376385845 
1046	 0.308860344203319 
1047	 0.308864287720163 
1048	 0.308822150866077 
1049	 0.30879265241643 
1050	 0.308800872434286 
1051	 0.308823749088925 
1052	 0.308863591885852 
1053	 0.308854692458401 
1054	 0.308801031752433 
1055	 0.308760732184389 
1056	 0.308697460986399 
1057	 0.308620079198056 
1058	 0.308545191857165 
1059	 0.308459976818879 
1060	 0.308329369964468 
1061	 0.30831051941327 
1062	 0.308309872624852 
1063	 0.308267673931408 
1064	 0.308262268312479 
1065	 0.30819504038846 
1066	 0.308137001515651 
1067	 0.308152754138036 
1068	 0.308107167211278 
1069	 0.307990242095714 
1070	 0.307890522398065 
1071	 0.307760601596547 
1072	 0.307624291731244 
1073	 0.307571139967159 
1074	 0.307590923000431 
1075	 0.307514610070238 
1076	 0.307416878263257 
1077	 0.307326523345298 
1078	 0.307197160196507 
1079	 0.307167813245096 
1080	 0.307121598774653 
1081	 0.306989281984497 
1082	 0.306876229416455 
1083	 0.306794061015054 
1084	 0.306758560024662 
1085	 0.306770163156821 
1086	 0.306756722556223 
1087	 0.306772203317101 
1088	 0.306699221724141 
1089	 0.30659095366315 
1090	 0.306534231492325 
1091	 0.306504836438681 
1092	 0.306532407384062 
1093	 0.306550258959523 
1094	 0.306513724308366 
1095	 0.306488595906481 
1096	 0.306419999170329 
1097	 0.306369658133431 
1098	 0.306421900777777 
1099	 0.306432347880779 
1100	 0.306439747716427 
1101	 0.30647646790015 
1102	 0.306494922708322 
1103	 0.30651896884122 
1104	 0.306534833017007 
1105	 0.306543595081576 
1106	 0.306595727696545 
1107	 0.306641421750495 
1108	 0.306626156852131 
1109	 0.306660973569267 
1110	 0.306755329208548 
1111	 0.306812501965495 
1112	 0.30687671123152 
1113	 0.306993526125224 
1114	 0.307073227843115 
1115	 0.307126412699286 
1116	 0.307240079803778 
1117	 0.307358905797532 
1118	 0.307460941889966 
1119	 0.307563089778934 
1120	 0.307664691059923 
1121	 0.307767788314436 
1122	 0.307830252822178 
1123	 0.307915100604789 
1124	 0.30802169411101 
1125	 0.308129199733903 
1126	 0.308261822051469 
1127	 0.308394951023595 
1128	 0.30851649710492 
1129	 0.308638173129419 
1130	 0.308770274044358 
1131	 0.308907024045354 
1132	 0.309031331028416 
1133	 0.309109882220567 
1134	 0.309164840736347 
1135	 0.309258437832547 
1136	 0.309348094867531 
1137	 0.309453811458543 
1138	 0.309618785508644 
1139	 0.309739084918717 
1140	 0.309848956735777 
1141	 0.309924058722859 
1142	 0.30999852504255 
1143	 0.310076542918857 
1144	 0.310140940580685 
1145	 0.310227635657506 
1146	 0.310320802971713 
1147	 0.310396461854996 
1148	 0.31049061264069 
1149	 0.310568430067246 
1150	 0.310609889280048 
1151	 0.310669985052004 
1152	 0.310716121063363 
1153	 0.310721417035222 
1154	 0.310772617715716 
1155	 0.310861839555353 
1156	 0.310916778642689 
1157	 0.310996611760017 
1158	 0.311042837239707 
1159	 0.311061753145946 
1160	 0.311041229775894 
1161	 0.311068915228981 
1162	 0.311094579127498 
1163	 0.311127441690009 
1164	 0.311190950496271 
1165	 0.311185778917623 
1166	 0.311164404007498 
1167	 0.311190049850838 
1168	 0.311205252645182 
1169	 0.31123400222631 
1170	 0.311329745542731 
1171	 0.311340049556995 
1172	 0.31130341327191 
1173	 0.311274841959582 
1174	 0.311194558331213 
1175	 0.311155689714059 
1176	 0.311140612475101 
1177	 0.311115751199571 
1178	 0.311091926542028 
1179	 0.311093312608325 
1180	 0.311063861391596 
1181	 0.311021159870535 
1182	 0.310985416080953 
1183	 0.310900782547068 
1184	 0.310820093404876 
1185	 0.310757584758646 
1186	 0.310685698220892 
1187	 0.31059608856905 
1188	 0.310555903488304 
1189	 0.310535694940376 
1190	 0.310513277828052 
1191	 0.310543070474306 
1192	 0.310515377379275 
1193	 0.310428396844223 
1194	 0.310391119108459 
1195	 0.310339960339554 
1196	 0.310332759421506 
1197	 0.310368299826356 
1198	 0.310429091743717 
1199	 0.310465825330902 
1200	 0.310494754865194 
1201	 0.310530470892443 
1202	 0.310553529856796 
1203	 0.310587519562962 
1204	 0.310679644093153 
1205	 0.31078237375858 
1206	 0.310897693643823 
1207	 0.311043202917753 
1208	 0.311225046010596 
1209	 0.311409219358876 
1210	 0.31160051224172 
1211	 0.311824700606514 
1212	 0.31205698536476 
1213	 0.312344543163228 
1214	 0.312686088044083 
1215	 0.313025302976187 
1216	 0.313402202700565 
1217	 0.313783902651066 
1218	 0.314166592791303 
1219	 0.314568399809079 
1220	 0.314985084830438 
1221	 0.315420995860141 
1222	 0.315858431916804 
1223	 0.316314609911067 
1224	 0.316750721918496 
1225	 0.317194957209617 
1226	 0.317621656332057 
1227	 0.31803289192957 
1228	 0.318435093640007 
1229	 0.31884277612238 
1230	 0.319219946219967 
1231	 0.31956553646544 
1232	 0.319921496361002 
1233	 0.320284314061336 
1234	 0.320608005318804 
1235	 0.320911757454522 
1236	 0.321206698584401 
1237	 0.321475713134917 
1238	 0.321728807446402 
1239	 0.321958139593601 
1240	 0.322202268466787 
1241	 0.322438623427627 
1242	 0.322659644115807 
1243	 0.322908957511698 
1244	 0.323192944459123 
1245	 0.323440474180421 
1246	 0.323679659695045 
1247	 0.323918560383378 
1248	 0.324139605255438 
1249	 0.324381423640344 
1250	 0.324623025959242 
1251	 0.324883588609574 
1252	 0.325162965759067 
1253	 0.325439279280973 
1254	 0.32572300212611 
1255	 0.326015962349613 
1256	 0.326324321550508 
1257	 0.32662118313197 
1258	 0.326929816904406 
1259	 0.327222045034712 
1260	 0.32748095142047 
1261	 0.327763025853115 
1262	 0.328046774285087 
1263	 0.328357722085981 
1264	 0.328632808058024 
1265	 0.328913618220227 
1266	 0.329175015334969 
1267	 0.329409819078685 
1268	 0.329643678953864 
1269	 0.329874297604449 
1270	 0.330098255191935 
1271	 0.330319273268661 
1272	 0.330510041724164 
1273	 0.330688710192207 
1274	 0.330856044832702 
1275	 0.330986773631269 
1276	 0.331125068522843 
1277	 0.331264577126549 
1278	 0.331398229462102 
1279	 0.331522361401438 
1280	 0.331643374050339 
1281	 0.331769595323565 
1282	 0.331878405724758 
1283	 0.331962402829659 
1284	 0.332057084805372 
1285	 0.332151211895169 
1286	 0.332243533923241 
1287	 0.332321227770339 
1288	 0.332406435388648 
1289	 0.332463864468979 
1290	 0.332489509605436 
1291	 0.332533595759758 
1292	 0.332573204820838 
1293	 0.332616220725885 
1294	 0.332659120500351 
1295	 0.332708602329363 
1296	 0.332747792127242 
1297	 0.332815621953384 
1298	 0.332905291569061 
1299	 0.3329913922242 
1300	 0.33311974574173 
1301	 0.333195282794168 
1302	 0.333220390140264 
1303	 0.33328455092067 
1304	 0.333323298805495 
1305	 0.333398009777735 
1306	 0.333521239372329 
1307	 0.333639649655403 
1308	 0.333762298289367 
1309	 0.333902368029715 
1310	 0.33402741924794 
1311	 0.334151486142479 
1312	 0.334285476330621 
1313	 0.334416287191808 
1314	 0.334553770424666 
1315	 0.334707016768246 
1316	 0.334847543535891 
1317	 0.334964920900385 
1318	 0.335126581822919 
1319	 0.335313062978089 
1320	 0.335486199972522 
1321	 0.335677950715904 
1322	 0.335864335724449 
1323	 0.336035293762652 
1324	 0.336217861668611 
1325	 0.336409764419306 
1326	 0.336608391592974 
1327	 0.336807788195732 
1328	 0.337013628427188 
1329	 0.337233486755356 
1330	 0.337451797230272 
1331	 0.337664892103306 
1332	 0.337888079861098 
1333	 0.338117916412081 
1334	 0.338357564882268 
1335	 0.338584672017225 
1336	 0.338814275884444 
1337	 0.339038390196977 
1338	 0.339250510020376 
1339	 0.339475453560539 
1340	 0.339714118564965 
1341	 0.3399287521167 
1342	 0.340136707001153 
1343	 0.34034285101692 
1344	 0.340534754892481 
1345	 0.340729707570812 
1346	 0.340952189664529 
1347	 0.341115967693765 
1348	 0.341251965432786 
1349	 0.341375357595684 
1350	 0.341454142199247 
1351	 0.341546207166272 
1352	 0.341635047027114 
1353	 0.341722426125547 
1354	 0.341802997262095 
1355	 0.341885047882427 
1356	 0.341975135526829 
1357	 0.342050847743916 
1358	 0.342111079863874 
1359	 0.342180370607683 
1360	 0.342232746496291 
1361	 0.34231023519377 
1362	 0.342396905219534 
1363	 0.342481201975113 
1364	 0.342576287098074 
1365	 0.342686235214311 
1366	 0.342772158414821 
1367	 0.342863215648704 
1368	 0.342929922623829 
1369	 0.34297653749931 
1370	 0.343019317030742 
1371	 0.343046597751953 
1372	 0.343079410769425 
1373	 0.343122129596277 
1374	 0.343126330721393 
1375	 0.34313814337047 
1376	 0.343090600544394 
1377	 0.342997027023848 
1378	 0.342882083730915 
1379	 0.342710453398118 
1380	 0.342560699125517 
1381	 0.34238954496482 
1382	 0.342232296237826 
1383	 0.342064705429172 
1384	 0.341929739410409 
1385	 0.341812260757041 
1386	 0.341703988081269 
1387	 0.341633893043603 
1388	 0.341555117958497 
1389	 0.341464922997366 
1390	 0.341392241358127 
1391	 0.341321419267002 
1392	 0.341264954346977 
1393	 0.341237375564224 
1394	 0.341238420513432 
1395	 0.341255880433118 
1396	 0.341321282602363 
1397	 0.341329964903681 
1398	 0.341352101011395 
1399	 0.341312987740445 
1400	 0.341242510384375 
1401	 0.341123698263985 
1402	 0.340967837989693 
1403	 0.340775041021676 
1404	 0.340535217588641 
1405	 0.340268653103099 
1406	 0.33995374967007 
1407	 0.339646757082276 
1408	 0.339309291921227 
1409	 0.338974286639506 
1410	 0.338636867512702 
1411	 0.338293910634929 
1412	 0.337922191534336 
1413	 0.337587083031014 
1414	 0.337247115525625 
1415	 0.336952300655892 
1416	 0.336699901427 
1417	 0.336442396921824 
1418	 0.33621778818261 
1419	 0.335987065487118 
1420	 0.335751362232118 
1421	 0.335526103829952 
1422	 0.335309923991703 
1423	 0.335095108169803 
1424	 0.334882516957181 
1425	 0.334668983069719 
1426	 0.334490852140704 
1427	 0.334328201258427 
1428	 0.334168306062878 
1429	 0.334026903788569 
1430	 0.333868899274055 
1431	 0.333694456168654 
1432	 0.333541349276257 
1433	 0.333399558465177 
1434	 0.33324978258704 
1435	 0.333103104846976 
1436	 0.332956537177375 
1437	 0.332797704451506 
1438	 0.332667412073507 
1439	 0.332552435287044 
1440	 0.332436459917168 
1441	 0.332328994403139 
1442	 0.332233255587378 
1443	 0.332118070923319 
1444	 0.332070104742041 
1445	 0.332039945097536 
1446	 0.332070475995939 
1447	 0.332141533657922 
1448	 0.332274481710412 
1449	 0.332458359734545 
1450	 0.33270467937653 
1451	 0.333027702788478 
1452	 0.333377729926751 
1453	 0.333789240344836 
1454	 0.334214372993772 
1455	 0.334678319788158 
1456	 0.33515294375575 
1457	 0.33566335303008 
1458	 0.336171855690379 
1459	 0.336699895047492 
1460	 0.337221364124966 
1461	 0.337746016369403 
1462	 0.338263523866605 
1463	 0.338782709853154 
1464	 0.339292927850074 
1465	 0.339776455131249 
1466	 0.34029878430274 
1467	 0.340801299511092 
1468	 0.341284194595376 
1469	 0.341774422743188 
1470	 0.342221989681508 
1471	 0.342684350611227 
1472	 0.343134409627795 
1473	 0.343584336553341 
1474	 0.344037784573317 
1475	 0.344485998520076 
1476	 0.344928584606041 
1477	 0.345360013230741 
1478	 0.345798346640005 
1479	 0.346195143057224 
1480	 0.346559512788361 
1481	 0.346933503619115 
1482	 0.347294185359609 
1483	 0.347645245530935 
1484	 0.348000802408183 
1485	 0.348329632304589 
1486	 0.348624515478292 
1487	 0.348933734518154 
1488	 0.349238192664044 
1489	 0.349540635972118 
1490	 0.34982714147858 
1491	 0.35014775403263 
1492	 0.350464081242801 
1493	 0.350818346490149 
1494	 0.351225169796817 
1495	 0.351609690390694 
1496	 0.351999299676881 
1497	 0.352398041157794 
1498	 0.352802268132094 
1499	 0.353202916270389 
1500	 0.353621220260046 
1501	 0.354022781327142 
1502	 0.354402595730138 
1503	 0.354793906101861 
1504	 0.355211320746586 
1505	 0.355582158887835 
1506	 0.355931518619961 
1507	 0.356275949012386 
1508	 0.356584532008181 
1509	 0.356894879583171 
1510	 0.357205901103343 
1511	 0.357513655935199 
1512	 0.357831892045415 
1513	 0.358108550955654 
1514	 0.358357754264053 
1515	 0.358609423288216 
1516	 0.358824435137253 
1517	 0.359045558713511 
1518	 0.359285863250145 
1519	 0.359507404976476 
1520	 0.359709748263985 
1521	 0.359909228558858 
1522	 0.360103764730212 
1523	 0.360304383990929 
1524	 0.360482997281566 
1525	 0.360663199247731 
1526	 0.360800146387158 
1527	 0.360905642507278 
1528	 0.361015588693324 
1529	 0.361099205123958 
1530	 0.361196940924647 
1531	 0.361292440256283 
1532	 0.36140126685287 
1533	 0.361507556626866 
1534	 0.361632147193291 
1535	 0.361786498673003 
1536	 0.361903486097605 
1537	 0.362007049531623 
1538	 0.362126203045598 
1539	 0.362225529300297 
1540	 0.362358989910483 
1541	 0.362511887502594 
1542	 0.362683940381529 
1543	 0.362874118838861 
1544	 0.363068770590662 
1545	 0.363288379975569 
1546	 0.363501370533019 
1547	 0.363707647938173 
1548	 0.36393655930913 
1549	 0.364178307570808 
1550	 0.364430023090961 
1551	 0.364710326299304 
1552	 0.364961168554067 
1553	 0.365206356870452 
1554	 0.365453036997204 
1555	 0.365683995744972 
1556	 0.365924108141719 
1557	 0.366182460492059 
1558	 0.366416628856586 
1559	 0.366636337067614 
1560	 0.366857162497436 
1561	 0.367062117267017 
1562	 0.367281336998548 
1563	 0.367497923569782 
1564	 0.367732261331289 
1565	 0.367990296546551 
1566	 0.368228202665694 
1567	 0.368469601944069 
1568	 0.368705143842239 
1569	 0.36892299606931 
1570	 0.369150602681636 
1571	 0.36937749545523 
1572	 0.369617542730943 
1573	 0.369866871333508 
1574	 0.370112556471343 
1575	 0.37036517312763 
1576	 0.370621420110157 
1577	 0.370882266340291 
1578	 0.371132217962462 
1579	 0.371367940356676 
1580	 0.371633876222233 
1581	 0.371916520289369 
1582	 0.372181138845464 
1583	 0.372468892912915 
1584	 0.372736077982414 
1585	 0.372958755683104 
1586	 0.373212415929615 
1587	 0.373476506206407 
1588	 0.373751796182745 
1589	 0.374046641704632 
1590	 0.37433442027516 
1591	 0.374642085287894 
1592	 0.374923471523371 
1593	 0.37518858761296 
1594	 0.375452235991923 
1595	 0.375690900650156 
1596	 0.375948253065335 
1597	 0.376215952360599 
1598	 0.376477240336737 
1599	 0.3767515988761 
1600	 0.377009814805443 
1601	 0.377247241440973 
1602	 0.377499668031354 
1603	 0.377745652279299 
1604	 0.378005274477523 
1605	 0.378297855637468 
1606	 0.378556542985285 
1607	 0.378797141381657 
1608	 0.379046447354246 
1609	 0.379288653777535 
1610	 0.379521596465939 
1611	 0.379763230482117 
1612	 0.379986575210066 
1613	 0.380183800775008 
1614	 0.380383779998278 
1615	 0.380588628365714 
1616	 0.380777320815981 
1617	 0.380949541378402 
1618	 0.381121142225671 
1619	 0.381294298100409 
1620	 0.381442857890901 
1621	 0.381564064332053 
1622	 0.381703877533215 
1623	 0.381844114141782 
1624	 0.381967345185268 
1625	 0.382108732593857 
1626	 0.382220254395285 
1627	 0.382273520995599 
1628	 0.382362698878267 
1629	 0.382463796604628 
1630	 0.382564795484816 
1631	 0.382682476161825 
1632	 0.382795723499398 
1633	 0.382894576593186 
1634	 0.383008333933459 
1635	 0.383154676900207 
1636	 0.383263506263941 
1637	 0.383357020817534 
1638	 0.383451757437362 
1639	 0.383523955054174 
1640	 0.383596290575585 
1641	 0.383665671710593 
1642	 0.383747354804118 
1643	 0.383832536584425 
1644	 0.383905559457537 
1645	 0.383994834935831 
1646	 0.384059031692423 
1647	 0.38411616600326 
1648	 0.384134153373253 
1649	 0.384122216017655 
1650	 0.384107520595843 
1651	 0.384063674213719 
1652	 0.384008624407636 
1653	 0.383945533550497 
1654	 0.38386687803402 
1655	 0.383775383217896 
1656	 0.383651607978216 
1657	 0.383506766306262 
1658	 0.383359195959653 
1659	 0.383200281520561 
1660	 0.383002347818248 
1661	 0.382811446614133 
1662	 0.382550535991458 
1663	 0.382227708060651 
1664	 0.381863353429995 
1665	 0.381467430411633 
1666	 0.38099477559676 
1667	 0.380465245025396 
1668	 0.37988383379181 
1669	 0.379222957704806 
1670	 0.378534989395134 
1671	 0.377808803246939 
1672	 0.377017793444257 
1673	 0.376179106160581 
1674	 0.375278584611529 
1675	 0.37431658228649 
1676	 0.373310421143425 
1677	 0.372249525531919 
1678	 0.371149097361662 
1679	 0.36999220694511 
1680	 0.368791144679669 
1681	 0.367554964262884 
1682	 0.366239733426539 
1683	 0.364892957656629 
1684	 0.363450045470922 
1685	 0.361907263090343 
1686	 0.360331817052026 
1687	 0.358656429982046 
1688	 0.356962390366366 
1689	 0.355245385429308 
1690	 0.35345234506115 
1691	 0.351592925237962 
1692	 0.349757762592767 
1693	 0.347888816141081 
1694	 0.346002153425231 
1695	 0.344109011507798 
1696	 0.342156624888436 
1697	 0.340157557301128 
1698	 0.338106187243293 
1699	 0.336010569159761 
1700	 0.333966743074542 
1701	 0.331874462681355 
1702	 0.329837626211772 
1703	 0.327786303703385 
1704	 0.325888410972518 
1705	 0.324011411353419 
1706	 0.322291790500157 
1707	 0.320817283797332 
1708	 0.319370397678287 
1709	 0.318048314806936 
1710	 0.316881991564351 
1711	 0.315697821578174 
1712	 0.314652322140141 
1713	 0.31368309622489 
1714	 0.312730594502044 
1715	 0.311895385195234 
1716	 0.311068118443168 
1717	 0.310262118792811 
1718	 0.309497442199073 
1719	 0.308729804783054 
1720	 0.308037752360643 
1721	 0.307454494512004 
1722	 0.306957707206586 
1723	 0.306584420405192 
1724	 0.306293591812716 
1725	 0.30609840506844 
1726	 0.306092330317916 
1727	 0.306244370837587 
1728	 0.306551209083831 
1729	 0.307086358666629 
1730	 0.307784420118221 
1731	 0.308611574303795 
1732	 0.309645774780513 
1733	 0.310692622341454 
1734	 0.311799740008965 
1735	 0.312997620651102 
1736	 0.31410295169482 
1737	 0.31518662082105 
1738	 0.316212578506912 
1739	 0.31700604886295 
1740	 0.317670291966635 
1741	 0.318170515222218 
1742	 0.318425743879731 
1743	 0.31864995940112 
1744	 0.318740459616451 
1745	 0.318791987141545 
1746	 0.318748770972802 
1747	 0.318700678096067 
1748	 0.318579012577665 
1749	 0.31850528098177 
1750	 0.31841121054306 
1751	 0.318348943311651 
1752	 0.318268826495544 
1753	 0.318313263336939 
1754	 0.318403545213803 
1755	 0.318592755410657 
1756	 0.318869687199031 
1757	 0.319265669192598 
1758	 0.319767517107601 
1759	 0.320323457257037 
1760	 0.32102281301098 
1761	 0.321856032608739 
1762	 0.322747774153176 
1763	 0.323831244710568 
1764	 0.325007925317461 
1765	 0.326243874880671 
1766	 0.327654987723666 
1767	 0.32907823519859 
1768	 0.330565162801531 
1769	 0.33208039362163 
1770	 0.333437365075474 
1771	 0.334823343618398 
1772	 0.336138240761549 
1773	 0.337342535240665 
1774	 0.338606006402469 
1775	 0.339720800501533 
1776	 0.340796889733857 
1777	 0.341844266171823 
1778	 0.342700474847448 
1779	 0.343567658428227 
1780	 0.344386579103869 
1781	 0.345110852896209 
1782	 0.3458648664988 
1783	 0.346514020476985 
1784	 0.347109875869775 
1785	 0.347649120261151 
1786	 0.348150513922359 
1787	 0.348629282827612 
1788	 0.349041904467662 
1789	 0.349425251530381 
1790	 0.34975723337287 
1791	 0.349993016869005 
1792	 0.350282356821201 
1793	 0.350522765943092 
1794	 0.350782835290099 
1795	 0.351085171632084 
1796	 0.351419710665227 
1797	 0.351750725821997 
1798	 0.352064432727824 
1799	 0.352414721836969 
1800	 0.352690469667662 
1801	 0.364124334486152 
1802	 0.364668637873665 
1803	 0.365124152559198 
1804	 0.365543267870968 
1805	 0.366013621692696 
1806	 0.366420677700972 
1807	 0.366776895414957 
1808	 0.367140997813508 
1809	 0.367517868997374 
1810	 0.367837919070537 
1811	 0.368107501512138 
1812	 0.368393394419346 
1813	 0.368632399459901 
1814	 0.368913788697731 
1815	 0.369204393941444 
1816	 0.369473844130533 
1817	 0.369778470880429 
1818	 0.370098220012616 
1819	 0.370412055032675 
1820	 0.370715098152538 
1821	 0.371075904179084 
1822	 0.371474611308729 
1823	 0.371857396841643 
1824	 0.372245846417573 
1825	 0.372675577104601 
1826	 0.373067565862333 
1827	 0.373437518922083 
1828	 0.373779419528922 
1829	 0.374119446096129 
1830	 0.374432738240771 
1831	 0.37468102172885 
1832	 0.374976448225146 
1833	 0.375291245303965 
1834	 0.375566941544444 
1835	 0.375877726174937 
1836	 0.376184223690641 
1837	 0.376524130593222 
1838	 0.376891070073502 
1839	 0.377270122789278 
1840	 0.377681653234978 
1841	 0.37807872693433 
1842	 0.378489855315365 
1843	 0.378884155502667 
1844	 0.379236084593322 
1845	 0.379586835159841 
1846	 0.379957966200937 
1847	 0.380273497307893 
1848	 0.380604095749477 
1849	 0.38099205677415 
1850	 0.381300863528682 
1851	 0.381545880523972 
1852	 0.381815098373529 
1853	 0.38210857913915 
1854	 0.382309097699289 
1855	 0.382532491462476 
1856	 0.38275270407215 
1857	 0.382889213101085 
1858	 0.383017488614005 
1859	 0.383089746717677 
1860	 0.38310043868962 
1861	 0.383094681615677 
1862	 0.383077103204959 
1863	 0.382988846079595 
1864	 0.382824217873792 
1865	 0.382638470615182 
1866	 0.382329138805726 
1867	 0.381944785398101 
1868	 0.381539263509748 
1869	 0.381093948866927 
1870	 0.380646477470995 
1871	 0.380142276799863 
1872	 0.379712885442703 
1873	 0.379316074007135 
1874	 0.378905961105183 
1875	 0.378549081785206 
1876	 0.37811373949508 
1877	 0.377586860434109 
1878	 0.37699548323973 
1879	 0.37632405484048 
1880	 0.375604659372729 
1881	 0.374789920137697 
1882	 0.373902706281762 
1883	 0.37295233507588 
1884	 0.371851100010885 
1885	 0.370582226281715 
1886	 0.369231911121482 
1887	 0.367734785912528 
1888	 0.36612461693036 
1889	 0.364574635263436 
1890	 0.362944129533771 
1891	 0.361275979281111 
1892	 0.359583481270627 
1893	 0.357777853635736 
1894	 0.355838839884489 
1895	 0.353933189899627 
1896	 0.351960194705668 
1897	 0.349917598358121 
1898	 0.348034095463334 
1899	 0.346082528063862 
1900	 0.344207498929042 
1901	 0.342488784956268 
1902	 0.340668655905337 
1903	 0.33898200514642 
1904	 0.337377661838747 
1905	 0.33582438339044 
1906	 0.33430935734767 
1907	 0.333011665674205 
1908	 0.331764520244662 
1909	 0.330580086596181 
1910	 0.329435150467508 
1911	 0.328260158482874 
1912	 0.327162184051563 
1913	 0.32607711309361 
1914	 0.325087160977255 
1915	 0.324183329197924 
1916	 0.323407919632132 
1917	 0.322604021654267 
1918	 0.321864418318574 
1919	 0.321190118835094 
1920	 0.320499866172159 
1921	 0.319874206705138 
1922	 0.319289037522687 
1923	 0.318700260094538 
1924	 0.318174284375148 
1925	 0.317708671115542 
1926	 0.317266860219477 
1927	 0.316876685199323 
1928	 0.316493013804228 
1929	 0.316134856643666 
1930	 0.315788320616516 
1931	 0.315466582300671 
1932	 0.315192609245018 
1933	 0.314957163432069 
1934	 0.314776552127791 
1935	 0.314648879116448 
1936	 0.314578342628867 
1937	 0.314564417461989 
1938	 0.314613011779001 
1939	 0.314698891294924 
1940	 0.314832999584039 
1941	 0.315025775300535 
1942	 0.315269000920573 
1943	 0.315549681743318 
1944	 0.315838536913514 
1945	 0.316145938083658 
1946	 0.316462583141208 
1947	 0.316771180614619 
1948	 0.317155935487842 
1949	 0.317587797248626 
1950	 0.318035476025157 
1951	 0.31852946394912 
1952	 0.319032656572181 
1953	 0.319550525518967 
1954	 0.320090866806557 
1955	 0.320675808921372 
1956	 0.321263378070566 
1957	 0.32187674682231 
1958	 0.322508331549495 
1959	 0.323113669761228 
1960	 0.323702135380794 
1961	 0.324242405972594 
1962	 0.32475668596433 
1963	 0.325232612981799 
1964	 0.325644655602189 
1965	 0.326053284350585 
1966	 0.326446653837661 
1967	 0.326812033495847 
1968	 0.327141435591344 
1969	 0.327521466640405 
1970	 0.327872879663262 
1971	 0.328201302920825 
1972	 0.328542168373278 
1973	 0.328839685674162 
1974	 0.329186165450704 
1975	 0.329570149100408 
1976	 0.329929445695846 
1977	 0.330318082396193 
1978	 0.330675505339084 
1979	 0.331008182927637 
1980	 0.331315769467083 
1981	 0.331651443775515 
1982	 0.331971123079783 
1983	 0.332313925511906 
1984	 0.33266561146071 
1985	 0.332975942172477 
1986	 0.33330912784392 
1987	 0.333632731661024 
1988	 0.333922076687753 
1989	 0.33425397429214 
1990	 0.334614880999794 
1991	 0.334961206713818 
1992	 0.335300351663537 
1993	 0.335685408341964 
1994	 0.336064411800054 
1995	 0.33645894770089 
1996	 0.336908412196172 
1997	 0.337374082728028 
1998	 0.337811259499232 
1999	 0.33827011122182 
2000	 0.338668991603869 
2001	 0.339029073920704 
2002	 0.339381536492446 
2003	 0.339728193558695 
2004	 0.340014835824923 
2005	 0.340286010691953 
2006	 0.340507729364863 
2007	 0.340669452261691 
2008	 0.34077585100966 
2009	 0.340901170966115 
2010	 0.340994865925797 
2011	 0.341035244413909 
2012	 0.34106610150435 
2013	 0.34108081572483 
2014	 0.341071771710546 
2015	 0.341025333226388 
2016	 0.340965071719168 
2017	 0.340881208084258 
2018	 0.340747423210107 
2019	 0.340602951905386 
2020	 0.340455800795244 
2021	 0.34026455419137 
2022	 0.340053901404025 
2023	 0.339840117644241 
2024	 0.339624186867218 
2025	 0.339416362104626 
2026	 0.339141337399715 
2027	 0.338816362575373 
2028	 0.33850761426663 
2029	 0.338147605545654 
2030	 0.337813069541016 
2031	 0.337489698435836 
2032	 0.337175347442749 
2033	 0.336865693362487 
2034	 0.336547863221636 
2035	 0.336228340532395 
2036	 0.335938938512079 
2037	 0.335607450011601 
2038	 0.335312784185679 
2039	 0.335016473701032 
2040	 0.334726749825366 
2041	 0.334436739199143 
2042	 0.33414984315483 
2043	 0.333873183355242 
2044	 0.333590133385252 
2045	 0.333352928033403 
2046	 0.333148538872752 
2047	 0.332933964986687 
2048	 0.332724037414974 
2049	 0.332552015404327 
2050	 0.332399944208935 
2051	 0.332257501193685 
2052	 0.332150642738874 
2053	 0.332001363157265 
2054	 0.331863952252303 
2055	 0.331704550258227 
2056	 0.331568069632865 
2057	 0.331448868384995 
2058	 0.331331760413301 
2059	 0.331223933983615 
2060	 0.331096204941557 
2061	 0.3309715687767 
2062	 0.330837050474431 
2063	 0.330685830245825 
2064	 0.330531858614692 
2065	 0.330368592364993 
2066	 0.330213588891637 
2067	 0.330065751585995 
2068	 0.329905204635629 
2069	 0.329735210362296 
2070	 0.329569951678349 
2071	 0.329389032069006 
2072	 0.32918726338785 
2073	 0.328988465019128 
2074	 0.328798346626036 
2075	 0.328580161447205 
2076	 0.328330688314385 
2077	 0.328096856083086 
2078	 0.327846772071675 
2079	 0.327615090978561 
2080	 0.327405339911092 
2081	 0.327185844324421 
2082	 0.326986577894855 
2083	 0.326755501288386 
2084	 0.326492253788636 
2085	 0.326242493070238 
2086	 0.325960432981244 
2087	 0.325645400307106 
2088	 0.325325563826201 
2089	 0.3249881394488 
2090	 0.324650731702761 
2091	 0.32430272215201 
2092	 0.323953520535632 
2093	 0.323616571316317 
2094	 0.323241889764554 
2095	 0.322836871404323 
2096	 0.322433790825743 
2097	 0.322007122774722 
2098	 0.321590699546732 
2099	 0.321167003210424 
2100	 0.320714936133633 
2101	 0.320255056125828 
2102	 0.31977328324169 
2103	 0.319289933894707 
2104	 0.318801064677247 
2105	 0.318294677877313 
2106	 0.317783489756653 
2107	 0.317237632618089 
2108	 0.316680967438793 
2109	 0.31608722028467 
2110	 0.315444058853141 
2111	 0.314807772130825 
2112	 0.314128135595771 
2113	 0.313470493781275 
2114	 0.312811439230162 
2115	 0.312168126762191 
2116	 0.311535815033171 
2117	 0.310937751261742 
2118	 0.310284232750953 
2119	 0.30962372839631 
2120	 0.308948279513634 
2121	 0.308198431127757 
2122	 0.307556391466716 
2123	 0.306948446898638 
2124	 0.306358132722601 
2125	 0.305831514202997 
2126	 0.305291099308958 
2127	 0.304735370204614 
2128	 0.304239420274227 
2129	 0.30375683717469 
2130	 0.303330782127827 
2131	 0.30294077611288 
2132	 0.302613832035997 
2133	 0.302378604462789 
2134	 0.302138600200709 
2135	 0.301922970283254 
2136	 0.301707924687884 
2137	 0.301480912804014 
2138	 0.301204836378655 
2139	 0.30102216196655 
2140	 0.300889559363823 
2141	 0.300742988530771 
2142	 0.300621825067297 
2143	 0.300525011346099 
2144	 0.300417767495636 
2145	 0.300362713698125 
2146	 0.300359981193043 
2147	 0.30037291073561 
2148	 0.300406036170405 
2149	 0.300468000654636 
2150	 0.300562781842023 
2151	 0.300683498992562 
2152	 0.300825226556458 
2153	 0.301002033451711 
2154	 0.301229718805685 
2155	 0.301456912168915 
2156	 0.301682974944709 
2157	 0.30193776014218 
2158	 0.302166194069184 
2159	 0.302382336087301 
2160	 0.30259812409819 
2161	 0.302810049115835 
2162	 0.303010471667576 
2163	 0.303181202919539 
2164	 0.303393777488964 
2165	 0.303650695518693 
2166	 0.303850785543992 
2167	 0.304044590742144 
2168	 0.304234431416346 
2169	 0.304334705051263 
2170	 0.304520491210421 
2171	 0.304772443203081 
2172	 0.305014978292052 
2173	 0.305267524076436 
2174	 0.305573129746628 
2175	 0.305873270977752 
2176	 0.306111961038484 
2177	 0.306352889930906 
2178	 0.306563347317452 
2179	 0.306832308883958 
2180	 0.307117040916526 
2181	 0.307378682224798 
2182	 0.307685614741445 
2183	 0.307942149360552 
2184	 0.308124301779737 
2185	 0.308366137796249 
2186	 0.308649563084165 
2187	 0.308889092325811 
2188	 0.309133904756313 
2189	 0.309357446708098 
2190	 0.309554791823291 
2191	 0.309738611442873 
2192	 0.309886313854431 
2193	 0.310061252754085 
2194	 0.310254444774704 
2195	 0.310410504767347 
2196	 0.310591806860461 
2197	 0.310728868841705 
2198	 0.310777287919902 
2199	 0.310802260885686 
2200	 0.310813824480428 
2201	 0.310779013497309 
2202	 0.310765708648407 
2203	 0.310753112080185 
2204	 0.310714987097768 
2205	 0.310669184862577 
2206	 0.310594039620463 
2207	 0.31048860834542 
2208	 0.310383822077562 
2209	 0.31027847065653 
2210	 0.310131027405765 
2211	 0.30998674824362 
2212	 0.309779361286349 
2213	 0.309487890623826 
2214	 0.309219854842368 
2215	 0.308918265367231 
2216	 0.308620098953339 
2217	 0.308346096263384 
2218	 0.308036192321835 
2219	 0.307718349117034 
2220	 0.307371915858227 
2221	 0.306989434809201 
2222	 0.30657666887799 
2223	 0.306243399563531 
2224	 0.305814447769515 
2225	 0.305405723429976 
2226	 0.305012058449003 
2227	 0.304472581348395 
2228	 0.303843458659549 
2229	 0.303168968513794 
2230	 0.302398732622741 
2231	 0.301603576175641 
2232	 0.300793459928991 
2233	 0.299852690384918 
2234	 0.298845978658954 
2235	 0.297711312162955 
2236	 0.296465893475184 
2237	 0.295130157406954 
2238	 0.29365709550792 
2239	 0.292136555018516 
2240	 0.290516278634079 
2241	 0.288833680175714 
2242	 0.287164714727221 
2243	 0.285282935176862 
2244	 0.283227531322439 
2245	 0.281132417161225 
2246	 0.27879269638708 
2247	 0.27653627687238 
2248	 0.274299277851273 
2249	 0.272009238110048 
2250	 0.269737413875096 
2251	 0.267392301880239 
2252	 0.264828130120565 
2253	 0.262405451785516 
2254	 0.259986325857352 
2255	 0.257515294444356 
2256	 0.255266382973141 
2257	 0.252979537323367 
2258	 0.250758922917218 
2259	 0.248607373304641 
2260	 0.24640549075464 
2261	 0.244202865428243 
2262	 0.242092996637494 
2263	 0.239911682156799 
2264	 0.237924848101402 
2265	 0.236141698249916 
2266	 0.23428464689941 
2267	 0.232493313928373 
2268	 0.23070589106275 
2269	 0.228912907206612 
2270	 0.227187169618053 
2271	 0.225502174910206 
2272	 0.223848018683557 
2273	 0.22228127443237 
2274	 0.220645516684008 
2275	 0.219027359110969 
2276	 0.217383770994667 
2277	 0.215697062593098 
2278	 0.214015192192221 
2279	 0.212332315401176 
2280	 0.210616417639841 
2281	 0.208858758595366 
2282	 0.20710417941004 
2283	 0.205351587401004 
2284	 0.203583770673279 
2285	 0.201679848605203 
2286	 0.199849708795055 
2287	 0.197939620987731 
2288	 0.195940223387004 
2289	 0.194071927747483 
2290	 0.192044469108677 
2291	 0.189994126234851 
2292	 0.188042579933079 
2293	 0.185950698639286 
2294	 0.183987561383995 
2295	 0.182089123600064 
2296	 0.180189870388365 
2297	 0.178601228781691 
2298	 0.177200035635744 
2299	 0.176003992774343 
2300	 0.175050392259157 
2301	 0.174272934789699 
2302	 0.173644992738362 
2303	 0.17337687485593 
2304	 0.173408745301703 
2305	 0.17361969602963 
2306	 0.174174239214445 
2307	 0.174808832752016 
2308	 0.175564508202488 
2309	 0.176621128796929 
2310	 0.177930376305373 
2311	 0.179402754752273 
2312	 0.181287877818085 
2313	 0.182980919153989 
2314	 0.184803161670267 
2315	 0.186529761045872 
2316	 0.188180061997432 
2317	 0.189801994665968 
2318	 0.191489887777434 
2319	 0.192929683883345 
2320	 0.194317819450488 
2321	 0.195443359354118 
2322	 0.196325068743821 
2323	 0.19705249264895 
2324	 0.197539768811806 
2325	 0.197926148581087 
2326	 0.198187399050219 
2327	 0.198263820322367 
2328	 0.198147301761905 
2329	 0.197917762147723 
2330	 0.197494020997948 
2331	 0.196936854852119 
2332	 0.196408970872259 
2333	 0.195662640812043 
2334	 0.194701099345388 
2335	 0.193735035674217 
2336	 0.192559212056932 
2337	 0.191354249092004 
2338	 0.190252413330506 
2339	 0.189013669168908 
2340	 0.187814376028988 
2341	 0.186615521232087 
2342	 0.185343005389173 
2343	 0.184308909920444 
2344	 0.183469054688116 
2345	 0.18278011884326 
2346	 0.182393134164804 
2347	 0.182247608103012 
2348	 0.182371942473575 
2349	 0.182886701212502 
2350	 0.183725317858238 
2351	 0.184806430063001 
2352	 0.185987266783149 
2353	 0.187319811576114 
2354	 0.188639608847633 
2355	 0.189876820464578 
2356	 0.191018971289825 
2357	 0.191990998923374 
2358	 0.192901614540839 
2359	 0.193676473667365 
2360	 0.194417352051144 
2361	 0.194987367683681 
2362	 0.195308728580952 
2363	 0.195529371138955 
2364	 0.195504457428369 
2365	 0.195329979020749 
2366	 0.195205570852084 
2367	 0.195097564818665 
2368	 0.195090554856796 
2369	 0.195173474559548 
2370	 0.195195488332499 
2371	 0.195168263959552 
2372	 0.195166851898483 
2373	 0.1952058803925 
2374	 0.195217420669627 
2375	 0.195291724092791 
2376	 0.195542496839859 
2377	 0.195639318489613 
2378	 0.195659461034256 
2379	 0.195878827601383 
2380	 0.195998428813296 
2381	 0.196146629089509 
2382	 0.19623085504681 
2383	 0.196316577274913 
2384	 0.196376748935387 
2385	 0.196316773148848 
2386	 0.196412208227902 
2387	 0.196649552987803 
2388	 0.196821901828532 
2389	 0.196981774071631 
2390	 0.197151125244862 
2391	 0.197365747823668 
2392	 0.197503017139123 
2393	 0.19762911749442 
2394	 0.197710709413883 
2395	 0.197685189376966 
2396	 0.197786272097974 
2397	 0.197890904151139 
2398	 0.198061752105184 
2399	 0.198330304644496 
2400	 0.198515744791209 
2401	 0.198747370891285 
2402	 0.198933712372131 
2403	 0.199104429274655 
2404	 0.199391501669729 
2405	 0.199496585880366 
2406	 0.199517073615942 
2407	 0.199606477524364 
2408	 0.199759297862319 
2409	 0.199903327237654 
2410	 0.200053784174236 
2411	 0.200279347725346 
2412	 0.200376411721216 
2413	 0.200379449976968 
2414	 0.200451759627892 
2415	 0.200422148671175 
2416	 0.200419800228 
2417	 0.200456339442155 
2418	 0.200362162797554 
2419	 0.200424673979422 
2420	 0.200491356276652 
2421	 0.200522723613454 
2422	 0.200716783491731 
2423	 0.200909116339075 
2424	 0.200960305396054 
2425	 0.200905146799233 
2426	 0.20103073735194 
2427	 0.201287133664337 
2428	 0.20135417581147 
2429	 0.201491341781646 
2430	 0.201589300212975 
2431	 0.201303104454833 
2432	 0.201093358189969 
2433	 0.200985404002856 
2434	 0.200897776421001 
2435	 0.200932134903522 
2436	 0.201092795917399 
2437	 0.201217717061256 
2438	 0.201018056047528 
2439	 0.200986192669153 
2440	 0.201016964106921 
2441	 0.200817710906585 
2442	 0.200888291009152 
2443	 0.20074713207539 
2444	 0.200186986859998 
2445	 0.199973814512263 
2446	 0.199905293890448 
2447	 0.199873154115783 
2448	 0.200171761588868 
2449	 0.200111094167794 
2450	 0.199597504207346 
2451	 0.199489369794759 
2452	 0.199249757065341 
2453	 0.198851509758597 
2454	 0.199163291299254 
2455	 0.198979380396662 
2456	 0.198314986528878 
2457	 0.198255393827285 
2458	 0.197949180433868 
2459	 0.19728157477456 
2460	 0.196932382181654 
2461	 0.196665519957568 
2462	 0.196336638610555 
2463	 0.196352917700613 
2464	 0.196732417834978 
2465	 0.196888247818263 
2466	 0.19688895819112 
2467	 0.197086125794185 
2468	 0.197048419868377 
2469	 0.197034434574473 
2470	 0.197113938386449 
2471	 0.196900032451191 
2472	 0.196548212023036 
2473	 0.196251458094972 
2474	 0.196187696045571 
2475	 0.19640225464782 
2476	 0.196877327151573 
2477	 0.197106149120244 
2478	 0.197074845106423 
2479	 0.197351432078601 
2480	 0.19766425395761 
2481	 0.197888140927468 
2482	 0.198289969741991 
2483	 0.198315596049353 
2484	 0.198461792522795 
2485	 0.198899242952364 
2486	 0.199124143496725 
2487	 0.198915740414841 
2488	 0.199121839968628 
2489	 0.199361829018882 
2490	 0.199510679148605 
2491	 0.200181958517713 
2492	 0.200516553405152 
2493	 0.20020339612726 
2494	 0.200639660227563 
2495	 0.201635613835253 
2496	 0.202489423721148 
2497	 0.203979856356595 
2498	 0.205269798235266 
2499	 0.205462912851982 
2500	 0.205748032697197 
