Wavelength	Tablay400056.asd
350	 0.206165793486167 
351	 0.218360128517049 
352	 0.199728115044633 
353	 0.152669416787345 
354	 0.224110257630473 
355	 0.189177686641546 
356	 0.109933699186565 
357	 0.078903169256576 
358	 0.135295170508437 
359	 0.160150825731303 
360	 0.148123870280492 
361	 0.149265255496959 
362	 0.198149934005259 
363	 0.165878011753697 
364	 7.32125718405504E-02 
365	 0.134769143863682 
366	 0.161527922187614 
367	 0.155426402476664 
368	 0.152072830281121 
369	 0.12364701478963 
370	 0.125883445726902 
371	 0.146170004852561 
372	 0.134712629619592 
373	 0.110195067260075 
374	 9.49160103987149E-02 
375	 0.103265818835398 
376	 0.139009370092238 
377	 8.69279876998422E-02 
378	 5.67943369315281E-02 
379	 0.129023180092492 
380	 8.69746340090545E-02 
381	 4.79115003808878E-02 
382	 4.82397432606129E-02 
383	 6.40146109657891E-02 
384	 9.14437361559985E-02 
385	 7.97161140266973E-02 
386	 0.039457500294293 
387	 8.52570350179429E-02 
388	 8.77104595327541E-02 
389	 0.079669334195647 
390	 0.101245881363912 
391	 6.57247616899328E-02 
392	 0.058587277308377 
393	 8.01399282197362E-02 
394	 7.54392419000476E-02 
395	 5.58452110200062E-02 
396	 4.88496521315871E-02 
397	 0.057665048802389 
398	 4.68306100935417E-02 
399	 7.26493967077402E-02 
400	 9.37152044445342E-02 
401	 6.67237655644184E-02 
402	 4.48432020866156E-02 
403	 5.87313850643687E-02 
404	 8.69893455262982E-02 
405	 7.74575248523541E-02 
406	 7.54198615004342E-02 
407	 8.04137369886894E-02 
408	 8.22814311908631E-02 
409	 6.18216134970894E-02 
410	 5.54928228949796E-02 
411	 6.30920959583479E-02 
412	 7.16137193425158E-02 
413	 6.93282381181742E-02 
414	 6.18167674300674E-02 
415	 5.67398455310831E-02 
416	 6.16179179087797E-02 
417	 6.70797350269266E-02 
418	 6.55547026315487E-02 
419	 5.69920853127038E-02 
420	 5.80039013068269E-02 
421	 5.12475302302645E-02 
422	 4.54889869532829E-02 
423	 5.44905155676986E-02 
424	 5.35001739563105E-02 
425	 5.44697493955337E-02 
426	 5.86454468396726E-02 
427	 5.30353687838954E-02 
428	 5.28573810313143E-02 
429	 5.38397455180025E-02 
430	 5.12954001418687E-02 
431	 5.23168643402765E-02 
432	 5.09246632589667E-02 
433	 4.90870368963204E-02 
434	 5.19798691302049E-02 
435	 5.39910470194158E-02 
436	 5.19955354754722E-02 
437	 4.81985237456516E-02 
438	 5.22692186036794E-02 
439	 0.052145095923256 
440	 5.03715751178738E-02 
441	 5.16424209260483E-02 
442	 5.19031478254045E-02 
443	 5.12306424728339E-02 
444	 4.96135757201939E-02 
445	 4.71289246910204E-02 
446	 4.70433771359387E-02 
447	 4.83461662175201E-02 
448	 4.95571091287223E-02 
449	 4.98856207853586E-02 
450	 4.88524932018484E-02 
451	 4.78635685804913E-02 
452	 4.83789958915879E-02 
453	 4.76238390248022E-02 
454	 0.046668609569446 
455	 4.64411410365786E-02 
456	 4.73684021375922E-02 
457	 4.65530851375692E-02 
458	 4.64329359446936E-02 
459	 4.82073226303803E-02 
460	 4.59507343123924E-02 
461	 4.47850221493689E-02 
462	 0.044910391264063 
463	 4.41826707932169E-02 
464	 4.49221469053685E-02 
465	 4.50151616693429E-02 
466	 4.42399325727208E-02 
467	 4.59088759842951E-02 
468	 4.57161678524868E-02 
469	 4.49398553618632E-02 
470	 4.56331750085158E-02 
471	 4.63379549864236E-02 
472	 0.046496164101792 
473	 4.63611604135545E-02 
474	 4.66252280135337E-02 
475	 4.47277480366787E-02 
476	 4.32796264639676E-02 
477	 4.39241712177302E-02 
478	 4.48663062161507E-02 
479	 4.46703634936241E-02 
480	 0.04431367605922 
481	 4.52102830807516E-02 
482	 0.044839671231762 
483	 0.044690526599465 
484	 4.52556422858618E-02 
485	 4.56373139822804E-02 
486	 4.50813521174757E-02 
487	 4.43217276581361E-02 
488	 0.044190634535017 
489	 0.045033820913219 
490	 4.34310451961941E-02 
491	 4.15848852835291E-02 
492	 4.38849745375872E-02 
493	 4.25443035190993E-02 
494	 4.25924731835792E-02 
495	 4.54336467936389E-02 
496	 4.43272788184723E-02 
497	 4.35952670137826E-02 
498	 4.30035729866964E-02 
499	 4.17715116403927E-02 
500	 4.27578756392639E-02 
501	 4.36588759479776E-02 
502	 4.34691209967681E-02 
503	 4.25449930821262E-02 
504	 4.18388758850595E-02 
505	 4.18758522467647E-02 
506	 4.26587763385815E-02 
507	 4.34905013979249E-02 
508	 4.29827794313631E-02 
509	 4.20829160572492E-02 
510	 4.24047616014357E-02 
511	 4.22539413207801E-02 
512	 4.19452398841669E-02 
513	 4.17804735942741E-02 
514	 4.18256998358434E-02 
515	 4.19579204125359E-02 
516	 0.042296183307408 
517	 0.042728355956242 
518	 4.20847339622904E-02 
519	 4.17760606101674E-02 
520	 0.041995746854588 
521	 4.20889033129347E-02 
522	 4.21522089159753E-02 
523	 4.22955631515073E-02 
524	 4.24294563581232E-02 
525	 4.20148056313368E-02 
526	 4.17616603152246E-02 
527	 4.17984960342574E-02 
528	 4.20124016445069E-02 
529	 4.23052665990532E-02 
530	 4.20907670456187E-02 
531	 4.16680688719061E-02 
532	 4.22193730191097E-02 
533	 4.24095746089577E-02 
534	 4.22854017006852E-02 
535	 4.21600438390868E-02 
536	 4.21852003572311E-02 
537	 4.24061715718837E-02 
538	 0.042643223057967 
539	 4.26499428001258E-02 
540	 0.042772491737534 
541	 4.29938551713371E-02 
542	 4.31894139148023E-02 
543	 4.31311668615708E-02 
544	 4.29552218219934E-02 
545	 4.30729778944737E-02 
546	 4.36601008202188E-02 
547	 4.35005782957578E-02 
548	 0.043530264780219 
549	 4.39070772729141E-02 
550	 4.40661828750704E-02 
551	 4.44701942488336E-02 
552	 0.0449199595255 
553	 4.52232186371377E-02 
554	 4.54535166982372E-02 
555	 4.60074935219545E-02 
556	 4.66361293910349E-02 
557	 4.68953045336757E-02 
558	 0.047466909954358 
559	 4.79618511567091E-02 
560	 4.83136962195841E-02 
561	 4.90404010706576E-02 
562	 4.94599052902829E-02 
563	 4.99771421431622E-02 
564	 5.09424841014867E-02 
565	 5.13392464286676E-02 
566	 5.20044519633189E-02 
567	 5.28799935931717E-02 
568	 5.33256223381985E-02 
569	 5.44168831305619E-02 
570	 5.57843919326164E-02 
571	 5.69722358254703E-02 
572	 0.057717533493093 
573	 5.90440011657148E-02 
574	 6.06614800916766E-02 
575	 6.19312779271106E-02 
576	 6.35842358840183E-02 
577	 6.46940792077197E-02 
578	 6.53705509519368E-02 
579	 0.066955235661378 
580	 0.06849525960989 
581	 6.99545979838625E-02 
582	 7.14481665754796E-02 
583	 7.28874986325139E-02 
584	 7.44098886844782E-02 
585	 7.60527961055747E-02 
586	 7.77793235178925E-02 
587	 7.94607015338078E-02 
588	 8.11934852533018E-02 
589	 8.30239083496565E-02 
590	 8.48640999832194E-02 
591	 8.69051909328605E-02 
592	 8.88443386916806E-02 
593	 9.04170521442613E-02 
594	 9.21763173621095E-02 
595	 9.39807864758341E-02 
596	 9.57289962190128E-02 
597	 9.73793366648721E-02 
598	 9.89980760010242E-02 
599	 0.10057841047303 
600	 0.102105061863149 
601	 0.103525566186188 
602	 0.105080824150697 
603	 0.106830383156476 
604	 0.108656132452864 
605	 0.109940860835187 
606	 0.111270340274961 
607	 0.112798688952437 
608	 0.114022008309612 
609	 0.115349377227454 
610	 0.116567599360977 
611	 0.117501778610312 
612	 0.118569332970952 
613	 0.119767692723076 
614	 0.120930461242515 
615	 0.121830891059265 
616	 0.122773877354581 
617	 0.123660317332416 
618	 0.124498494541763 
619	 0.125607791450071 
620	 0.12638015288443 
621	 0.126989388429533 
622	 0.127765703957797 
623	 0.12839084745001 
624	 0.129176281172248 
625	 0.130076101652007 
626	 0.130716127755452 
627	 0.131394374597131 
628	 0.131925755126336 
629	 0.132309461576879 
630	 0.133274303357079 
631	 0.133863441513839 
632	 0.134134246913949 
633	 0.13457413471356 
634	 0.135172252650555 
635	 0.135908771031939 
636	 0.136610464101284 
637	 0.136933873592342 
638	 0.137376570777138 
639	 0.137969267890805 
640	 0.138599288173357 
641	 0.139090904241326 
642	 0.139711600467491 
643	 0.140391820532843 
644	 0.14087467175906 
645	 0.141228558005957 
646	 0.141765483886406 
647	 0.142517871039846 
648	 0.143022842704588 
649	 0.143550686288758 
650	 0.144169801707549 
651	 0.144845882484846 
652	 0.145367764638262 
653	 0.145864962761071 
654	 0.146428514122028 
655	 0.147098054031606 
656	 0.147813537396758 
657	 0.148444667494358 
658	 0.148967177468024 
659	 0.149587734509203 
660	 0.150297002823285 
661	 0.151051436701706 
662	 0.151784863512819 
663	 0.152428716557472 
664	 0.15314934006607 
665	 0.154001621894979 
666	 0.154901343825048 
667	 0.15551388357736 
668	 0.156149495275966 
669	 0.157051711910039 
670	 0.15797117657204 
671	 0.158785370126379 
672	 0.159548991698327 
673	 0.160380671306507 
674	 0.161107669208288 
675	 0.162005312413433 
676	 0.163085310984437 
677	 0.164009960545716 
678	 0.164931380307739 
679	 0.165881765094259 
680	 0.166847728922327 
681	 0.167733966197226 
682	 0.168743606920665 
683	 0.169826665094296 
684	 0.170820376165719 
685	 0.171867162238869 
686	 0.172974162311354 
687	 0.174066469391878 
688	 0.174977625549468 
689	 0.176000641019854 
690	 0.17715483265984 
691	 0.178352810770367 
692	 0.179425247796605 
693	 0.180502834187945 
694	 0.181634483575028 
695	 0.182809395194297 
696	 0.184008657423746 
697	 0.185307875351767 
698	 0.18661119455175 
699	 0.187537812662249 
700	 0.188671283459383 
701	 0.189929506884406 
702	 0.191108057429938 
703	 0.19233248068394 
704	 0.193444460802118 
705	 0.194585517874856 
706	 0.196034454564604 
707	 0.197216989970529 
708	 0.198323586237468 
709	 0.199497954318295 
710	 0.200620528634373 
711	 0.201865800928148 
712	 0.203133707380112 
713	 0.204293289228674 
714	 0.205443542230798 
715	 0.206521414070458 
716	 0.207582945700797 
717	 0.208740926121954 
718	 0.209724809151219 
719	 0.210772302305764 
720	 0.211944862205167 
721	 0.212888035874576 
722	 0.213803952024598 
723	 0.214708974373433 
724	 0.215583640484157 
725	 0.216473198962493 
726	 0.217398859017777 
727	 0.218304070640052 
728	 0.219083326879887 
729	 0.219703525267754 
730	 0.220239677360862 
731	 0.220812591805168 
732	 0.221595562331803 
733	 0.222263044630453 
734	 0.222783080979342 
735	 0.223212147372161 
736	 0.223546824923249 
737	 0.22398527420944 
738	 0.224438451509811 
739	 0.224656836825529 
740	 0.224834078175896 
741	 0.224979163603045 
742	 0.225123815136868 
743	 0.225369471192526 
744	 0.225361343895233 
745	 0.225262916192924 
746	 0.225260462436226 
747	 0.225109769611669 
748	 0.22489726421824 
749	 0.224712783638114 
750	 0.224610880496501 
751	 0.224373512968736 
752	 0.22411034611788 
753	 0.223858378932247 
754	 0.223519927242543 
755	 0.223155468498826 
756	 0.222735662349494 
757	 0.222254859332782 
758	 0.221851584901724 
759	 0.221258495002631 
760	 0.220593045262441 
761	 0.220106057654923 
762	 0.219631258500653 
763	 0.219072681697855 
764	 0.218388238639373 
765	 0.217598322866075 
766	 0.216929590969695 
767	 0.216295115296159 
768	 0.215577578462214 
769	 0.214726891612845 
770	 0.213986805979367 
771	 0.213272401481232 
772	 0.212439076177171 
773	 0.211699586371188 
774	 0.210953430878911 
775	 0.210124616042933 
776	 0.209193387566447 
777	 0.208401733046931 
778	 0.207629352149828 
779	 0.206794234721222 
780	 0.205972851834826 
781	 0.205206050062316 
782	 0.204410389975515 
783	 0.203525609469266 
784	 0.202704654637516 
785	 0.201883535290154 
786	 0.201040757998167 
787	 0.20018657923756 
788	 0.199359914728305 
789	 0.198530133706132 
790	 0.19771363796542 
791	 0.196979728114999 
792	 0.196142678382758 
793	 0.195331022329569 
794	 0.194617423714605 
795	 0.193780615328535 
796	 0.192953670010065 
797	 0.192186540088475 
798	 0.191471648835202 
799	 0.19066286186 
800	 0.189938642907642 
801	 0.189268361944854 
802	 0.188480657712095 
803	 0.187822645223385 
804	 0.187141887855729 
805	 0.186396256660258 
806	 0.185779913816799 
807	 0.185129927873472 
808	 0.184421921436252 
809	 0.183689803824698 
810	 0.183019773321623 
811	 0.182408032004401 
812	 0.181824935239872 
813	 0.181231853881961 
814	 0.180627646401555 
815	 0.180039529531224 
816	 0.179493897654027 
817	 0.179003010778765 
818	 0.178440804574916 
819	 0.177860645239037 
820	 0.177336965798719 
821	 0.176928268849386 
822	 0.176510834835271 
823	 0.175987785000338 
824	 0.175377296742763 
825	 0.175013944145872 
826	 0.174582192962628 
827	 0.174083346462176 
828	 0.173657872417092 
829	 0.173312962543442 
830	 0.17297595954025 
831	 0.172616348675274 
832	 0.17225012887874 
833	 0.171911447527403 
834	 0.17157534855583 
835	 0.171228833139048 
836	 0.170890489790848 
837	 0.170694057045989 
838	 0.170447667957676 
839	 0.170048056825926 
840	 0.169870264515395 
841	 0.169712055563133 
842	 0.169484893501219 
843	 0.169185188885426 
844	 0.168985529107283 
845	 0.168780849005374 
846	 0.168611150595034 
847	 0.168584683409368 
848	 0.168376433593263 
849	 0.168153767599166 
850	 0.168039185350927 
851	 0.168015593385717 
852	 0.167926920316379 
853	 0.167769095078157 
854	 0.167615003287445 
855	 0.167624530620828 
856	 0.167557865472937 
857	 0.167497916484925 
858	 0.167547990499805 
859	 0.167495999649772 
860	 0.167470142085597 
861	 0.167500825493224 
862	 0.167558056556303 
863	 0.167590593364687 
864	 0.167701316829815 
865	 0.167824547920047 
866	 0.167779005686675 
867	 0.167812968888829 
868	 0.167894331515618 
869	 0.167981943295312 
870	 0.168080182175421 
871	 0.168348277230975 
872	 0.168560060340635 
873	 0.168599729839504 
874	 0.168777264996781 
875	 0.168939951946535 
876	 0.169135900822305 
877	 0.169410375665933 
878	 0.169591108007226 
879	 0.169772031626327 
880	 0.170002934571816 
881	 0.170282944708759 
882	 0.170463160354183 
883	 0.170803232732574 
884	 0.17119219840914 
885	 0.171307522480461 
886	 0.171671336506195 
887	 0.172130479572585 
888	 0.172484097708782 
889	 0.172614021056235 
890	 0.173115610551821 
891	 0.173632861920125 
892	 0.17392644869675 
893	 0.174258129168338 
894	 0.174620180421093 
895	 0.175002734939371 
896	 0.175449037942721 
897	 0.176200733506631 
898	 0.176491588417114 
899	 0.176684431564669 
900	 0.177306800686263 
901	 0.17789781950969 
902	 0.178539519094567 
903	 0.179127807881703 
904	 0.179554965886169 
905	 0.180145776174781 
906	 0.180872007237709 
907	 0.181574776546348 
908	 0.182066773003028 
909	 0.182531177984661 
910	 0.183119367743007 
911	 0.183846951238302 
912	 0.184590381933123 
913	 0.185233954351257 
914	 0.185872099645808 
915	 0.186604490789777 
916	 0.187472084413095 
917	 0.188096485805494 
918	 0.188738711358046 
919	 0.189606103286959 
920	 0.190553962631544 
921	 0.191319318402242 
922	 0.192002045233855 
923	 0.192797925899615 
924	 0.193879510341444 
925	 0.19480835109811 
926	 0.19557768232539 
927	 0.196355756281916 
928	 0.197346238709609 
929	 0.198261478489984 
930	 0.19911285330496 
931	 0.200032116026173 
932	 0.201060665312813 
933	 0.202098323614763 
934	 0.203133903491643 
935	 0.204213419227732 
936	 0.2053886244753 
937	 0.206485912666597 
938	 0.207420195859495 
939	 0.208278329592573 
940	 0.209759815739666 
941	 0.211076756828146 
942	 0.211998683709991 
943	 0.21292211518117 
944	 0.214141825782501 
945	 0.215512487511367 
946	 0.216874162660714 
947	 0.218129063227794 
948	 0.219224273685682 
949	 0.22036732401081 
950	 0.221671854086951 
951	 0.223068229919915 
952	 0.224416404053896 
953	 0.225843987396985 
954	 0.227319528904814 
955	 0.228533827095092 
956	 0.229968402022322 
957	 0.231435007646459 
958	 0.232780478864725 
959	 0.234156811203697 
960	 0.235595934740218 
961	 0.237137007070929 
962	 0.238662562340623 
963	 0.239778858838073 
964	 0.24134473240888 
965	 0.242906669410744 
966	 0.24414214127512 
967	 0.245810374510974 
968	 0.247490137571612 
969	 0.249039981696554 
970	 0.250520294083119 
971	 0.252288239065523 
972	 0.25395843045379 
973	 0.255482269216061 
974	 0.256912276913309 
975	 0.258226160005049 
976	 0.259892542080202 
977	 0.261683355218667 
978	 0.263300310036439 
979	 0.264997487724368 
980	 0.266611618770692 
981	 0.268124438574168 
982	 0.269623685833242 
983	 0.271367564621271 
984	 0.273102669407514 
985	 0.274858218269696 
986	 0.276632888423898 
987	 0.277997057096557 
988	 0.279560269735193 
989	 0.281297133122396 
990	 0.28298669314579 
991	 0.284598341113683 
992	 0.286666445861321 
993	 0.28842269515138 
994	 0.289282011252745 
995	 0.29083842361729 
996	 0.292798390877806 
997	 0.294602307654418 
998	 0.295890762714421 
999	 0.29728870154585 
1000	 0.299166126264066 
1001	 0.302342707309315 
1002	 0.303895075706036 
1003	 0.305694903658134 
1004	 0.307290148729678 
1005	 0.308807929503358 
1006	 0.310346316567509 
1007	 0.311827315249296 
1008	 0.313383765541356 
1009	 0.314905377154608 
1010	 0.316497883355162 
1011	 0.318229465674678 
1012	 0.319820482683682 
1013	 0.321454053706562 
1014	 0.322998381837765 
1015	 0.324516933825796 
1016	 0.325841558695273 
1017	 0.327141822218284 
1018	 0.328284646548907 
1019	 0.32939629170592 
1020	 0.330689626627996 
1021	 0.331988421014348 
1022	 0.333376272909678 
1023	 0.33470977258856 
1024	 0.336047620180236 
1025	 0.33734785647784 
1026	 0.338698048772948 
1027	 0.339940811256964 
1028	 0.341141594348747 
1029	 0.342338292882332 
1030	 0.343276419657704 
1031	 0.344081503347715 
1032	 0.345109843703993 
1033	 0.346280943239594 
1034	 0.347680970001772 
1035	 0.348994984517439 
1036	 0.350109934235046 
1037	 0.35103510127427 
1038	 0.352043754818409 
1039	 0.352910897941742 
1040	 0.353979066103343 
1041	 0.355218713131811 
1042	 0.35631762364372 
1043	 0.357463211088605 
1044	 0.358479305418842 
1045	 0.359376837015531 
1046	 0.360206025923883 
1047	 0.361010665427304 
1048	 0.362022243506821 
1049	 0.363015473724656 
1050	 0.364044230010459 
1051	 0.36540724475741 
1052	 0.366602159430196 
1053	 0.367642413772109 
1054	 0.368690577461357 
1055	 0.369665302635261 
1056	 0.370342741162015 
1057	 0.371153462019601 
1058	 0.371966447390524 
1059	 0.372968761353164 
1060	 0.373946027571952 
1061	 0.374874698968064 
1062	 0.375853965308799 
1063	 0.376796533014196 
1064	 0.377740951981517 
1065	 0.378717433474987 
1066	 0.379632724336512 
1067	 0.380447006760891 
1068	 0.381257889498305 
1069	 0.382011200642468 
1070	 0.382830202390846 
1071	 0.38372463076237 
1072	 0.384712818127914 
1073	 0.385460909537426 
1074	 0.386275167437631 
1075	 0.38727748574142 
1076	 0.388210988799922 
1077	 0.389168178943559 
1078	 0.390090383163215 
1079	 0.390958580867502 
1080	 0.3917620019925 
1081	 0.392532005203395 
1082	 0.393307741692236 
1083	 0.394028248308881 
1084	 0.394785038832739 
1085	 0.395547117918432 
1086	 0.396288139149703 
1087	 0.397054737333478 
1088	 0.3978473549445 
1089	 0.398641705291115 
1090	 0.399338835526511 
1091	 0.400013027338978 
1092	 0.400763121873739 
1093	 0.401418005194784 
1094	 0.402110943806538 
1095	 0.402937614814722 
1096	 0.40373432856089 
1097	 0.404447204426045 
1098	 0.405210223110081 
1099	 0.405988904093858 
1100	 0.406601648936192 
1101	 0.407214026227717 
1102	 0.407859674651493 
1103	 0.408537623639614 
1104	 0.409231606501125 
1105	 0.409995201111326 
1106	 0.410665102410205 
1107	 0.411242532728744 
1108	 0.411753782365759 
1109	 0.412242445389635 
1110	 0.412860442708742 
1111	 0.413707557006298 
1112	 0.414526064092973 
1113	 0.415225945950396 
1114	 0.415923891747854 
1115	 0.416479547260626 
1116	 0.417031375925586 
1117	 0.417736292662793 
1118	 0.418425147771403 
1119	 0.419173383470004 
1120	 0.419862614080072 
1121	 0.420549172065772 
1122	 0.421212669936438 
1123	 0.421809119407389 
1124	 0.422426327036341 
1125	 0.423055122897525 
1126	 0.423573789106754 
1127	 0.424132129064323 
1128	 0.424791979751531 
1129	 0.425462396371274 
1130	 0.426184729084523 
1131	 0.426823011471987 
1132	 0.427345023301808 
1133	 0.427836117445199 
1134	 0.42832372294305 
1135	 0.428908276009308 
1136	 0.42968751902515 
1137	 0.430249831145833 
1138	 0.430749011916192 
1139	 0.431271610998155 
1140	 0.431707770376013 
1141	 0.432120449251891 
1142	 0.432682425526706 
1143	 0.433183580849899 
1144	 0.433575197167551 
1145	 0.434003178489013 
1146	 0.434462475516439 
1147	 0.434919789429989 
1148	 0.435386133936811 
1149	 0.435859954049312 
1150	 0.436326843799995 
1151	 0.43679171546395 
1152	 0.437237926333272 
1153	 0.437724252013263 
1154	 0.438143198322742 
1155	 0.438498431989092 
1156	 0.438860540708564 
1157	 0.43919888584013 
1158	 0.439527728411561 
1159	 0.439844636492703 
1160	 0.440165018876603 
1161	 0.44043685256008 
1162	 0.44080338009704 
1163	 0.441134331334616 
1164	 0.441443064316399 
1165	 0.441842332459993 
1166	 0.44214475979955 
1167	 0.442399520743155 
1168	 0.442727956342287 
1169	 0.443014629017696 
1170	 0.443251258725814 
1171	 0.443513377522427 
1172	 0.443789375989351 
1173	 0.444041739645988 
1174	 0.444282936590538 
1175	 0.444511265733453 
1176	 0.444746975440029 
1177	 0.444969849895814 
1178	 0.4451712316704 
1179	 0.445348434968242 
1180	 0.445578794740208 
1181	 0.445776014415791 
1182	 0.445935497795664 
1183	 0.446153147499226 
1184	 0.446369500210473 
1185	 0.446515441218151 
1186	 0.446693016019901 
1187	 0.446888254689176 
1188	 0.447081752263171 
1189	 0.447248927173513 
1190	 0.44747232894082 
1191	 0.447767015550386 
1192	 0.447983272771475 
1193	 0.448158387812001 
1194	 0.448374057835486 
1195	 0.448598355674252 
1196	 0.448785722148385 
1197	 0.448944432114224 
1198	 0.449182974824337 
1199	 0.449407116436846 
1200	 0.449579127510621 
1201	 0.449826938805645 
1202	 0.450107970133218 
1203	 0.450288354369791 
1204	 0.450385134854772 
1205	 0.450548047676281 
1206	 0.45068068294358 
1207	 0.450879468687942 
1208	 0.451127760191672 
1209	 0.451375111680357 
1210	 0.451661630295724 
1211	 0.451924453764774 
1212	 0.452162281583169 
1213	 0.45247096555318 
1214	 0.452816960390439 
1215	 0.453136343694734 
1216	 0.453469686138524 
1217	 0.453837579853413 
1218	 0.454236133662924 
1219	 0.45459122006148 
1220	 0.454992492495599 
1221	 0.455356005658477 
1222	 0.455557597843333 
1223	 0.45586247175951 
1224	 0.456194728576211 
1225	 0.456546946037367 
1226	 0.456884944167641 
1227	 0.457282279132194 
1228	 0.457625280320145 
1229	 0.457958498739259 
1230	 0.458241965333837 
1231	 0.458487476394693 
1232	 0.458742136662233 
1233	 0.458928317390256 
1234	 0.45915712072051 
1235	 0.459454752878143 
1236	 0.459697521779702 
1237	 0.459864925462394 
1238	 0.460100530163557 
1239	 0.460352006088129 
1240	 0.460625389350302 
1241	 0.460880615302399 
1242	 0.461154422828965 
1243	 0.461355949612323 
1244	 0.461429629168439 
1245	 0.461680410397303 
1246	 0.462040388187653 
1247	 0.462251815559628 
1248	 0.462484925090499 
1249	 0.462679116420348 
1250	 0.462732664569092 
1251	 0.462865229066753 
1252	 0.463128379368612 
1253	 0.463235203793942 
1254	 0.463198443716043 
1255	 0.463255553186295 
1256	 0.463263745024469 
1257	 0.463327912953726 
1258	 0.463537744980211 
1259	 0.463631316307312 
1260	 0.463637113800984 
1261	 0.463689105154154 
1262	 0.463688806477895 
1263	 0.463747965835604 
1264	 0.46378165553311 
1265	 0.463828541151176 
1266	 0.463941268883862 
1267	 0.464069044739907 
1268	 0.464181837936515 
1269	 0.464373586838068 
1270	 0.464504734322423 
1271	 0.464529575961349 
1272	 0.464684090884783 
1273	 0.464920747973096 
1274	 0.465120801295037 
1275	 0.465386665044863 
1276	 0.465579876774206 
1277	 0.465661161561432 
1278	 0.465865128084134 
1279	 0.46612533496709 
1280	 0.466362868096072 
1281	 0.46670529442133 
1282	 0.46696247645254 
1283	 0.46708219725085 
1284	 0.46729858024297 
1285	 0.467543404051268 
1286	 0.467813874306804 
1287	 0.468046768499104 
1288	 0.468327499661993 
1289	 0.46855211263803 
1290	 0.468728432926898 
1291	 0.468887131448081 
1292	 0.469030534683594 
1293	 0.469183611675776 
1294	 0.469292816112688 
1295	 0.469425851912724 
1296	 0.4696007295045 
1297	 0.469740251612326 
1298	 0.469825765921282 
1299	 0.469966439938268 
1300	 0.4701598194188 
1301	 0.470297265291804 
1302	 0.470430700964544 
1303	 0.470557882265276 
1304	 0.470672904307062 
1305	 0.470743928601732 
1306	 0.470769874334111 
1307	 0.470831841444199 
1308	 0.470865067159252 
1309	 0.470904515064127 
1310	 0.470968489032043 
1311	 0.471100203080066 
1312	 0.471147161283246 
1313	 0.471133894093069 
1314	 0.471199462939707 
1315	 0.471277381631045 
1316	 0.47134730783789 
1317	 0.471485983002248 
1318	 0.471533438713139 
1319	 0.471494629814432 
1320	 0.471526337318309 
1321	 0.471525194154672 
1322	 0.471600608085761 
1323	 0.471795051915039 
1324	 0.471878387256687 
1325	 0.471954016976567 
1326	 0.47200348196211 
1327	 0.471949531337575 
1328	 0.471961288637678 
1329	 0.47199673762676 
1330	 0.472046178918658 
1331	 0.472169737899032 
1332	 0.472213764410161 
1333	 0.472217518701205 
1334	 0.472219694326056 
1335	 0.472237012507966 
1336	 0.472197188986917 
1337	 0.472246829628003 
1338	 0.472364728702401 
1339	 0.472448711792602 
1340	 0.472556497420639 
1341	 0.472611085736772 
1342	 0.472663196833951 
1343	 0.472675595624082 
1344	 0.47260657056724 
1345	 0.472628365167052 
1346	 0.472691164608591 
1347	 0.472707300050804 
1348	 0.472755770551428 
1349	 0.472764007195986 
1350	 0.472707350465535 
1351	 0.472679646154939 
1352	 0.472666032086503 
1353	 0.472644034707747 
1354	 0.472621264535747 
1355	 0.472586383337661 
1356	 0.472564199251416 
1357	 0.472507422769664 
1358	 0.472401639137938 
1359	 0.472323594346101 
1360	 0.472252457485557 
1361	 0.472156524288959 
1362	 0.472074653262993 
1363	 0.472003576338291 
1364	 0.471956070462779 
1365	 0.471928043413358 
1366	 0.471859021158845 
1367	 0.471808066786255 
1368	 0.471717850996962 
1369	 0.471579333616877 
1370	 0.471440370426157 
1371	 0.47131320554683 
1372	 0.471148945247122 
1373	 0.470942052313295 
1374	 0.470744390606706 
1375	 0.470546070842211 
1376	 0.470316664407164 
1377	 0.470048175792889 
1378	 0.469810646303533 
1379	 0.469546292607362 
1380	 0.469325142103018 
1381	 0.469164823843037 
1382	 0.468959890041493 
1383	 0.468757388751839 
1384	 0.46853691184111 
1385	 0.468268204774871 
1386	 0.468039028327531 
1387	 0.467828112265789 
1388	 0.46761447222587 
1389	 0.467426015760505 
1390	 0.467222245664528 
1391	 0.46699699243505 
1392	 0.466783628780122 
1393	 0.466586488591952 
1394	 0.466399079708891 
1395	 0.466229314059166 
1396	 0.466084504458531 
1397	 0.465937191674911 
1398	 0.465811150599547 
1399	 0.465648063624211 
1400	 0.465522480719303 
1401	 0.465274937686322 
1402	 0.464935494652302 
1403	 0.464637741373294 
1404	 0.464269924959826 
1405	 0.46395757969913 
1406	 0.463716484318617 
1407	 0.463401391054837 
1408	 0.463076720393634 
1409	 0.462705869214094 
1410	 0.462277004071366 
1411	 0.461859432017123 
1412	 0.461366651320775 
1413	 0.460969943878834 
1414	 0.460623039245398 
1415	 0.460271617380514 
1416	 0.459942076153295 
1417	 0.459659209789109 
1418	 0.459409011021168 
1419	 0.459149489969598 
1420	 0.458966437054205 
1421	 0.458729863345879 
1422	 0.458449389884264 
1423	 0.458165491285269 
1424	 0.457859882390679 
1425	 0.457542656411703 
1426	 0.45727936078098 
1427	 0.457003099971556 
1428	 0.456787118697608 
1429	 0.456601717623968 
1430	 0.456372680069565 
1431	 0.456140606307545 
1432	 0.455888347680711 
1433	 0.455592463140479 
1434	 0.455352226833757 
1435	 0.455117424886111 
1436	 0.454906403522836 
1437	 0.454745921276611 
1438	 0.454541961412478 
1439	 0.454336629329024 
1440	 0.45411176428883 
1441	 0.453857344641186 
1442	 0.45362087955065 
1443	 0.453345722577065 
1444	 0.453155060913812 
1445	 0.452984853026345 
1446	 0.452876260261784 
1447	 0.452797900419757 
1448	 0.452816643890202 
1449	 0.452907132006819 
1450	 0.45305015372555 
1451	 0.453312064860408 
1452	 0.453563385935613 
1453	 0.45385074881991 
1454	 0.454138868506814 
1455	 0.454474594140345 
1456	 0.454773410477569 
1457	 0.455070447864544 
1458	 0.455347872759369 
1459	 0.455573587233255 
1460	 0.455834351449715 
1461	 0.456119127024017 
1462	 0.456384545063997 
1463	 0.456682804590584 
1464	 0.456933151798038 
1465	 0.45713286824139 
1466	 0.457329422353263 
1467	 0.45752230546104 
1468	 0.457730332861789 
1469	 0.457977290822915 
1470	 0.458184849735725 
1471	 0.458392169407437 
1472	 0.458588679789472 
1473	 0.458788068957814 
1474	 0.458986157973478 
1475	 0.459165488937059 
1476	 0.459333258831688 
1477	 0.459508861612354 
1478	 0.459687721036566 
1479	 0.459826863544862 
1480	 0.459962342767702 
1481	 0.460068891524324 
1482	 0.460125583930293 
1483	 0.460194711472428 
1484	 0.460265092221377 
1485	 0.46032398783343 
1486	 0.460361102336592 
1487	 0.460411724007937 
1488	 0.460445700818579 
1489	 0.46051740337841 
1490	 0.460612667513428 
1491	 0.460701677715267 
1492	 0.460783435185166 
1493	 0.460927868784754 
1494	 0.461097815193078 
1495	 0.461279602297374 
1496	 0.46152089974319 
1497	 0.461749638075906 
1498	 0.461981144159677 
1499	 0.462203831662492 
1500	 0.462444854821759 
1501	 0.462670701615412 
1502	 0.462884356888803 
1503	 0.463080726991228 
1504	 0.46324565841982 
1505	 0.463444788286842 
1506	 0.463653128959653 
1507	 0.463849534131499 
1508	 0.464102702822244 
1509	 0.464286764149628 
1510	 0.464394585334848 
1511	 0.464528159048674 
1512	 0.46463969334693 
1513	 0.464758882815644 
1514	 0.464935134926723 
1515	 0.465038424548325 
1516	 0.465069321349426 
1517	 0.465127866481135 
1518	 0.465153047241375 
1519	 0.465188589307863 
1520	 0.465223388322951 
1521	 0.465325776116783 
1522	 0.46534885648148 
1523	 0.465349053253911 
1524	 0.465403207250216 
1525	 0.465469034477422 
1526	 0.465518318412777 
1527	 0.465611942023586 
1528	 0.465628070493592 
1529	 0.465586884346719 
1530	 0.465576111830179 
1531	 0.465544554407759 
1532	 0.465544683549623 
1533	 0.46555261234991 
1534	 0.465579764916996 
1535	 0.465631479869355 
1536	 0.465666977223765 
1537	 0.465696502409965 
1538	 0.465766687702895 
1539	 0.46586807048787 
1540	 0.465918788646815 
1541	 0.46595310311004 
1542	 0.466048858067786 
1543	 0.466135878000289 
1544	 0.466232447790487 
1545	 0.466407243718711 
1546	 0.46652339752137 
1547	 0.466574375951272 
1548	 0.466678610394894 
1549	 0.46680729740984 
1550	 0.466940117234177 
1551	 0.467088063097434 
1552	 0.467225098589923 
1553	 0.46734700375571 
1554	 0.467521962167615 
1555	 0.467738596355326 
1556	 0.467905731506544 
1557	 0.468112185650942 
1558	 0.46825454815792 
1559	 0.468300069250221 
1560	 0.468415618703025 
1561	 0.468568480508014 
1562	 0.468673101482602 
1563	 0.468765380402383 
1564	 0.468869908661424 
1565	 0.468946627610648 
1566	 0.469036197097016 
1567	 0.469156254266532 
1568	 0.469256530091938 
1569	 0.46932676288922 
1570	 0.469422865989392 
1571	 0.469531223546795 
1572	 0.469643888005742 
1573	 0.469762169659604 
1574	 0.469889182025258 
1575	 0.47003118015812 
1576	 0.47016792265907 
1577	 0.470319633602999 
1578	 0.470449186416281 
1579	 0.470548759028179 
1580	 0.470679652006947 
1581	 0.470842571975423 
1582	 0.470955331599826 
1583	 0.471066984816458 
1584	 0.471158295955221 
1585	 0.471180909839863 
1586	 0.471246661478766 
1587	 0.471330288942991 
1588	 0.471419007697864 
1589	 0.471521647025127 
1590	 0.471621125871899 
1591	 0.471731204858685 
1592	 0.47183142501298 
1593	 0.471940546391487 
1594	 0.472023972718607 
1595	 0.472092849398376 
1596	 0.472152965925642 
1597	 0.472160616816291 
1598	 0.472221082664059 
1599	 0.472279468232145 
1600	 0.472390991942419 
1601	 0.472611142220566 
1602	 0.472743386144639 
1603	 0.472879080227447 
1604	 0.4729690229823 
1605	 0.472960145264604 
1606	 0.472996122400247 
1607	 0.473020795750747 
1608	 0.473077688490449 
1609	 0.473185158750749 
1610	 0.473253951754081 
1611	 0.473323565823377 
1612	 0.473386665108613 
1613	 0.473429523002258 
1614	 0.473460300018928 
1615	 0.473494269542778 
1616	 0.473509995705824 
1617	 0.473471082152003 
1618	 0.473479954673689 
1619	 0.473504099743241 
1620	 0.473536956992111 
1621	 0.473646234624749 
1622	 0.473667334243712 
1623	 0.473617056269613 
1624	 0.473614480859803 
1625	 0.473593513392064 
1626	 0.473567335836923 
1627	 0.473579124796028 
1628	 0.47356025755635 
1629	 0.473459200764819 
1630	 0.473443458234787 
1631	 0.473502024270194 
1632	 0.47352271980107 
1633	 0.473577814468296 
1634	 0.473599779549511 
1635	 0.473555142652154 
1636	 0.473543409094556 
1637	 0.473581257129765 
1638	 0.473563462362719 
1639	 0.473498889559619 
1640	 0.47348708367836 
1641	 0.473474256572997 
1642	 0.47344137288222 
1643	 0.473455390530163 
1644	 0.473415310899862 
1645	 0.473300274537135 
1646	 0.473234039733535 
1647	 0.473171885219018 
1648	 0.473124030667697 
1649	 0.473116776666845 
1650	 0.473073073571688 
1651	 0.473027424690401 
1652	 0.472962267120136 
1653	 0.472874245790848 
1654	 0.472761549583176 
1655	 0.47262691519696 
1656	 0.472492423664919 
1657	 0.47233427020541 
1658	 0.472184636179382 
1659	 0.472050365614335 
1660	 0.471872540411673 
1661	 0.471716415202798 
1662	 0.471472341615328 
1663	 0.471136031940854 
1664	 0.470824918959323 
1665	 0.470469620655343 
1666	 0.470105962890929 
1667	 0.469760589832176 
1668	 0.469384827918334 
1669	 0.46897819792939 
1670	 0.468542867685197 
1671	 0.468120290298724 
1672	 0.467611692341592 
1673	 0.467048361795951 
1674	 0.466419957183356 
1675	 0.465666031431717 
1676	 0.465001558197394 
1677	 0.464360326988738 
1678	 0.4636742716736 
1679	 0.46304797264159 
1680	 0.462293361930112 
1681	 0.461416190511316 
1682	 0.460556035859146 
1683	 0.459645526834052 
1684	 0.458750422302539 
1685	 0.457876818641132 
1686	 0.456918302094898 
1687	 0.455923615046952 
1688	 0.454880535535129 
1689	 0.453754437180949 
1690	 0.452646406864896 
1691	 0.451526702784876 
1692	 0.450404715280076 
1693	 0.449309362641043 
1694	 0.448109463570154 
1695	 0.446839334846321 
1696	 0.445554177282144 
1697	 0.444198095290776 
1698	 0.442848828735828 
1699	 0.441484099319715 
1700	 0.440160285366454 
1701	 0.438816006633392 
1702	 0.437520066724844 
1703	 0.436250542196275 
1704	 0.435021854963509 
1705	 0.433791823781791 
1706	 0.432673016288812 
1707	 0.431678560229346 
1708	 0.430698993312098 
1709	 0.429770033813924 
1710	 0.428953854129607 
1711	 0.42813883029692 
1712	 0.427400390302291 
1713	 0.426678982029212 
1714	 0.425928999877287 
1715	 0.425295934401471 
1716	 0.424727595643035 
1717	 0.424230744687161 
1718	 0.423723037610321 
1719	 0.423161825744277 
1720	 0.422660016252648 
1721	 0.422220839846505 
1722	 0.421847951943557 
1723	 0.421511323822483 
1724	 0.421181771048629 
1725	 0.420884059805828 
1726	 0.420672516867932 
1727	 0.420616002388021 
1728	 0.420696783550111 
1729	 0.420807008868989 
1730	 0.421006118127394 
1731	 0.42133370485951 
1732	 0.421725549193098 
1733	 0.422189593817869 
1734	 0.422731413251536 
1735	 0.423312016282862 
1736	 0.423910676184427 
1737	 0.424475704892692 
1738	 0.424955787977959 
1739	 0.425322561046265 
1740	 0.425601225255964 
1741	 0.425780443283238 
1742	 0.425835540477753 
1743	 0.425833040834178 
1744	 0.4256971976644 
1745	 0.425580612245793 
1746	 0.425412297528746 
1747	 0.425274464672932 
1748	 0.425140363624677 
1749	 0.424968361612559 
1750	 0.424767746322256 
1751	 0.424630084196544 
1752	 0.424422848414469 
1753	 0.424406234447349 
1754	 0.424544383085726 
1755	 0.42464324292471 
1756	 0.424786113975149 
1757	 0.424970783456748 
1758	 0.425266776304275 
1759	 0.425652070430446 
1760	 0.426134561205056 
1761	 0.426608612794643 
1762	 0.427054347611454 
1763	 0.427733263767639 
1764	 0.428442425168158 
1765	 0.429100251258903 
1766	 0.429950024141668 
1767	 0.430771221669776 
1768	 0.431618347013255 
1769	 0.432618483373899 
1770	 0.433505791407036 
1771	 0.434193812911762 
1772	 0.43484660505088 
1773	 0.435568446907807 
1774	 0.436222350899776 
1775	 0.436901270001933 
1776	 0.43763980805309 
1777	 0.438186955040677 
1778	 0.438692199624184 
1779	 0.439255988153098 
1780	 0.439705777285072 
1781	 0.440186540584636 
1782	 0.440694549930761 
1783	 0.441001601017699 
1784	 0.441354933083341 
1785	 0.441630805621576 
1786	 0.441919591774129 
1787	 0.442369822785828 
1788	 0.442632982627817 
1789	 0.442762834660007 
1790	 0.442988896237314 
1791	 0.443170286633148 
1792	 0.443302480372622 
1793	 0.443440664660835 
1794	 0.443583309000196 
1795	 0.443646887468589 
1796	 0.443796101061077 
1797	 0.444030904007692 
1798	 0.444238291301023 
1799	 0.444461360566224 
1800	 0.444573850164501 
1801	 0.445207071111764 
1802	 0.445356971383823 
1803	 0.445563856377699 
1804	 0.445779148940795 
1805	 0.445903823402597 
1806	 0.446090610578596 
1807	 0.446401156214477 
1808	 0.446597193411736 
1809	 0.446686254026769 
1810	 0.446858909367924 
1811	 0.447073675991773 
1812	 0.447242473364431 
1813	 0.44740062499295 
1814	 0.447581443056447 
1815	 0.447710106808382 
1816	 0.447878183795934 
1817	 0.448057972575001 
1818	 0.448256752837324 
1819	 0.448453937364924 
1820	 0.448628999423126 
1821	 0.448865703163237 
1822	 0.449162122646507 
1823	 0.449473255329545 
1824	 0.449649383486494 
1825	 0.44986108697368 
1826	 0.449998849007162 
1827	 0.449955844273686 
1828	 0.450070100629462 
1829	 0.450233448439801 
1830	 0.450423044172783 
1831	 0.450628076023537 
1832	 0.450917223889256 
1833	 0.451262541602149 
1834	 0.451445442950022 
1835	 0.451604283509392 
1836	 0.451783634140755 
1837	 0.451951567765045 
1838	 0.452075900930152 
1839	 0.452243119758587 
1840	 0.452459297419193 
1841	 0.452623514264367 
1842	 0.452744610713412 
1843	 0.452905840642271 
1844	 0.453070355859665 
1845	 0.453216784150858 
1846	 0.453456379295589 
1847	 0.453657114242918 
1848	 0.453847514194395 
1849	 0.454064164852337 
1850	 0.454226170096574 
1851	 0.454347888490967 
1852	 0.454484046073381 
1853	 0.454549182918188 
1854	 0.454551376509552 
1855	 0.454523346140182 
1856	 0.454454177278145 
1857	 0.454372419148944 
1858	 0.454323673642738 
1859	 0.45424745722409 
1860	 0.45418284788222 
1861	 0.45404144410494 
1862	 0.453877972681915 
1863	 0.453647845102811 
1864	 0.453365531023817 
1865	 0.453116295717163 
1866	 0.452885713444293 
1867	 0.452637015751003 
1868	 0.452403769818009 
1869	 0.452208251858038 
1870	 0.451981313368328 
1871	 0.451791641539583 
1872	 0.45150632352096 
1873	 0.451221945797859 
1874	 0.450805754893624 
1875	 0.450280365847008 
1876	 0.449697228722049 
1877	 0.449067586221153 
1878	 0.448429145002727 
1879	 0.447737305675021 
1880	 0.447017545703652 
1881	 0.446218969508152 
1882	 0.445343351965172 
1883	 0.444420956536391 
1884	 0.443485443904408 
1885	 0.442480963608902 
1886	 0.441488788002973 
1887	 0.440393194224043 
1888	 0.439195361550356 
1889	 0.438057706792503 
1890	 0.436888353468775 
1891	 0.435684210828304 
1892	 0.434472109216773 
1893	 0.433182856133231 
1894	 0.431822424659731 
1895	 0.430380589229638 
1896	 0.428906356916058 
1897	 0.427506828393297 
1898	 0.426135021873649 
1899	 0.424728942358208 
1900	 0.42348049631914 
1901	 0.422226347552947 
1902	 0.420894661045195 
1903	 0.419735223843743 
1904	 0.418590001430367 
1905	 0.417467866340507 
1906	 0.41634837444352 
1907	 0.415339629250675 
1908	 0.414306241398537 
1909	 0.41332225658286 
1910	 0.412488995898118 
1911	 0.411643703913191 
1912	 0.410806745764784 
1913	 0.410015364087808 
1914	 0.409159317511492 
1915	 0.408359085370633 
1916	 0.407579229562016 
1917	 0.406882832960434 
1918	 0.406201882396437 
1919	 0.405522510211472 
1920	 0.404864438475893 
1921	 0.404253541148407 
1922	 0.403648630867351 
1923	 0.403072060283886 
1924	 0.402504898121106 
1925	 0.401909225322751 
1926	 0.40135123787712 
1927	 0.400770004973659 
1928	 0.400244795651096 
1929	 0.399732411588898 
1930	 0.39936324390786 
1931	 0.398953655713506 
1932	 0.398529611132646 
1933	 0.398170341452035 
1934	 0.397843846949466 
1935	 0.397557040238808 
1936	 0.397305995724252 
1937	 0.397116648244141 
1938	 0.396961835277691 
1939	 0.396843201728543 
1940	 0.396724253181174 
1941	 0.396822062095052 
1942	 0.396899257492908 
1943	 0.396994690521081 
1944	 0.397157151774661 
1945	 0.397346428713251 
1946	 0.397676992447824 
1947	 0.397984515479795 
1948	 0.398321534623055 
1949	 0.398701821185114 
1950	 0.399037922308476 
1951	 0.399283200679279 
1952	 0.399667231603091 
1953	 0.40010622343535 
1954	 0.400547612128818 
1955	 0.401085664658339 
1956	 0.401583950890596 
1957	 0.402161806960801 
1958	 0.40278190921539 
1959	 0.403352846855291 
1960	 0.404011482469398 
1961	 0.404594236313883 
1962	 0.405150305525623 
1963	 0.405642591231218 
1964	 0.406098688576771 
1965	 0.406505743329601 
1966	 0.406845065932514 
1967	 0.407181414117249 
1968	 0.407478525520172 
1969	 0.407809302647997 
1970	 0.40815911609636 
1971	 0.408472287836756 
1972	 0.40876963269151 
1973	 0.409042823636203 
1974	 0.409365191895178 
1975	 0.409691738263516 
1976	 0.410036377461196 
1977	 0.410436384686643 
1978	 0.410825679776192 
1979	 0.411212069855701 
1980	 0.41156890323707 
1981	 0.412014845995883 
1982	 0.412408891178893 
1983	 0.412822327361096 
1984	 0.413315814472058 
1985	 0.413723804704155 
1986	 0.414174335046661 
1987	 0.414655111118344 
1988	 0.415095027355213 
1989	 0.415647738816514 
1990	 0.416329284319444 
1991	 0.416949134499745 
1992	 0.417579050666463 
1993	 0.418262251867982 
1994	 0.418920938017668 
1995	 0.419612636911777 
1996	 0.420392417044686 
1997	 0.421186847990176 
1998	 0.421935965991118 
1999	 0.422675324494005 
2000	 0.423391829517882 
2001	 0.424111616291493 
2002	 0.424766107251526 
2003	 0.4253503345733 
2004	 0.426002494118159 
2005	 0.426690414756378 
2006	 0.427260007779989 
2007	 0.427825870773684 
2008	 0.428332457360513 
2009	 0.428743430394071 
2010	 0.429183432867045 
2011	 0.429681765191818 
2012	 0.430174264720531 
2013	 0.430546586949106 
2014	 0.430803114737789 
2015	 0.431114797056502 
2016	 0.431374106785255 
2017	 0.431626665356382 
2018	 0.431939957992118 
2019	 0.432167928642257 
2020	 0.432328171724904 
2021	 0.432449853302795 
2022	 0.432587979164468 
2023	 0.432659892576961 
2024	 0.432718040937201 
2025	 0.432752637294429 
2026	 0.432753392088166 
2027	 0.432716016144151 
2028	 0.432652656112476 
2029	 0.432523513455702 
2030	 0.432445591367682 
2031	 0.432366307821195 
2032	 0.432287722858855 
2033	 0.432249484340166 
2034	 0.432183307283055 
2035	 0.432128489504474 
2036	 0.431969581219743 
2037	 0.43185972250612 
2038	 0.431776349956612 
2039	 0.431680364189747 
2040	 0.431584572901939 
2041	 0.431495968436773 
2042	 0.431422268897351 
2043	 0.431320240181677 
2044	 0.431193595635229 
2045	 0.431098873419214 
2046	 0.430973740436074 
2047	 0.43091166222871 
2048	 0.430931027503741 
2049	 0.430907160329212 
2050	 0.430914298759284 
2051	 0.430873475681372 
2052	 0.430831587187172 
2053	 0.430738116313124 
2054	 0.430661373079504 
2055	 0.430582539932435 
2056	 0.430495101301614 
2057	 0.430396074073301 
2058	 0.430316289480851 
2059	 0.430215422056187 
2060	 0.430170027430919 
2061	 0.430165285281984 
2062	 0.430129965850763 
2063	 0.430155379086344 
2064	 0.430113588444387 
2065	 0.429989470730756 
2066	 0.42992000825723 
2067	 0.429830301874863 
2068	 0.429746422230597 
2069	 0.42969755477462 
2070	 0.429678313871248 
2071	 0.429672190402905 
2072	 0.429736753944447 
2073	 0.429684510129213 
2074	 0.429566019629624 
2075	 0.429519810681694 
2076	 0.429437731752994 
2077	 0.429369191498679 
2078	 0.429408910503082 
2079	 0.429354494950457 
2080	 0.429139638997284 
2081	 0.42906692487238 
2082	 0.429061060674441 
2083	 0.429059918066215 
2084	 0.429085921074318 
2085	 0.429088801052553 
2086	 0.429049154797457 
2087	 0.428931904945416 
2088	 0.428838672221773 
2089	 0.42872355667128 
2090	 0.428650088059663 
2091	 0.428590152678982 
2092	 0.428502308574221 
2093	 0.428438580423175 
2094	 0.42836217029888 
2095	 0.428238184829533 
2096	 0.428141500734369 
2097	 0.428045891648074 
2098	 0.42799384273876 
2099	 0.427985563380416 
2100	 0.427894492268235 
2101	 0.427767476388435 
2102	 0.427613869663242 
2103	 0.427473227965966 
2104	 0.427278870200968 
2105	 0.427107580436372 
2106	 0.427005458374635 
2107	 0.426787922204812 
2108	 0.426448960402198 
2109	 0.426210044134255 
2110	 0.425975161387745 
2111	 0.425749107666862 
2112	 0.425563695254052 
2113	 0.425371640505708 
2114	 0.425176820776132 
2115	 0.424968912397845 
2116	 0.424723236983738 
2117	 0.424586434360978 
2118	 0.424412499837782 
2119	 0.424224892023481 
2120	 0.424040105311719 
2121	 0.423875590105445 
2122	 0.423708808913132 
2123	 0.423555045902235 
2124	 0.423338340793105 
2125	 0.423138176730508 
2126	 0.422857899869674 
2127	 0.422431036312435 
2128	 0.422118399186879 
2129	 0.421758294612055 
2130	 0.421531132484215 
2131	 0.421496568273021 
2132	 0.421331566066927 
2133	 0.421152214097644 
2134	 0.421017359062318 
2135	 0.420749954509535 
2136	 0.420520470106418 
2137	 0.420380904367857 
2138	 0.420355858821798 
2139	 0.420224149237455 
2140	 0.420115586386925 
2141	 0.419949903176897 
2142	 0.419699072203565 
2143	 0.419491252496237 
2144	 0.419254085797905 
2145	 0.419091718915187 
2146	 0.418938261344661 
2147	 0.418846271906672 
2148	 0.418891571104571 
2149	 0.418839454044426 
2150	 0.418766409535093 
2151	 0.418698416762727 
2152	 0.418629375286847 
2153	 0.418485109798812 
2154	 0.418328525564157 
2155	 0.418217598854538 
2156	 0.418086895666916 
2157	 0.417902170368397 
2158	 0.417782746521581 
2159	 0.417721720628148 
2160	 0.417604581224313 
2161	 0.417522127395242 
2162	 0.417338338230241 
2163	 0.417085467393233 
2164	 0.416840136064715 
2165	 0.416491684916988 
2166	 0.4162277170592 
2167	 0.416041117736666 
2168	 0.415787198564788 
2169	 0.415575454783407 
2170	 0.415275010992227 
2171	 0.414817946581665 
2172	 0.414470210693323 
2173	 0.414174512686063 
2174	 0.413793255185292 
2175	 0.413446404812201 
2176	 0.41325591051798 
2177	 0.413102835471532 
2178	 0.412988942160838 
2179	 0.412907892759849 
2180	 0.412984707620884 
2181	 0.41288866266448 
2182	 0.412712388535295 
2183	 0.412560551969285 
2184	 0.41236135686595 
2185	 0.41220484190414 
2186	 0.412052781917963 
2187	 0.411929741223919 
2188	 0.411845688568751 
2189	 0.411715897862951 
2190	 0.411630964484649 
2191	 0.411466006919246 
2192	 0.411258085222699 
2193	 0.410993938902447 
2194	 0.410601936509679 
2195	 0.410281699567441 
2196	 0.409929208265552 
2197	 0.409626457137111 
2198	 0.409381596326965 
2199	 0.409159414060893 
2200	 0.408899346484904 
2201	 0.408612112550978 
2202	 0.408386150106027 
2203	 0.408173052065429 
2204	 0.407977367106377 
2205	 0.407896831238975 
2206	 0.40763530095222 
2207	 0.407267358912281 
2208	 0.406941276216186 
2209	 0.406529677655686 
2210	 0.406171949082515 
2211	 0.405856087069746 
2212	 0.405549982797956 
2213	 0.405235413384546 
2214	 0.404933306225447 
2215	 0.404644028764277 
2216	 0.404390766639997 
2217	 0.404205065147543 
2218	 0.403951315805454 
2219	 0.403685927507285 
2220	 0.403424226206115 
2221	 0.403126133158411 
2222	 0.402785477863925 
2223	 0.402516920375352 
2224	 0.4023586711687 
2225	 0.402152364873796 
2226	 0.401883574698782 
2227	 0.401503917798957 
2228	 0.401013785401716 
2229	 0.400555661802576 
2230	 0.400009673492045 
2231	 0.399499190097415 
2232	 0.399057403495076 
2233	 0.398473604475327 
2234	 0.397875824992999 
2235	 0.397116806691369 
2236	 0.396208599962544 
2237	 0.395289091387519 
2238	 0.394263649064079 
2239	 0.393173471817725 
2240	 0.392078574603277 
2241	 0.390851211600863 
2242	 0.389514384659792 
2243	 0.388095178300608 
2244	 0.386540787047054 
2245	 0.384952271374948 
2246	 0.383176827714153 
2247	 0.381505469777832 
2248	 0.379939165474159 
2249	 0.378239070112204 
2250	 0.37645850664495 
2251	 0.374803029751126 
2252	 0.372881105035383 
2253	 0.370874909854819 
2254	 0.368888877040199 
2255	 0.366802879186623 
2256	 0.364861406348669 
2257	 0.36295158855743 
2258	 0.361141106936831 
2259	 0.359461109849261 
2260	 0.357765401666239 
2261	 0.356151565708983 
2262	 0.354479058627094 
2263	 0.352755519438125 
2264	 0.351157539095972 
2265	 0.349573722817243 
2266	 0.348062177234413 
2267	 0.346706223390784 
2268	 0.345278469024531 
2269	 0.34380722105272 
2270	 0.342449682253686 
2271	 0.341189860979062 
2272	 0.339878807023759 
2273	 0.338693147378962 
2274	 0.337317861386009 
2275	 0.335727022943944 
2276	 0.334278848557485 
2277	 0.332795618030779 
2278	 0.331377711287289 
2279	 0.330134177623778 
2280	 0.328750961681415 
2281	 0.327281270281055 
2282	 0.325833554823998 
2283	 0.324414475261755 
2284	 0.3229036443649 
2285	 0.321156646402142 
2286	 0.319403898992295 
2287	 0.317499399588514 
2288	 0.315557848267501 
2289	 0.313916326097771 
2290	 0.31240706036709 
2291	 0.310753342318679 
2292	 0.309032830347234 
2293	 0.307109566611289 
2294	 0.305144590063167 
2295	 0.303391684247013 
2296	 0.301773011876624 
2297	 0.300449346412215 
2298	 0.299480819739013 
2299	 0.298459090013955 
2300	 0.297482487108139 
2301	 0.296944320850101 
2302	 0.296571712223607 
2303	 0.296485706629842 
2304	 0.296852166197079 
2305	 0.297346492652213 
2306	 0.298138677146279 
2307	 0.298849086957578 
2308	 0.299655631458846 
2309	 0.3006922176381 
2310	 0.301786879366908 
2311	 0.303002812796686 
2312	 0.30464317559172 
2313	 0.306084310497612 
2314	 0.307357015336324 
2315	 0.30882276543332 
2316	 0.310495422954 
2317	 0.311982141510256 
2318	 0.313507483741402 
2319	 0.314877080167759 
2320	 0.31617804899375 
2321	 0.317262442352099 
2322	 0.318243547710676 
2323	 0.319015550944292 
2324	 0.319599417102405 
2325	 0.319961173171751 
2326	 0.319979855618503 
2327	 0.320031029981142 
2328	 0.319970409297622 
2329	 0.319713093334534 
2330	 0.319241661825747 
2331	 0.318966817812792 
2332	 0.318497005444063 
2333	 0.317836262157036 
2334	 0.317146934374589 
2335	 0.316122528541081 
2336	 0.315124797384309 
2337	 0.314267155818585 
2338	 0.313384715380295 
2339	 0.312698219825785 
2340	 0.311712514594386 
2341	 0.3104029936437 
2342	 0.309403402663275 
2343	 0.308480731869067 
2344	 0.307718684059487 
2345	 0.307353602669171 
2346	 0.307134174378785 
2347	 0.307150283136054 
2348	 0.307250649375713 
2349	 0.307624901298378 
2350	 0.308284009614278 
2351	 0.308944574234198 
2352	 0.310028226272915 
2353	 0.311311497492914 
2354	 0.312426087962954 
2355	 0.313618802748248 
2356	 0.314549178816565 
2357	 0.315239189644771 
2358	 0.316033329560756 
2359	 0.316706834479886 
2360	 0.317338593464507 
2361	 0.317860217748596 
2362	 0.317830212278174 
2363	 0.317656012348111 
2364	 0.317707115682568 
2365	 0.317596894351699 
2366	 0.317675380800165 
2367	 0.317904126035336 
2368	 0.317774508717893 
2369	 0.317727868058781 
2370	 0.31764029681834 
2371	 0.317333009160275 
2372	 0.317227610535151 
2373	 0.316938154254057 
2374	 0.316720897143957 
2375	 0.316841981623596 
2376	 0.316810997802249 
2377	 0.316964860903615 
2378	 0.317231843257446 
2379	 0.317299834980342 
2380	 0.317397710892377 
2381	 0.317345648662126 
2382	 0.317342945189199 
2383	 0.317291180938572 
2384	 0.317299978294066 
2385	 0.317401428983251 
2386	 0.317402171891368 
2387	 0.317258899001598 
2388	 0.317268411389088 
2389	 0.317216717961753 
2390	 0.317391382720406 
2391	 0.317914285893948 
2392	 0.318157618668617 
2393	 0.318443668637074 
2394	 0.318491507791318 
2395	 0.318313101271241 
2396	 0.31795966110068 
2397	 0.317335834549855 
2398	 0.317226905941518 
2399	 0.317000722376699 
2400	 0.317149024978894 
2401	 0.317924831381576 
2402	 0.317706246854304 
2403	 0.318067473619977 
2404	 0.317988767822612 
2405	 0.317770253815761 
2406	 0.31819336211641 
2407	 0.318066770626237 
2408	 0.317702753373037 
2409	 0.317804688071293 
2410	 0.317655197777479 
2411	 0.317612687018952 
2412	 0.317861554945084 
2413	 0.317687225518718 
2414	 0.317362645964351 
2415	 0.317157130841851 
2416	 0.317071339680969 
2417	 0.317111062698477 
2418	 0.317208762225419 
2419	 0.317375413377997 
2420	 0.317329603524838 
2421	 0.317128745601929 
2422	 0.316919117241454 
2423	 0.316802365739881 
2424	 0.316284883799834 
2425	 0.315743317613679 
2426	 0.316247187479109 
2427	 0.31627824371982 
2428	 0.31573419148875 
2429	 0.316009742191878 
2430	 0.315715630474836 
2431	 0.315264715667642 
2432	 0.315961274609621 
2433	 0.316385829645018 
2434	 0.316510028897465 
2435	 0.31632897544902 
2436	 0.315462296525328 
2437	 0.31489562973828 
2438	 0.314933359651678 
2439	 0.315088357442412 
2440	 0.315585432662645 
2441	 0.316425147524308 
2442	 0.31610438092317 
2443	 0.314867092669621 
2444	 0.313976792597334 
2445	 0.313292581467723 
2446	 0.312778251104936 
2447	 0.312823443941602 
2448	 0.312616645681387 
2449	 0.311846598060337 
2450	 0.311299915182316 
2451	 0.310649655712849 
2452	 0.31092617061111 
2453	 0.311179521619346 
2454	 0.310355390455434 
2455	 0.310667983447722 
2456	 0.310556149847302 
2457	 0.309712624260088 
2458	 0.310229866439897 
2459	 0.309983174782906 
2460	 0.308953564663266 
2461	 0.308542467957971 
2462	 0.307436306849619 
2463	 0.307046472362409 
2464	 0.30785906145357 
2465	 0.308572767584289 
2466	 0.309373931216388 
2467	 0.309888830632532 
2468	 0.309413765663388 
2469	 0.308610717931075 
2470	 0.30811492660613 
2471	 0.307036168328521 
2472	 0.306561491820389 
2473	 0.306508996237923 
2474	 0.306178862964731 
2475	 0.30603404277364 
2476	 0.30526611801467 
2477	 0.305080200505425 
2478	 0.304937145771346 
2479	 0.304913735906892 
2480	 0.306530563860032 
2481	 0.307144597757764 
2482	 0.308033246338959 
2483	 0.308772300305062 
2484	 0.308387106393704 
2485	 0.307730486563861 
2486	 0.307295057955421 
2487	 0.306927046639141 
2488	 0.306558083645971 
2489	 0.306380512157404 
2490	 0.307196832739933 
2491	 0.307377297695064 
2492	 0.307740648901626 
2493	 0.309528887724222 
2494	 0.310031967727015 
2495	 0.31044450398957 
2496	 0.311202377675129 
2497	 0.309595983434083 
2498	 0.309175340270108 
2499	 0.310759123103163 
2500	 0.311213353095513 
