Wavelength	Tablay400099.asd
350	 0.198987191465651 
351	 0.177228688549648 
352	 0.167094351835031 
353	 0.182916826549095 
354	 0.193942098167084 
355	 0.182620075470054 
356	 0.184079115623989 
357	 0.212950894134102 
358	 0.160124952097576 
359	 0.118302814426182 
360	 0.119803865278834 
361	 0.152667210938952 
362	 7.05320189063849E-02 
363	 6.08001450675295E-02 
364	 0.149631381412394 
365	 8.01266146742921E-02 
366	 5.35770870153786E-02 
367	 0.069115126704847 
368	 8.68426103227145E-02 
369	 0.115529316288133 
370	 0.135601641235508 
371	 0.137580918023059 
372	 0.119963453281025 
373	 0.134966332243253 
374	 0.106027337053153 
375	 4.17324406764337E-02 
376	 8.19045037990999E-02 
377	 0.100456620775965 
378	 9.66750223560994E-02 
379	 9.73142296053814E-02 
380	 0.088257362035248 
381	 7.84820447149878E-02 
382	 6.96189570478942E-02 
383	 5.63010861114981E-02 
384	 5.02473416834946E-02 
385	 5.87313752123409E-02 
386	 7.45252911383736E-02 
387	 6.95548359212311E-02 
388	 7.71314176745097E-02 
389	 7.94272594150312E-02 
390	 6.11145888495394E-02 
391	 5.74271293670048E-02 
392	 7.35323133682562E-02 
393	 8.64979394033961E-02 
394	 0.064469961414298 
395	 7.53472613038667E-02 
396	 7.93547972736138E-02 
397	 6.34231943134596E-02 
398	 7.86902376650279E-02 
399	 0.078344240229816 
400	 7.17910390768758E-02 
401	 0.077273453416379 
402	 0.08542683175876 
403	 6.87819106982841E-02 
404	 4.67996615358291E-02 
405	 6.68287369446469E-02 
406	 7.13014245141256E-02 
407	 6.87405328647397E-02 
408	 6.77169095728057E-02 
409	 5.80778749608518E-02 
410	 5.35104247647014E-02 
411	 6.05870260211558E-02 
412	 7.67593397970619E-02 
413	 7.44608062731877E-02 
414	 5.99841790802329E-02 
415	 4.99003713370545E-02 
416	 6.46804354453676E-02 
417	 5.53294543615501E-02 
418	 4.79446014398836E-02 
419	 6.01254102081207E-02 
420	 6.29187374503307E-02 
421	 5.92836666966864E-02 
422	 5.43090648790499E-02 
423	 5.37203587024823E-02 
424	 5.77417274564983E-02 
425	 6.22391876598534E-02 
426	 6.25889303823317E-02 
427	 5.43639828631304E-02 
428	 5.48408787381256E-02 
429	 5.79115396190053E-02 
430	 5.66434668784061E-02 
431	 5.73671151351152E-02 
432	 5.70133398952392E-02 
433	 5.65079482956756E-02 
434	 5.81744055855717E-02 
435	 5.59526391347914E-02 
436	 5.74243723064049E-02 
437	 6.27465751768576E-02 
438	 5.92835005581527E-02 
439	 5.17540745918501E-02 
440	 4.92533878444752E-02 
441	 5.66844483275818E-02 
442	 5.80469686198153E-02 
443	 5.78346678784386E-02 
444	 5.71919573733686E-02 
445	 5.45870529105703E-02 
446	 5.42310102491582E-02 
447	 5.50496035669857E-02 
448	 5.59474123960924E-02 
449	 5.83198513220972E-02 
450	 5.46323415766373E-02 
451	 5.14750409512318E-02 
452	 5.69908498226267E-02 
453	 5.43522930131945E-02 
454	 0.051946972618331 
455	 5.30311511580624E-02 
456	 5.36713226905705E-02 
457	 5.23092407027662E-02 
458	 5.20489271704039E-02 
459	 5.45400585825784E-02 
460	 5.41521834254963E-02 
461	 5.47010731826376E-02 
462	 0.055425403407668 
463	 5.36734745008297E-02 
464	 5.26204319249136E-02 
465	 5.22616749620545E-02 
466	 5.21697821234159E-02 
467	 5.17988119398141E-02 
468	 5.27979301913651E-02 
469	 5.28363804292756E-02 
470	 5.03900448353763E-02 
471	 5.19075606908812E-02 
472	 5.16119837603947E-02 
473	 4.96526047141692E-02 
474	 5.06765062151118E-02 
475	 5.24090073571358E-02 
476	 5.26707291870591E-02 
477	 5.10977328988323E-02 
478	 5.09561839480215E-02 
479	 5.12495509893182E-02 
480	 5.15531719655541E-02 
481	 5.16001010518774E-02 
482	 5.12730910309351E-02 
483	 5.07552439090105E-02 
484	 5.03019175931215E-02 
485	 5.02017773276924E-02 
486	 4.94372309628877E-02 
487	 0.048923315573208 
488	 4.93574826664566E-02 
489	 4.95562151601004E-02 
490	 4.95160007287343E-02 
491	 4.96066749559917E-02 
492	 5.02090806441638E-02 
493	 4.94349426224712E-02 
494	 4.97222442056304E-02 
495	 5.12604231308443E-02 
496	 4.98298690461793E-02 
497	 4.93428291242536E-02 
498	 4.91193906251141E-02 
499	 4.79318421568965E-02 
500	 4.85556964376217E-02 
501	 4.88249287008417E-02 
502	 4.84130175245025E-02 
503	 4.86546037461378E-02 
504	 4.87468289354533E-02 
505	 4.85685873252901E-02 
506	 4.83538517536319E-02 
507	 0.048993960344836 
508	 4.89587647816018E-02 
509	 4.86879718489474E-02 
510	 4.91731108358635E-02 
511	 4.87956424176067E-02 
512	 4.84611273959493E-02 
513	 4.83276619659147E-02 
514	 4.73435683491852E-02 
515	 4.73980114115307E-02 
516	 4.81361735672827E-02 
517	 4.85487532682549E-02 
518	 4.73883775698733E-02 
519	 4.67517422428831E-02 
520	 4.71905797279148E-02 
521	 4.80503804583629E-02 
522	 4.83741132540014E-02 
523	 4.78244857534398E-02 
524	 4.69236222549769E-02 
525	 4.77088483201368E-02 
526	 4.78744383911619E-02 
527	 4.75339725860544E-02 
528	 4.74925265288044E-02 
529	 4.73394717592294E-02 
530	 4.72783284143803E-02 
531	 4.74039474612449E-02 
532	 0.047654633438555 
533	 4.72520438037708E-02 
534	 4.70010039001538E-02 
535	 0.047499419641512 
536	 4.78708453141566E-02 
537	 4.76496396868519E-02 
538	 4.72703025766296E-02 
539	 4.74970766374406E-02 
540	 4.70804324101528E-02 
541	 4.69117547495797E-02 
542	 4.72586160182891E-02 
543	 4.70460932539483E-02 
544	 4.67729557176616E-02 
545	 4.66881351519365E-02 
546	 4.68638381857491E-02 
547	 4.69032910642852E-02 
548	 4.69253983785028E-02 
549	 4.69528668396306E-02 
550	 4.69099966522972E-02 
551	 4.68118085189474E-02 
552	 4.67772983216553E-02 
553	 4.68899750031958E-02 
554	 4.71678823922017E-02 
555	 4.69944206268243E-02 
556	 4.66732629417696E-02 
557	 0.046820093268835 
558	 4.67337428801413E-02 
559	 4.64713153627938E-02 
560	 4.62786558872347E-02 
561	 0.046560016607346 
562	 4.66820640784463E-02 
563	 0.046750721017674 
564	 4.69086344417101E-02 
565	 4.65973739185212E-02 
566	 4.64964541127095E-02 
567	 4.66329889068274E-02 
568	 4.65680953781576E-02 
569	 4.66486638239134E-02 
570	 4.66097194029913E-02 
571	 4.63608173698516E-02 
572	 4.63402773711582E-02 
573	 4.65401257182729E-02 
574	 4.67047542554676E-02 
575	 4.65559088866167E-02 
576	 4.63522266321376E-02 
577	 4.63871424853917E-02 
578	 4.65531519767987E-02 
579	 4.63169806418696E-02 
580	 4.64798847638289E-02 
581	 4.66126953296958E-02 
582	 4.63364726634187E-02 
583	 0.046281683104863 
584	 4.64800937325569E-02 
585	 4.66522117143259E-02 
586	 4.64154707300688E-02 
587	 4.63330727669579E-02 
588	 4.62413970298838E-02 
589	 4.61066393081891E-02 
590	 0.046246031256253 
591	 4.65080324851781E-02 
592	 4.66220840046718E-02 
593	 4.64008993743183E-02 
594	 4.61005556330922E-02 
595	 4.63152854430337E-02 
596	 4.67037312062557E-02 
597	 4.62193247201451E-02 
598	 4.61948162744171E-02 
599	 4.62542301735685E-02 
600	 4.60919630146054E-02 
601	 4.63483114192957E-02 
602	 4.63406343479725E-02 
603	 0.046170858379555 
604	 4.62429607791412E-02 
605	 4.65294372005284E-02 
606	 4.65168631809433E-02 
607	 4.62373358774808E-02 
608	 4.64295095340815E-02 
609	 4.63473615869442E-02 
610	 4.62207288026423E-02 
611	 4.63236340540178E-02 
612	 4.62397319605845E-02 
613	 4.63028198350784E-02 
614	 4.64372348705733E-02 
615	 4.63337509602469E-02 
616	 4.61749322786514E-02 
617	 4.61795248807965E-02 
618	 4.63175284588938E-02 
619	 4.60893279324733E-02 
620	 4.62645552641765E-02 
621	 4.64272048114464E-02 
622	 4.60605181559064E-02 
623	 4.61467312955376E-02 
624	 4.63012005259674E-02 
625	 4.63509895469983E-02 
626	 4.63751698458923E-02 
627	 4.64159310110763E-02 
628	 4.62815610494519E-02 
629	 4.59868971547508E-02 
630	 4.61705361588353E-02 
631	 4.64069596880323E-02 
632	 4.64715358206762E-02 
633	 4.62755366906448E-02 
634	 4.59906378969282E-02 
635	 4.60449989063076E-02 
636	 4.64129672345617E-02 
637	 4.65018698081097E-02 
638	 4.63444680943448E-02 
639	 0.046231621791441 
640	 4.63665278133053E-02 
641	 4.64385849541446E-02 
642	 4.64014159659583E-02 
643	 4.63367362913199E-02 
644	 4.63810023928418E-02 
645	 4.63207925015031E-02 
646	 4.64040407741753E-02 
647	 4.65905276219092E-02 
648	 4.62658111078272E-02 
649	 4.62844517515483E-02 
650	 4.64435081559398E-02 
651	 4.63698154880537E-02 
652	 4.64497903288364E-02 
653	 4.64704023946251E-02 
654	 4.64360534426737E-02 
655	 4.65225851699531E-02 
656	 4.65752981711409E-02 
657	 4.66157600795779E-02 
658	 4.66501795326893E-02 
659	 4.65813406051641E-02 
660	 4.65730971012158E-02 
661	 4.66308674077969E-02 
662	 4.66887744066613E-02 
663	 4.66376225659118E-02 
664	 4.67573057763112E-02 
665	 4.69887329004864E-02 
666	 4.69323859431507E-02 
667	 4.68272420172164E-02 
668	 4.68384589424824E-02 
669	 0.046989582346471 
670	 4.69852739499589E-02 
671	 4.69807511437438E-02 
672	 4.70110234145027E-02 
673	 4.70569028557876E-02 
674	 4.71070300714618E-02 
675	 4.71287831922302E-02 
676	 4.71510489342371E-02 
677	 4.72732621171246E-02 
678	 4.73016654284356E-02 
679	 4.73298689882381E-02 
680	 4.74382521576152E-02 
681	 4.74503680405414E-02 
682	 4.75011942620379E-02 
683	 4.75872850825279E-02 
684	 4.76386569046829E-02 
685	 4.77008662093577E-02 
686	 0.047836540042505 
687	 4.80004414485234E-02 
688	 4.79987150307775E-02 
689	 4.80457043855185E-02 
690	 4.82203654406834E-02 
691	 4.84835756992354E-02 
692	 4.85386031552417E-02 
693	 4.85732840214764E-02 
694	 4.87069115811166E-02 
695	 4.89811376057915E-02 
696	 4.92053337682624E-02 
697	 4.93993903340706E-02 
698	 4.96181612416855E-02 
699	 4.99286324359586E-02 
700	 0.050223239464731 
701	 5.04788468361255E-02 
702	 5.07268973348804E-02 
703	 5.10924279946249E-02 
704	 5.14883537410544E-02 
705	 5.18998933022453E-02 
706	 5.23643051995209E-02 
707	 0.052896782155095 
708	 5.33990104117267E-02 
709	 5.38664113426135E-02 
710	 5.44674122518991E-02 
711	 5.51624744874835E-02 
712	 5.58970206705298E-02 
713	 0.056644422988192 
714	 0.057522320699722 
715	 5.83989846901663E-02 
716	 5.93197312999975E-02 
717	 6.04306361034445E-02 
718	 6.14606752861804E-02 
719	 0.062654338394594 
720	 0.06408129635086 
721	 6.54049846431141E-02 
722	 6.68479861388361E-02 
723	 6.84663065237909E-02 
724	 7.02372643406228E-02 
725	 7.20190305391823E-02 
726	 7.39879365738944E-02 
727	 7.61200766985755E-02 
728	 7.82589110111245E-02 
729	 0.080505735123091 
730	 8.28975691174441E-02 
731	 8.54294285952699E-02 
732	 8.80372851009776E-02 
733	 9.08714408359398E-02 
734	 9.37807005632011E-02 
735	 9.66322344060756E-02 
736	 9.96843475640047E-02 
737	 0.102837317863003 
738	 0.106069129588425 
739	 0.10939971539304 
740	 0.112789009132977 
741	 0.116218171110499 
742	 0.119646217512312 
743	 0.123003182721257 
744	 0.126398101265895 
745	 0.129855639255002 
746	 0.133352562907484 
747	 0.136816715862124 
748	 0.140238268003246 
749	 0.143588740904081 
750	 0.146861077485355 
751	 0.150237561671066 
752	 0.153619055257976 
753	 0.156880925146652 
754	 0.159911881643027 
755	 0.163111004206625 
756	 0.166268010346236 
757	 0.169176884734344 
758	 0.172060438012137 
759	 0.174861433103674 
760	 0.177610755057006 
761	 0.180351510839941 
762	 0.182974175606172 
763	 0.185507822830106 
764	 0.18795195299357 
765	 0.190271387144804 
766	 0.19262654143088 
767	 0.194944478967904 
768	 0.197147694524376 
769	 0.199245785355196 
770	 0.201297775063016 
771	 0.203296724474387 
772	 0.205230820539124 
773	 0.207214663246511 
774	 0.209084207620046 
775	 0.21081926999303 
776	 0.212529061122233 
777	 0.214281713914808 
778	 0.215954388561301 
779	 0.217527547039841 
780	 0.219203005343697 
781	 0.220747686816913 
782	 0.222197521725684 
783	 0.223658150440464 
784	 0.225200792285759 
785	 0.226555559477178 
786	 0.227784654617172 
787	 0.229115801462782 
788	 0.230442280323522 
789	 0.231759389284225 
790	 0.23304935142166 
791	 0.234276003600845 
792	 0.235422792716186 
793	 0.236612996444759 
794	 0.237890285885639 
795	 0.239042628077317 
796	 0.240109766833447 
797	 0.241160709734333 
798	 0.242263854008801 
799	 0.243414277464063 
800	 0.244485768479218 
801	 0.245492577406896 
802	 0.246540798288796 
803	 0.247447894588038 
804	 0.248407395797254 
805	 0.24946079034467 
806	 0.250355762319866 
807	 0.251318570470646 
808	 0.252265104655758 
809	 0.253113843765755 
810	 0.254023894139356 
811	 0.254918916933803 
812	 0.255822076269177 
813	 0.256771392708295 
814	 0.257651997015447 
815	 0.258390081430537 
816	 0.259125400032652 
817	 0.260125624900418 
818	 0.260905833830988 
819	 0.261680620587006 
820	 0.262561022666662 
821	 0.263316476999811 
822	 0.264066434818112 
823	 0.26481985238619 
824	 0.265569465321694 
825	 0.266341774828681 
826	 0.267138739033313 
827	 0.26782678514561 
828	 0.268312061514576 
829	 0.26907103577157 
830	 0.26986371328067 
831	 0.270577125255868 
832	 0.271255916925386 
833	 0.271921748361869 
834	 0.272532687422684 
835	 0.273092710858174 
836	 0.2736888296798 
837	 0.274413932940916 
838	 0.275107354487842 
839	 0.275668780678325 
840	 0.276357009041869 
841	 0.276990781025445 
842	 0.277548969390273 
843	 0.278090907801685 
844	 0.278713153076603 
845	 0.279331642710426 
846	 0.279885845916222 
847	 0.280370901419508 
848	 0.281032095278078 
849	 0.281633025336912 
850	 0.28210649371466 
851	 0.282660722870346 
852	 0.283305954739519 
853	 0.28385531193192 
854	 0.284269480391427 
855	 0.284912730279948 
856	 0.285406891408793 
857	 0.285876432312999 
858	 0.286484231787275 
859	 0.286944093880457 
860	 0.287386315753174 
861	 0.287923590422338 
862	 0.288586986626815 
863	 0.289037368595109 
864	 0.289498860176816 
865	 0.289982509019379 
866	 0.290324229699979 
867	 0.290880011942472 
868	 0.291319406906147 
869	 0.291598245748873 
870	 0.292167706463704 
871	 0.292688106973078 
872	 0.29317995559996 
873	 0.293690210813868 
874	 0.294154119719436 
875	 0.294615381943016 
876	 0.295041049403675 
877	 0.295404861146905 
878	 0.295763562025178 
879	 0.296315712054971 
880	 0.296811380267241 
881	 0.296969024189906 
882	 0.297592119706308 
883	 0.2980936900168 
884	 0.298396964785965 
885	 0.2988518163681 
886	 0.299413382795053 
887	 0.299799404211394 
888	 0.300028843691058 
889	 0.300467027075996 
890	 0.300872550690526 
891	 0.301167879620908 
892	 0.301414461540709 
893	 0.301847948786494 
894	 0.302252998567572 
895	 0.302584677669827 
896	 0.302894520620832 
897	 0.303359990445716 
898	 0.303847635091163 
899	 0.304229371663452 
900	 0.304458404934127 
901	 0.304749171897058 
902	 0.30514661631721 
903	 0.305581474626932 
904	 0.305943102119182 
905	 0.306250029552819 
906	 0.306624586231256 
907	 0.306983718574811 
908	 0.307153441245531 
909	 0.307453534546791 
910	 0.307855012872445 
911	 0.308226355818847 
912	 0.308421171376363 
913	 0.30888204744678 
914	 0.309313644802583 
915	 0.309550003968214 
916	 0.309760127118972 
917	 0.31005548547304 
918	 0.310295687773501 
919	 0.310433674248298 
920	 0.310689116914691 
921	 0.310994968327143 
922	 0.31127417343493 
923	 0.311531984093773 
924	 0.312002825651573 
925	 0.312331351240594 
926	 0.312579974375252 
927	 0.312906561345549 
928	 0.313288669224777 
929	 0.313664267024569 
930	 0.313895027715324 
931	 0.3139392742832 
932	 0.314242871663105 
933	 0.314629287828114 
934	 0.314960082706193 
935	 0.315175397134297 
936	 0.315430556451109 
937	 0.315779641608152 
938	 0.316147309396682 
939	 0.316402139856775 
940	 0.316630886735185 
941	 0.316994376856699 
942	 0.317482086373544 
943	 0.317910132197476 
944	 0.317988658222801 
945	 0.318166654850199 
946	 0.318514904193512 
947	 0.3186608233367 
948	 0.318949412353665 
949	 0.319282910118316 
950	 0.319541220917176 
951	 0.319678513558603 
952	 0.31989099522961 
953	 0.320141656841552 
954	 0.320419403273518 
955	 0.320796773891447 
956	 0.320721530834926 
957	 0.320731549425666 
958	 0.321087942458327 
959	 0.321200878095658 
960	 0.321541007494222 
961	 0.321896697428839 
962	 0.322054432827024 
963	 0.322115094491006 
964	 0.322124016688177 
965	 0.322491444399448 
966	 0.323201120804207 
967	 0.323153552556912 
968	 0.323049328109614 
969	 0.323193848409767 
970	 0.323615306389557 
971	 0.323974765941181 
972	 0.324016099335392 
973	 0.323968756395917 
974	 0.324125486833046 
975	 0.324477060757503 
976	 0.324771303853739 
977	 0.324752969677051 
978	 0.324464586105742 
979	 0.324732552137883 
980	 0.325185680785009 
981	 0.325633188022879 
982	 0.325937077362702 
983	 0.32595701053226 
984	 0.325960033828878 
985	 0.32625407004003 
986	 0.326838298222895 
987	 0.326735925492652 
988	 0.326886335467029 
989	 0.327252157484148 
990	 0.327433399175515 
991	 0.32708751628267 
992	 0.327199375872493 
993	 0.327553207241812 
994	 0.327620810554097 
995	 0.327482255602925 
996	 0.327438444160748 
997	 0.327595410662167 
998	 0.327885447493934 
999	 0.32795887372429 
1000	 0.328604291024756 
1001	 0.330136821959216 
1002	 0.330322350896623 
1003	 0.330668930605485 
1004	 0.330868374046446 
1005	 0.330813867285584 
1006	 0.330957161076121 
1007	 0.331302593708585 
1008	 0.331433369708851 
1009	 0.331439923280735 
1010	 0.331527540305995 
1011	 0.331628499203942 
1012	 0.331648884130079 
1013	 0.331667453229482 
1014	 0.331697931533032 
1015	 0.331614691499352 
1016	 0.331525811574072 
1017	 0.331844072294574 
1018	 0.331966176335938 
1019	 0.332211906452015 
1020	 0.332537669473878 
1021	 0.332742912569837 
1022	 0.332921339213007 
1023	 0.33304210066698 
1024	 0.333075806404999 
1025	 0.333137085636936 
1026	 0.333061489000275 
1027	 0.333107698754936 
1028	 0.333163189309545 
1029	 0.333392474707388 
1030	 0.333677110055719 
1031	 0.334039535287129 
1032	 0.334392590406599 
1033	 0.334497145244243 
1034	 0.334413975273245 
1035	 0.334123525513365 
1036	 0.334045365863443 
1037	 0.3338983593818 
1038	 0.333999680770002 
1039	 0.334459256743793 
1040	 0.334612095443884 
1041	 0.33468495351566 
1042	 0.334779902688473 
1043	 0.33474363533575 
1044	 0.334695211089412 
1045	 0.335017224041374 
1046	 0.335285115374136 
1047	 0.335432390381622 
1048	 0.335647927912528 
1049	 0.335713842891628 
1050	 0.335924588521339 
1051	 0.336118681005297 
1052	 0.336073507274128 
1053	 0.336147063211394 
1054	 0.336160016924814 
1055	 0.336218034282048 
1056	 0.336367117240361 
1057	 0.336541679368816 
1058	 0.336759782212736 
1059	 0.336857634803438 
1060	 0.337002404611084 
1061	 0.337222050150639 
1062	 0.33738249598652 
1063	 0.337407035345578 
1064	 0.337386518196394 
1065	 0.337443347256676 
1066	 0.337554447174107 
1067	 0.337701394376535 
1068	 0.337840968416818 
1069	 0.337796876105278 
1070	 0.337856798064743 
1071	 0.337895715723063 
1072	 0.337944461764086 
1073	 0.337925718933157 
1074	 0.338114952489182 
1075	 0.338250623740781 
1076	 0.338330667469385 
1077	 0.33851203808125 
1078	 0.338625918134989 
1079	 0.338655059667071 
1080	 0.338629734884402 
1081	 0.338714235332549 
1082	 0.338838372257108 
1083	 0.338880137689064 
1084	 0.339024977889966 
1085	 0.33912979716298 
1086	 0.339215048164512 
1087	 0.339276913215943 
1088	 0.339413285069557 
1089	 0.339457562696647 
1090	 0.339520242311751 
1091	 0.339587037034055 
1092	 0.339610428291134 
1093	 0.339800410862068 
1094	 0.339948352528364 
1095	 0.339982276991048 
1096	 0.340126732781166 
1097	 0.340160276967383 
1098	 0.340112241857549 
1099	 0.340187797438184 
1100	 0.340204975071924 
1101	 0.340259396068968 
1102	 0.340434943610342 
1103	 0.340564607443926 
1104	 0.34069739609579 
1105	 0.340916167805333 
1106	 0.341134278876034 
1107	 0.341222916649738 
1108	 0.34142292123285 
1109	 0.341567967639065 
1110	 0.341512539221188 
1111	 0.341500095232632 
1112	 0.341526097102362 
1113	 0.341542956554849 
1114	 0.341637285712014 
1115	 0.34180821939395 
1116	 0.341950725266913 
1117	 0.342095653908193 
1118	 0.342275245661968 
1119	 0.342532325753899 
1120	 0.342672270453866 
1121	 0.342743943892363 
1122	 0.342940156441595 
1123	 0.343083580993562 
1124	 0.343119108485664 
1125	 0.343277337145831 
1126	 0.343348253718081 
1127	 0.343375516151428 
1128	 0.343537767938718 
1129	 0.343653685129999 
1130	 0.343718936736943 
1131	 0.343673100575146 
1132	 0.343576176477207 
1133	 0.343599209178836 
1134	 0.343662177347508 
1135	 0.34372498807491 
1136	 0.343870667527392 
1137	 0.343968287025603 
1138	 0.344057783692118 
1139	 0.344089961537679 
1140	 0.344081792277555 
1141	 0.344125395827872 
1142	 0.344075734741047 
1143	 0.344074005925981 
1144	 0.344161054805294 
1145	 0.344294678978479 
1146	 0.34455527099455 
1147	 0.344792946373458 
1148	 0.344996894304421 
1149	 0.345176001184377 
1150	 0.345210673625488 
1151	 0.345149911723547 
1152	 0.34516934375514 
1153	 0.345199431853016 
1154	 0.345224206720386 
1155	 0.34527909144171 
1156	 0.345329028515114 
1157	 0.345340489364321 
1158	 0.34535048177196 
1159	 0.345378324247316 
1160	 0.345414017629447 
1161	 0.345427091239724 
1162	 0.345441180703547 
1163	 0.345361680556377 
1164	 0.345230288412837 
1165	 0.345066408284136 
1166	 0.34498226776732 
1167	 0.345018556362681 
1168	 0.345110175512692 
1169	 0.345109873481931 
1170	 0.345095067878352 
1171	 0.345082919251833 
1172	 0.34498425548337 
1173	 0.344963775058986 
1174	 0.345063347539697 
1175	 0.345049137229568 
1176	 0.344994613250859 
1177	 0.344935509995481 
1178	 0.344829745357974 
1179	 0.344685081024112 
1180	 0.344677375921185 
1181	 0.344642530912704 
1182	 0.344611745393796 
1183	 0.344674395804703 
1184	 0.344629944743452 
1185	 0.344543074684486 
1186	 0.344499599557043 
1187	 0.344451206246183 
1188	 0.344425872578555 
1189	 0.344425708044768 
1190	 0.344418731065667 
1191	 0.344396921087535 
1192	 0.344413393086573 
1193	 0.344443619834385 
1194	 0.344507789643182 
1195	 0.34464764363846 
1196	 0.344728072802084 
1197	 0.344776200494537 
1198	 0.344856729937398 
1199	 0.344969515847022 
1200	 0.345057050749458 
1201	 0.345161599966147 
1202	 0.345342795572844 
1203	 0.345498947960402 
1204	 0.345614829031827 
1205	 0.345784712476557 
1206	 0.345978646465088 
1207	 0.346211720137753 
1208	 0.346480437030044 
1209	 0.346745232319079 
1210	 0.347047903933676 
1211	 0.347363692691947 
1212	 0.347622412946536 
1213	 0.348003497891442 
1214	 0.348475403139786 
1215	 0.348950180530163 
1216	 0.34951508476758 
1217	 0.350045693866302 
1218	 0.350537090289649 
1219	 0.351105243984551 
1220	 0.351722087047679 
1221	 0.352327636301546 
1222	 0.352885659627226 
1223	 0.353422992118632 
1224	 0.354044952012743 
1225	 0.354676969975054 
1226	 0.355260948691526 
1227	 0.355942389521133 
1228	 0.356512662507246 
1229	 0.356936201928307 
1230	 0.357434570809086 
1231	 0.357971581626905 
1232	 0.358472579159674 
1233	 0.358964859754502 
1234	 0.35941673477881 
1235	 0.359816586930476 
1236	 0.360254243287397 
1237	 0.360677745709421 
1238	 0.361109863732236 
1239	 0.361603660301556 
1240	 0.362053711354123 
1241	 0.362405420878385 
1242	 0.362737762740976 
1243	 0.363094497576178 
1244	 0.363421279547 
1245	 0.363744770627545 
1246	 0.364074558306984 
1247	 0.364431817118305 
1248	 0.364765793446348 
1249	 0.365123806210946 
1250	 0.365544805591696 
1251	 0.365926564452131 
1252	 0.366293396510304 
1253	 0.366643398976393 
1254	 0.367023364753211 
1255	 0.367330322196288 
1256	 0.367514640083763 
1257	 0.367798328596016 
1258	 0.36812013811545 
1259	 0.368408854091735 
1260	 0.36872243729643 
1261	 0.369058352139152 
1262	 0.369439588821804 
1263	 0.369700277552542 
1264	 0.36996404448595 
1265	 0.370239127817659 
1266	 0.370501955048425 
1267	 0.370661262643387 
1268	 0.370949755447738 
1269	 0.371348053650213 
1270	 0.371654618403732 
1271	 0.371976015544284 
1272	 0.372249376378408 
1273	 0.372445680443021 
1274	 0.372696393921683 
1275	 0.372967541250672 
1276	 0.373206892812823 
1277	 0.373389763257637 
1278	 0.373679862406399 
1279	 0.374021465841916 
1280	 0.374335648666191 
1281	 0.374740185966216 
1282	 0.375096194884981 
1283	 0.375393621016666 
1284	 0.375690499317311 
1285	 0.375980795646157 
1286	 0.376280909346869 
1287	 0.376553751521711 
1288	 0.376802679501706 
1289	 0.377040467377925 
1290	 0.377245282844958 
1291	 0.377509553813675 
1292	 0.377792116893873 
1293	 0.378046127561982 
1294	 0.378343851732729 
1295	 0.378588287130003 
1296	 0.378770644583109 
1297	 0.378975809648586 
1298	 0.379183479886024 
1299	 0.379385744861307 
1300	 0.379529467852726 
1301	 0.37976443294385 
1302	 0.380090208480535 
1303	 0.38034382185598 
1304	 0.38063395581743 
1305	 0.380880198147236 
1306	 0.381037485368136 
1307	 0.381220046934332 
1308	 0.381370929421356 
1309	 0.381588035475662 
1310	 0.381803688366366 
1311	 0.382058942628633 
1312	 0.382213428287552 
1313	 0.382303112303309 
1314	 0.382529981511505 
1315	 0.382768896290005 
1316	 0.382973361440383 
1317	 0.383281188805318 
1318	 0.383514132800556 
1319	 0.383636192590223 
1320	 0.383810350612742 
1321	 0.384051197739132 
1322	 0.384231662122472 
1323	 0.384353038061947 
1324	 0.384494962573135 
1325	 0.384627760627947 
1326	 0.384778095485763 
1327	 0.384897853476442 
1328	 0.385079470198183 
1329	 0.385359109662615 
1330	 0.385553302130754 
1331	 0.385734031151491 
1332	 0.385912762738011 
1333	 0.386052994103805 
1334	 0.386170470565306 
1335	 0.386274585776518 
1336	 0.38637110135371 
1337	 0.386512049113372 
1338	 0.386620166632709 
1339	 0.386792268942043 
1340	 0.387088133831122 
1341	 0.387215631164619 
1342	 0.387260416762475 
1343	 0.387366372017231 
1344	 0.387434664662616 
1345	 0.387509076676981 
1346	 0.387630318734455 
1347	 0.387711814906047 
1348	 0.387773107469328 
1349	 0.387783197190775 
1350	 0.387780088772475 
1351	 0.38775509275601 
1352	 0.387638740197636 
1353	 0.387575224586269 
1354	 0.387507035943357 
1355	 0.387488705537793 
1356	 0.387561336171104 
1357	 0.387544226565075 
1358	 0.387495638868487 
1359	 0.387468333664686 
1360	 0.387394525948572 
1361	 0.387311279361825 
1362	 0.387299581056859 
1363	 0.387360741957186 
1364	 0.387299800165675 
1365	 0.387186958353741 
1366	 0.387116786837891 
1367	 0.387018552548991 
1368	 0.386909758970255 
1369	 0.386857210137313 
1370	 0.386697848487455 
1371	 0.386438731553806 
1372	 0.386241797362386 
1373	 0.386044026707965 
1374	 0.385822484523083 
1375	 0.385619661927899 
1376	 0.385367073874115 
1377	 0.385055994676048 
1378	 0.38476499199634 
1379	 0.384446931628511 
1380	 0.384162680560738 
1381	 0.38388069046846 
1382	 0.383620009918623 
1383	 0.383445593481898 
1384	 0.383164381755521 
1385	 0.38283272678017 
1386	 0.382507510882704 
1387	 0.382065676268851 
1388	 0.381726730884425 
1389	 0.381456882670387 
1390	 0.381192558686233 
1391	 0.380963169477077 
1392	 0.380764019919257 
1393	 0.380586856964685 
1394	 0.380384341961722 
1395	 0.380198848030893 
1396	 0.380041230527576 
1397	 0.379851289252056 
1398	 0.37968898792487 
1399	 0.37940164152932 
1400	 0.379081560842389 
1401	 0.378679905044033 
1402	 0.378177787889153 
1403	 0.377639774695906 
1404	 0.377041120328023 
1405	 0.376433376175514 
1406	 0.375778934837349 
1407	 0.375089257036932 
1408	 0.3743758678359 
1409	 0.373632167774192 
1410	 0.372816305824309 
1411	 0.372025330002343 
1412	 0.371210374842375 
1413	 0.370437877989159 
1414	 0.369664295142175 
1415	 0.368924608396565 
1416	 0.368221659455008 
1417	 0.367530309407222 
1418	 0.366871129960969 
1419	 0.366196657246947 
1420	 0.365508717763337 
1421	 0.364869398528548 
1422	 0.364258231337408 
1423	 0.363642074096176 
1424	 0.363057400818341 
1425	 0.362458424913356 
1426	 0.361937612069329 
1427	 0.361383176594557 
1428	 0.360836445629827 
1429	 0.360353871887909 
1430	 0.359858621713116 
1431	 0.359343652282225 
1432	 0.358837692797986 
1433	 0.358382945133439 
1434	 0.357870020363491 
1435	 0.357317268291757 
1436	 0.356755813453423 
1437	 0.356193623565985 
1438	 0.355597101186707 
1439	 0.354924426476404 
1440	 0.354347513376522 
1441	 0.353768445035771 
1442	 0.353255395162527 
1443	 0.352763477572131 
1444	 0.352400887229564 
1445	 0.352048123787048 
1446	 0.351897613331035 
1447	 0.351891168207217 
1448	 0.352016052723946 
1449	 0.352286929797814 
1450	 0.352682585781971 
1451	 0.353250723146911 
1452	 0.353866449305667 
1453	 0.354653190053401 
1454	 0.355404180929561 
1455	 0.356208705608277 
1456	 0.357009992845051 
1457	 0.357840348820967 
1458	 0.358649884627224 
1459	 0.359533354724219 
1460	 0.36028833375476 
1461	 0.360932808401455 
1462	 0.361593361193258 
1463	 0.362175699706751 
1464	 0.362771680335971 
1465	 0.36336499401341 
1466	 0.364014142549642 
1467	 0.36457407955408 
1468	 0.365100641260218 
1469	 0.365681495068949 
1470	 0.366204949459872 
1471	 0.366700164780336 
1472	 0.367183070983104 
1473	 0.36764493867383 
1474	 0.368048797403695 
1475	 0.368485218362295 
1476	 0.368949235942819 
1477	 0.369361522698391 
1478	 0.369752288586122 
1479	 0.37011188411097 
1480	 0.370462774245668 
1481	 0.370741899911635 
1482	 0.370967814586455 
1483	 0.371181640480343 
1484	 0.371353806132451 
1485	 0.371487814102489 
1486	 0.371565883910491 
1487	 0.37169229957364 
1488	 0.371762126693725 
1489	 0.371914371729003 
1490	 0.372094741056269 
1491	 0.372367512257673 
1492	 0.372706378465909 
1493	 0.373076963624855 
1494	 0.373541875453426 
1495	 0.37400623244828 
1496	 0.374483050178082 
1497	 0.37498827341501 
1498	 0.375537055310795 
1499	 0.376100113639851 
1500	 0.376683813636293 
1501	 0.377278219510321 
1502	 0.377934821303265 
1503	 0.378529932934497 
1504	 0.379091831428654 
1505	 0.379666649466899 
1506	 0.380252996704571 
1507	 0.380775112406338 
1508	 0.381292849597762 
1509	 0.381763232273876 
1510	 0.382165326359058 
1511	 0.38253694154416 
1512	 0.382845989099528 
1513	 0.383185638791535 
1514	 0.383537296578439 
1515	 0.383828040576168 
1516	 0.384085038662423 
1517	 0.384361236764392 
1518	 0.384567087799392 
1519	 0.384815047977101 
1520	 0.385133353917907 
1521	 0.385454715937472 
1522	 0.3856830771262 
1523	 0.385858246358915 
1524	 0.385988783055749 
1525	 0.386017977425306 
1526	 0.386124976745963 
1527	 0.386224903835231 
1528	 0.386352173187741 
1529	 0.38651214313285 
1530	 0.386642283507506 
1531	 0.386765800283979 
1532	 0.386905632093553 
1533	 0.387052774860317 
1534	 0.387172250275573 
1535	 0.387288547594713 
1536	 0.387411651988503 
1537	 0.387503508332872 
1538	 0.387634789306608 
1539	 0.387772557734999 
1540	 0.387979220705766 
1541	 0.388195519322737 
1542	 0.388495741414436 
1543	 0.38889541255925 
1544	 0.389271898276929 
1545	 0.389689300574912 
1546	 0.390097128748815 
1547	 0.390508740796343 
1548	 0.390936431908722 
1549	 0.391383734623935 
1550	 0.391822237634086 
1551	 0.392263495579892 
1552	 0.392713515380682 
1553	 0.393152845012971 
1554	 0.393625076929353 
1555	 0.394163976325072 
1556	 0.394606245594081 
1557	 0.395015255085756 
1558	 0.395427641849321 
1559	 0.39576784987867 
1560	 0.396159230554886 
1561	 0.396581208127097 
1562	 0.397008149559634 
1563	 0.397463123998397 
1564	 0.397873028117746 
1565	 0.39829572353495 
1566	 0.398673509977386 
1567	 0.399000436688403 
1568	 0.399320661317836 
1569	 0.399583787898095 
1570	 0.399919255935181 
1571	 0.400266005924341 
1572	 0.400626853320928 
1573	 0.401050003841087 
1574	 0.401446769463045 
1575	 0.401846208117199 
1576	 0.402213845142491 
1577	 0.402566702246986 
1578	 0.402923459221816 
1579	 0.403283382726692 
1580	 0.40358650602531 
1581	 0.403830391761803 
1582	 0.404138311197401 
1583	 0.404429055863352 
1584	 0.404731174482187 
1585	 0.40508569852509 
1586	 0.405444498705156 
1587	 0.405789428484016 
1588	 0.406136846954164 
1589	 0.406550884148363 
1590	 0.406895500824027 
1591	 0.407157589921864 
1592	 0.407474678039312 
1593	 0.407807362221172 
1594	 0.408121588165894 
1595	 0.408457871928065 
1596	 0.408774200257587 
1597	 0.409036934716901 
1598	 0.409343592786536 
1599	 0.409693309316822 
1600	 0.410007432745753 
1601	 0.410329296707698 
1602	 0.410632351444767 
1603	 0.410877862351894 
1604	 0.411169818724548 
1605	 0.411485884067338 
1606	 0.411795758925379 
1607	 0.412149293134375 
1608	 0.412455231663108 
1609	 0.412766237322859 
1610	 0.41300983424138 
1611	 0.41315507488217 
1612	 0.413358839281069 
1613	 0.413559465282953 
1614	 0.413737631351315 
1615	 0.413953992598226 
1616	 0.414131510094501 
1617	 0.414241492848698 
1618	 0.414383835887103 
1619	 0.414559589889396 
1620	 0.414686127675688 
1621	 0.414774483625397 
1622	 0.414880164556501 
1623	 0.415000091739653 
1624	 0.415064489319865 
1625	 0.415080059323564 
1626	 0.41514673229377 
1627	 0.415196862942987 
1628	 0.415237106075651 
1629	 0.415350226955786 
1630	 0.415402193715217 
1631	 0.41535243553331 
1632	 0.415369882245955 
1633	 0.41539757072151 
1634	 0.415442083940323 
1635	 0.415556833945723 
1636	 0.415614443318725 
1637	 0.415651862516257 
1638	 0.415688536769413 
1639	 0.415679695055058 
1640	 0.415693662684698 
1641	 0.415726528260983 
1642	 0.415754087758713 
1643	 0.415789591819108 
1644	 0.415815965841718 
1645	 0.415870124637119 
1646	 0.415853515254436 
1647	 0.415851033505472 
1648	 0.41572893789932 
1649	 0.415472073886698 
1650	 0.415240399350674 
1651	 0.414997160710445 
1652	 0.414652688424002 
1653	 0.414280231875404 
1654	 0.413838930378843 
1655	 0.413276761731476 
1656	 0.412680374091134 
1657	 0.412004510942365 
1658	 0.411366577199884 
1659	 0.410712971795325 
1660	 0.410023597752318 
1661	 0.409356962525679 
1662	 0.408647035962178 
1663	 0.407874454151563 
1664	 0.407069268075519 
1665	 0.406282397561861 
1666	 0.405386727989726 
1667	 0.404424228314364 
1668	 0.403381825566505 
1669	 0.402197093992206 
1670	 0.401090099711349 
1671	 0.399906023771459 
1672	 0.398800179480322 
1673	 0.39778312597475 
1674	 0.396738572228261 
1675	 0.395728498432704 
1676	 0.394713684258357 
1677	 0.39371254414459 
1678	 0.392648182040853 
1679	 0.391574407519549 
1680	 0.390436110175718 
1681	 0.389198898769603 
1682	 0.388035147918964 
1683	 0.386896813035873 
1684	 0.385699928835441 
1685	 0.384540247915616 
1686	 0.383304303813456 
1687	 0.381983205708347 
1688	 0.380611725282825 
1689	 0.379235178455037 
1690	 0.377723927302178 
1691	 0.376107160187064 
1692	 0.374482352770522 
1693	 0.372795841529255 
1694	 0.371044410035438 
1695	 0.369230042662278 
1696	 0.367368664981255 
1697	 0.365443659562921 
1698	 0.363425589285224 
1699	 0.361351914319451 
1700	 0.359266163711815 
1701	 0.35707797646509 
1702	 0.354939488807333 
1703	 0.352749803802324 
1704	 0.350701881182792 
1705	 0.348660106439027 
1706	 0.346720192116805 
1707	 0.345022723523865 
1708	 0.343447900694664 
1709	 0.341921403197746 
1710	 0.340548568775511 
1711	 0.339179815352684 
1712	 0.337826589182916 
1713	 0.336587404231387 
1714	 0.335376519344923 
1715	 0.334274520281732 
1716	 0.33322324133641 
1717	 0.332176338149147 
1718	 0.331291484641308 
1719	 0.330447224413512 
1720	 0.329563289558031 
1721	 0.32875466252852 
1722	 0.327993154211431 
1723	 0.32725834808409 
1724	 0.326693940256771 
1725	 0.326323761966994 
1726	 0.326041523319842 
1727	 0.325956676825856 
1728	 0.326056510204654 
1729	 0.326325841401135 
1730	 0.326827987016003 
1731	 0.327459414270666 
1732	 0.328286617326163 
1733	 0.329200892934914 
1734	 0.330198440251409 
1735	 0.33139440203001 
1736	 0.33260017121216 
1737	 0.333675273932767 
1738	 0.334582947281672 
1739	 0.335338185922461 
1740	 0.335916079711747 
1741	 0.336415325572095 
1742	 0.336845893075691 
1743	 0.337092317615686 
1744	 0.337147124849602 
1745	 0.337140024988316 
1746	 0.336968160008517 
1747	 0.336792309987993 
1748	 0.33649100164644 
1749	 0.336297496515633 
1750	 0.336055967560591 
1751	 0.335906873662741 
1752	 0.335831880704172 
1753	 0.335871082278411 
1754	 0.335977712604509 
1755	 0.336218190233694 
1756	 0.336588621927952 
1757	 0.336941251982531 
1758	 0.337443536951294 
1759	 0.338086977617607 
1760	 0.338852346708545 
1761	 0.339791025041418 
1762	 0.340787527231993 
1763	 0.34187791622837 
1764	 0.343096154739591 
1765	 0.344388405940451 
1766	 0.34584652117105 
1767	 0.347309896916681 
1768	 0.34876281370185 
1769	 0.350308474795463 
1770	 0.351789462707665 
1771	 0.35330106389306 
1772	 0.354759843829758 
1773	 0.356083159905117 
1774	 0.357425979943504 
1775	 0.358568752949276 
1776	 0.359717875204949 
1777	 0.36089204120875 
1778	 0.361810188328502 
1779	 0.362792983930894 
1780	 0.363806408810071 
1781	 0.364608545176074 
1782	 0.365417211926659 
1783	 0.36620701567887 
1784	 0.366833566472526 
1785	 0.367455087967434 
1786	 0.368030475731958 
1787	 0.368514542947092 
1788	 0.368995644577086 
1789	 0.369436596871554 
1790	 0.369934674592364 
1791	 0.37043791837671 
1792	 0.370896287283127 
1793	 0.371400889847489 
1794	 0.371686625002202 
1795	 0.37199334230502 
1796	 0.372274863467609 
1797	 0.372489525539686 
1798	 0.372824963498879 
1799	 0.373273416056542 
1800	 0.373637619706188 
1801	 0.371821930747226 
1802	 0.372328161328113 
1803	 0.37269769012209 
1804	 0.372997666559578 
1805	 0.373439275030502 
1806	 0.373818953220052 
1807	 0.374127282845635 
1808	 0.374444397335717 
1809	 0.37482104309631 
1810	 0.37513936788886 
1811	 0.375341896146857 
1812	 0.375623341799044 
1813	 0.375933525439118 
1814	 0.376295513844893 
1815	 0.376585927518555 
1816	 0.376944678331835 
1817	 0.377299457959634 
1818	 0.377649167783363 
1819	 0.378009693119471 
1820	 0.378367490926284 
1821	 0.378767173102076 
1822	 0.37915769488715 
1823	 0.379660078808461 
1824	 0.3801296710136 
1825	 0.380577128657936 
1826	 0.380971038381867 
1827	 0.38128520054066 
1828	 0.381635242241467 
1829	 0.381950821766038 
1830	 0.382318129243841 
1831	 0.382713281164892 
1832	 0.383125532841729 
1833	 0.383475199298261 
1834	 0.383857849233073 
1835	 0.384254357370146 
1836	 0.384539533530058 
1837	 0.384863550441585 
1838	 0.385200901361566 
1839	 0.38552939352371 
1840	 0.385854969668132 
1841	 0.386186885662146 
1842	 0.386528577699568 
1843	 0.386847360130318 
1844	 0.387225346988395 
1845	 0.387464680677222 
1846	 0.387694989243347 
1847	 0.38798561173988 
1848	 0.388215537667497 
1849	 0.388427168964554 
1850	 0.388601609121449 
1851	 0.38877383612807 
1852	 0.388840498063371 
1853	 0.388938228470665 
1854	 0.388889724027249 
1855	 0.388820774945212 
1856	 0.388821659179296 
1857	 0.388705676960695 
1858	 0.388601339752655 
1859	 0.38847120808285 
1860	 0.388365872028751 
1861	 0.388121509013515 
1862	 0.387812351575404 
1863	 0.387442571496115 
1864	 0.387041901408393 
1865	 0.386613813347662 
1866	 0.386144366866139 
1867	 0.385657141560016 
1868	 0.38511218936635 
1869	 0.38447703571175 
1870	 0.38375773361939 
1871	 0.382995334126843 
1872	 0.382148513456729 
1873	 0.381193156786968 
1874	 0.380200435801527 
1875	 0.379182999985474 
1876	 0.37804616267505 
1877	 0.376945325505813 
1878	 0.375660948678918 
1879	 0.374172601491658 
1880	 0.372708045255578 
1881	 0.37116988516682 
1882	 0.369488204195049 
1883	 0.367820424262725 
1884	 0.366130783696997 
1885	 0.364235529808592 
1886	 0.362248414723237 
1887	 0.360072090874482 
1888	 0.357759026891979 
1889	 0.35550128538771 
1890	 0.353116274136176 
1891	 0.350710414637198 
1892	 0.34825168808473 
1893	 0.345683753494358 
1894	 0.342989850059997 
1895	 0.340326807656735 
1896	 0.337517624427393 
1897	 0.334693392919721 
1898	 0.332094306945195 
1899	 0.329455005110993 
1900	 0.326907014677025 
1901	 0.324454949633106 
1902	 0.321874680629498 
1903	 0.31946386461465 
1904	 0.317086134874632 
1905	 0.314729843173057 
1906	 0.312443759306566 
1907	 0.310447796094002 
1908	 0.308412427574694 
1909	 0.306488454802082 
1910	 0.304712915357979 
1911	 0.302843722836678 
1912	 0.30108603684179 
1913	 0.299340717009131 
1914	 0.297640013621889 
1915	 0.296063321209698 
1916	 0.294617795664749 
1917	 0.293126559369937 
1918	 0.291778840792192 
1919	 0.290446138055722 
1920	 0.288983267477013 
1921	 0.28762978041189 
1922	 0.286225222267611 
1923	 0.284846217777004 
1924	 0.283671616794345 
1925	 0.282477361726992 
1926	 0.281307173739476 
1927	 0.280183042895638 
1928	 0.27908129673627 
1929	 0.277968453636037 
1930	 0.276958592399898 
1931	 0.275947764349466 
1932	 0.275014660732134 
1933	 0.274223685905619 
1934	 0.273441083495703 
1935	 0.272802619907224 
1936	 0.272351842439221 
1937	 0.271931234822703 
1938	 0.271565922921035 
1939	 0.271356698749413 
1940	 0.271276796868568 
1941	 0.271204700156765 
1942	 0.271302918400976 
1943	 0.271490917115861 
1944	 0.271676791941501 
1945	 0.271994975673953 
1946	 0.272343895510322 
1947	 0.272707059924988 
1948	 0.273247780486208 
1949	 0.273866082503694 
1950	 0.274567772312383 
1951	 0.275416465924649 
1952	 0.276320644683346 
1953	 0.277277514063721 
1954	 0.278308660414532 
1955	 0.279526016802574 
1956	 0.280714616934028 
1957	 0.281857614097429 
1958	 0.283098103747585 
1959	 0.284197425402172 
1960	 0.285228090701923 
1961	 0.286249904533908 
1962	 0.28726529142519 
1963	 0.288166149534434 
1964	 0.289043933398594 
1965	 0.289813264994957 
1966	 0.290492455972675 
1967	 0.29107732273939 
1968	 0.291618658981234 
1969	 0.292063358225356 
1970	 0.292509022234392 
1971	 0.293015279875458 
1972	 0.293515543112364 
1973	 0.294047027934409 
1974	 0.294605817329884 
1975	 0.295198216426793 
1976	 0.295790801818538 
1977	 0.296399243057122 
1978	 0.297037662760132 
1979	 0.297692091075535 
1980	 0.298361859279533 
1981	 0.299081939992282 
1982	 0.299799647203503 
1983	 0.300511692882383 
1984	 0.301211523813039 
1985	 0.301910998547342 
1986	 0.302681893014287 
1987	 0.30348402169411 
1988	 0.304311802138126 
1989	 0.305210198811976 
1990	 0.306119551932094 
1991	 0.307124168302982 
1992	 0.308191123126158 
1993	 0.309403433083415 
1994	 0.310553179662256 
1995	 0.311890706389218 
1996	 0.313256745123297 
1997	 0.314523265486582 
1998	 0.315852545192374 
1999	 0.317274412607706 
2000	 0.318557836331286 
2001	 0.31985255291603 
2002	 0.32103644271137 
2003	 0.322126895879054 
2004	 0.323154907467819 
2005	 0.3240941028566 
2006	 0.324985675843205 
2007	 0.32578843627516 
2008	 0.326607171192108 
2009	 0.327393922604606 
2010	 0.327994733350747 
2011	 0.328509993216371 
2012	 0.329001076389196 
2013	 0.329435460389718 
2014	 0.329795630015466 
2015	 0.330123525302214 
2016	 0.330444074899584 
2017	 0.330646014713873 
2018	 0.330733754292622 
2019	 0.330799251059213 
2020	 0.330803086973402 
2021	 0.330746098457942 
2022	 0.330671597570729 
2023	 0.330551425162067 
2024	 0.330318070728789 
2025	 0.330084949355093 
2026	 0.329828039556492 
2027	 0.329524709639723 
2028	 0.329196288662464 
2029	 0.328872185681351 
2030	 0.328483119169545 
2031	 0.328028945516816 
2032	 0.327550767236263 
2033	 0.327017677367458 
2034	 0.326491535374699 
2035	 0.325930289679844 
2036	 0.32536185463449 
2037	 0.324825576304682 
2038	 0.324279527649111 
2039	 0.323752867778489 
2040	 0.323219896357243 
2041	 0.322740209686097 
2042	 0.322310586621609 
2043	 0.321854424605346 
2044	 0.321387257321213 
2045	 0.320968016229852 
2046	 0.320534175164833 
2047	 0.320171725252061 
2048	 0.319946942017032 
2049	 0.319625259368383 
2050	 0.319307715386707 
2051	 0.318932325210126 
2052	 0.318510665871392 
2053	 0.318163389558764 
2054	 0.317899715144481 
2055	 0.317723214270494 
2056	 0.317550750486517 
2057	 0.31746806449317 
2058	 0.31732606182566 
2059	 0.317181562068583 
2060	 0.317042999461759 
2061	 0.316854386347384 
2062	 0.316747440115842 
2063	 0.316668603336792 
2064	 0.316635734808842 
2065	 0.316669469363554 
2066	 0.316693717848513 
2067	 0.316821574103555 
2068	 0.317018271106136 
2069	 0.3171543553328 
2070	 0.317362177915997 
2071	 0.317459630088662 
2072	 0.317406634377647 
2073	 0.317509055592174 
2074	 0.317662226348487 
2075	 0.31780001345579 
2076	 0.318060650447096 
2077	 0.318196906103763 
2078	 0.318235972906181 
2079	 0.318297064346227 
2080	 0.318356403036375 
2081	 0.318366707063831 
2082	 0.318396704381035 
2083	 0.318315388803308 
2084	 0.31820145119344 
2085	 0.318028271052202 
2086	 0.317840000016837 
2087	 0.31763192139739 
2088	 0.317356397584904 
2089	 0.317017091780284 
2090	 0.316682919632331 
2091	 0.316254717219187 
2092	 0.315918214214098 
2093	 0.315636641049003 
2094	 0.31531498239915 
2095	 0.314989329627276 
2096	 0.314693012367218 
2097	 0.314406356729144 
2098	 0.314113613777969 
2099	 0.313785352515595 
2100	 0.31345965032213 
2101	 0.313097988651977 
2102	 0.312688960370559 
2103	 0.31222368315247 
2104	 0.311708417210358 
2105	 0.311242309313505 
2106	 0.310708688677499 
2107	 0.310227160131029 
2108	 0.309864773658088 
2109	 0.309390270491845 
2110	 0.308862241318712 
2111	 0.308316890129367 
2112	 0.307735789812376 
2113	 0.307128988644814 
2114	 0.306472302223591 
2115	 0.30581666792711 
2116	 0.305163128144541 
2117	 0.304464109676079 
2118	 0.303746696893821 
2119	 0.303010641114015 
2120	 0.302275603525367 
2121	 0.301507656207871 
2122	 0.300748168861064 
2123	 0.300000909131953 
2124	 0.299228548657508 
2125	 0.298435660195937 
2126	 0.297636832875841 
2127	 0.296819187698234 
2128	 0.296024363992639 
2129	 0.295209404924939 
2130	 0.29442420399041 
2131	 0.293717813602976 
2132	 0.292922913759866 
2133	 0.29205975580347 
2134	 0.291239081669818 
2135	 0.290441348036641 
2136	 0.289639077658135 
2137	 0.288881315795458 
2138	 0.288154712503049 
2139	 0.287558087052693 
2140	 0.287025383545801 
2141	 0.28649762802571 
2142	 0.286069354128528 
2143	 0.285681700222874 
2144	 0.285273832789171 
2145	 0.284942349206072 
2146	 0.284746184531057 
2147	 0.284540579541029 
2148	 0.284366106169585 
2149	 0.284173625857083 
2150	 0.284022224559544 
2151	 0.283857317433424 
2152	 0.283639361991255 
2153	 0.283467301288645 
2154	 0.283321478722135 
2155	 0.283170611779533 
2156	 0.283113160995181 
2157	 0.283080352128576 
2158	 0.283133511015559 
2159	 0.28329823392891 
2160	 0.283448321094231 
2161	 0.283646763520995 
2162	 0.283844036368698 
2163	 0.284088883905321 
2164	 0.284273445632182 
2165	 0.284432748100347 
2166	 0.284617909672465 
2167	 0.284786779630551 
2168	 0.284961782352382 
2169	 0.285199489188556 
2170	 0.285365757110669 
2171	 0.285450216578301 
2172	 0.285576418995643 
2173	 0.285675173933552 
2174	 0.28578895696726 
2175	 0.285975831457702 
2176	 0.28628934346606 
2177	 0.286607753391115 
2178	 0.287023961099771 
2179	 0.28736692164295 
2180	 0.287739392735826 
2181	 0.288047791101477 
2182	 0.28835071241308 
2183	 0.28856631942051 
2184	 0.288713333057153 
2185	 0.288846450422387 
2186	 0.288912836016553 
2187	 0.288969128452951 
2188	 0.289005925300057 
2189	 0.289024508497843 
2190	 0.288987284737125 
2191	 0.288973731673048 
2192	 0.288928714495335 
2193	 0.288940008843872 
2194	 0.289102911198761 
2195	 0.289068011134004 
2196	 0.288964991615316 
2197	 0.288829760255202 
2198	 0.28858081673822 
2199	 0.288236661331159 
2200	 0.287903010671904 
2201	 0.287592354968642 
2202	 0.287220836675163 
2203	 0.286715392093542 
2204	 0.286342002000707 
2205	 0.286036041804997 
2206	 0.28566650410171 
2207	 0.28531847523797 
2208	 0.28495828288278 
2209	 0.284522337272129 
2210	 0.284183728521907 
2211	 0.283917500356427 
2212	 0.283604691979026 
2213	 0.2832859113368 
2214	 0.283015791235923 
2215	 0.282738065545416 
2216	 0.282505397900776 
2217	 0.282419861861808 
2218	 0.282196498857582 
2219	 0.281943552769269 
2220	 0.281620618246688 
2221	 0.281150030563626 
2222	 0.280727600833266 
2223	 0.280366964422675 
2224	 0.280010638687368 
2225	 0.27968729395532 
2226	 0.279326117145932 
2227	 0.278849883839882 
2228	 0.278291672087935 
2229	 0.277630966338564 
2230	 0.276828354949507 
2231	 0.276087270725419 
2232	 0.275353581254709 
2233	 0.274434482387513 
2234	 0.273526419071242 
2235	 0.272414958297082 
2236	 0.271026910003681 
2237	 0.269690125599284 
2238	 0.268314541656772 
2239	 0.266819465708838 
2240	 0.265227689486717 
2241	 0.263584102603204 
2242	 0.261852468587992 
2243	 0.260044483501616 
2244	 0.258212614460369 
2245	 0.256253225599424 
2246	 0.254157851782182 
2247	 0.252007316594008 
2248	 0.249696853443439 
2249	 0.247395680085623 
2250	 0.245029494966064 
2251	 0.24266425851312 
2252	 0.240254358810646 
2253	 0.237990584396833 
2254	 0.235541515723686 
2255	 0.233108066214149 
2256	 0.230814872950524 
2257	 0.228482516199594 
2258	 0.226286463884521 
2259	 0.224256586205577 
2260	 0.222157244643011 
2261	 0.220095398803283 
2262	 0.218051347188526 
2263	 0.215980449414218 
2264	 0.214014064015573 
2265	 0.212057690799595 
2266	 0.210236565638375 
2267	 0.208663482274842 
2268	 0.206883790502663 
2269	 0.205088870862305 
2270	 0.203302573238904 
2271	 0.201264573045603 
2272	 0.199550954527168 
2273	 0.198071858691876 
2274	 0.196561651573195 
2275	 0.195313742582303 
2276	 0.193828685982131 
2277	 0.192186559401173 
2278	 0.190623131769597 
2279	 0.188924980191068 
2280	 0.187328921245226 
2281	 0.185913956329199 
2282	 0.184370097120087 
2283	 0.18274422451486 
2284	 0.181227269805763 
2285	 0.179499088098998 
2286	 0.177847081187323 
2287	 0.176205506531744 
2288	 0.17435449226189 
2289	 0.172651295199461 
2290	 0.170874962603948 
2291	 0.16899129839042 
2292	 0.167169731253785 
2293	 0.165221480044324 
2294	 0.163313991791527 
2295	 0.161539373218871 
2296	 0.159790796340941 
2297	 0.158288926375204 
2298	 0.156917791731479 
2299	 0.155784752474035 
2300	 0.154914198373159 
2301	 0.154175205906484 
2302	 0.153576460836444 
2303	 0.153274631779028 
2304	 0.153172340095562 
2305	 0.153330135249557 
2306	 0.153808135190461 
2307	 0.154481033298925 
2308	 0.155397540209965 
2309	 0.156482089946952 
2310	 0.157861423444255 
2311	 0.159306519136691 
2312	 0.160957686087818 
2313	 0.162650985080828 
2314	 0.164476569364372 
2315	 0.166382292624483 
2316	 0.168446638885172 
2317	 0.170383795237114 
2318	 0.172549336157739 
2319	 0.174302589418478 
2320	 0.175923325817076 
2321	 0.177227840054675 
2322	 0.178149803165783 
2323	 0.178955777385497 
2324	 0.179522265702656 
2325	 0.179938429588511 
2326	 0.180104001264556 
2327	 0.180203774287206 
2328	 0.180150954076044 
2329	 0.179984384942422 
2330	 0.179636529361668 
2331	 0.179437737996167 
2332	 0.17894775136945 
2333	 0.178099800659546 
2334	 0.177353814785941 
2335	 0.176379541215753 
2336	 0.175347774068452 
2337	 0.174336879890661 
2338	 0.173076578580712 
2339	 0.171618608197034 
2340	 0.170214809342817 
2341	 0.169005448294431 
2342	 0.167714899695373 
2343	 0.166744932539843 
2344	 0.165966584812892 
2345	 0.165021689169497 
2346	 0.16452127123839 
2347	 0.164428934846255 
2348	 0.164397533132667 
2349	 0.164883832413672 
2350	 0.165903485582355 
2351	 0.166629417134259 
2352	 0.167366112013058 
2353	 0.168629330598541 
2354	 0.16960180338754 
2355	 0.170640427994991 
2356	 0.172040050985506 
2357	 0.173045238778381 
2358	 0.173900163139971 
2359	 0.174948446021388 
2360	 0.175918522160603 
2361	 0.176452591144915 
2362	 0.176767923812615 
2363	 0.177014549963278 
2364	 0.176882973527748 
2365	 0.176705264851867 
2366	 0.176470791106984 
2367	 0.176012313672398 
2368	 0.175997062972727 
2369	 0.175899493297385 
2370	 0.175460239482482 
2371	 0.175381924709744 
2372	 0.174925522096925 
2373	 0.174396908372498 
2374	 0.17473573571224 
2375	 0.174894852527711 
2376	 0.174826577585327 
2377	 0.174988889533799 
2378	 0.174897680707897 
2379	 0.174734521697341 
2380	 0.174767819126158 
2381	 0.175038642393648 
2382	 0.175148995529053 
2383	 0.175188093672477 
2384	 0.175111804802729 
2385	 0.174971848845119 
2386	 0.174887916532992 
2387	 0.174756891734591 
2388	 0.174738435377572 
2389	 0.174633303298035 
2390	 0.174751585267234 
2391	 0.174984178416011 
2392	 0.175197530518697 
2393	 0.175883118146786 
2394	 0.175932183116685 
2395	 0.17558002399995 
2396	 0.17546567043639 
2397	 0.175057701645686 
2398	 0.174756313863861 
2399	 0.174567900534286 
2400	 0.174479518996794 
2401	 0.174475048952153 
2402	 0.174848378825035 
2403	 0.174813904852366 
2404	 0.174721666925628 
2405	 0.174382559445436 
2406	 0.173896178976185 
2407	 0.173630705746888 
2408	 0.173258200384529 
2409	 0.172893690939749 
2410	 0.172636166037866 
2411	 0.172813146881165 
2412	 0.173350584307681 
2413	 0.173414972212063 
2414	 0.173390639601699 
2415	 0.173790169925368 
2416	 0.174128374555413 
2417	 0.174419671290996 
2418	 0.175031645953184 
2419	 0.17534370916744 
2420	 0.175378789857033 
2421	 0.175497796146386 
2422	 0.175410954823523 
2423	 0.175356191076814 
2424	 0.175386755795495 
2425	 0.175330056316264 
2426	 0.175004673155416 
2427	 0.174718956918178 
2428	 0.174358463258421 
2429	 0.173830535266548 
2430	 0.174157966833272 
2431	 0.174763613202237 
2432	 0.175020317768962 
2433	 0.175184553427952 
2434	 0.174987373343534 
2435	 0.174456044704471 
2436	 0.17391239240923 
2437	 0.173852083373225 
2438	 0.174001964617899 
2439	 0.174305092661631 
2440	 0.174497920343971 
2441	 0.174281610952705 
2442	 0.174261967502403 
2443	 0.17410428023421 
2444	 0.173848315846258 
2445	 0.173610978963406 
2446	 0.17327073662274 
2447	 0.172729931985039 
2448	 0.172221576482517 
2449	 0.172007265611319 
2450	 0.171490281892221 
2451	 0.170976584697812 
2452	 0.170608699811863 
2453	 0.170169203433267 
2454	 0.169723633633511 
2455	 0.169140538868325 
2456	 0.169087769569138 
2457	 0.16908781197842 
2458	 0.168553509256863 
2459	 0.16836110035188 
2460	 0.167939904373566 
2461	 0.167340614666379 
2462	 0.16687607620689 
2463	 0.166725933849633 
2464	 0.16679216953223 
2465	 0.166154388863396 
2466	 0.166064272269824 
2467	 0.166083962750678 
2468	 0.165324229617594 
2469	 0.164950721692563 
2470	 0.164755986683597 
2471	 0.164778486266299 
2472	 0.164873449248763 
2473	 0.164531073544067 
2474	 0.164513283742881 
2475	 0.164245946623136 
2476	 0.163854630170835 
2477	 0.163641399955688 
2478	 0.163132779359076 
2479	 0.163222740506199 
2480	 0.162126353120147 
2481	 0.16222755096337 
2482	 0.163550130598204 
2483	 0.163427202008159 
2484	 0.163275624639345 
2485	 0.162876093222449 
2486	 0.162691073528397 
2487	 0.16277581016026 
2488	 0.162355836072449 
2489	 0.162051538316593 
2490	 0.162801106415512 
2491	 0.163882296231072 
2492	 0.164996464386091 
2493	 0.165552620026062 
2494	 0.164600654060436 
2495	 0.163282059524443 
2496	 0.162858043456514 
2497	 0.163002784289334 
2498	 0.162551371353437 
2499	 0.162354288378357 
2500	 0.164425693985245 
