Wavelength	Tablay400016.asd
350	 0.249376423780001 
351	 0.219793280526353 
352	 0.223763339733119 
353	 0.257419824273616 
354	 0.229973095073345 
355	 0.240166170815163 
356	 0.259995076823876 
357	 0.247341833085754 
358	 0.214639523095531 
359	 0.202712831014781 
360	 0.206815256224556 
361	 0.199830816630089 
362	 0.189096947267747 
363	 0.183917015183186 
364	 0.183675242747574 
365	 0.171258460811786 
366	 0.178172506146646 
367	 0.188119448304224 
368	 0.18305101824472 
369	 0.176172344208093 
370	 0.157518573541138 
371	 0.144726928674394 
372	 0.166417819231054 
373	 0.165000422305851 
374	 0.171336299236002 
375	 0.183327024865342 
376	 0.13881499882315 
377	 0.141274057618627 
378	 0.16250731171112 
379	 0.154640120763633 
380	 0.125369202115634 
381	 0.125550994045221 
382	 0.147821065912901 
383	 0.148729907010322 
384	 0.125284190658728 
385	 0.114972144140347 
386	 0.126407101466032 
387	 0.121690155922739 
388	 0.118195636885173 
389	 0.118161120369452 
390	 0.118873792000548 
391	 0.113793027163845 
392	 0.116798419224015 
393	 0.119660445348757 
394	 0.104054992499837 
395	 0.103476623090211 
396	 0.105184972530732 
397	 9.98322612569389E-02 
398	 9.25497197548337E-02 
399	 9.95365099761788E-02 
400	 0.106034545899171 
401	 9.69814718979352E-02 
402	 9.19605503056136E-02 
403	 0.093210717464889 
404	 9.54590449001092E-02 
405	 8.99191569400326E-02 
406	 9.39157706369314E-02 
407	 9.64216999293236E-02 
408	 9.04420454052181E-02 
409	 8.25317780527518E-02 
410	 8.16203300818709E-02 
411	 8.54130868699374E-02 
412	 8.71258999169953E-02 
413	 0.079796618239388 
414	 7.44939706700471E-02 
415	 7.51980679941557E-02 
416	 0.078648613769138 
417	 7.80747203525455E-02 
418	 7.40982559719925E-02 
419	 6.98402528367963E-02 
420	 7.09842758176332E-02 
421	 7.14459446184667E-02 
422	 7.10165227882178E-02 
423	 7.11666649275053E-02 
424	 6.73934724622874E-02 
425	 6.77276633580154E-02 
426	 7.11006942856997E-02 
427	 6.59184252151781E-02 
428	 6.64701914208038E-02 
429	 6.75666728278014E-02 
430	 6.43343425540708E-02 
431	 6.54274091877383E-02 
432	 6.49635834635466E-02 
433	 6.37261033212568E-02 
434	 6.53305296752745E-02 
435	 6.40361163452215E-02 
436	 6.38332782022241E-02 
437	 6.55901746666644E-02 
438	 6.40054450903447E-02 
439	 0.06258487553927 
440	 6.20681687223653E-02 
441	 6.22174220627541E-02 
442	 6.20844259862305E-02 
443	 6.24951228804676E-02 
444	 6.27645426095799E-02 
445	 6.12132296416524E-02 
446	 5.94474744302546E-02 
447	 5.84307589347426E-02 
448	 5.85145838606898E-02 
449	 5.92481609459964E-02 
450	 5.93452080831104E-02 
451	 5.91150660059098E-02 
452	 5.93654817306781E-02 
453	 5.98364864934091E-02 
454	 5.93058507496221E-02 
455	 5.81707130848684E-02 
456	 5.85397824184878E-02 
457	 5.94780466649944E-02 
458	 5.97263698429185E-02 
459	 5.85760398863865E-02 
460	 5.66443362823308E-02 
461	 5.75040825688286E-02 
462	 5.90307427005773E-02 
463	 5.69543276669894E-02 
464	 5.71894429287714E-02 
465	 5.74393742259786E-02 
466	 5.66788980845376E-02 
467	 5.70946286553393E-02 
468	 5.70957494144675E-02 
469	 5.72307125932432E-02 
470	 5.80436843069926E-02 
471	 5.77030826246557E-02 
472	 5.69546550541541E-02 
473	 5.64247675978202E-02 
474	 5.65580291933056E-02 
475	 5.75774049527953E-02 
476	 5.84762364340455E-02 
477	 5.85549118725728E-02 
478	 0.05807128901733 
479	 5.73291580692094E-02 
480	 5.74948665118336E-02 
481	 5.93098380812252E-02 
482	 5.92883612470027E-02 
483	 5.94490880370387E-02 
484	 0.060106416373282 
485	 5.93292106946231E-02 
486	 5.90310122111899E-02 
487	 5.96740699295267E-02 
488	 6.09588671018169E-02 
489	 6.14550875453612E-02 
490	 6.19168430327669E-02 
491	 6.26494236130328E-02 
492	 6.36522400688408E-02 
493	 6.47017253177873E-02 
494	 6.55418496395863E-02 
495	 6.63696848066116E-02 
496	 6.81760154485971E-02 
497	 6.90808289119485E-02 
498	 6.95948905428386E-02 
499	 7.07400134269655E-02 
500	 7.23172958237883E-02 
501	 0.073832024616507 
502	 7.51185462998892E-02 
503	 0.076329343705143 
504	 7.76220468944339E-02 
505	 7.94033128098212E-02 
506	 8.16520063747704E-02 
507	 8.32889616413633E-02 
508	 8.50617001959855E-02 
509	 8.69650424630753E-02 
510	 0.088738333635099 
511	 9.07607918934593E-02 
512	 9.27018943133198E-02 
513	 9.45799843410432E-02 
514	 9.69231158010198E-02 
515	 9.91065362154185E-02 
516	 0.101085856711293 
517	 0.103029279029799 
518	 0.105326068758587 
519	 0.107277755267104 
520	 0.109142073323914 
521	 0.111727896271198 
522	 0.114203684142233 
523	 0.116575892081855 
524	 0.118879062860935 
525	 0.120917329301653 
526	 0.123222642218516 
527	 0.125531821956197 
528	 0.127507544770923 
529	 0.130084765691231 
530	 0.132527750247743 
531	 0.134661056551053 
532	 0.136978715103644 
533	 0.139390744327929 
534	 0.141779015810524 
535	 0.144063117862258 
536	 0.146265024837424 
537	 0.148731090795534 
538	 0.151240773236378 
539	 0.153346969486654 
540	 0.155570979217176 
541	 0.157920263874938 
542	 0.160248655230395 
543	 0.162241017031006 
544	 0.164385612015762 
545	 0.166671596697894 
546	 0.168928630486809 
547	 0.17103760202075 
548	 0.173051826269212 
549	 0.17501639847959 
550	 0.176963920131166 
551	 0.179118890853861 
552	 0.181156106318693 
553	 0.182906906258084 
554	 0.184834048656147 
555	 0.186776526825205 
556	 0.188678517415639 
557	 0.190527067997228 
558	 0.192322201094824 
559	 0.194154291411572 
560	 0.196022894935516 
561	 0.197795196397179 
562	 0.199466906173597 
563	 0.201110924261202 
564	 0.202789219833764 
565	 0.204425000619538 
566	 0.206125143005079 
567	 0.207798685347109 
568	 0.209251285274632 
569	 0.210925615334534 
570	 0.2126905883919 
571	 0.214379006859047 
572	 0.215918293415051 
573	 0.217605035314694 
574	 0.219258222875186 
575	 0.220609874070059 
576	 0.222030308725395 
577	 0.223430769057935 
578	 0.224836310908646 
579	 0.22642426477541 
580	 0.227908483555596 
581	 0.229260344666136 
582	 0.23054011756368 
583	 0.231846149537797 
584	 0.233228388645125 
585	 0.23464702293065 
586	 0.236013844667467 
587	 0.237340232390746 
588	 0.238604894282894 
589	 0.23983081653331 
590	 0.241105418077369 
591	 0.242509301067312 
592	 0.243933243119217 
593	 0.245235112965604 
594	 0.246416681609243 
595	 0.247575571389738 
596	 0.24875460224691 
597	 0.249937047437066 
598	 0.250988202467023 
599	 0.252095638219589 
600	 0.253339056132643 
601	 0.254381674384783 
602	 0.255496492019966 
603	 0.256727416995546 
604	 0.257993039947749 
605	 0.259113099601764 
606	 0.260242587305039 
607	 0.261404649921564 
608	 0.262422907013722 
609	 0.263505671688982 
610	 0.264528511327292 
611	 0.265410243482173 
612	 0.266477302479522 
613	 0.267593157833 
614	 0.268675447713045 
615	 0.269686415445917 
616	 0.270629455807104 
617	 0.271529309592892 
618	 0.272423707129759 
619	 0.2733770749512 
620	 0.274270683947564 
621	 0.275118632962705 
622	 0.275993324406844 
623	 0.277015730160984 
624	 0.277973398134373 
625	 0.278793120697279 
626	 0.279553594609392 
627	 0.280399357847429 
628	 0.281205665018182 
629	 0.281932650525965 
630	 0.28291090075842 
631	 0.283731117261483 
632	 0.284356808527633 
633	 0.284945467139028 
634	 0.285696801978194 
635	 0.286536373751392 
636	 0.287338251765993 
637	 0.287951921406023 
638	 0.288690230713088 
639	 0.289399016231356 
640	 0.289950170990945 
641	 0.290707947739263 
642	 0.291330227607221 
643	 0.291851716795631 
644	 0.292498390837365 
645	 0.292902037442134 
646	 0.293397585571475 
647	 0.294111813394538 
648	 0.294705335932767 
649	 0.295235211197575 
650	 0.29571092369426 
651	 0.296164576562747 
652	 0.296744240768393 
653	 0.297270189407825 
654	 0.297729003618386 
655	 0.298240392766792 
656	 0.298705040279428 
657	 0.299161951701577 
658	 0.299665111647165 
659	 0.30027965921997 
660	 0.300700070764447 
661	 0.301063360506567 
662	 0.301606465624871 
663	 0.302109301854786 
664	 0.302584732222936 
665	 0.303079249996469 
666	 0.303649377788581 
667	 0.304058442352838 
668	 0.304466796864712 
669	 0.305004057153534 
670	 0.305518381699611 
671	 0.306011420933932 
672	 0.306485814060732 
673	 0.306942980431542 
674	 0.307318772769142 
675	 0.307778435330528 
676	 0.308320031450533 
677	 0.308726724933831 
678	 0.309183338138628 
679	 0.309628243100004 
680	 0.310009413550469 
681	 0.310477096733815 
682	 0.310955124217038 
683	 0.311379156651287 
684	 0.311723629861155 
685	 0.312200388612704 
686	 0.312699825924104 
687	 0.31313906272503 
688	 0.3135243886151 
689	 0.313897840735409 
690	 0.314293382247796 
691	 0.314718112329118 
692	 0.315105133866268 
693	 0.315451187051367 
694	 0.315823453378249 
695	 0.316308652548089 
696	 0.316767130922896 
697	 0.31711098776712 
698	 0.31737367907101 
699	 0.317758968102296 
700	 0.318214646834389 
701	 0.318619404688382 
702	 0.318884598136049 
703	 0.319107473543678 
704	 0.319463607468888 
705	 0.319921411507745 
706	 0.320307041448438 
707	 0.320602156686288 
708	 0.320888939897313 
709	 0.321215737128426 
710	 0.321547822928254 
711	 0.321905714437108 
712	 0.322251882160657 
713	 0.322554416883012 
714	 0.322869086734108 
715	 0.323185269674564 
716	 0.323492195158562 
717	 0.323781800458931 
718	 0.324062651620523 
719	 0.324372341474935 
720	 0.324718732602348 
721	 0.325057627400873 
722	 0.325365624954853 
723	 0.325637065842387 
724	 0.325897602777283 
725	 0.326263981972966 
726	 0.326607875335289 
727	 0.326884986131886 
728	 0.327126614978149 
729	 0.327430087500755 
730	 0.327722626120255 
731	 0.327981679945395 
732	 0.328304469421664 
733	 0.328631520653436 
734	 0.328947369382897 
735	 0.329249112425386 
736	 0.329528724324827 
737	 0.329830777720825 
738	 0.33015576946408 
739	 0.330473005591081 
740	 0.330776634174639 
741	 0.331075380780957 
742	 0.331369429125091 
743	 0.331643947685774 
744	 0.331892312464857 
745	 0.332167595150945 
746	 0.332500130584609 
747	 0.332789356762272 
748	 0.333114825234438 
749	 0.333476562992278 
750	 0.333834152864494 
751	 0.334235150947262 
752	 0.334580243848438 
753	 0.334860622146258 
754	 0.335198507288958 
755	 0.335540878674732 
756	 0.335911040791286 
757	 0.3363126029251 
758	 0.336644468573874 
759	 0.337003300110509 
760	 0.337379984648883 
761	 0.337729894021328 
762	 0.338126595733192 
763	 0.338549249045714 
764	 0.338962857517053 
765	 0.339329490573473 
766	 0.339647213227689 
767	 0.34001505244538 
768	 0.340476753486552 
769	 0.340911873526139 
770	 0.341321551922306 
771	 0.341725047466994 
772	 0.342144996776032 
773	 0.342557969779545 
774	 0.342980441858799 
775	 0.343413471553616 
776	 0.343841903267197 
777	 0.344225025831759 
778	 0.344625135842386 
779	 0.345054455514643 
780	 0.345413634984009 
781	 0.345811132069398 
782	 0.346276893531561 
783	 0.346786232972082 
784	 0.34722173207013 
785	 0.347617638973486 
786	 0.348007466427022 
787	 0.34842077428266 
788	 0.348863011175257 
789	 0.349298621096847 
790	 0.349697738095457 
791	 0.35004914056681 
792	 0.350492242086097 
793	 0.350961676897958 
794	 0.351379338533971 
795	 0.351740423209097 
796	 0.352116807595422 
797	 0.352541598960782 
798	 0.353000869560158 
799	 0.353352278477277 
800	 0.353730708314535 
801	 0.354194254762709 
802	 0.354709101402532 
803	 0.355063152652715 
804	 0.35540458364799 
805	 0.355805102636608 
806	 0.356147504019196 
807	 0.356567492022191 
808	 0.356958672717413 
809	 0.357256963629615 
810	 0.35771222081561 
811	 0.358084402598143 
812	 0.35838216840841 
813	 0.358721527387096 
814	 0.359123108519641 
815	 0.359496883411932 
816	 0.359817670883131 
817	 0.360127376897879 
818	 0.360457853993352 
819	 0.360788592170666 
820	 0.361100297732995 
821	 0.361391138691181 
822	 0.361705715612099 
823	 0.361988373913699 
824	 0.362210046346419 
825	 0.362511323523642 
826	 0.362768373799666 
827	 0.363020964105697 
828	 0.3633491397701 
829	 0.363600882977259 
830	 0.363868908826124 
831	 0.364156597600385 
832	 0.364382761591867 
833	 0.364562588742205 
834	 0.364761930774486 
835	 0.365001473900076 
836	 0.365222016469524 
837	 0.365479013673687 
838	 0.365702113709666 
839	 0.365832546950826 
840	 0.36590817821114 
841	 0.366137593467565 
842	 0.366391480560737 
843	 0.36647450281545 
844	 0.366612415909998 
845	 0.366863902310026 
846	 0.367132357234436 
847	 0.367244841046666 
848	 0.367376277136286 
849	 0.367484590340986 
850	 0.367578566704791 
851	 0.367754167577094 
852	 0.367996815431916 
853	 0.36813389847573 
854	 0.36813758836675 
855	 0.368356241264425 
856	 0.368410665191211 
857	 0.368419780866752 
858	 0.368576547606097 
859	 0.368748638782508 
860	 0.368898457666881 
861	 0.369007696678283 
862	 0.36907461853352 
863	 0.369091736947242 
864	 0.369187697689228 
865	 0.369324345527942 
866	 0.369336723350103 
867	 0.369376297673449 
868	 0.369410608660241 
869	 0.369464376044899 
870	 0.369660752419543 
871	 0.369727315111407 
872	 0.369743443454617 
873	 0.369797097206526 
874	 0.369813110330784 
875	 0.369833398730992 
876	 0.369860138193209 
877	 0.369888039246928 
878	 0.369928435755827 
879	 0.369975401763682 
880	 0.370088527622297 
881	 0.370272546113481 
882	 0.370067608262482 
883	 0.370027974463312 
884	 0.370186516257377 
885	 0.370169889664387 
886	 0.370146894038524 
887	 0.370148913790584 
888	 0.370170399727559 
889	 0.370181794606627 
890	 0.370262145763831 
891	 0.370233054273664 
892	 0.370093483658867 
893	 0.370204763685136 
894	 0.370219183957195 
895	 0.370188321341995 
896	 0.370217921684802 
897	 0.370294554395479 
898	 0.370268300513511 
899	 0.370206818768509 
900	 0.370224303088767 
901	 0.370296132823307 
902	 0.370313623203542 
903	 0.370283025506693 
904	 0.370272530819219 
905	 0.370309880611352 
906	 0.370404123447159 
907	 0.370488680614104 
908	 0.370464423227331 
909	 0.370380433439279 
910	 0.37038015859359 
911	 0.370481374902705 
912	 0.370568430923512 
913	 0.370638213350834 
914	 0.370648261056113 
915	 0.370632329096339 
916	 0.370720561070681 
917	 0.370870790193486 
918	 0.370886229919332 
919	 0.370747456428842 
920	 0.370800940715538 
921	 0.370910796325903 
922	 0.371041677340057 
923	 0.371164400951752 
924	 0.371215963359496 
925	 0.371232044766598 
926	 0.371300134910491 
927	 0.371467596614136 
928	 0.37160657427615 
929	 0.371672735159656 
930	 0.371751966730314 
931	 0.371929315950971 
932	 0.372030739200713 
933	 0.372129567220699 
934	 0.372232201770823 
935	 0.372319689357636 
936	 0.372453609849752 
937	 0.372634817641763 
938	 0.372828435916869 
939	 0.372975787034079 
940	 0.373005289134868 
941	 0.373137804035494 
942	 0.373312594717345 
943	 0.373274209680894 
944	 0.37345010434662 
945	 0.373616605180201 
946	 0.373679561825067 
947	 0.373762218862222 
948	 0.373922783433412 
949	 0.373980256985567 
950	 0.373942915179676 
951	 0.374070892425765 
952	 0.374106690583752 
953	 0.374191303404301 
954	 0.374348893682067 
955	 0.374349798291654 
956	 0.374428631809739 
957	 0.37453776015957 
958	 0.37460629445164 
959	 0.374630368794905 
960	 0.37483215082399 
961	 0.374996983179888 
962	 0.374992203012384 
963	 0.375052367145657 
964	 0.375074183103518 
965	 0.375138199401249 
966	 0.37526640145298 
967	 0.375261949856688 
968	 0.375159237981407 
969	 0.375285732265921 
970	 0.375717084292831 
971	 0.375719783116195 
972	 0.375738663764846 
973	 0.375814974273096 
974	 0.375889438026418 
975	 0.375977813252541 
976	 0.375894340001788 
977	 0.37583619357843 
978	 0.376008276619 
979	 0.376259780026128 
980	 0.376368295135321 
981	 0.376424587241172 
982	 0.376558565505267 
983	 0.376654558901323 
984	 0.376426512478084 
985	 0.376387950963859 
986	 0.376890172335681 
987	 0.376796101402515 
988	 0.376855248859664 
989	 0.37715430645812 
990	 0.377451747226269 
991	 0.37728592334398 
992	 0.377194241853355 
993	 0.3773802255056 
994	 0.377706306532989 
995	 0.37739261089641 
996	 0.377476598257091 
997	 0.377719994681584 
998	 0.37769328180798 
999	 0.377995318836028 
1000	 0.378331219586115 
1001	 0.375833658057527 
1002	 0.375864072950665 
1003	 0.375915910888097 
1004	 0.376030619697806 
1005	 0.376261476801383 
1006	 0.376354855173173 
1007	 0.376420118693141 
1008	 0.376487157179697 
1009	 0.37640456856554 
1010	 0.376525296665252 
1011	 0.37690033805159 
1012	 0.376985677906037 
1013	 0.376959538142393 
1014	 0.377022585595469 
1015	 0.376957236813825 
1016	 0.376912105748394 
1017	 0.377077950722411 
1018	 0.37729827876142 
1019	 0.377404321391765 
1020	 0.377411790310347 
1021	 0.377515763545856 
1022	 0.377677351194053 
1023	 0.377716470809597 
1024	 0.377742907666651 
1025	 0.377780813163416 
1026	 0.377658517652707 
1027	 0.377704479475769 
1028	 0.377875652997483 
1029	 0.378038955723673 
1030	 0.378106114313193 
1031	 0.37821581552894 
1032	 0.378316690987797 
1033	 0.378279761419396 
1034	 0.378322133943299 
1035	 0.378465430604658 
1036	 0.378571374051908 
1037	 0.378670411893633 
1038	 0.378791983497862 
1039	 0.378931441775065 
1040	 0.379059889932819 
1041	 0.379178028435691 
1042	 0.379265980110818 
1043	 0.379371945119405 
1044	 0.379469470773715 
1045	 0.379426655580129 
1046	 0.379516394806844 
1047	 0.379523490023562 
1048	 0.379554226673194 
1049	 0.37970496369613 
1050	 0.379634384188697 
1051	 0.379715753358805 
1052	 0.379958197514098 
1053	 0.38005488883145 
1054	 0.380092291480937 
1055	 0.380223928524123 
1056	 0.380330966479802 
1057	 0.380366307223998 
1058	 0.380394575961798 
1059	 0.380499394756909 
1060	 0.380513357994857 
1061	 0.380618891315202 
1062	 0.380706806880509 
1063	 0.380825971536633 
1064	 0.380918136197869 
1065	 0.380840558371814 
1066	 0.380893244850979 
1067	 0.381038043561304 
1068	 0.381027641435954 
1069	 0.381068720304275 
1070	 0.381116829130933 
1071	 0.381161433217772 
1072	 0.381047985848958 
1073	 0.381113677930977 
1074	 0.381223467494182 
1075	 0.381198013713373 
1076	 0.381242952867999 
1077	 0.38125031510515 
1078	 0.381271271203011 
1079	 0.381389839939609 
1080	 0.38155580609048 
1081	 0.38168556018265 
1082	 0.381697606766203 
1083	 0.381760996598284 
1084	 0.381737155954262 
1085	 0.381677230014414 
1086	 0.381741053765863 
1087	 0.381906472988683 
1088	 0.382027283423523 
1089	 0.382131375631459 
1090	 0.382249934031998 
1091	 0.382334553053192 
1092	 0.382328469645292 
1093	 0.382337284059341 
1094	 0.382495569397633 
1095	 0.382604009395732 
1096	 0.382618985345148 
1097	 0.382702324240116 
1098	 0.382818428687286 
1099	 0.382934422644381 
1100	 0.383057492652873 
1101	 0.383180499268048 
1102	 0.383285350308846 
1103	 0.383369146492546 
1104	 0.383391769414742 
1105	 0.383495872329457 
1106	 0.38363777120989 
1107	 0.383732716288335 
1108	 0.383883549624982 
1109	 0.384084175070071 
1110	 0.384197551748306 
1111	 0.384274513352597 
1112	 0.384408759480603 
1113	 0.384533109592901 
1114	 0.384711430309421 
1115	 0.384954701101879 
1116	 0.385121793839975 
1117	 0.385244583790071 
1118	 0.385393395619048 
1119	 0.385542398109482 
1120	 0.385682720897538 
1121	 0.385839797075438 
1122	 0.385957069213217 
1123	 0.386057176610517 
1124	 0.386180679222613 
1125	 0.386315906807859 
1126	 0.386501963322505 
1127	 0.386669856644422 
1128	 0.386792932825837 
1129	 0.386889702056177 
1130	 0.387022884539585 
1131	 0.387196146252251 
1132	 0.38733939707118 
1133	 0.387492758505757 
1134	 0.387657874592093 
1135	 0.387802789866743 
1136	 0.387934161389418 
1137	 0.388054883648509 
1138	 0.388173647350819 
1139	 0.388265010960303 
1140	 0.388316478296287 
1141	 0.388411627032319 
1142	 0.38847736686982 
1143	 0.388513715105337 
1144	 0.388573892666235 
1145	 0.38863157083777 
1146	 0.388720331058584 
1147	 0.38878179553157 
1148	 0.388775069916832 
1149	 0.388762797382242 
1150	 0.38869163824462 
1151	 0.388639545887005 
1152	 0.388606190861011 
1153	 0.388587994701832 
1154	 0.388559382186356 
1155	 0.388564276984193 
1156	 0.388518920915111 
1157	 0.388464494875931 
1158	 0.388394623134001 
1159	 0.388311546829959 
1160	 0.388154084926039 
1161	 0.388022978869992 
1162	 0.387940133481145 
1163	 0.387866933044839 
1164	 0.387796408615979 
1165	 0.387712883395359 
1166	 0.38757986726053 
1167	 0.38743941224595 
1168	 0.387319270895929 
1169	 0.387190900355162 
1170	 0.387080534575994 
1171	 0.386960507857338 
1172	 0.386829226709199 
1173	 0.38668630814567 
1174	 0.386522567980927 
1175	 0.386389971890344 
1176	 0.386283460342046 
1177	 0.386147060851259 
1178	 0.386018383405201 
1179	 0.385885354350729 
1180	 0.385715040582734 
1181	 0.385530084071756 
1182	 0.385423087331892 
1183	 0.385325563148081 
1184	 0.385214784779638 
1185	 0.385101121998523 
1186	 0.384996733152904 
1187	 0.38487800003343 
1188	 0.384779010086157 
1189	 0.384691115629463 
1190	 0.384629283840031 
1191	 0.384565271868492 
1192	 0.384543357878672 
1193	 0.384590327460996 
1194	 0.384586686724203 
1195	 0.384555872755575 
1196	 0.384560218032658 
1197	 0.384536070752178 
1198	 0.38457969015356 
1199	 0.384671835190403 
1200	 0.384753343743052 
1201	 0.384898920531371 
1202	 0.385035835716972 
1203	 0.385122830707178 
1204	 0.385292628046166 
1205	 0.385487434871032 
1206	 0.385666224740119 
1207	 0.385933831983031 
1208	 0.386269252266097 
1209	 0.386660882168179 
1210	 0.387078235612162 
1211	 0.387587338305729 
1212	 0.388209854373412 
1213	 0.388835497794465 
1214	 0.389498336347022 
1215	 0.39023183034925 
1216	 0.391027313439595 
1217	 0.391824722142698 
1218	 0.392681932683101 
1219	 0.393560895530395 
1220	 0.394406665261126 
1221	 0.395326404661342 
1222	 0.396223764885962 
1223	 0.397133222001281 
1224	 0.398005124792958 
1225	 0.398853171587274 
1226	 0.399683836202877 
1227	 0.40048243140853 
1228	 0.401295826313562 
1229	 0.402126287700735 
1230	 0.402902057577593 
1231	 0.403665973149977 
1232	 0.404407793984943 
1233	 0.405092823905661 
1234	 0.405784730974613 
1235	 0.406505462396003 
1236	 0.407156508351035 
1237	 0.407739609376081 
1238	 0.408345625194912 
1239	 0.408937267482051 
1240	 0.409496204707506 
1241	 0.410087065176785 
1242	 0.410646041973606 
1243	 0.411178494758366 
1244	 0.411664554390438 
1245	 0.412179694034194 
1246	 0.41269667045126 
1247	 0.413191346348149 
1248	 0.413678068272637 
1249	 0.414165191044849 
1250	 0.414639185114833 
1251	 0.415104109956785 
1252	 0.415562934944914 
1253	 0.416028530490973 
1254	 0.416486430771374 
1255	 0.416943214355507 
1256	 0.417426743520985 
1257	 0.417874436628697 
1258	 0.418292854588836 
1259	 0.418710008414407 
1260	 0.419088544905643 
1261	 0.419503824575709 
1262	 0.419954404450649 
1263	 0.420369830663634 
1264	 0.420803787599218 
1265	 0.421267880351911 
1266	 0.421686859794498 
1267	 0.422067976701093 
1268	 0.422491834387383 
1269	 0.422931774291873 
1270	 0.423341951748959 
1271	 0.423754547685737 
1272	 0.424170832816318 
1273	 0.424571158628056 
1274	 0.424962731242006 
1275	 0.425357803645928 
1276	 0.425757894130667 
1277	 0.426143984792125 
1278	 0.426521968026528 
1279	 0.426956515825441 
1280	 0.427309613680919 
1281	 0.427536903687471 
1282	 0.427860812247386 
1283	 0.428226121419386 
1284	 0.42854598356057 
1285	 0.428868701571126 
1286	 0.429259557920284 
1287	 0.429549276149378 
1288	 0.429742890963646 
1289	 0.430008217640335 
1290	 0.430289085449429 
1291	 0.430549230986429 
1292	 0.430826219350576 
1293	 0.4310587913434 
1294	 0.431254062936108 
1295	 0.431460222311948 
1296	 0.43161884939325 
1297	 0.431844275960644 
1298	 0.43211074368876 
1299	 0.432359503619176 
1300	 0.432636556571594 
1301	 0.432903063463354 
1302	 0.433158883670563 
1303	 0.433409137840754 
1304	 0.433657874627136 
1305	 0.433913291408226 
1306	 0.434185488495386 
1307	 0.434417733894914 
1308	 0.434614779222736 
1309	 0.434839965532029 
1310	 0.435066335424543 
1311	 0.435267858545646 
1312	 0.43548499127354 
1313	 0.435746609693117 
1314	 0.435950870234972 
1315	 0.436096169290965 
1316	 0.436307218764012 
1317	 0.436533978790442 
1318	 0.436758729511437 
1319	 0.437028412362034 
1320	 0.437248803048765 
1321	 0.437435190847277 
1322	 0.43763552190216 
1323	 0.437832749947805 
1324	 0.43801712572807 
1325	 0.438185058610352 
1326	 0.438374223587414 
1327	 0.438578258290537 
1328	 0.438754343981274 
1329	 0.438954951905218 
1330	 0.439110940232426 
1331	 0.439198503617719 
1332	 0.439313131669235 
1333	 0.439426516890015 
1334	 0.439536824763877 
1335	 0.439640845479378 
1336	 0.439762454818087 
1337	 0.439840098094779 
1338	 0.439894190855785 
1339	 0.439940522831294 
1340	 0.439971467813969 
1341	 0.439982618919745 
1342	 0.43997891954248 
1343	 0.4399629296345 
1344	 0.439941492745175 
1345	 0.439879569027277 
1346	 0.439787907049305 
1347	 0.439696033437988 
1348	 0.439554665739438 
1349	 0.439451322745044 
1350	 0.439395172205301 
1351	 0.439278267496877 
1352	 0.439156565229021 
1353	 0.43899833992087 
1354	 0.438781705428964 
1355	 0.438575247145619 
1356	 0.438337074350262 
1357	 0.43812674299648 
1358	 0.437941123970932 
1359	 0.43772835860256 
1360	 0.437518477034732 
1361	 0.437305695896039 
1362	 0.437046456710001 
1363	 0.436786217666084 
1364	 0.436519543363881 
1365	 0.436254851648587 
1366	 0.435952673916697 
1367	 0.435647407931884 
1368	 0.435285409417119 
1369	 0.434896107354607 
1370	 0.434455508334982 
1371	 0.433972194478008 
1372	 0.43345649186864 
1373	 0.432886365527046 
1374	 0.432313199701217 
1375	 0.431711447116131 
1376	 0.431090276786779 
1377	 0.430452901766239 
1378	 0.429785859941199 
1379	 0.429092198731082 
1380	 0.428372142282263 
1381	 0.427623040218695 
1382	 0.426850591603672 
1383	 0.4260623038639 
1384	 0.425232977803141 
1385	 0.424369316923234 
1386	 0.423491643634176 
1387	 0.422513190593838 
1388	 0.421642388094892 
1389	 0.420821478842478 
1390	 0.420010380915266 
1391	 0.419283132435651 
1392	 0.418511541913846 
1393	 0.417799371857127 
1394	 0.417065008365743 
1395	 0.416355034873489 
1396	 0.415718861362998 
1397	 0.414966653701645 
1398	 0.414195851600209 
1399	 0.413333888718517 
1400	 0.412423979744281 
1401	 0.41140211715144 
1402	 0.410312686928293 
1403	 0.409109744945307 
1404	 0.407789840232022 
1405	 0.406427933712063 
1406	 0.404956456599343 
1407	 0.403485842219386 
1408	 0.401934352198495 
1409	 0.400421388382184 
1410	 0.398881591683244 
1411	 0.397377084086727 
1412	 0.395861970577623 
1413	 0.394425243127398 
1414	 0.393031187642667 
1415	 0.391663089348467 
1416	 0.390346690791637 
1417	 0.389049404704202 
1418	 0.387769875406731 
1419	 0.386519379342581 
1420	 0.385302069275183 
1421	 0.384122286749375 
1422	 0.382961643032331 
1423	 0.3818384805663 
1424	 0.380775036947074 
1425	 0.379688344486474 
1426	 0.378705898976434 
1427	 0.377743602540253 
1428	 0.376788244038557 
1429	 0.375929268770991 
1430	 0.375041356660689 
1431	 0.374180411500343 
1432	 0.373261733909103 
1433	 0.372354163199633 
1434	 0.371376043204152 
1435	 0.37034444848041 
1436	 0.369281055536621 
1437	 0.368179901655044 
1438	 0.367066984172428 
1439	 0.365877675206207 
1440	 0.364762872931843 
1441	 0.363585232791309 
1442	 0.362596590186956 
1443	 0.361608626916052 
1444	 0.36089533361571 
1445	 0.360307815288884 
1446	 0.360001312133645 
1447	 0.359870026138113 
1448	 0.360058806791136 
1449	 0.360558617654641 
1450	 0.361236374880372 
1451	 0.362285988965408 
1452	 0.363332636136804 
1453	 0.364590226857064 
1454	 0.365810642685574 
1455	 0.367129483833834 
1456	 0.368393029102827 
1457	 0.369705011022062 
1458	 0.370922113250273 
1459	 0.372088698261469 
1460	 0.373211142131483 
1461	 0.374277551117228 
1462	 0.375281840386779 
1463	 0.376218803198774 
1464	 0.37713730352999 
1465	 0.378004690317772 
1466	 0.378833389655958 
1467	 0.379623052770311 
1468	 0.380421973056752 
1469	 0.381197837159194 
1470	 0.381945100231927 
1471	 0.382697876717982 
1472	 0.383470071384484 
1473	 0.384180604841856 
1474	 0.38486193599825 
1475	 0.385519705621659 
1476	 0.386147695843995 
1477	 0.386752090112464 
1478	 0.387350161932567 
1479	 0.387865109252584 
1480	 0.38834272927742 
1481	 0.38874929423641 
1482	 0.389082545429639 
1483	 0.38937942497558 
1484	 0.389609062723458 
1485	 0.389834878566797 
1486	 0.389985113103963 
1487	 0.390196084983163 
1488	 0.390375662330001 
1489	 0.390650499375464 
1490	 0.390931777971918 
1491	 0.391355884139972 
1492	 0.391869304759496 
1493	 0.392476564100149 
1494	 0.393210019253917 
1495	 0.393985614076826 
1496	 0.394860474434969 
1497	 0.395747414166621 
1498	 0.396694337899556 
1499	 0.39767396557091 
1500	 0.398700079514936 
1501	 0.399732440854726 
1502	 0.400852696876955 
1503	 0.401883164960579 
1504	 0.402900522088685 
1505	 0.403865938967377 
1506	 0.404795491580666 
1507	 0.405656450309279 
1508	 0.406470787803922 
1509	 0.407227411235101 
1510	 0.407894568369916 
1511	 0.408537476990048 
1512	 0.40911491342126 
1513	 0.409695957557998 
1514	 0.410277868229685 
1515	 0.410803316386679 
1516	 0.411322528124475 
1517	 0.411776461725116 
1518	 0.412162263117977 
1519	 0.412501666504838 
1520	 0.412782718481884 
1521	 0.413029489115125 
1522	 0.413238828892123 
1523	 0.413420035392198 
1524	 0.413569816072047 
1525	 0.413685885576244 
1526	 0.413806268347664 
1527	 0.413899102369736 
1528	 0.413984318060645 
1529	 0.414075743069746 
1530	 0.414127763425222 
1531	 0.414132327152166 
1532	 0.414174887046578 
1533	 0.414194275791518 
1534	 0.414285436617748 
1535	 0.414416239373097 
1536	 0.414548573453503 
1537	 0.414696744611882 
1538	 0.414908603897105 
1539	 0.415133635599971 
1540	 0.4154266218302 
1541	 0.415779323547365 
1542	 0.416201895194016 
1543	 0.416674045561026 
1544	 0.41719931170237 
1545	 0.417816752925008 
1546	 0.418439252197663 
1547	 0.419095435935418 
1548	 0.419773801596177 
1549	 0.420505716022484 
1550	 0.42121964719182 
1551	 0.421963338138305 
1552	 0.422661626857152 
1553	 0.42332875786289 
1554	 0.424027847665505 
1555	 0.424721913189174 
1556	 0.425412213110193 
1557	 0.426144239933455 
1558	 0.42681877631272 
1559	 0.427452008877145 
1560	 0.428083404253209 
1561	 0.428702462881129 
1562	 0.429298114788451 
1563	 0.429859105610666 
1564	 0.430441094551554 
1565	 0.431017079542708 
1566	 0.431586876710503 
1567	 0.43219030436875 
1568	 0.432732504009412 
1569	 0.433206186265824 
1570	 0.433732182208895 
1571	 0.434258653828067 
1572	 0.43477779087874 
1573	 0.435330328279174 
1574	 0.435854745728688 
1575	 0.436355409050803 
1576	 0.436844232904911 
1577	 0.437319762242111 
1578	 0.437800810006183 
1579	 0.438257720117077 
1580	 0.4387292138994 
1581	 0.439235482172221 
1582	 0.439701135761268 
1583	 0.440135674798974 
1584	 0.440587772790588 
1585	 0.441034491436187 
1586	 0.441471719026705 
1587	 0.441908284046612 
1588	 0.442350895295915 
1589	 0.442777504330066 
1590	 0.443216233175316 
1591	 0.443671986637685 
1592	 0.44412982305244 
1593	 0.444595264056205 
1594	 0.445051017830883 
1595	 0.445511097054011 
1596	 0.445961872326864 
1597	 0.446406921807604 
1598	 0.446837372145418 
1599	 0.447265888274192 
1600	 0.447680683086432 
1601	 0.448043586789347 
1602	 0.44846013866243 
1603	 0.44892111795919 
1604	 0.449342244903012 
1605	 0.4497739514756 
1606	 0.450194790665644 
1607	 0.450574882536545 
1608	 0.450969237671971 
1609	 0.4513983332305 
1610	 0.45178921208563 
1611	 0.452161975603721 
1612	 0.452512716764242 
1613	 0.452844203380908 
1614	 0.453150440190127 
1615	 0.453415038122535 
1616	 0.453690371741852 
1617	 0.45394994497088 
1618	 0.454212571536991 
1619	 0.454506167165419 
1620	 0.454748764756217 
1621	 0.454963350345738 
1622	 0.455160053610154 
1623	 0.455309856077736 
1624	 0.455466122754326 
1625	 0.455610736239054 
1626	 0.455757539512667 
1627	 0.455922259755336 
1628	 0.456047643432016 
1629	 0.456125257584051 
1630	 0.456242117514667 
1631	 0.456339716816849 
1632	 0.456462756537613 
1633	 0.45665346276571 
1634	 0.456800531428823 
1635	 0.456920774313207 
1636	 0.457053738157843 
1637	 0.457207294369189 
1638	 0.457309099132541 
1639	 0.457391371544229 
1640	 0.4574552643733 
1641	 0.457461467981495 
1642	 0.457483774363319 
1643	 0.457519446184309 
1644	 0.457533356710041 
1645	 0.457543570509574 
1646	 0.457524159182364 
1647	 0.45748119418513 
1648	 0.457427225760509 
1649	 0.457366055499187 
1650	 0.457256744954833 
1651	 0.457098164042971 
1652	 0.456952121278363 
1653	 0.456805999126174 
1654	 0.456604080946379 
1655	 0.456395799647594 
1656	 0.456146694112159 
1657	 0.455835047855305 
1658	 0.455494239413769 
1659	 0.455150324253815 
1660	 0.454736445370746 
1661	 0.454251479469017 
1662	 0.453747148502232 
1663	 0.453225811337056 
1664	 0.452605144561175 
1665	 0.451943753484363 
1666	 0.451181376009933 
1667	 0.450306598052913 
1668	 0.44940762616415 
1669	 0.448490322403934 
1670	 0.447419290544377 
1671	 0.446244022571948 
1672	 0.444979571929139 
1673	 0.44357850608088 
1674	 0.442117684872188 
1675	 0.440588808262398 
1676	 0.439012379513068 
1677	 0.437375056298828 
1678	 0.435644064362092 
1679	 0.433847188187419 
1680	 0.431932231288802 
1681	 0.429853799124544 
1682	 0.427788900080929 
1683	 0.425709737181724 
1684	 0.423548843604434 
1685	 0.421362568496017 
1686	 0.419052275462736 
1687	 0.416583847828042 
1688	 0.414101971706125 
1689	 0.411558378136413 
1690	 0.408952948240863 
1691	 0.406317514697264 
1692	 0.403642080246 
1693	 0.40089094166332 
1694	 0.398125457995518 
1695	 0.395299635228051 
1696	 0.392453899018197 
1697	 0.389597369790183 
1698	 0.386645187581074 
1699	 0.383647189028105 
1700	 0.380676355002024 
1701	 0.377618978428765 
1702	 0.374651980397861 
1703	 0.371668554023937 
1704	 0.368830309035132 
1705	 0.365997689526425 
1706	 0.363321161028114 
1707	 0.360978413611419 
1708	 0.358730364769233 
1709	 0.356669221939192 
1710	 0.354805801085557 
1711	 0.352895088295619 
1712	 0.351111167634468 
1713	 0.349383613957258 
1714	 0.347695803081885 
1715	 0.346203472228251 
1716	 0.344732654216219 
1717	 0.34332795418575 
1718	 0.341985690705757 
1719	 0.340639672084816 
1720	 0.339410401325128 
1721	 0.338255530347174 
1722	 0.337147737025212 
1723	 0.336201411968193 
1724	 0.335349786287589 
1725	 0.334645302348704 
1726	 0.334204541902579 
1727	 0.333931332098258 
1728	 0.333851127637524 
1729	 0.334051210289241 
1730	 0.334481710611687 
1731	 0.335079061503775 
1732	 0.335912226796783 
1733	 0.336885072525944 
1734	 0.337983083495687 
1735	 0.339228242704823 
1736	 0.340492872372041 
1737	 0.341663362029252 
1738	 0.342675615038939 
1739	 0.343448353120124 
1740	 0.344010634169005 
1741	 0.344428008336252 
1742	 0.344626357926888 
1743	 0.344744875972771 
1744	 0.344715683508482 
1745	 0.344585501993471 
1746	 0.344283305717758 
1747	 0.344014756753683 
1748	 0.343595735570674 
1749	 0.343351888945579 
1750	 0.343163268465844 
1751	 0.343026652103412 
1752	 0.34294053402705 
1753	 0.342961867740247 
1754	 0.343032176742502 
1755	 0.343275538203027 
1756	 0.343663112145254 
1757	 0.34416731786251 
1758	 0.344801663748576 
1759	 0.345613024872817 
1760	 0.346604475854341 
1761	 0.347809550672544 
1762	 0.349037162494351 
1763	 0.350321992266173 
1764	 0.351703603489185 
1765	 0.353207141590055 
1766	 0.354955073860201 
1767	 0.356769932279219 
1768	 0.358647744924831 
1769	 0.36053643579038 
1770	 0.362290627452232 
1771	 0.364082501445133 
1772	 0.365789631764531 
1773	 0.367353216944132 
1774	 0.36891061957962 
1775	 0.37033889048605 
1776	 0.371764661213552 
1777	 0.373162135640272 
1778	 0.374366299368927 
1779	 0.375516351984301 
1780	 0.376569585766413 
1781	 0.37751382240457 
1782	 0.378483958557446 
1783	 0.379425243564359 
1784	 0.38030993162924 
1785	 0.38108981908677 
1786	 0.381833941802968 
1787	 0.382485905873604 
1788	 0.383172494231147 
1789	 0.383884760240419 
1790	 0.384522506049618 
1791	 0.385111775488876 
1792	 0.385691975294379 
1793	 0.386206631581004 
1794	 0.38676899180161 
1795	 0.387303918764296 
1796	 0.387781433836162 
1797	 0.388276948396295 
1798	 0.388771323020565 
1799	 0.389301394137132 
1800	 0.389799252541429 
1801	 0.387324626325597 
1802	 0.387619309249296 
1803	 0.388013210967784 
1804	 0.388422796137492 
1805	 0.388938349795343 
1806	 0.389374551743856 
1807	 0.389843848538804 
1808	 0.390286113656731 
1809	 0.390684745174538 
1810	 0.391082026553079 
1811	 0.391469516374905 
1812	 0.391881340263058 
1813	 0.392271840535368 
1814	 0.392708195431261 
1815	 0.393140178126898 
1816	 0.393599357434097 
1817	 0.394039510004784 
1818	 0.394458410152891 
1819	 0.394886450788323 
1820	 0.395297410967573 
1821	 0.395747553241132 
1822	 0.396203173704379 
1823	 0.396705140128484 
1824	 0.397213445273353 
1825	 0.397703748029449 
1826	 0.398148915939277 
1827	 0.398554950295347 
1828	 0.398966575251178 
1829	 0.399324788975289 
1830	 0.399737648604051 
1831	 0.40019285271471 
1832	 0.400608908787756 
1833	 0.400987993362649 
1834	 0.40140834532434 
1835	 0.401747312308267 
1836	 0.402050347981416 
1837	 0.402396715380513 
1838	 0.40274902947713 
1839	 0.403100158637128 
1840	 0.403470670500988 
1841	 0.403829903916798 
1842	 0.404199896555067 
1843	 0.40456058274226 
1844	 0.404846616010059 
1845	 0.405097347985748 
1846	 0.405315544429276 
1847	 0.405484999532026 
1848	 0.405659717377073 
1849	 0.405869789774673 
1850	 0.405993763257722 
1851	 0.406088169504063 
1852	 0.406129099626129 
1853	 0.406073808199312 
1854	 0.405948861824328 
1855	 0.405737781909508 
1856	 0.405491622940741 
1857	 0.4052158027173 
1858	 0.404844049799125 
1859	 0.404423733379634 
1860	 0.403939493557189 
1861	 0.403402345296178 
1862	 0.402797780579898 
1863	 0.402188326044094 
1864	 0.401462779943619 
1865	 0.40067160073563 
1866	 0.399766926030799 
1867	 0.398703941196146 
1868	 0.397616685328143 
1869	 0.396433680471196 
1870	 0.39516492512137 
1871	 0.393838719768629 
1872	 0.392427617452706 
1873	 0.390935075901689 
1874	 0.389353187093925 
1875	 0.387714869703446 
1876	 0.385885914588074 
1877	 0.38401935265935 
1878	 0.382003575735072 
1879	 0.379816894313232 
1880	 0.377684825655619 
1881	 0.375369690698485 
1882	 0.372885477769717 
1883	 0.370364977443716 
1884	 0.367748334772096 
1885	 0.364800729057724 
1886	 0.361887210623425 
1887	 0.358795738532111 
1888	 0.355493575905515 
1889	 0.352330891934499 
1890	 0.348961684761789 
1891	 0.345558506855445 
1892	 0.342181711853125 
1893	 0.338648050779275 
1894	 0.334929977025989 
1895	 0.331328656670843 
1896	 0.327619719733415 
1897	 0.323826801443861 
1898	 0.320321797767172 
1899	 0.316702134120258 
1900	 0.313170530581313 
1901	 0.309792099081191 
1902	 0.30621594256503 
1903	 0.302804505968741 
1904	 0.299456901448771 
1905	 0.296118562120667 
1906	 0.292848224192857 
1907	 0.289932606037107 
1908	 0.28703219623845 
1909	 0.284284754035093 
1910	 0.281703744980538 
1911	 0.279018433277911 
1912	 0.276499330658144 
1913	 0.274048841436039 
1914	 0.271610588328968 
1915	 0.269330448535498 
1916	 0.267220560615502 
1917	 0.265118451873861 
1918	 0.263107317967701 
1919	 0.261159937833264 
1920	 0.259138588149872 
1921	 0.257233409605441 
1922	 0.255306387118072 
1923	 0.253366222197988 
1924	 0.251646418458423 
1925	 0.249919753331721 
1926	 0.248278206351715 
1927	 0.246765137772116 
1928	 0.245256408328308 
1929	 0.243750075787811 
1930	 0.242370043429566 
1931	 0.241054988558561 
1932	 0.23979036139507 
1933	 0.238733410192816 
1934	 0.237735907104497 
1935	 0.236810406251987 
1936	 0.236043979441196 
1937	 0.235415054585698 
1938	 0.234916268429483 
1939	 0.23454424855173 
1940	 0.234318545988821 
1941	 0.234216973882149 
1942	 0.234191443162155 
1943	 0.234231147034726 
1944	 0.234357503206639 
1945	 0.234587205489188 
1946	 0.234940574461083 
1947	 0.235388469359143 
1948	 0.23601080321208 
1949	 0.236729050505804 
1950	 0.237502041221881 
1951	 0.238348386070748 
1952	 0.239330392741409 
1953	 0.240380340012307 
1954	 0.241552372447948 
1955	 0.242926347970332 
1956	 0.244367474875806 
1957	 0.245890314607694 
1958	 0.247443148947636 
1959	 0.248836351128266 
1960	 0.250203946408676 
1961	 0.251481318076705 
1962	 0.252635313008107 
1963	 0.253743949954033 
1964	 0.254842486539778 
1965	 0.255784201004439 
1966	 0.256599347187838 
1967	 0.257366476724041 
1968	 0.25803605526489 
1969	 0.258704571173487 
1970	 0.25936297995676 
1971	 0.260019830654135 
1972	 0.260723084845633 
1973	 0.261410425022573 
1974	 0.262140068375377 
1975	 0.262925566861467 
1976	 0.2636995038152 
1977	 0.264463886290947 
1978	 0.265289497617355 
1979	 0.266141830249861 
1980	 0.266997169706229 
1981	 0.267970954694142 
1982	 0.268918986466824 
1983	 0.26990075663371 
1984	 0.270912137205741 
1985	 0.271874000303753 
1986	 0.272918205285569 
1987	 0.274050102438196 
1988	 0.27518078430869 
1989	 0.276506164034553 
1990	 0.277947380484676 
1991	 0.27951137468966 
1992	 0.281231644864851 
1993	 0.283096532505692 
1994	 0.284860773715996 
1995	 0.286818152836705 
1996	 0.288784883263498 
1997	 0.290719643551009 
1998	 0.292768278095442 
1999	 0.29497329462434 
2000	 0.29704668642761 
2001	 0.299238200981734 
2002	 0.301188017605297 
2003	 0.303039782347632 
2004	 0.304790396639804 
2005	 0.306316481418626 
2006	 0.307858252487804 
2007	 0.30939112457306 
2008	 0.31081089030643 
2009	 0.312142950680833 
2010	 0.3134094326737 
2011	 0.314443549273925 
2012	 0.315419763668361 
2013	 0.316342275387287 
2014	 0.317141103352929 
2015	 0.317946605036221 
2016	 0.31876558748496 
2017	 0.319446416813923 
2018	 0.320074841767692 
2019	 0.320584474066611 
2020	 0.320962943830944 
2021	 0.32127206624879 
2022	 0.321505468232869 
2023	 0.321742547685693 
2024	 0.321941077283467 
2025	 0.322027466734866 
2026	 0.322071879666447 
2027	 0.322033804078302 
2028	 0.321982661535171 
2029	 0.321862509584856 
2030	 0.321752297508366 
2031	 0.321617017120983 
2032	 0.32146828214055 
2033	 0.321314241869191 
2034	 0.321129898247145 
2035	 0.320919688040484 
2036	 0.320680416502614 
2037	 0.320471936739011 
2038	 0.3202424115867 
2039	 0.319986532179557 
2040	 0.319712660721739 
2041	 0.319487866087513 
2042	 0.319233875686155 
2043	 0.319018518055582 
2044	 0.318861794125151 
2045	 0.318689064456822 
2046	 0.318511098572185 
2047	 0.318346050282318 
2048	 0.318215277254976 
2049	 0.31806635378914 
2050	 0.317914890503818 
2051	 0.317750358701034 
2052	 0.317565902409575 
2053	 0.317406219518187 
2054	 0.317237504715529 
2055	 0.317057424344741 
2056	 0.316885772004303 
2057	 0.316734382479034 
2058	 0.316553269906113 
2059	 0.316353613096566 
2060	 0.316169807377418 
2061	 0.315947071152592 
2062	 0.315775684493494 
2063	 0.315665538671716 
2064	 0.315511541568251 
2065	 0.315339350875122 
2066	 0.315227344075882 
2067	 0.315022542566358 
2068	 0.314850473519181 
2069	 0.31468755971694 
2070	 0.314524938367546 
2071	 0.314388030537239 
2072	 0.314278072200911 
2073	 0.314148744154415 
2074	 0.314048117640066 
2075	 0.313903269581436 
2076	 0.313737326140889 
2077	 0.313565089071708 
2078	 0.313364610341959 
2079	 0.313166674431639 
2080	 0.312964825123903 
2081	 0.31275357893825 
2082	 0.312547932887013 
2083	 0.312319061622998 
2084	 0.312052014604351 
2085	 0.311780193465981 
2086	 0.311503184649429 
2087	 0.311186651072104 
2088	 0.310915340775354 
2089	 0.31066609814609 
2090	 0.310409172507534 
2091	 0.310192210770249 
2092	 0.309912022369995 
2093	 0.309596234000086 
2094	 0.309285885292954 
2095	 0.308956760834663 
2096	 0.308603118967988 
2097	 0.308218085485025 
2098	 0.307873589325218 
2099	 0.307485647334781 
2100	 0.307078141433265 
2101	 0.306686525793968 
2102	 0.306321856370298 
2103	 0.305900681911748 
2104	 0.305466723957315 
2105	 0.304996607452084 
2106	 0.304473825329509 
2107	 0.303969948024287 
2108	 0.303467875801311 
2109	 0.302927939528508 
2110	 0.302365338992132 
2111	 0.301805266099515 
2112	 0.301219407779045 
2113	 0.30061339916438 
2114	 0.300025224556974 
2115	 0.299397819346217 
2116	 0.298722135089603 
2117	 0.298033534668071 
2118	 0.297350827044481 
2119	 0.296653034595699 
2120	 0.295964543537648 
2121	 0.295261186710281 
2122	 0.294594856160031 
2123	 0.293954096487315 
2124	 0.293292963248698 
2125	 0.292648460748056 
2126	 0.291999614307474 
2127	 0.291295983788125 
2128	 0.2906704552395 
2129	 0.290082020095713 
2130	 0.289517645047326 
2131	 0.289033901595769 
2132	 0.288503821713306 
2133	 0.287978580443187 
2134	 0.287451735281759 
2135	 0.28679926220483 
2136	 0.286263890659856 
2137	 0.28571282277171 
2138	 0.285140027764987 
2139	 0.28462567543693 
2140	 0.284158003354468 
2141	 0.283703844138783 
2142	 0.283282221875564 
2143	 0.282858419185093 
2144	 0.282457500961044 
2145	 0.282070306342929 
2146	 0.281653346266694 
2147	 0.28132249940831 
2148	 0.281083316636969 
2149	 0.280799836409227 
2150	 0.280531229132759 
2151	 0.280284908664075 
2152	 0.280033278361654 
2153	 0.279784530261534 
2154	 0.279589589771113 
2155	 0.279404942240583 
2156	 0.279157494515331 
2157	 0.27885833397933 
2158	 0.278614719027469 
2159	 0.278362373634592 
2160	 0.27812093563532 
2161	 0.277914847949082 
2162	 0.277690540349819 
2163	 0.277443146197847 
2164	 0.277213994031349 
2165	 0.277025764426248 
2166	 0.276788778862708 
2167	 0.276515729569025 
2168	 0.276263578075547 
2169	 0.275998381293214 
2170	 0.275736170206785 
2171	 0.275470507314025 
2172	 0.275233141029468 
2173	 0.275012864065748 
2174	 0.27476823721659 
2175	 0.274581347970173 
2176	 0.274410103665544 
2177	 0.27425997557659 
2178	 0.274121940145491 
2179	 0.274021571000742 
2180	 0.27398217534299 
2181	 0.273872339233133 
2182	 0.273766781084466 
2183	 0.273628208081273 
2184	 0.273420038084389 
2185	 0.273278808456126 
2186	 0.273146651306188 
2187	 0.273030930457712 
2188	 0.272974495102535 
2189	 0.272858492846251 
2190	 0.272751027018428 
2191	 0.272594888953012 
2192	 0.272373270837406 
2193	 0.272162903821795 
2194	 0.271914059716236 
2195	 0.271689702025836 
2196	 0.271457132644738 
2197	 0.271267514328035 
2198	 0.271105862158608 
2199	 0.270849724681109 
2200	 0.270599293588616 
2201	 0.270354976877563 
2202	 0.270023616115465 
2203	 0.269612888528465 
2204	 0.269263315045011 
2205	 0.268874366778808 
2206	 0.268503645432979 
2207	 0.268205053924767 
2208	 0.267814954002848 
2209	 0.267335679302289 
2210	 0.26693266806508 
2211	 0.266528261362324 
2212	 0.266138299375306 
2213	 0.265778651637839 
2214	 0.265433814402439 
2215	 0.265085714409145 
2216	 0.264761216049608 
2217	 0.264453666778069 
2218	 0.264192369998734 
2219	 0.263946993713616 
2220	 0.263738626734405 
2221	 0.263578903811699 
2222	 0.263470854068613 
2223	 0.263336815320816 
2224	 0.263204365890588 
2225	 0.263066243113785 
2226	 0.26287836325007 
2227	 0.262668053177043 
2228	 0.262474145867493 
2229	 0.262149985460556 
2230	 0.261761655705972 
2231	 0.261301857761651 
2232	 0.260762420869926 
2233	 0.260107686478813 
2234	 0.259422178820938 
2235	 0.258536633128685 
2236	 0.257504378008299 
2237	 0.25634833407815 
2238	 0.254983767914382 
2239	 0.253600626763563 
2240	 0.252115909586283 
2241	 0.250533253361971 
2242	 0.248923750987071 
2243	 0.247152250615846 
2244	 0.245232027482715 
2245	 0.243225983958099 
2246	 0.241018209473999 
2247	 0.238817424543585 
2248	 0.236509027072682 
2249	 0.234202427666938 
2250	 0.231883144709518 
2251	 0.229589445869667 
2252	 0.227081694866601 
2253	 0.224598399294993 
2254	 0.222027973812337 
2255	 0.219355228086142 
2256	 0.216833060893927 
2257	 0.214371360053726 
2258	 0.211976597322237 
2259	 0.209679362505683 
2260	 0.207355983373832 
2261	 0.205077412093722 
2262	 0.202814852730624 
2263	 0.200504743570227 
2264	 0.19836572116358 
2265	 0.196306028510849 
2266	 0.19433232191982 
2267	 0.192524584253626 
2268	 0.190679962446229 
2269	 0.18888825735387 
2270	 0.187132269081247 
2271	 0.185339415686995 
2272	 0.183681892608249 
2273	 0.182185077813029 
2274	 0.180607105073303 
2275	 0.179180751957063 
2276	 0.177569466492279 
2277	 0.175761538481034 
2278	 0.174061139858233 
2279	 0.172312527218939 
2280	 0.170576068813938 
2281	 0.168937946323025 
2282	 0.167214515801987 
2283	 0.165448007249004 
2284	 0.163639321496243 
2285	 0.16174880925424 
2286	 0.159858880827138 
2287	 0.157805293695141 
2288	 0.155709123889254 
2289	 0.153731748002203 
2290	 0.151672898289661 
2291	 0.149684943333354 
2292	 0.147672379605094 
2293	 0.14548133394936 
2294	 0.143435093481113 
2295	 0.141448802933065 
2296	 0.139530394878185 
2297	 0.137891830660066 
2298	 0.136479214130664 
2299	 0.13516056091753 
2300	 0.133991404206722 
2301	 0.133126646748892 
2302	 0.132421359964588 
2303	 0.13203094511719 
2304	 0.132005142477068 
2305	 0.132104637744421 
2306	 0.132455575726493 
2307	 0.132930868450281 
2308	 0.133585746822834 
2309	 0.134500456233181 
2310	 0.135618744915868 
2311	 0.136912479993896 
2312	 0.138595668143274 
2313	 0.140140246153161 
2314	 0.141773773137306 
2315	 0.143451858965312 
2316	 0.145170821909104 
2317	 0.146846787638447 
2318	 0.14872043412021 
2319	 0.150244000183331 
2320	 0.151688757505722 
2321	 0.152878828247405 
2322	 0.153735744680635 
2323	 0.154518666300503 
2324	 0.155138309559298 
2325	 0.155546393430419 
2326	 0.155841040705535 
2327	 0.155901760676511 
2328	 0.155642207671802 
2329	 0.155359873859788 
2330	 0.154909075897799 
2331	 0.154339108084347 
2332	 0.153785402745365 
2333	 0.153025726316184 
2334	 0.152114578048092 
2335	 0.151180910347481 
2336	 0.150057979420896 
2337	 0.148808535984441 
2338	 0.147559622762857 
2339	 0.146259539204496 
2340	 0.145040664918105 
2341	 0.143863222762507 
2342	 0.142559016118806 
2343	 0.14128475064143 
2344	 0.140160690539657 
2345	 0.139252221411772 
2346	 0.138712261470743 
2347	 0.138591281279548 
2348	 0.138721158341083 
2349	 0.139048253277098 
2350	 0.139685451558186 
2351	 0.14054576384973 
2352	 0.14157739732287 
2353	 0.142776645700345 
2354	 0.143870220448356 
2355	 0.144976037744455 
2356	 0.146007200033069 
2357	 0.146936142292177 
2358	 0.147952105188411 
2359	 0.148699547075588 
2360	 0.149174227731106 
2361	 0.149504422861314 
2362	 0.149648891492569 
2363	 0.149647321657427 
2364	 0.149634427485403 
2365	 0.149579386451652 
2366	 0.149307983261904 
2367	 0.149083470274265 
2368	 0.149004297770146 
2369	 0.148841778985117 
2370	 0.148679556799245 
2371	 0.148561442066695 
2372	 0.148367560639608 
2373	 0.148137601171945 
2374	 0.147921008291917 
2375	 0.147732645271419 
2376	 0.147552057762042 
2377	 0.147346268177358 
2378	 0.147349864719799 
2379	 0.147415150976725 
2380	 0.147290053378248 
2381	 0.147145773129205 
2382	 0.147069005493239 
2383	 0.146950158882218 
2384	 0.146893617959112 
2385	 0.146952697996118 
2386	 0.146905659103484 
2387	 0.146773263498874 
2388	 0.146618191780057 
2389	 0.146460475616463 
2390	 0.146356633958156 
2391	 0.146252035000728 
2392	 0.146163147104487 
2393	 0.14606653153219 
2394	 0.146051593467625 
2395	 0.146042835881745 
2396	 0.146047064944295 
2397	 0.146187197683462 
2398	 0.146192909807434 
2399	 0.146181818776268 
2400	 0.146101461501779 
2401	 0.145949794690717 
2402	 0.145766441639255 
2403	 0.145419162454944 
2404	 0.145013099513601 
2405	 0.144725286599632 
2406	 0.144697115246904 
2407	 0.144723821116627 
2408	 0.144636592192476 
2409	 0.144576427637298 
2410	 0.144189727941497 
2411	 0.143983018456118 
2412	 0.144082516269996 
2413	 0.143785581936406 
2414	 0.143837974793914 
2415	 0.143870558740478 
2416	 0.143314971613854 
2417	 0.143116508801006 
2418	 0.142965660448438 
2419	 0.142555436750501 
2420	 0.142597924418776 
2421	 0.142829495215471 
2422	 0.142831372095352 
2423	 0.142729944947746 
2424	 0.14237940557322 
2425	 0.141985590175906 
2426	 0.141794261099206 
2427	 0.141725749273386 
2428	 0.141889060718512 
2429	 0.141889554291024 
2430	 0.141629994566251 
2431	 0.141520183079999 
2432	 0.141177280330267 
2433	 0.140872378495497 
2434	 0.140796815187987 
2435	 0.140350453943389 
2436	 0.140105343868321 
2437	 0.140084363671724 
2438	 0.140002639239742 
2439	 0.140146464406739 
2440	 0.140097654308231 
2441	 0.139884361455619 
2442	 0.139871296624212 
2443	 0.139569224729629 
2444	 0.139080292385117 
2445	 0.138840639112686 
2446	 0.138289998975312 
2447	 0.137835341679378 
2448	 0.137777246636518 
2449	 0.13742605952856 
2450	 0.13718837453609 
2451	 0.137137306580998 
2452	 0.136963574840202 
2453	 0.136812647036897 
2454	 0.136362065817858 
2455	 0.135638034997471 
2456	 0.134843187708189 
2457	 0.134067582634757 
2458	 0.13366366126808 
2459	 0.133544870258742 
2460	 0.133212997732578 
2461	 0.132872300084425 
2462	 0.132859797486347 
2463	 0.132795099648415 
2464	 0.13249291880744 
2465	 0.132061727131638 
2466	 0.131341123267844 
2467	 0.130433159393247 
2468	 0.130291643525378 
2469	 0.130746946290318 
2470	 0.130833226591079 
2471	 0.131032302527717 
2472	 0.131044809667217 
2473	 0.130446486323141 
2474	 0.130262192658779 
2475	 0.130279173399964 
2476	 0.129637438603412 
2477	 0.128969614587217 
2478	 0.128728089088499 
2479	 0.12784696154919 
2480	 0.127873145251231 
2481	 0.127887215812755 
2482	 0.128089146317326 
2483	 0.128883179802876 
2484	 0.129085439425987 
2485	 0.129494749736873 
2486	 0.129487064818171 
2487	 0.129116329520721 
2488	 0.12924450138268 
2489	 0.129792094148608 
2490	 0.130213661408873 
2491	 0.13064420380738 
2492	 0.130698216639772 
2493	 0.129921408035441 
2494	 0.12980887752388 
2495	 0.130072673082299 
2496	 0.12977417862812 
2497	 0.130587017882248 
2498	 0.131763104856091 
2499	 0.132305251679655 
2500	 0.133252837493714 
