Wavelength	Tablay400100.asd
350	 0.211035893759861 
351	 0.161440775598764 
352	 0.150823649188484 
353	 0.198931998692127 
354	 0.206541900672235 
355	 0.166930545710243 
356	 0.16271485938367 
357	 0.233291000103638 
358	 0.165201437965896 
359	 0.14615356148458 
360	 0.190501017358352 
361	 0.223065012829289 
362	 0.163699263902926 
363	 0.138442187992319 
364	 0.194479743655096 
365	 0.222813687727399 
366	 0.167364253021801 
367	 0.125054239718652 
368	 0.162368073130714 
369	 0.160179405665063 
370	 0.126794919618112 
371	 0.111974186953314 
372	 0.172539668415726 
373	 0.15071986928915 
374	 0.130823794897006 
375	 0.148311829139877 
376	 0.134240655731009 
377	 9.27708602994079E-02 
378	 8.57293543711373E-02 
379	 0.133954837015319 
380	 0.128467989999642 
381	 0.123643836539039 
382	 0.134321125458037 
383	 0.143619019668722 
384	 0.110178709688269 
385	 0.089784073755912 
386	 9.69171764628791E-02 
387	 6.41610955423668E-02 
388	 0.106656957734128 
389	 0.144420780157456 
390	 0.10622795528379 
391	 0.125192993626692 
392	 0.132289408296925 
393	 0.111157971230678 
394	 8.31404326161994E-02 
395	 6.46597144060739E-02 
396	 6.67781966782452E-02 
397	 8.51896062355677E-02 
398	 0.101607037602256 
399	 0.091703051725861 
400	 8.10225163215212E-02 
401	 9.34080873166052E-02 
402	 8.97373811292713E-02 
403	 7.92593000002178E-02 
404	 7.02634308270125E-02 
405	 6.92224536158115E-02 
406	 8.57982534931957E-02 
407	 0.086219600122841 
408	 6.26302973503658E-02 
409	 6.61913429915076E-02 
410	 6.84579721801626E-02 
411	 6.92484143350089E-02 
412	 7.37247117032326E-02 
413	 7.01547980544822E-02 
414	 7.04156545397954E-02 
415	 7.49625219994716E-02 
416	 7.37667256468632E-02 
417	 7.52394999745276E-02 
418	 6.72240459589544E-02 
419	 5.10994313832564E-02 
420	 6.92118530906149E-02 
421	 6.59242800552737E-02 
422	 5.59938135493441E-02 
423	 7.16255445136396E-02 
424	 6.49836727511063E-02 
425	 0.061184640575952 
426	 6.65780558927099E-02 
427	 6.15974182939144E-02 
428	 6.23568202815031E-02 
429	 6.38678382251816E-02 
430	 6.07105481713516E-02 
431	 5.88036705758984E-02 
432	 5.93723456949731E-02 
433	 6.05216941674214E-02 
434	 0.05919286250083 
435	 5.74117923744731E-02 
436	 6.13151595385562E-02 
437	 0.068300989388821 
438	 6.24373988819016E-02 
439	 5.69706471769245E-02 
440	 5.42246168668148E-02 
441	 5.37426515989795E-02 
442	 5.74775237048053E-02 
443	 5.81667068450718E-02 
444	 5.53335990506254E-02 
445	 5.39338090741959E-02 
446	 5.56126860764004E-02 
447	 5.62155980168445E-02 
448	 5.43255542628069E-02 
449	 5.66397500068722E-02 
450	 5.55055496724409E-02 
451	 0.05330065052399 
452	 5.50094017102238E-02 
453	 5.75731761464876E-02 
454	 5.73587035656598E-02 
455	 5.47780174475039E-02 
456	 0.054474054454158 
457	 5.44036416148418E-02 
458	 5.51945441571966E-02 
459	 5.63139088604837E-02 
460	 5.16589517006458E-02 
461	 5.27972619780275E-02 
462	 5.68144082073289E-02 
463	 5.43732642403088E-02 
464	 5.34555281191445E-02 
465	 0.053278802567762 
466	 5.28825205118655E-02 
467	 5.24144951040606E-02 
468	 5.26396613917407E-02 
469	 5.29750395777228E-02 
470	 5.25467506228005E-02 
471	 5.06087559357891E-02 
472	 5.12285754175602E-02 
473	 5.36023604057995E-02 
474	 5.33503497485767E-02 
475	 5.19434189361808E-02 
476	 5.18245720631871E-02 
477	 5.32791459228651E-02 
478	 5.15476040827395E-02 
479	 0.050917952340142 
480	 0.051292016249231 
481	 5.12743117144439E-02 
482	 5.25002598326916E-02 
483	 5.20816283412068E-02 
484	 5.03710759174193E-02 
485	 5.14499782565936E-02 
486	 5.19285426317941E-02 
487	 5.12330790742702E-02 
488	 5.00199006934246E-02 
489	 5.07069694820331E-02 
490	 5.06627811637686E-02 
491	 4.96103712843175E-02 
492	 4.87610317558275E-02 
493	 4.94212705193626E-02 
494	 5.01947536589599E-02 
495	 5.03203477929239E-02 
496	 5.05900237322169E-02 
497	 5.04891891237401E-02 
498	 4.95612871213498E-02 
499	 4.79987927990344E-02 
500	 4.85912124013664E-02 
501	 4.96964210084292E-02 
502	 5.01034433165388E-02 
503	 4.92705628391507E-02 
504	 4.87055372683311E-02 
505	 4.85634735021718E-02 
506	 4.88518969381852E-02 
507	 5.01443497053715E-02 
508	 4.99343637951584E-02 
509	 4.89614264432464E-02 
510	 4.90825204458624E-02 
511	 4.89916699751407E-02 
512	 4.87648068522725E-02 
513	 4.85132501105855E-02 
514	 4.82503844763251E-02 
515	 4.79718604104497E-02 
516	 4.78790184932099E-02 
517	 4.79172356105984E-02 
518	 4.68980147633024E-02 
519	 0.046441295393741 
520	 4.67477658088471E-02 
521	 4.70099366843135E-02 
522	 4.70171636035902E-02 
523	 4.71256856573879E-02 
524	 0.047446081333123 
525	 4.74653470387182E-02 
526	 4.71720284523882E-02 
527	 0.046960005861771 
528	 4.71892933946221E-02 
529	 4.71596893009927E-02 
530	 4.70216368912696E-02 
531	 4.69001065440155E-02 
532	 4.68379155906132E-02 
533	 0.047130584221266 
534	 4.72208450031633E-02 
535	 4.67915235349911E-02 
536	 4.66729807645213E-02 
537	 4.67986347990886E-02 
538	 4.69089122712921E-02 
539	 4.67083766942627E-02 
540	 4.66490426730249E-02 
541	 4.67682153839443E-02 
542	 4.68361187919112E-02 
543	 4.62408484827194E-02 
544	 4.61349467558715E-02 
545	 4.62662477876075E-02 
546	 4.60990344550552E-02 
547	 4.58406777847072E-02 
548	 4.60615737365331E-02 
549	 4.64310561988696E-02 
550	 4.59168101371896E-02 
551	 4.60190248970225E-02 
552	 4.61909752721041E-02 
553	 4.59617305280944E-02 
554	 4.60051639775716E-02 
555	 4.61306198461014E-02 
556	 4.62343564245958E-02 
557	 4.62480970744032E-02 
558	 4.61762020931092E-02 
559	 0.04598950663471 
560	 4.58228388434389E-02 
561	 4.60410163150366E-02 
562	 0.045904296082562 
563	 4.58486522329838E-02 
564	 4.62430576111192E-02 
565	 4.59568208901215E-02 
566	 4.57237735127606E-02 
567	 4.57422175980563E-02 
568	 4.57839458305707E-02 
569	 4.58221862517095E-02 
570	 4.56832330756341E-02 
571	 4.54142462797356E-02 
572	 4.55645291523559E-02 
573	 4.57524547966239E-02 
574	 4.58249408959191E-02 
575	 4.57512964131091E-02 
576	 4.57445392555549E-02 
577	 4.55016019917639E-02 
578	 4.51910107943305E-02 
579	 4.55161398055288E-02 
580	 4.58155076286846E-02 
581	 4.58236906234652E-02 
582	 4.55511421333987E-02 
583	 4.55094769266582E-02 
584	 4.56433500570113E-02 
585	 4.58422144525759E-02 
586	 0.045932852777004 
587	 4.55571192321689E-02 
588	 0.045381445430432 
589	 0.045584181565419 
590	 4.53554995197112E-02 
591	 4.53676515606214E-02 
592	 4.55443300227404E-02 
593	 4.56167516813998E-02 
594	 4.55154887791172E-02 
595	 4.54532303081926E-02 
596	 4.54246307066795E-02 
597	 4.52525802489557E-02 
598	 4.53444281645685E-02 
599	 4.54166902761928E-02 
600	 4.53280914698119E-02 
601	 4.56304061778457E-02 
602	 4.54806524771887E-02 
603	 4.52196829835517E-02 
604	 4.55097819268803E-02 
605	 4.53845481849282E-02 
606	 4.52511411321326E-02 
607	 0.045359537849659 
608	 4.56257206690287E-02 
609	 4.54876971851843E-02 
610	 4.52449801375648E-02 
611	 4.52282591156732E-02 
612	 4.50436760327698E-02 
613	 4.51840347075424E-02 
614	 4.54725421156101E-02 
615	 4.53710710238352E-02 
616	 4.54218215367644E-02 
617	 4.54595291949081E-02 
618	 4.53616956619269E-02 
619	 4.52267764785026E-02 
620	 4.52535853411036E-02 
621	 4.53130854528304E-02 
622	 4.52188449478594E-02 
623	 4.50865917172783E-02 
624	 4.51271254232995E-02 
625	 4.52736221371961E-02 
626	 4.52204577515447E-02 
627	 4.52444401440589E-02 
628	 4.52808376591679E-02 
629	 4.52576782769934E-02 
630	 4.52538999821541E-02 
631	 4.50909984658457E-02 
632	 4.50127728782412E-02 
633	 4.53127174312438E-02 
634	 4.52472760492956E-02 
635	 4.51970595159737E-02 
636	 4.53065890265922E-02 
637	 4.53136536738703E-02 
638	 0.045312970058922 
639	 4.52570547647194E-02 
640	 4.51359366576873E-02 
641	 4.51414656026822E-02 
642	 4.52859139628645E-02 
643	 4.53867880617142E-02 
644	 4.51999249603096E-02 
645	 4.50767737935784E-02 
646	 0.04514148534446 
647	 4.53132619078014E-02 
648	 4.52313664304879E-02 
649	 4.51735330005362E-02 
650	 4.52048389817787E-02 
651	 4.52892315861766E-02 
652	 0.045230418871484 
653	 4.53518821840501E-02 
654	 4.55326834137167E-02 
655	 4.53370802448965E-02 
656	 4.52974625544064E-02 
657	 4.53857285831847E-02 
658	 4.54673047939606E-02 
659	 4.53692008396601E-02 
660	 4.53460797044911E-02 
661	 4.53681478945634E-02 
662	 4.53324707923712E-02 
663	 4.53481115684071E-02 
664	 4.54486885826558E-02 
665	 4.56172309889218E-02 
666	 4.57849761799466E-02 
667	 0.045745528034283 
668	 4.56329358325607E-02 
669	 4.56286390596651E-02 
670	 4.58924915117111E-02 
671	 4.58507502083104E-02 
672	 4.57053742546475E-02 
673	 0.045910003915514 
674	 4.59582263118668E-02 
675	 4.60070327423753E-02 
676	 4.60970203902887E-02 
677	 4.60685875761789E-02 
678	 4.59682573909644E-02 
679	 4.59066281352914E-02 
680	 4.59845707988008E-02 
681	 4.62545118715539E-02 
682	 4.64042553394015E-02 
683	 4.64386796657768E-02 
684	 4.65277596337862E-02 
685	 0.046574505933971 
686	 0.046682494516731 
687	 4.68531161947281E-02 
688	 4.69233582808522E-02 
689	 0.046976141035007 
690	 4.71312401383845E-02 
691	 4.74004955126544E-02 
692	 4.73785844171012E-02 
693	 4.75087678697601E-02 
694	 4.77872184249099E-02 
695	 4.79485571024521E-02 
696	 4.81851848070405E-02 
697	 0.048465536269001 
698	 4.87364679331918E-02 
699	 4.89495266805325E-02 
700	 4.92557233360601E-02 
701	 4.96817934009504E-02 
702	 5.01668705503527E-02 
703	 5.04822943255879E-02 
704	 5.08223095207226E-02 
705	 5.12754845325294E-02 
706	 5.18288594504591E-02 
707	 5.23050950037298E-02 
708	 5.28615340205642E-02 
709	 5.35530362260317E-02 
710	 5.41878979600512E-02 
711	 0.054916867092146 
712	 0.055767052526832 
713	 5.66966129327097E-02 
714	 5.75298980106542E-02 
715	 5.85355509106753E-02 
716	 5.97242020695674E-02 
717	 6.09207597077536E-02 
718	 6.21472520067336E-02 
719	 6.35212817430666E-02 
720	 6.50467572908294E-02 
721	 6.65098262549285E-02 
722	 6.82433316585898E-02 
723	 7.00795408621496E-02 
724	 7.18575419631851E-02 
725	 7.40718491086955E-02 
726	 7.63425000055339E-02 
727	 7.86049838946803E-02 
728	 8.10243371187373E-02 
729	 8.35618629268633E-02 
730	 8.61854668942199E-02 
731	 0.088935493171562 
732	 9.19718563637012E-02 
733	 9.50728170852682E-02 
734	 9.82248987350682E-02 
735	 0.101490953930306 
736	 0.104958552630798 
737	 0.108482491889505 
738	 0.1120283204781 
739	 0.115636314793621 
740	 0.119356496150332 
741	 0.123082389589282 
742	 0.126767768741397 
743	 0.130487913945718 
744	 0.134418664578905 
745	 0.138329349818153 
746	 0.142026934517678 
747	 0.145854174573169 
748	 0.149599569540237 
749	 0.153299759570797 
750	 0.157100130822297 
751	 0.160758366749859 
752	 0.164355924235305 
753	 0.167905457528511 
754	 0.171289886008267 
755	 0.17478202103609 
756	 0.178203409572511 
757	 0.181404262807268 
758	 0.184617763654829 
759	 0.187729582367182 
760	 0.190752563617205 
761	 0.193738258359325 
762	 0.196601084342627 
763	 0.1994453879082 
764	 0.202240621091515 
765	 0.204815577328015 
766	 0.207414117673937 
767	 0.209923045190614 
768	 0.212259775979268 
769	 0.214557691915151 
770	 0.21680740217794 
771	 0.21901469464166 
772	 0.221179708176368 
773	 0.22329612278209 
774	 0.225247962146982 
775	 0.227118138924459 
776	 0.229120979347122 
777	 0.231006343382233 
778	 0.232856968065506 
779	 0.234692880695967 
780	 0.236344108282163 
781	 0.238013402001072 
782	 0.239705174941832 
783	 0.241355956070229 
784	 0.242876129309596 
785	 0.244351632185264 
786	 0.245778135517674 
787	 0.247131734222283 
788	 0.248683476529836 
789	 0.25011198445513 
790	 0.251343821358361 
791	 0.25265619306694 
792	 0.25387381193054 
793	 0.255144802982869 
794	 0.25652366098935 
795	 0.257677803880477 
796	 0.258872288512916 
797	 0.260092267551499 
798	 0.261236100799164 
799	 0.262307053302723 
800	 0.263473998880114 
801	 0.264680703319341 
802	 0.265715344085365 
803	 0.266724380272869 
804	 0.267724775595805 
805	 0.268715058789951 
806	 0.2696884392632 
807	 0.270726764502964 
808	 0.271711913951836 
809	 0.272585993743996 
810	 0.273628104616731 
811	 0.274603648725494 
812	 0.275497311121875 
813	 0.276384239199269 
814	 0.277232911625995 
815	 0.278079236176498 
816	 0.278968059319438 
817	 0.279929602454409 
818	 0.280802390496204 
819	 0.281576545901928 
820	 0.282297555512779 
821	 0.28304990738702 
822	 0.284025888377255 
823	 0.284925480213077 
824	 0.285536902121165 
825	 0.286341404321873 
826	 0.287106844061358 
827	 0.28780626670051 
828	 0.288504880868 
829	 0.289228501441867 
830	 0.290008878811758 
831	 0.290758154797667 
832	 0.291318789417403 
833	 0.291891970248839 
834	 0.292539844003317 
835	 0.29323793450976 
836	 0.293869941197421 
837	 0.294601848216389 
838	 0.295271909088742 
839	 0.295786191427182 
840	 0.296467840499554 
841	 0.297111778342592 
842	 0.297693099590916 
843	 0.298262797968798 
844	 0.298861394247998 
845	 0.299397134329467 
846	 0.29993482165145 
847	 0.300611340292991 
848	 0.301116006147114 
849	 0.301580930773254 
850	 0.302141393483641 
851	 0.302850730407831 
852	 0.303414143104595 
853	 0.303909434013232 
854	 0.304426280740993 
855	 0.304892761494381 
856	 0.305488943158734 
857	 0.306033708455246 
858	 0.306394019274607 
859	 0.30704261806135 
860	 0.307642277061633 
861	 0.30808867346174 
862	 0.308448816063369 
863	 0.308968510371912 
864	 0.309443973027004 
865	 0.309805914335657 
866	 0.310154796166442 
867	 0.310781290444805 
868	 0.311368062342444 
869	 0.311739367201087 
870	 0.312042916860183 
871	 0.31257556408696 
872	 0.31314154338947 
873	 0.313552545319501 
874	 0.313890382149887 
875	 0.314316516546718 
876	 0.314811493821017 
877	 0.315257299933686 
878	 0.315403706473324 
879	 0.315879996145596 
880	 0.316508238958278 
881	 0.316832471991926 
882	 0.317280702600571 
883	 0.317625543907393 
884	 0.317877960789169 
885	 0.318239155751928 
886	 0.318677945005633 
887	 0.319106736227954 
888	 0.319492971319178 
889	 0.319876979650167 
890	 0.320249244864143 
891	 0.320561684557832 
892	 0.320856989516488 
893	 0.321333800931605 
894	 0.321649169109413 
895	 0.321908893686232 
896	 0.322275001719294 
897	 0.322759912098272 
898	 0.323071927670925 
899	 0.323291294445304 
900	 0.323597322266247 
901	 0.323993049152217 
902	 0.324329098897911 
903	 0.324568047172967 
904	 0.324760107075247 
905	 0.325024726171863 
906	 0.325470796869879 
907	 0.325898360302023 
908	 0.325997600356855 
909	 0.326324670480701 
910	 0.326770848230416 
911	 0.327117581055534 
912	 0.327181322231372 
913	 0.327618007171803 
914	 0.328021937190008 
915	 0.328190713624346 
916	 0.328416330061523 
917	 0.328610258873555 
918	 0.328899183592812 
919	 0.329292594060126 
920	 0.329529242983212 
921	 0.329686061961189 
922	 0.329925373687606 
923	 0.330290969232125 
924	 0.330474634165627 
925	 0.330650918073297 
926	 0.331058311962666 
927	 0.331711927581079 
928	 0.331858270572763 
929	 0.331910128125571 
930	 0.332109658882331 
931	 0.332490213550522 
932	 0.332552850839678 
933	 0.332741817864627 
934	 0.333244510339012 
935	 0.333922630327675 
936	 0.333894233233732 
937	 0.33403028364195 
938	 0.334370650083712 
939	 0.334431723372253 
940	 0.334871656270956 
941	 0.33524309349507 
942	 0.335416601011972 
943	 0.335625532358414 
944	 0.33600886773777 
945	 0.336253770869751 
946	 0.336305685486919 
947	 0.336439212558764 
948	 0.33678484735196 
949	 0.337270587740923 
950	 0.337729234602741 
951	 0.337954799319498 
952	 0.338078505810627 
953	 0.338168010554349 
954	 0.338329892847433 
955	 0.338712408611261 
956	 0.338941522911108 
957	 0.339065010132476 
958	 0.339218432856328 
959	 0.339509393600157 
960	 0.339650773735585 
961	 0.339830709558597 
962	 0.340152057343403 
963	 0.340336529314124 
964	 0.340329376132093 
965	 0.340533881073626 
966	 0.34102586425888 
967	 0.340897674235272 
968	 0.341118502402349 
969	 0.3415222528228 
970	 0.341723497931056 
971	 0.341635441803751 
972	 0.341864983257045 
973	 0.341966929128162 
974	 0.341666738181262 
975	 0.342102422570789 
976	 0.342206189772814 
977	 0.342365306326838 
978	 0.342974770386955 
979	 0.342993148785786 
980	 0.343297898580012 
981	 0.343354817033401 
982	 0.342782762441338 
983	 0.343193474473755 
984	 0.343391289381155 
985	 0.343627638081489 
986	 0.344260556994383 
987	 0.344307402927978 
988	 0.344220500924279 
989	 0.344373025907074 
990	 0.344882948570093 
991	 0.345221694497018 
992	 0.344873532877825 
993	 0.344568927930062 
994	 0.344967306270574 
995	 0.344832879709246 
996	 0.344912866931024 
997	 0.345340461989763 
998	 0.34589156205324 
999	 0.346018127263278 
1000	 0.345855525833272 
1001	 0.348279616155749 
1002	 0.348376197818131 
1003	 0.348508333133334 
1004	 0.348567361419108 
1005	 0.348390921667374 
1006	 0.348433344229115 
1007	 0.348636241047777 
1008	 0.348725759739291 
1009	 0.348841091366417 
1010	 0.348914332663531 
1011	 0.348798559079414 
1012	 0.348952643487351 
1013	 0.349359449141021 
1014	 0.349463088983294 
1015	 0.349510988659622 
1016	 0.349657671340441 
1017	 0.349642417746357 
1018	 0.349683075457521 
1019	 0.34969528461341 
1020	 0.349759130725808 
1021	 0.349917085816351 
1022	 0.350050384616324 
1023	 0.350113724182536 
1024	 0.350319649671052 
1025	 0.350496286098367 
1026	 0.350507822916919 
1027	 0.350574693353534 
1028	 0.350769863211825 
1029	 0.350904108351665 
1030	 0.35090773622471 
1031	 0.350926567503098 
1032	 0.351164954592408 
1033	 0.351171836558144 
1034	 0.351042519169174 
1035	 0.351294072971639 
1036	 0.351416981522124 
1037	 0.351498991353035 
1038	 0.351634648820355 
1039	 0.351814006931882 
1040	 0.351907051350947 
1041	 0.351963450194007 
1042	 0.352072499587905 
1043	 0.352206562794055 
1044	 0.352307993337163 
1045	 0.352425427398868 
1046	 0.35251789727294 
1047	 0.352527528498293 
1048	 0.352655891579583 
1049	 0.352602113517434 
1050	 0.352377230891348 
1051	 0.352514853565657 
1052	 0.352682549073419 
1053	 0.352718242172604 
1054	 0.352822967514518 
1055	 0.353016795616787 
1056	 0.353053544687254 
1057	 0.353149466190987 
1058	 0.353388384496441 
1059	 0.353746245135703 
1060	 0.353796462516522 
1061	 0.353704717144308 
1062	 0.353755464927822 
1063	 0.353853374056213 
1064	 0.353983645064605 
1065	 0.354091295289856 
1066	 0.354287907432789 
1067	 0.354426812100138 
1068	 0.354264853700136 
1069	 0.354281252436605 
1070	 0.354355027994716 
1071	 0.354475340412793 
1072	 0.354365023417421 
1073	 0.35442687936195 
1074	 0.354518740388875 
1075	 0.354331261201196 
1076	 0.354411887563934 
1077	 0.35472812652085 
1078	 0.354746552433831 
1079	 0.354924907510215 
1080	 0.355097805925546 
1081	 0.354995315058979 
1082	 0.355171055535998 
1083	 0.355397869470193 
1084	 0.355500618505086 
1085	 0.355714299262151 
1086	 0.355803553222414 
1087	 0.355828665748544 
1088	 0.355756877556414 
1089	 0.355779175377702 
1090	 0.355742139322404 
1091	 0.355739569745318 
1092	 0.356007181457854 
1093	 0.356247649830456 
1094	 0.356278442508023 
1095	 0.356387482404814 
1096	 0.35646415627526 
1097	 0.35638241998574 
1098	 0.356493478689556 
1099	 0.356767450394403 
1100	 0.356902790284298 
1101	 0.356993012733639 
1102	 0.357055431865777 
1103	 0.357119224272984 
1104	 0.35709620701465 
1105	 0.357144260899317 
1106	 0.357283356823382 
1107	 0.357453748076267 
1108	 0.357584249517404 
1109	 0.357629492538571 
1110	 0.357586778491104 
1111	 0.357611411982945 
1112	 0.357808100112824 
1113	 0.358078178083545 
1114	 0.358356538319716 
1115	 0.358556747886202 
1116	 0.358612856591246 
1117	 0.358590217901533 
1118	 0.358634568987207 
1119	 0.358704810969607 
1120	 0.358817376264306 
1121	 0.358966023276641 
1122	 0.359097893118179 
1123	 0.359259471245134 
1124	 0.359279402518882 
1125	 0.359300592774077 
1126	 0.359368232655349 
1127	 0.359378926504672 
1128	 0.359453097094989 
1129	 0.359553285188992 
1130	 0.359589249650162 
1131	 0.35962681588993 
1132	 0.359666215769571 
1133	 0.359613991101172 
1134	 0.359608170404445 
1135	 0.359661334707175 
1136	 0.359739968271765 
1137	 0.359829216070635 
1138	 0.360032659071092 
1139	 0.360147028270307 
1140	 0.360232158526367 
1141	 0.360280804296416 
1142	 0.360332347707614 
1143	 0.360374320943167 
1144	 0.36039536667815 
1145	 0.360496352079865 
1146	 0.360569547126284 
1147	 0.360587456324604 
1148	 0.360663360312282 
1149	 0.360753208452564 
1150	 0.360871702510402 
1151	 0.360974007123394 
1152	 0.361044978216664 
1153	 0.361082206709816 
1154	 0.361108155847334 
1155	 0.361095588404526 
1156	 0.361117349326907 
1157	 0.361140803318473 
1158	 0.361182531055812 
1159	 0.361269243841137 
1160	 0.361305415735878 
1161	 0.361330221017423 
1162	 0.36125099527247 
1163	 0.361121819332822 
1164	 0.361090604367867 
1165	 0.3610727702231 
1166	 0.361044667983773 
1167	 0.361071744306391 
1168	 0.361068534746073 
1169	 0.361057773834488 
1170	 0.361053719635225 
1171	 0.361032123154748 
1172	 0.360971515276166 
1173	 0.360939348101424 
1174	 0.360914527395869 
1175	 0.360890246594616 
1176	 0.360915602262476 
1177	 0.360858556462509 
1178	 0.360756529277788 
1179	 0.360632198896732 
1180	 0.360489939609444 
1181	 0.360446633182431 
1182	 0.360511117902956 
1183	 0.360523714743885 
1184	 0.360426784313764 
1185	 0.36036702052996 
1186	 0.360329103010271 
1187	 0.360255673871126 
1188	 0.360212344870642 
1189	 0.360217952165703 
1190	 0.360216726746928 
1191	 0.360151439740558 
1192	 0.360185389226764 
1193	 0.360347654144872 
1194	 0.360431523742715 
1195	 0.360500860451514 
1196	 0.360598905349125 
1197	 0.360700083565796 
1198	 0.360756067465874 
1199	 0.360900971226706 
1200	 0.360995896057493 
1201	 0.361037592450454 
1202	 0.361144780950104 
1203	 0.36125328304895 
1204	 0.361436423970815 
1205	 0.36162573814943 
1206	 0.361867401135802 
1207	 0.362104529830485 
1208	 0.36233578754093 
1209	 0.36260386954975 
1210	 0.362868128272101 
1211	 0.363215452328937 
1212	 0.363630860179095 
1213	 0.364058488386859 
1214	 0.364528209244977 
1215	 0.365061345857102 
1216	 0.365673810014264 
1217	 0.366222725006607 
1218	 0.36683562682575 
1219	 0.367355713397571 
1220	 0.367811455603715 
1221	 0.368429017859308 
1222	 0.36909060263838 
1223	 0.369736312360562 
1224	 0.370422287586779 
1225	 0.371172398359022 
1226	 0.371826841902215 
1227	 0.372502162642084 
1228	 0.373102441919586 
1229	 0.373609035449114 
1230	 0.374134137973503 
1231	 0.374627910200052 
1232	 0.375122865006221 
1233	 0.375626069992638 
1234	 0.376093658559563 
1235	 0.376531848608762 
1236	 0.376972171615198 
1237	 0.377365882184606 
1238	 0.377785848560931 
1239	 0.378253785470335 
1240	 0.378667621427816 
1241	 0.379036138870174 
1242	 0.379452881191807 
1243	 0.379837075678774 
1244	 0.380181730220974 
1245	 0.380552855132089 
1246	 0.380922561694195 
1247	 0.381336354159559 
1248	 0.381802909478524 
1249	 0.382174331047834 
1250	 0.382519811539925 
1251	 0.382897590531185 
1252	 0.383216602129352 
1253	 0.383569838312108 
1254	 0.384007936808525 
1255	 0.38438712061329 
1256	 0.384740451828759 
1257	 0.385058474294134 
1258	 0.385313280513176 
1259	 0.385623537268885 
1260	 0.385906144300495 
1261	 0.386227202894489 
1262	 0.386639369984723 
1263	 0.387029813363675 
1264	 0.3873550955358 
1265	 0.387650287949592 
1266	 0.387936163007752 
1267	 0.388162173794175 
1268	 0.388428887395387 
1269	 0.388712566466168 
1270	 0.388977344583136 
1271	 0.389229735991266 
1272	 0.389491864123206 
1273	 0.389731215649263 
1274	 0.39001764111103 
1275	 0.390346921835052 
1276	 0.390651479858901 
1277	 0.390960219170436 
1278	 0.391283404848747 
1279	 0.391591004448058 
1280	 0.391915581511499 
1281	 0.392311387849343 
1282	 0.392641645039921 
1283	 0.392914576743136 
1284	 0.393216128559507 
1285	 0.393513615611038 
1286	 0.393784896940772 
1287	 0.394071196582216 
1288	 0.394375904980069 
1289	 0.394680455495674 
1290	 0.394987770188074 
1291	 0.395260299621131 
1292	 0.395534026941561 
1293	 0.395800257963552 
1294	 0.3960157532635 
1295	 0.396271159367013 
1296	 0.396562387658835 
1297	 0.396828008828474 
1298	 0.397077968005532 
1299	 0.397343442723046 
1300	 0.397620878966102 
1301	 0.397880787739574 
1302	 0.398113164297405 
1303	 0.398389698390791 
1304	 0.398724211542867 
1305	 0.398982549450597 
1306	 0.399227828024704 
1307	 0.399469829178756 
1308	 0.399677041986494 
1309	 0.399807909774448 
1310	 0.400054580816336 
1311	 0.400367210238889 
1312	 0.400628705969651 
1313	 0.400923288088553 
1314	 0.40115717031238 
1315	 0.401343301180336 
1316	 0.401550338424121 
1317	 0.401715577133126 
1318	 0.401952536307685 
1319	 0.402274252319082 
1320	 0.402475431882054 
1321	 0.40265874160221 
1322	 0.402827984660782 
1323	 0.402874059299574 
1324	 0.403019679433372 
1325	 0.403213070069202 
1326	 0.403424666852297 
1327	 0.403690396615959 
1328	 0.40392135832693 
1329	 0.404194729161581 
1330	 0.404404815576029 
1331	 0.404549470917362 
1332	 0.404709676874823 
1333	 0.404802004397212 
1334	 0.404961656179859 
1335	 0.405168087337854 
1336	 0.405445467875333 
1337	 0.405605917293863 
1338	 0.405777924899714 
1339	 0.405904128707565 
1340	 0.405929419869386 
1341	 0.406016750765819 
1342	 0.406146354578869 
1343	 0.406231860097597 
1344	 0.406293013728227 
1345	 0.406349069804468 
1346	 0.406381307530309 
1347	 0.406440675113727 
1348	 0.406507202676392 
1349	 0.406560895114466 
1350	 0.406643203119113 
1351	 0.406680929797626 
1352	 0.406710914407392 
1353	 0.406690945897153 
1354	 0.406590935163835 
1355	 0.406548672412507 
1356	 0.406492993453257 
1357	 0.406448619374398 
1358	 0.406469376512299 
1359	 0.406450336837613 
1360	 0.406403635936708 
1361	 0.406341981324012 
1362	 0.406322703760985 
1363	 0.406262896000856 
1364	 0.406200997612875 
1365	 0.406147376947763 
1366	 0.406066024430252 
1367	 0.405964555434381 
1368	 0.405837438869494 
1369	 0.405697946639487 
1370	 0.405532322231851 
1371	 0.40532948002318 
1372	 0.405127856040517 
1373	 0.404931072287911 
1374	 0.404693231405005 
1375	 0.404388638076667 
1376	 0.404156484413738 
1377	 0.403954846697214 
1378	 0.403702026839703 
1379	 0.403500905655218 
1380	 0.403217915644387 
1381	 0.402831871663037 
1382	 0.402482490245377 
1383	 0.402106743348618 
1384	 0.401751371860629 
1385	 0.401395882735726 
1386	 0.401063182953909 
1387	 0.400778550912512 
1388	 0.400458490270334 
1389	 0.400088700935312 
1390	 0.399791172933572 
1391	 0.399541388261899 
1392	 0.39922497235124 
1393	 0.399042890772948 
1394	 0.398898471343016 
1395	 0.398699316539564 
1396	 0.398484315137148 
1397	 0.398310868855642 
1398	 0.398173267958516 
1399	 0.397916523647371 
1400	 0.397699376437403 
1401	 0.397299418004389 
1402	 0.396742111820939 
1403	 0.396184984363539 
1404	 0.395569232350791 
1405	 0.394886205640294 
1406	 0.394149804813167 
1407	 0.39334667766978 
1408	 0.392392655544586 
1409	 0.391548252142434 
1410	 0.390712658056025 
1411	 0.389866870486766 
1412	 0.389054013473087 
1413	 0.388248897624575 
1414	 0.387395364428339 
1415	 0.386600218956774 
1416	 0.385843078226043 
1417	 0.385122562983775 
1418	 0.38446558180938 
1419	 0.383772468150868 
1420	 0.38306425786589 
1421	 0.382414166001845 
1422	 0.381768989598111 
1423	 0.381141189570832 
1424	 0.380572781115214 
1425	 0.380002475246047 
1426	 0.379475982015845 
1427	 0.37895906094686 
1428	 0.378435647865675 
1429	 0.377969793140386 
1430	 0.377481925371276 
1431	 0.376959960152332 
1432	 0.376481592255149 
1433	 0.376063549525369 
1434	 0.375572429062181 
1435	 0.37505881056315 
1436	 0.374528042549273 
1437	 0.373945697162758 
1438	 0.373420860412215 
1439	 0.372894356183187 
1440	 0.372408049164641 
1441	 0.371932967484113 
1442	 0.371519185422336 
1443	 0.371106773132688 
1444	 0.370815946636422 
1445	 0.370562835626608 
1446	 0.370471293401187 
1447	 0.370471450490657 
1448	 0.37062073683837 
1449	 0.370918948152763 
1450	 0.371330098300291 
1451	 0.371893353513023 
1452	 0.372526816061757 
1453	 0.37334962618539 
1454	 0.374104394621234 
1455	 0.374897349285872 
1456	 0.375710685758973 
1457	 0.376537585009885 
1458	 0.377354861742684 
1459	 0.378248878129513 
1460	 0.379055599130635 
1461	 0.379784347509541 
1462	 0.380516624826087 
1463	 0.381236899726945 
1464	 0.381911058907461 
1465	 0.382529017107536 
1466	 0.38318825889302 
1467	 0.383773555830702 
1468	 0.38434894361938 
1469	 0.385001581737077 
1470	 0.385594208329391 
1471	 0.386182102999583 
1472	 0.38678698829921 
1473	 0.38731559931377 
1474	 0.387791544263168 
1475	 0.388262147240127 
1476	 0.38869034038469 
1477	 0.389130127020328 
1478	 0.389565221358207 
1479	 0.389967028001597 
1480	 0.39037009787676 
1481	 0.390710292671344 
1482	 0.391000627585195 
1483	 0.391289473249724 
1484	 0.391550103969299 
1485	 0.391779852415566 
1486	 0.39197702110025 
1487	 0.392183513409469 
1488	 0.39231966108804 
1489	 0.392556590767547 
1490	 0.392816433600153 
1491	 0.393143482521873 
1492	 0.393549174650338 
1493	 0.393967035772 
1494	 0.39443940113704 
1495	 0.394913621104825 
1496	 0.39537103099579 
1497	 0.395916459521515 
1498	 0.396545860164483 
1499	 0.39714767961 
1500	 0.397834808063921 
1501	 0.398444459809415 
1502	 0.398984138200773 
1503	 0.399547702832169 
1504	 0.400077471247684 
1505	 0.400646558988648 
1506	 0.401309787220929 
1507	 0.401850416151424 
1508	 0.402356356473984 
1509	 0.402826803186925 
1510	 0.403150635880199 
1511	 0.403547851574024 
1512	 0.403999731318809 
1513	 0.404410964154417 
1514	 0.404857430281095 
1515	 0.405233325104201 
1516	 0.405509023993969 
1517	 0.405826769967517 
1518	 0.406150299365096 
1519	 0.406439145121188 
1520	 0.406725392475611 
1521	 0.407026248715438 
1522	 0.407238328752777 
1523	 0.4074397877242 
1524	 0.40761921450749 
1525	 0.407783223922384 
1526	 0.407919119539135 
1527	 0.408010791877528 
1528	 0.408147901716296 
1529	 0.408280408300182 
1530	 0.408427284896209 
1531	 0.408606690443981 
1532	 0.408750511577199 
1533	 0.408887609015328 
1534	 0.409003398720708 
1535	 0.409068847401272 
1536	 0.409230792360227 
1537	 0.409406478475956 
1538	 0.409622763917228 
1539	 0.409918164098466 
1540	 0.410188943226461 
1541	 0.410441020697469 
1542	 0.410760768691656 
1543	 0.411092936679775 
1544	 0.411518009230407 
1545	 0.412054542522461 
1546	 0.412507102089866 
1547	 0.413009818115513 
1548	 0.413445339814647 
1549	 0.413777076460153 
1550	 0.414204772229615 
1551	 0.414670388322296 
1552	 0.415121781420419 
1553	 0.415612563624051 
1554	 0.416062165223094 
1555	 0.416471986794035 
1556	 0.416919190227633 
1557	 0.417382410247494 
1558	 0.417824366299466 
1559	 0.418291224855779 
1560	 0.418710746689873 
1561	 0.419063176353977 
1562	 0.419477461969856 
1563	 0.419921736698848 
1564	 0.420325002199382 
1565	 0.420721621848475 
1566	 0.421143401713191 
1567	 0.42155480381532 
1568	 0.421955591602943 
1569	 0.422375634102441 
1570	 0.422802694099801 
1571	 0.423221919449279 
1572	 0.423614447455256 
1573	 0.424007964108661 
1574	 0.424417693097618 
1575	 0.424817660667069 
1576	 0.425186673284518 
1577	 0.42555849147889 
1578	 0.425941247930663 
1579	 0.42628633128408 
1580	 0.426640674437651 
1581	 0.427051546839965 
1582	 0.427409868056069 
1583	 0.427692392595775 
1584	 0.428031260844316 
1585	 0.428383392381026 
1586	 0.428742261680673 
1587	 0.429121081412576 
1588	 0.429511123240173 
1589	 0.429939681111075 
1590	 0.430317232222829 
1591	 0.430713164057624 
1592	 0.431048089181306 
1593	 0.431254980093038 
1594	 0.431568023260839 
1595	 0.431901655946635 
1596	 0.432250676427831 
1597	 0.432682504925513 
1598	 0.433080393609151 
1599	 0.433511350311697 
1600	 0.433849685274992 
1601	 0.434106013602273 
1602	 0.434406781585666 
1603	 0.434621070288317 
1604	 0.434922082863794 
1605	 0.43536371047486 
1606	 0.435702632269036 
1607	 0.436004164789323 
1608	 0.436313962079313 
1609	 0.436569458607522 
1610	 0.436846639213791 
1611	 0.437166374806615 
1612	 0.437452664498535 
1613	 0.43774047222047 
1614	 0.437978597914995 
1615	 0.438168292067809 
1616	 0.438366337876009 
1617	 0.438522931627403 
1618	 0.438690185484892 
1619	 0.43891563043312 
1620	 0.439053057159408 
1621	 0.43912255613517 
1622	 0.439204247520732 
1623	 0.439216309428569 
1624	 0.439270323665171 
1625	 0.439334007581761 
1626	 0.439437918300905 
1627	 0.439618832327996 
1628	 0.43972580962825 
1629	 0.43980853207915 
1630	 0.439904192375125 
1631	 0.439964836853217 
1632	 0.440021209009528 
1633	 0.440091930817934 
1634	 0.440168773004015 
1635	 0.440214954797495 
1636	 0.440276459557602 
1637	 0.440394845911765 
1638	 0.440466422131707 
1639	 0.440522019794131 
1640	 0.440542643476403 
1641	 0.440484990369622 
1642	 0.440496407286585 
1643	 0.440527549708536 
1644	 0.440552643372692 
1645	 0.440664992700916 
1646	 0.440670778775668 
1647	 0.440611841799348 
1648	 0.440531378754886 
1649	 0.440447614486873 
1650	 0.440248541782216 
1651	 0.4399974992615 
1652	 0.439657034459586 
1653	 0.439164811331111 
1654	 0.438673208570231 
1655	 0.438119374264359 
1656	 0.437568785949283 
1657	 0.437015368634083 
1658	 0.4363994002885 
1659	 0.435751403706912 
1660	 0.43506551627374 
1661	 0.434315733432728 
1662	 0.433553817592419 
1663	 0.432772682925453 
1664	 0.431952970647866 
1665	 0.431120823247258 
1666	 0.430202619027092 
1667	 0.429270357190279 
1668	 0.428224214675461 
1669	 0.427004796110488 
1670	 0.425863751712492 
1671	 0.424661935748291 
1672	 0.423503621255422 
1673	 0.422404152330536 
1674	 0.421282656987691 
1675	 0.420190545707332 
1676	 0.419032631597721 
1677	 0.417878337305756 
1678	 0.416651503020824 
1679	 0.415291199063408 
1680	 0.414024580077271 
1681	 0.412776475864565 
1682	 0.411496752091583 
1683	 0.41030080249422 
1684	 0.408985665887032 
1685	 0.407594501235579 
1686	 0.406167041695445 
1687	 0.404655221876103 
1688	 0.403124892348163 
1689	 0.40160575836975 
1690	 0.399922003983448 
1691	 0.398179441733934 
1692	 0.396340488234276 
1693	 0.394378295754721 
1694	 0.392332292793571 
1695	 0.390145429211433 
1696	 0.388006524500802 
1697	 0.385795569301227 
1698	 0.383551539996841 
1699	 0.381359147115245 
1700	 0.379075305009521 
1701	 0.376665876438842 
1702	 0.37433836616981 
1703	 0.371947345552618 
1704	 0.369702418490532 
1705	 0.367489835368517 
1706	 0.365316422780427 
1707	 0.363425229080561 
1708	 0.361690640857267 
1709	 0.360050455677935 
1710	 0.358625728882198 
1711	 0.357256419274327 
1712	 0.355940842661644 
1713	 0.354617481204382 
1714	 0.353353368873861 
1715	 0.352183066059234 
1716	 0.350928819697229 
1717	 0.349858379322349 
1718	 0.348871153504313 
1719	 0.347817485833622 
1720	 0.346905003332043 
1721	 0.34599637376268 
1722	 0.345044952630698 
1723	 0.344301577229342 
1724	 0.343724226800239 
1725	 0.343289664274802 
1726	 0.343135008400068 
1727	 0.343166842366832 
1728	 0.343268722560935 
1729	 0.34363855543546 
1730	 0.344318905684877 
1731	 0.345075937912332 
1732	 0.346140680604485 
1733	 0.347290586404091 
1734	 0.348329817181624 
1735	 0.349450380222671 
1736	 0.350498513333328 
1737	 0.351578516140186 
1738	 0.352661210125564 
1739	 0.353493631323709 
1740	 0.354207745690018 
1741	 0.354724221565612 
1742	 0.355030115654772 
1743	 0.355234018424643 
1744	 0.35524089671803 
1745	 0.355220872880887 
1746	 0.355081398035691 
1747	 0.354870889879936 
1748	 0.35452475856434 
1749	 0.354312529616397 
1750	 0.354022395693821 
1751	 0.353875242916745 
1752	 0.353861460145826 
1753	 0.353894142687406 
1754	 0.353944202874684 
1755	 0.354157725586844 
1756	 0.354502432496919 
1757	 0.354905058399708 
1758	 0.355460318012659 
1759	 0.356193692183234 
1760	 0.356977028959404 
1761	 0.357905464691356 
1762	 0.358982821912633 
1763	 0.360132227308599 
1764	 0.361461630635571 
1765	 0.362984213514988 
1766	 0.364629081084677 
1767	 0.366300965241073 
1768	 0.367976936689737 
1769	 0.369657919823191 
1770	 0.371228292990541 
1771	 0.372774402102613 
1772	 0.374292127845515 
1773	 0.375721648124949 
1774	 0.377149087700472 
1775	 0.378484179304951 
1776	 0.379790073039531 
1777	 0.380994367032947 
1778	 0.381996391037681 
1779	 0.383054026393903 
1780	 0.38409193270733 
1781	 0.384988032220049 
1782	 0.385877201884908 
1783	 0.386639083318749 
1784	 0.38727596243868 
1785	 0.387946946314649 
1786	 0.388567787775846 
1787	 0.38913484473347 
1788	 0.389681641297889 
1789	 0.39019212086595 
1790	 0.390693074228383 
1791	 0.391137209513024 
1792	 0.391603669688067 
1793	 0.392071867375691 
1794	 0.3924375180818 
1795	 0.392886693624431 
1796	 0.393291260880419 
1797	 0.39366985482883 
1798	 0.394037928611459 
1799	 0.394498747057223 
1800	 0.394961660931812 
1801	 0.392497080804642 
1802	 0.393015387895817 
1803	 0.393433287038681 
1804	 0.393794590793234 
1805	 0.394235572616039 
1806	 0.394635947582421 
1807	 0.394974638916855 
1808	 0.395318389448914 
1809	 0.395685565579427 
1810	 0.396054854752746 
1811	 0.396374616752441 
1812	 0.396709749475603 
1813	 0.397032382985613 
1814	 0.39745827041107 
1815	 0.397831165614262 
1816	 0.398281155557097 
1817	 0.398683677251373 
1818	 0.399122612468796 
1819	 0.399481862991474 
1820	 0.399699432065944 
1821	 0.400093237818829 
1822	 0.400517783733536 
1823	 0.401040872493704 
1824	 0.401621455377721 
1825	 0.402088052511373 
1826	 0.402511791857142 
1827	 0.402824045819401 
1828	 0.403200167473046 
1829	 0.403577347330078 
1830	 0.403965716705724 
1831	 0.404360557882855 
1832	 0.404752652581399 
1833	 0.405155713590087 
1834	 0.405504843357874 
1835	 0.405877983861775 
1836	 0.406278218357301 
1837	 0.406655689060636 
1838	 0.407028686021819 
1839	 0.40739987109264 
1840	 0.407747466101956 
1841	 0.408128599457537 
1842	 0.408541743808325 
1843	 0.408955745540452 
1844	 0.409290908983816 
1845	 0.409543964966914 
1846	 0.409773216777235 
1847	 0.409973720375815 
1848	 0.410172508009753 
1849	 0.410374352585476 
1850	 0.410591684299352 
1851	 0.410832855372012 
1852	 0.410984498641979 
1853	 0.411115692796817 
1854	 0.41118223597471 
1855	 0.411134971221578 
1856	 0.411051110884633 
1857	 0.410854436348646 
1858	 0.410639412078683 
1859	 0.410431414980448 
1860	 0.410188280320065 
1861	 0.409871114996522 
1862	 0.409562498707775 
1863	 0.409194840271551 
1864	 0.408665927920329 
1865	 0.408167090272511 
1866	 0.407634661936305 
1867	 0.407017406060489 
1868	 0.406497708673162 
1869	 0.405882999177836 
1870	 0.405133560389464 
1871	 0.404330575702876 
1872	 0.403461182816437 
1873	 0.402464518690248 
1874	 0.401405607958516 
1875	 0.40034507027823 
1876	 0.399184584863998 
1877	 0.397968679822123 
1878	 0.396533174997085 
1879	 0.395014391870444 
1880	 0.393542169062544 
1881	 0.391872106143184 
1882	 0.390028114859219 
1883	 0.388187281208847 
1884	 0.386264116057601 
1885	 0.384040607341844 
1886	 0.381849346572349 
1887	 0.379530198167378 
1888	 0.3769517577007 
1889	 0.374457355845674 
1890	 0.371839400985639 
1891	 0.369203919804464 
1892	 0.366607624047931 
1893	 0.363856813809845 
1894	 0.360964685806098 
1895	 0.358121143313 
1896	 0.355224672503434 
1897	 0.352283256142966 
1898	 0.349611670681444 
1899	 0.346921844203678 
1900	 0.344251061095681 
1901	 0.341794313626087 
1902	 0.339189279637897 
1903	 0.336642787799777 
1904	 0.334225732918619 
1905	 0.331893709647441 
1906	 0.329521206090355 
1907	 0.327422769878739 
1908	 0.325430716287904 
1909	 0.323465165645177 
1910	 0.321654041054662 
1911	 0.319850535152459 
1912	 0.318175956177828 
1913	 0.316598359090526 
1914	 0.315039415605427 
1915	 0.313567384781915 
1916	 0.312207078557479 
1917	 0.310838212373106 
1918	 0.309482253947772 
1919	 0.308213859268849 
1920	 0.306888377705283 
1921	 0.305561491909559 
1922	 0.30428685858682 
1923	 0.303031125393497 
1924	 0.301882261087129 
1925	 0.300811479981774 
1926	 0.299744038890623 
1927	 0.298725759869707 
1928	 0.29771661628372 
1929	 0.296712557835562 
1930	 0.29572765170764 
1931	 0.294837536328588 
1932	 0.294033754805741 
1933	 0.293265341592 
1934	 0.292686208166134 
1935	 0.292198005557151 
1936	 0.291760191486276 
1937	 0.291428724833807 
1938	 0.291199055068321 
1939	 0.291055619748625 
1940	 0.290990482485795 
1941	 0.291041714186048 
1942	 0.291164373709879 
1943	 0.291390602214097 
1944	 0.291650890126463 
1945	 0.291981933120683 
1946	 0.292484888596586 
1947	 0.292989991406009 
1948	 0.293570993345978 
1949	 0.294329012377584 
1950	 0.295092507163053 
1951	 0.295911740493948 
1952	 0.296787700861949 
1953	 0.297723143768948 
1954	 0.298695077970097 
1955	 0.299754696928448 
1956	 0.300856111969812 
1957	 0.302112906327071 
1958	 0.303411258567731 
1959	 0.304566167640471 
1960	 0.305737054966755 
1961	 0.306763105456989 
1962	 0.307613241439131 
1963	 0.308453285210606 
1964	 0.309244988827063 
1965	 0.309961860744522 
1966	 0.31060273749902 
1967	 0.311221911901078 
1968	 0.31174789210059 
1969	 0.312263941571697 
1970	 0.312810776038637 
1971	 0.313315992053945 
1972	 0.313870111386792 
1973	 0.314474732010049 
1974	 0.315064815059305 
1975	 0.315656458271567 
1976	 0.316284334077204 
1977	 0.316960435379686 
1978	 0.317580326132017 
1979	 0.31818556370887 
1980	 0.31878946960417 
1981	 0.319424382022253 
1982	 0.320064808605302 
1983	 0.320777975947704 
1984	 0.321531051945177 
1985	 0.322234214432061 
1986	 0.323005574668736 
1987	 0.323802939198969 
1988	 0.324567903164393 
1989	 0.325494399893304 
1990	 0.326518086299434 
1991	 0.327568424896135 
1992	 0.328724835406042 
1993	 0.329958572380183 
1994	 0.331059111899239 
1995	 0.332252997119605 
1996	 0.333455886435253 
1997	 0.334699135057389 
1998	 0.335984695791159 
1999	 0.337387026042712 
2000	 0.338630749449107 
2001	 0.339892368115788 
2002	 0.341026084467296 
2003	 0.342084325253891 
2004	 0.343080715557427 
2005	 0.343958725228933 
2006	 0.344817282771984 
2007	 0.345647277354061 
2008	 0.346344866644831 
2009	 0.347047583485329 
2010	 0.347732537986561 
2011	 0.348278211109201 
2012	 0.348737033471517 
2013	 0.349157065818994 
2014	 0.349481294965844 
2015	 0.349802181172601 
2016	 0.350139228411773 
2017	 0.350338207410765 
2018	 0.350439243568679 
2019	 0.350492933344641 
2020	 0.350449050532248 
2021	 0.350349320956519 
2022	 0.350234386837935 
2023	 0.350108878195034 
2024	 0.349953357736363 
2025	 0.349737452144407 
2026	 0.349457921752918 
2027	 0.349114154008107 
2028	 0.348790255642553 
2029	 0.348413212221287 
2030	 0.348006810586685 
2031	 0.34763895374905 
2032	 0.347158610117823 
2033	 0.346526290745668 
2034	 0.345975991124302 
2035	 0.345437289109219 
2036	 0.344848128707921 
2037	 0.344264118113336 
2038	 0.343719965343094 
2039	 0.343189222580507 
2040	 0.342621218025423 
2041	 0.342147476618683 
2042	 0.341778066961773 
2043	 0.341345911253283 
2044	 0.340931627456656 
2045	 0.340502146303999 
2046	 0.339995257861112 
2047	 0.339588495730214 
2048	 0.339230873331335 
2049	 0.338890209302756 
2050	 0.338606259643103 
2051	 0.33836346598478 
2052	 0.338090185567765 
2053	 0.33774222314181 
2054	 0.33744079261438 
2055	 0.337087741798892 
2056	 0.336875132934536 
2057	 0.336729484051742 
2058	 0.336608523603664 
2059	 0.336621275116516 
2060	 0.336534335467746 
2061	 0.336375646872942 
2062	 0.3363159910192 
2063	 0.336269078661136 
2064	 0.336241788674429 
2065	 0.336283421230885 
2066	 0.336328916338171 
2067	 0.336347820858242 
2068	 0.336459188741343 
2069	 0.336562989823777 
2070	 0.336725939217732 
2071	 0.336845049270355 
2072	 0.336979449516957 
2073	 0.33705504884966 
2074	 0.337091184693106 
2075	 0.337136300666755 
2076	 0.337139217164159 
2077	 0.337171123091625 
2078	 0.337238175107156 
2079	 0.337263671793911 
2080	 0.337305833735961 
2081	 0.337292833018923 
2082	 0.337241975968129 
2083	 0.337165152409579 
2084	 0.337028278906436 
2085	 0.336805131074712 
2086	 0.33665843076411 
2087	 0.33651726509529 
2088	 0.336341259549635 
2089	 0.336223835994229 
2090	 0.336008321284973 
2091	 0.335706937773344 
2092	 0.335399009388694 
2093	 0.335017009073546 
2094	 0.334688781326659 
2095	 0.334388869104808 
2096	 0.334034183368091 
2097	 0.33365077893043 
2098	 0.333319226012926 
2099	 0.332926976629999 
2100	 0.332548232382946 
2101	 0.332133976570144 
2102	 0.331745730922524 
2103	 0.331297774497822 
2104	 0.330776148662073 
2105	 0.330272030948242 
2106	 0.329763154026642 
2107	 0.329256967194671 
2108	 0.328745337815588 
2109	 0.328209275898084 
2110	 0.327671908962738 
2111	 0.327114545154638 
2112	 0.326548962941216 
2113	 0.325937004980932 
2114	 0.325320271510514 
2115	 0.324645737207608 
2116	 0.323912553786829 
2117	 0.323136439510268 
2118	 0.322335685343697 
2119	 0.321480206331803 
2120	 0.320664177278027 
2121	 0.319798932190227 
2122	 0.319006560902989 
2123	 0.318266854367623 
2124	 0.317511100787622 
2125	 0.316809447913898 
2126	 0.316045757915807 
2127	 0.315292673051912 
2128	 0.314459787732081 
2129	 0.313452473469313 
2130	 0.312622864316806 
2131	 0.311837032525303 
2132	 0.311062683801289 
2133	 0.31039356882262 
2134	 0.309763330955705 
2135	 0.309024205177418 
2136	 0.30829133340479 
2137	 0.307592476405757 
2138	 0.306896797958025 
2139	 0.30625107513251 
2140	 0.305628402428388 
2141	 0.305046892905595 
2142	 0.304455109402415 
2143	 0.304007869758899 
2144	 0.303658116892261 
2145	 0.303338346142455 
2146	 0.303144509554687 
2147	 0.302938095779549 
2148	 0.302705686741282 
2149	 0.302561286431634 
2150	 0.302554161451459 
2151	 0.302470944276594 
2152	 0.302358215620648 
2153	 0.302350071891842 
2154	 0.302235467807847 
2155	 0.302071998113496 
2156	 0.302060619561609 
2157	 0.302108732550559 
2158	 0.302212466989576 
2159	 0.302409979104117 
2160	 0.302617903268211 
2161	 0.302929877559237 
2162	 0.303101760506528 
2163	 0.303269776207944 
2164	 0.30339594280621 
2165	 0.303374982638609 
2166	 0.303462223685452 
2167	 0.303578041448128 
2168	 0.303733347128644 
2169	 0.303943266777617 
2170	 0.304144344467798 
2171	 0.30441085867922 
2172	 0.304609277290736 
2173	 0.304739510001488 
2174	 0.304919672463535 
2175	 0.305053116337949 
2176	 0.305287770583892 
2177	 0.305545414433662 
2178	 0.305861421662565 
2179	 0.306190798750109 
2180	 0.306628389687538 
2181	 0.306859643584734 
2182	 0.307008252532644 
2183	 0.307221801909156 
2184	 0.307361186529509 
2185	 0.307488629322913 
2186	 0.307713268772489 
2187	 0.307791966927547 
2188	 0.307687899977171 
2189	 0.307677133874224 
2190	 0.307673328606701 
2191	 0.307671791949325 
2192	 0.307710021751188 
2193	 0.307685929572539 
2194	 0.307662582464882 
2195	 0.307568045756226 
2196	 0.307372366552176 
2197	 0.307225480163127 
2198	 0.307017321493437 
2199	 0.306745905431778 
2200	 0.306450381719738 
2201	 0.306160293569395 
2202	 0.305709612987532 
2203	 0.30512148210977 
2204	 0.304623614963732 
2205	 0.30400616954517 
2206	 0.303535166897364 
2207	 0.303185401115763 
2208	 0.302796239071064 
2209	 0.302418303468499 
2210	 0.302080762168795 
2211	 0.301747098458639 
2212	 0.301470776125432 
2213	 0.301282503429183 
2214	 0.301041062081721 
2215	 0.300835079017942 
2216	 0.300583088620269 
2217	 0.300300814945711 
2218	 0.299995906419546 
2219	 0.29965131444759 
2220	 0.299323555247752 
2221	 0.298995580244212 
2222	 0.29863723771745 
2223	 0.298269045467677 
2224	 0.297889810737643 
2225	 0.29737055120706 
2226	 0.296771363012871 
2227	 0.296172538879881 
2228	 0.295543108110133 
2229	 0.294801775927343 
2230	 0.293996873355527 
2231	 0.293149386232479 
2232	 0.292224941958995 
2233	 0.291192103285654 
2234	 0.290172438957413 
2235	 0.288951403518388 
2236	 0.287489827464977 
2237	 0.286085179014358 
2238	 0.284594247596419 
2239	 0.283065294522625 
2240	 0.281597876530885 
2241	 0.279897897940047 
2242	 0.278115273033929 
2243	 0.276138162873308 
2244	 0.273869006823939 
2245	 0.271638923647031 
2246	 0.269239609661433 
2247	 0.26687380370934 
2248	 0.264534978397182 
2249	 0.262129466983427 
2250	 0.25966285744742 
2251	 0.257221411066024 
2252	 0.254592864011796 
2253	 0.252090818627007 
2254	 0.249513438273763 
2255	 0.24680612852819 
2256	 0.244352150288527 
2257	 0.241925765166588 
2258	 0.239595570744715 
2259	 0.237483044540951 
2260	 0.235180958218723 
2261	 0.232818091170557 
2262	 0.230553980560176 
2263	 0.228195266043141 
2264	 0.226044515176316 
2265	 0.224052691701572 
2266	 0.222069043939192 
2267	 0.220267719584558 
2268	 0.218330073352509 
2269	 0.216346891639861 
2270	 0.214438024647635 
2271	 0.212434685538487 
2272	 0.210579213825286 
2273	 0.208871339802377 
2274	 0.207140050638614 
2275	 0.205499813519798 
2276	 0.20381736390845 
2277	 0.202136097102602 
2278	 0.20045984085684 
2279	 0.198752675711315 
2280	 0.197044651333416 
2281	 0.195422602688814 
2282	 0.193676087681269 
2283	 0.191847332373149 
2284	 0.190037085347667 
2285	 0.188061024913737 
2286	 0.186035542827665 
2287	 0.184027857159693 
2288	 0.181992002086838 
2289	 0.180134568861084 
2290	 0.178281661103357 
2291	 0.176334713080661 
2292	 0.174351721237701 
2293	 0.172302612953222 
2294	 0.170253609148857 
2295	 0.168400603341259 
2296	 0.166727645358548 
2297	 0.165239876299135 
2298	 0.163965737226837 
2299	 0.162752942910342 
2300	 0.16166326248722 
2301	 0.160856038985568 
2302	 0.160079571629897 
2303	 0.15985008615994 
2304	 0.160149607111908 
2305	 0.160381389637484 
2306	 0.160922600259633 
2307	 0.16154782000777 
2308	 0.162121756288265 
2309	 0.16314437883402 
2310	 0.164498934194805 
2311	 0.166026779099019 
2312	 0.167976868481512 
2313	 0.169855500683483 
2314	 0.171940953385442 
2315	 0.173972961531782 
2316	 0.176092749334699 
2317	 0.177993741094535 
2318	 0.179942832854826 
2319	 0.181624475961191 
2320	 0.183171227362389 
2321	 0.184468712858816 
2322	 0.18546584651174 
2323	 0.186329742795585 
2324	 0.186933144291355 
2325	 0.187411620803351 
2326	 0.187818877939459 
2327	 0.188025334771697 
2328	 0.188042667429992 
2329	 0.187838809296057 
2330	 0.187383926307236 
2331	 0.186771838737411 
2332	 0.186043265460473 
2333	 0.185302538546466 
2334	 0.184547438229421 
2335	 0.183550070046547 
2336	 0.182178457369885 
2337	 0.180673767649844 
2338	 0.179366843545377 
2339	 0.178033224588038 
2340	 0.17666241526352 
2341	 0.175536055778243 
2342	 0.174197129678864 
2343	 0.17290833684331 
2344	 0.172416150307362 
2345	 0.172022869804299 
2346	 0.171480746747839 
2347	 0.171269616818146 
2348	 0.171082829722722 
2349	 0.171309096400188 
2350	 0.172101268672586 
2351	 0.17307904745088 
2352	 0.17424934286957 
2353	 0.175464102899519 
2354	 0.176881956518777 
2355	 0.178477641044864 
2356	 0.179855363968736 
2357	 0.180896084963402 
2358	 0.181678732718679 
2359	 0.182371832692864 
2360	 0.18300733970785 
2361	 0.183648902262941 
2362	 0.184119343241073 
2363	 0.184167931529312 
2364	 0.184066593222652 
2365	 0.18403051718651 
2366	 0.184136701096059 
2367	 0.184146988666081 
2368	 0.183941026834768 
2369	 0.183652539937954 
2370	 0.183104035195058 
2371	 0.182809393480644 
2372	 0.182978051213047 
2373	 0.182873891545338 
2374	 0.182733106563245 
2375	 0.182699069857599 
2376	 0.182269893371401 
2377	 0.181976082556101 
2378	 0.182094309802261 
2379	 0.18207554540924 
2380	 0.182132334109086 
2381	 0.182430211794556 
2382	 0.182603689055257 
2383	 0.18262035925972 
2384	 0.18275058958736 
2385	 0.183066528622551 
2386	 0.183176834777567 
2387	 0.183132132065721 
2388	 0.183146662378481 
2389	 0.183085052210179 
2390	 0.183115468397991 
2391	 0.18328297120441 
2392	 0.183276297149918 
2393	 0.183141787694223 
2394	 0.183129021843179 
2395	 0.183199264245078 
2396	 0.183321263043348 
2397	 0.183490014777118 
2398	 0.183453523853147 
2399	 0.183191343516269 
2400	 0.182880760452309 
2401	 0.1827640346035 
2402	 0.182297584177023 
2403	 0.181776815083075 
2404	 0.181821605809275 
2405	 0.181420149957776 
2406	 0.181123006109075 
2407	 0.181469241574503 
2408	 0.181719919547739 
2409	 0.181945494908813 
2410	 0.182294351298554 
2411	 0.182416806002129 
2412	 0.182482879904405 
2413	 0.182400756235903 
2414	 0.182155085428866 
2415	 0.182167564865015 
2416	 0.182529415746943 
2417	 0.182911629813967 
2418	 0.182929398612329 
2419	 0.182957996168878 
2420	 0.182805099917949 
2421	 0.182477035921889 
2422	 0.183042640360195 
2423	 0.183766702009328 
2424	 0.18372902516341 
2425	 0.184019052325261 
2426	 0.183999421697851 
2427	 0.183423914774659 
2428	 0.183721762169224 
2429	 0.183486699371231 
2430	 0.182670470976275 
2431	 0.182561540253339 
2432	 0.182340527355942 
2433	 0.182217229016201 
2434	 0.182652021181921 
2435	 0.18268459829292 
2436	 0.182027672185662 
2437	 0.181264368031227 
2438	 0.180731348421522 
2439	 0.180573768057418 
2440	 0.180454198576605 
2441	 0.180570559739151 
2442	 0.180605323005242 
2443	 0.180061266960626 
2444	 0.180014089511865 
2445	 0.179887925534528 
2446	 0.179489826723705 
2447	 0.179604664050275 
2448	 0.17934135215994 
2449	 0.179106928410485 
2450	 0.178990485183619 
2451	 0.178589525291557 
2452	 0.178507094750183 
2453	 0.177931808303962 
2454	 0.177176203438475 
2455	 0.17676810492365 
2456	 0.176309121382054 
2457	 0.176797171896424 
2458	 0.17714237631815 
2459	 0.176729729302113 
2460	 0.176329865168899 
2461	 0.17513328945466 
2462	 0.174261673677233 
2463	 0.173909758833235 
2464	 0.172697621365515 
2465	 0.171740841596806 
2466	 0.171372557282484 
2467	 0.170815846089465 
2468	 0.171124131563558 
2469	 0.171872283143015 
2470	 0.171811989074653 
2471	 0.171655708270235 
2472	 0.171659220629085 
2473	 0.171230470313997 
2474	 0.170891876083037 
2475	 0.171713030981879 
2476	 0.172439878178201 
2477	 0.172766214326121 
2478	 0.173264162015122 
2479	 0.172782183275408 
2480	 0.171500982087641 
2481	 0.171039557711662 
2482	 0.170414148485745 
2483	 0.170183078411043 
2484	 0.170795143793971 
2485	 0.171097438598533 
2486	 0.171738658160116 
2487	 0.172971244975862 
2488	 0.174032646753813 
2489	 0.174204781199062 
2490	 0.17378009837531 
2491	 0.173333697179071 
2492	 0.172183086400943 
2493	 0.171823238840653 
2494	 0.172863633492003 
2495	 0.173483174383448 
2496	 0.174239762075592 
2497	 0.174787292283527 
2498	 0.174615338129739 
2499	 0.174967230137883 
2500	 0.175435355845963 
