Wavelength	Tablay400020.asd
350	 0.272670423171379 
351	 0.256042931978728 
352	 0.234387328983555 
353	 0.229703719200158 
354	 0.212868172234393 
355	 0.230612869441555 
356	 0.239943827623218 
357	 0.205104426134415 
358	 0.178156179377975 
359	 0.19671651443569 
360	 0.228552812612407 
361	 0.213073523650757 
362	 0.177666951183648 
363	 0.155663174596505 
364	 0.157325127524533 
365	 0.151605076836317 
366	 0.149366958772276 
367	 0.157350574957656 
368	 0.17133238645765 
369	 0.151289888111969 
370	 0.154060679942338 
371	 0.168725987568208 
372	 0.151684927363048 
373	 0.153075950018854 
374	 0.147564979223125 
375	 0.131584650059041 
376	 0.143333636653885 
377	 0.147864375157586 
378	 0.147581325981435 
379	 0.148074824399969 
380	 0.13097885487154 
381	 0.124614485631481 
382	 0.127530367497711 
383	 0.120986383964429 
384	 0.11479222544013 
385	 0.111684573146408 
386	 0.111463211456145 
387	 0.11083079638755 
388	 0.116906062987143 
389	 0.116096230372229 
390	 9.94495826344971E-02 
391	 8.76402506669975E-02 
392	 0.10009580195669 
393	 0.115331155750095 
394	 9.37546080420343E-02 
395	 8.50377940657965E-02 
396	 9.28056835243514E-02 
397	 0.103521366215898 
398	 8.49704658611044E-02 
399	 9.12679871985394E-02 
400	 0.104539717191108 
401	 9.77870212491197E-02 
402	 0.093200198447913 
403	 9.19306249405127E-02 
404	 9.09174524345116E-02 
405	 8.53809268492789E-02 
406	 8.49996229657056E-02 
407	 8.25219471276916E-02 
408	 7.66559593180652E-02 
409	 0.082574623647392 
410	 7.97313871913217E-02 
411	 7.51267338926737E-02 
412	 7.93843142974169E-02 
413	 7.56938614203881E-02 
414	 0.070636438940978 
415	 0.069943106711112 
416	 7.67690687546693E-02 
417	 7.92434442153854E-02 
418	 7.41231151672003E-02 
419	 6.45153419597809E-02 
420	 6.32933993756596E-02 
421	 6.59539446963998E-02 
422	 0.068184536990784 
423	 6.67061500367734E-02 
424	 6.45980246767868E-02 
425	 0.065824806680529 
426	 6.83183138324857E-02 
427	 6.37204301261166E-02 
428	 6.38291289851308E-02 
429	 6.51563462165755E-02 
430	 6.35015856939459E-02 
431	 6.24369437193789E-02 
432	 6.19997602919875E-02 
433	 6.16576070504136E-02 
434	 6.07433546407384E-02 
435	 0.06045420876832 
436	 6.11206923035512E-02 
437	 6.19249689844319E-02 
438	 6.04576906608093E-02 
439	 5.99542034919277E-02 
440	 5.98691790531638E-02 
441	 5.93210494469917E-02 
442	 6.10168558863761E-02 
443	 6.00785171185654E-02 
444	 5.70001948222439E-02 
445	 5.63673585119406E-02 
446	 5.73887094772196E-02 
447	 5.79074775354158E-02 
448	 5.72021237445331E-02 
449	 5.81450083203017E-02 
450	 5.83909190435616E-02 
451	 5.76973946413355E-02 
452	 5.68552716457611E-02 
453	 0.057907435162064 
454	 5.78625522463984E-02 
455	 0.05621182522285 
456	 5.54063194237282E-02 
457	 5.53465912817179E-02 
458	 5.54944654272659E-02 
459	 0.055399323275861 
460	 5.53286599512751E-02 
461	 5.47884618833476E-02 
462	 5.45412091076747E-02 
463	 5.56078194298549E-02 
464	 5.51076047070677E-02 
465	 5.51375910271436E-02 
466	 5.61729254787371E-02 
467	 5.54750142429069E-02 
468	 5.54156529090125E-02 
469	 5.56447093606982E-02 
470	 5.53179800131213E-02 
471	 5.46882796581831E-02 
472	 5.49595796811541E-02 
473	 5.54988433041375E-02 
474	 5.44818713680958E-02 
475	 5.42857920505381E-02 
476	 5.50272118421788E-02 
477	 5.58293057736359E-02 
478	 5.42934423855825E-02 
479	 5.38224804465583E-02 
480	 5.47332593256148E-02 
481	 5.59208311660313E-02 
482	 5.57153706760623E-02 
483	 5.55674854906069E-02 
484	 5.59754730022146E-02 
485	 5.61435795217111E-02 
486	 0.056160260519697 
487	 5.63364693593927E-02 
488	 5.68817983814571E-02 
489	 5.76204808681647E-02 
490	 5.77991915539984E-02 
491	 5.81021776885267E-02 
492	 5.96936599251255E-02 
493	 5.99799458747682E-02 
494	 6.05091186071578E-02 
495	 6.18016303515512E-02 
496	 6.19380786019321E-02 
497	 6.25014200267083E-02 
498	 6.35551410773233E-02 
499	 6.47206664105917E-02 
500	 6.58538929324562E-02 
501	 6.68875097182246E-02 
502	 6.77367725267794E-02 
503	 6.83523371669354E-02 
504	 6.96756788460494E-02 
505	 7.11434617812474E-02 
506	 7.23637274778308E-02 
507	 7.40199108099138E-02 
508	 7.56713487839757E-02 
509	 7.70936041795294E-02 
510	 7.82667976552295E-02 
511	 7.99153647099751E-02 
512	 8.14848100600902E-02 
513	 8.28946196193339E-02 
514	 8.47961579336448E-02 
515	 8.64391199265161E-02 
516	 8.81379844614448E-02 
517	 9.01171730810424E-02 
518	 9.12866839904776E-02 
519	 9.28586438488331E-02 
520	 9.49062666145885E-02 
521	 9.67390166434031E-02 
522	 9.86246378932727E-02 
523	 0.100752384070259 
524	 0.103025027064565 
525	 0.104803578979371 
526	 0.106506795231256 
527	 0.108233840194713 
528	 0.110011543587007 
529	 0.112073254686728 
530	 0.114056370902759 
531	 0.115912620842614 
532	 0.11794124538712 
533	 0.119857488996676 
534	 0.121708896285786 
535	 0.123613776713339 
536	 0.125686619932358 
537	 0.127799650641557 
538	 0.129824160775634 
539	 0.131674463048764 
540	 0.133606881542091 
541	 0.135486575727 
542	 0.137289128697583 
543	 0.139231723403892 
544	 0.141132628605651 
545	 0.142948749030965 
546	 0.144718611233628 
547	 0.146675990779245 
548	 0.148347105284764 
549	 0.149836439565128 
550	 0.151735213265469 
551	 0.153549044569906 
552	 0.155223506373606 
553	 0.156792087059434 
554	 0.158265671280197 
555	 0.159838894210265 
556	 0.161538874029617 
557	 0.163260488975165 
558	 0.164656825832104 
559	 0.166065046779302 
560	 0.167605633566179 
561	 0.169009035751084 
562	 0.170476673431048 
563	 0.172020904540598 
564	 0.173556465547025 
565	 0.17482395974557 
566	 0.176204856736495 
567	 0.177726780922161 
568	 0.179161418917158 
569	 0.180663548098858 
570	 0.182136895043064 
571	 0.183515986852596 
572	 0.184863560126551 
573	 0.186252028737109 
574	 0.187631486549169 
575	 0.188913147923802 
576	 0.190079817866393 
577	 0.191247362945244 
578	 0.192478243399762 
579	 0.193761791654858 
580	 0.195073363213789 
581	 0.196263112520732 
582	 0.19729860696243 
583	 0.198572569577174 
584	 0.19981634859764 
585	 0.20090887819796 
586	 0.201864169110737 
587	 0.203027252385133 
588	 0.204181531190263 
589	 0.205244261326707 
590	 0.206463401805687 
591	 0.207615992205867 
592	 0.208707622265786 
593	 0.209789534206429 
594	 0.210779507268818 
595	 0.211790146184271 
596	 0.212836911369472 
597	 0.213847116927889 
598	 0.214836868153953 
599	 0.21584309219997 
600	 0.216864375566338 
601	 0.217780276946837 
602	 0.218734613551937 
603	 0.219723239477992 
604	 0.220688185140959 
605	 0.221698386087267 
606	 0.222704395321204 
607	 0.223672008326887 
608	 0.224594795254413 
609	 0.225585960211237 
610	 0.226456784739848 
611	 0.227126369112745 
612	 0.228115313283115 
613	 0.229103071309325 
614	 0.229965646563364 
615	 0.230731424397327 
616	 0.231526225540583 
617	 0.232329543028833 
618	 0.233129372074306 
619	 0.233974572439854 
620	 0.234803575939675 
621	 0.235590667406093 
622	 0.236334747060141 
623	 0.237068496959568 
624	 0.237883269096657 
625	 0.238737821405753 
626	 0.239473117623546 
627	 0.240095875826453 
628	 0.240758759737229 
629	 0.241537859208938 
630	 0.24226387747264 
631	 0.242896162582425 
632	 0.24345471367855 
633	 0.244013834230501 
634	 0.244755434958039 
635	 0.245481083888957 
636	 0.246085765896339 
637	 0.246622062351696 
638	 0.24720400027706 
639	 0.247779161470145 
640	 0.248296245915183 
641	 0.248864215814953 
642	 0.249386795304429 
643	 0.249907148569434 
644	 0.250521091998165 
645	 0.250952519222952 
646	 0.251380652816519 
647	 0.251913154532194 
648	 0.252457775221641 
649	 0.252876409555784 
650	 0.253253810008087 
651	 0.253717155803225 
652	 0.254247425080525 
653	 0.254705606622028 
654	 0.255082477544721 
655	 0.255476733357344 
656	 0.255892177204194 
657	 0.256379906908257 
658	 0.256908367911668 
659	 0.25725409383038 
660	 0.25764320277662 
661	 0.25806319290328 
662	 0.258447105204461 
663	 0.258944565693577 
664	 0.259395220147768 
665	 0.25977719529482 
666	 0.260219970048551 
667	 0.260656902223243 
668	 0.261061767085694 
669	 0.261449588031733 
670	 0.261928555167489 
671	 0.262373210264604 
672	 0.262746118293132 
673	 0.263067700321351 
674	 0.263415279901332 
675	 0.26386383706995 
676	 0.264379141049937 
677	 0.264804285457411 
678	 0.265112428315955 
679	 0.265436952835417 
680	 0.265870240745729 
681	 0.266251107688273 
682	 0.266716445293499 
683	 0.267187078861432 
684	 0.267510164565631 
685	 0.267956206156866 
686	 0.268398401431801 
687	 0.268751617593833 
688	 0.269047755948116 
689	 0.269395424863273 
690	 0.269802522009856 
691	 0.270210712698651 
692	 0.270430457110549 
693	 0.270769106108809 
694	 0.271219753424557 
695	 0.27158686473317 
696	 0.271976869636366 
697	 0.272324772631468 
698	 0.272607218281157 
699	 0.272890729272222 
700	 0.273250973652829 
701	 0.273636388162964 
702	 0.273974422333973 
703	 0.274273965748446 
704	 0.27457017478212 
705	 0.274883523962422 
706	 0.275219809071054 
707	 0.275571683385451 
708	 0.275881254880573 
709	 0.276130145777296 
710	 0.276366020710773 
711	 0.276724354316273 
712	 0.277109301381841 
713	 0.27739340172972 
714	 0.277633609014921 
715	 0.2778596195892 
716	 0.278108277866219 
717	 0.278414533259741 
718	 0.278760631330678 
719	 0.279101986341629 
720	 0.279395905837837 
721	 0.279603085994751 
722	 0.279884214180746 
723	 0.280187441105776 
724	 0.280436646649598 
725	 0.280747900400617 
726	 0.281015672594586 
727	 0.281248011616305 
728	 0.281530364644725 
729	 0.281830159176192 
730	 0.282127189915439 
731	 0.282407806477027 
732	 0.282666343565746 
733	 0.28292141261375 
734	 0.283205383404493 
735	 0.283528274158362 
736	 0.283813707884721 
737	 0.284053938876902 
738	 0.284291971742749 
739	 0.284594185588155 
740	 0.284936017823026 
741	 0.285211251921248 
742	 0.285398755755716 
743	 0.285613950683913 
744	 0.285871957894115 
745	 0.286155280005983 
746	 0.286438519309654 
747	 0.286721848349954 
748	 0.286958779330626 
749	 0.287223014027711 
750	 0.287620053380858 
751	 0.287934396817902 
752	 0.288206505593813 
753	 0.288487000067946 
754	 0.28880213343027 
755	 0.289093499497315 
756	 0.289410840880722 
757	 0.289780080853827 
758	 0.290084920868937 
759	 0.290407387993319 
760	 0.290714153636722 
761	 0.290951470208549 
762	 0.291286675654399 
763	 0.291692717304972 
764	 0.292098798206711 
765	 0.29241406022293 
766	 0.292701414018962 
767	 0.293011984492502 
768	 0.293369892916078 
769	 0.293750757817179 
770	 0.294075331528238 
771	 0.294399417837001 
772	 0.29479996230263 
773	 0.295190181808235 
774	 0.295512291192348 
775	 0.295807361288273 
776	 0.296184602901504 
777	 0.296579168613613 
778	 0.296929742506542 
779	 0.297220022562951 
780	 0.29750197707263 
781	 0.297866655712693 
782	 0.29827802793353 
783	 0.298673150954399 
784	 0.299054185626495 
785	 0.299377844595978 
786	 0.299697655210466 
787	 0.300099186243701 
788	 0.300470434321969 
789	 0.300805708695545 
790	 0.301140485214797 
791	 0.301538941476322 
792	 0.301822757860865 
793	 0.302130046301133 
794	 0.302546669336045 
795	 0.302870353539022 
796	 0.303199486535353 
797	 0.303532986004696 
798	 0.303846980243533 
799	 0.304172888033959 
800	 0.304546598603872 
801	 0.304933214947497 
802	 0.305256410841029 
803	 0.305604201271207 
804	 0.305938892593485 
805	 0.306231618948322 
806	 0.306491269218319 
807	 0.306855055236463 
808	 0.307228988324288 
809	 0.307527929845836 
810	 0.307885742913806 
811	 0.308177494932211 
812	 0.308430474018079 
813	 0.308732054561842 
814	 0.30908758998305 
815	 0.30937901784035 
816	 0.309617525692079 
817	 0.309921783541247 
818	 0.310171184842306 
819	 0.310446556277587 
820	 0.310765901667351 
821	 0.310998864505223 
822	 0.311284089510534 
823	 0.311536347214386 
824	 0.31169843054966 
825	 0.311991020622919 
826	 0.312217054836576 
827	 0.312400036899127 
828	 0.312641326832522 
829	 0.312845183077719 
830	 0.313087120897637 
831	 0.313339109078378 
832	 0.313494610878937 
833	 0.313706429480931 
834	 0.313919825790566 
835	 0.314087444451488 
836	 0.31422153177013 
837	 0.314440076152369 
838	 0.314700207466097 
839	 0.314916752398518 
840	 0.315006719049486 
841	 0.315137683226854 
842	 0.315281124765343 
843	 0.31536129685987 
844	 0.315493755759115 
845	 0.315691661776962 
846	 0.315905710835324 
847	 0.316062065106551 
848	 0.31628274931603 
849	 0.316406741851269 
850	 0.316417371382493 
851	 0.31650969817929 
852	 0.316680225290875 
853	 0.316822941499202 
854	 0.316911876600588 
855	 0.317149322646964 
856	 0.317239846834668 
857	 0.317301171753034 
858	 0.317487003838016 
859	 0.317582712686841 
860	 0.317667147963398 
861	 0.317751712865703 
862	 0.317814415944526 
863	 0.317851571481858 
864	 0.317923287492571 
865	 0.318036673541793 
866	 0.318149014004817 
867	 0.318256247998233 
868	 0.31829363893622 
869	 0.318289605391438 
870	 0.318396473739881 
871	 0.318415091237143 
872	 0.318445161173777 
873	 0.318564800512207 
874	 0.318666390878895 
875	 0.318694705150892 
876	 0.318697677560956 
877	 0.318741933439267 
878	 0.318820239657358 
879	 0.318893998029918 
880	 0.318940916560438 
881	 0.318946313940802 
882	 0.318863624098146 
883	 0.318872423837852 
884	 0.318983991326793 
885	 0.319070167505061 
886	 0.319088846938762 
887	 0.319089337879667 
888	 0.319095050015409 
889	 0.319086061131821 
890	 0.31908605174642 
891	 0.31911103480907 
892	 0.319166668254469 
893	 0.319245621947089 
894	 0.319248619340766 
895	 0.319204068723363 
896	 0.319186048667811 
897	 0.319295387776638 
898	 0.319362814819741 
899	 0.319384089123229 
900	 0.319399246532524 
901	 0.31937167315221 
902	 0.319356410639458 
903	 0.31936479380473 
904	 0.319391061532533 
905	 0.319477109369834 
906	 0.319569347197079 
907	 0.319620747554915 
908	 0.319610972360014 
909	 0.319614599327996 
910	 0.319722325426485 
911	 0.319850642868185 
912	 0.319787559832123 
913	 0.319895477108457 
914	 0.31999326640664 
915	 0.320010886748809 
916	 0.32013000180463 
917	 0.320151535473809 
918	 0.320139709367739 
919	 0.32018507677275 
920	 0.320320909435673 
921	 0.320432545446816 
922	 0.320502984412922 
923	 0.320543685871415 
924	 0.320558498681803 
925	 0.320597956113301 
926	 0.320663048299935 
927	 0.320752843443549 
928	 0.320933309199168 
929	 0.321057142993569 
930	 0.32112658840299 
931	 0.321211910144293 
932	 0.321364094596441 
933	 0.321468089153492 
934	 0.321489920810989 
935	 0.321492443719096 
936	 0.321757562693334 
937	 0.321920914932806 
938	 0.321922250473869 
939	 0.321957111638561 
940	 0.322193443298812 
941	 0.322423288503986 
942	 0.322526972608378 
943	 0.322526577497439 
944	 0.322632532930285 
945	 0.322749933613673 
946	 0.322784874304603 
947	 0.322716772157433 
948	 0.322829007436311 
949	 0.32296212153852 
950	 0.323053246188691 
951	 0.323231573513821 
952	 0.323313573436119 
953	 0.323396120357488 
954	 0.32348701198374 
955	 0.323406480420223 
956	 0.323364719751511 
957	 0.323439615838351 
958	 0.323605122641199 
959	 0.323719301031159 
960	 0.323785673091667 
961	 0.323902758809818 
962	 0.32406203055583 
963	 0.324006406203686 
964	 0.324099505687963 
965	 0.324229077590947 
966	 0.324260925481793 
967	 0.324304033353877 
968	 0.324381439456617 
969	 0.324458118777523 
970	 0.324523264855051 
971	 0.324674725825185 
972	 0.324847053009904 
973	 0.324932307783451 
974	 0.324929687343132 
975	 0.325168997452617 
976	 0.325219893960485 
977	 0.325042715370105 
978	 0.324848639328453 
979	 0.325155247473825 
980	 0.325451209555825 
981	 0.325513758293063 
982	 0.325413284274802 
983	 0.325819354182198 
984	 0.325579463106161 
985	 0.325354949033975 
986	 0.325895212015755 
987	 0.32601165623415 
988	 0.326152711922012 
989	 0.326336859221254 
990	 0.326462358858394 
991	 0.326535024193848 
992	 0.326465100125347 
993	 0.326595500110154 
994	 0.327031935469207 
995	 0.326550717852279 
996	 0.326659024612072 
997	 0.326948880118929 
998	 0.326750668476121 
999	 0.326989765427148 
1000	 0.327362253801963 
1001	 0.325686268030697 
1002	 0.325827910001334 
1003	 0.325933892401366 
1004	 0.325961016313093 
1005	 0.325834869941071 
1006	 0.325890300434066 
1007	 0.326006831042688 
1008	 0.326057320847638 
1009	 0.326153332033488 
1010	 0.326206464934312 
1011	 0.326210613082563 
1012	 0.326219562905557 
1013	 0.326177769948418 
1014	 0.326239518025108 
1015	 0.326355496685012 
1016	 0.32643483967565 
1017	 0.326521484106512 
1018	 0.326581418241868 
1019	 0.326549745270831 
1020	 0.326517808619292 
1021	 0.326635180781479 
1022	 0.326947297319745 
1023	 0.327070809169577 
1024	 0.327222625478515 
1025	 0.32728245583027 
1026	 0.327128575052327 
1027	 0.327131416820477 
1028	 0.32718231807355 
1029	 0.327258030946725 
1030	 0.32736477390866 
1031	 0.327582127702297 
1032	 0.327774317827552 
1033	 0.327982874390153 
1034	 0.328080893640753 
1035	 0.32808402794153 
1036	 0.328150448272734 
1037	 0.328163472650909 
1038	 0.328210328433827 
1039	 0.328296630125998 
1040	 0.328412442670037 
1041	 0.328530710490707 
1042	 0.328613525493239 
1043	 0.328691912994193 
1044	 0.32889022853452 
1045	 0.328964340595376 
1046	 0.329022873508549 
1047	 0.329092192053982 
1048	 0.329050192828268 
1049	 0.329081503676246 
1050	 0.329140248905976 
1051	 0.329118177744084 
1052	 0.329227623704034 
1053	 0.329344130701631 
1054	 0.329458203198408 
1055	 0.329537664236008 
1056	 0.329676069850948 
1057	 0.329751004617218 
1058	 0.329750264578973 
1059	 0.329723195710856 
1060	 0.32978939010424 
1061	 0.329887483475156 
1062	 0.329864862356002 
1063	 0.329910606621814 
1064	 0.329950363093532 
1065	 0.329929814931653 
1066	 0.329993005802453 
1067	 0.330080007753708 
1068	 0.330172600233341 
1069	 0.330217243271226 
1070	 0.330249338267999 
1071	 0.33026677173569 
1072	 0.330256650131328 
1073	 0.330185290159691 
1074	 0.330183877559858 
1075	 0.330178829321108 
1076	 0.33017177261866 
1077	 0.330252046778652 
1078	 0.330320072759021 
1079	 0.330409957677405 
1080	 0.330518870071076 
1081	 0.330587424842189 
1082	 0.330694240409947 
1083	 0.330766005648291 
1084	 0.33073816033838 
1085	 0.330699205116005 
1086	 0.33071316877807 
1087	 0.330711585645038 
1088	 0.330777476848895 
1089	 0.330895621698952 
1090	 0.33096846615528 
1091	 0.331021762627671 
1092	 0.331021544883565 
1093	 0.331053031853235 
1094	 0.331179767923311 
1095	 0.331241356100834 
1096	 0.331352015535631 
1097	 0.331438275798708 
1098	 0.331416325054539 
1099	 0.331522709772229 
1100	 0.331651643421982 
1101	 0.331743602996938 
1102	 0.331905697876312 
1103	 0.332025541525888 
1104	 0.332126315917003 
1105	 0.33216483162031 
1106	 0.332244573250267 
1107	 0.332360414321646 
1108	 0.332463701249179 
1109	 0.332608073983198 
1110	 0.332784470148485 
1111	 0.332844651457563 
1112	 0.332857182363252 
1113	 0.332961412794144 
1114	 0.333044180385072 
1115	 0.33309748449612 
1116	 0.333259355306416 
1117	 0.333440760263335 
1118	 0.333608779744997 
1119	 0.333834023352698 
1120	 0.333985296479311 
1121	 0.334134802299141 
1122	 0.334161033834221 
1123	 0.33417564771587 
1124	 0.334278685184572 
1125	 0.334411442606675 
1126	 0.334546583170839 
1127	 0.334680176579303 
1128	 0.334780865018832 
1129	 0.334877364001809 
1130	 0.334997839228737 
1131	 0.335143137370033 
1132	 0.335292998963156 
1133	 0.335437597740791 
1134	 0.335543449687811 
1135	 0.335629095759948 
1136	 0.335690032834013 
1137	 0.33576245012042 
1138	 0.335822467298672 
1139	 0.335864245992337 
1140	 0.335915565759504 
1141	 0.335929429506322 
1142	 0.335918342313978 
1143	 0.335934180302455 
1144	 0.335993978319888 
1145	 0.335972068217431 
1146	 0.335935080792487 
1147	 0.335957433993593 
1148	 0.336000766238218 
1149	 0.336064436843392 
1150	 0.336089435126495 
1151	 0.336091804107051 
1152	 0.336078179372008 
1153	 0.335992773856952 
1154	 0.335955375882747 
1155	 0.335966887212855 
1156	 0.335922008299106 
1157	 0.335839920221835 
1158	 0.33578522070157 
1159	 0.335745886217304 
1160	 0.335642627486111 
1161	 0.335558609804514 
1162	 0.33548059404027 
1163	 0.335342817739711 
1164	 0.335218402922498 
1165	 0.335165190914037 
1166	 0.335098073489844 
1167	 0.33500926987548 
1168	 0.334948991374977 
1169	 0.334858713750336 
1170	 0.334708750193884 
1171	 0.334617197842781 
1172	 0.33456941347813 
1173	 0.334472759359339 
1174	 0.334388553465012 
1175	 0.334265626230773 
1176	 0.334094935070312 
1177	 0.33393821318055 
1178	 0.333755722159057 
1179	 0.333588957131039 
1180	 0.333468860027008 
1181	 0.333366672058898 
1182	 0.333285821315137 
1183	 0.333180492306467 
1184	 0.333071787073778 
1185	 0.332968574632672 
1186	 0.332868833033672 
1187	 0.332769789446104 
1188	 0.3327010395081 
1189	 0.332639909874045 
1190	 0.332589709231655 
1191	 0.332579743837787 
1192	 0.332549261973968 
1193	 0.332513308334944 
1194	 0.332476727524212 
1195	 0.332408010841057 
1196	 0.332394409613166 
1197	 0.332416602876698 
1198	 0.332422968068321 
1199	 0.332457772269694 
1200	 0.332524508845588 
1201	 0.332576223878959 
1202	 0.332638416929624 
1203	 0.332790189938363 
1204	 0.332954934140416 
1205	 0.333119369421221 
1206	 0.333313558854935 
1207	 0.333530080030738 
1208	 0.333703032663298 
1209	 0.333990082321187 
1210	 0.334337554674874 
1211	 0.334730814870562 
1212	 0.335204934908944 
1213	 0.33570627936499 
1214	 0.336252150128907 
1215	 0.336830479115518 
1216	 0.337449621746372 
1217	 0.338098378530401 
1218	 0.338802018627785 
1219	 0.339507340972138 
1220	 0.34020863998686 
1221	 0.34092700389713 
1222	 0.341663901916086 
1223	 0.342435572726102 
1224	 0.343175306172727 
1225	 0.343955681371918 
1226	 0.344662257254753 
1227	 0.345324619876757 
1228	 0.34596770085489 
1229	 0.346575773322984 
1230	 0.347191975769785 
1231	 0.347762658040767 
1232	 0.348371090376631 
1233	 0.349053199182597 
1234	 0.349625347867523 
1235	 0.350141362219575 
1236	 0.350668385131208 
1237	 0.351128233153863 
1238	 0.351601267837002 
1239	 0.352093774474751 
1240	 0.352597615309557 
1241	 0.353039897370605 
1242	 0.353426303744687 
1243	 0.353832098760804 
1244	 0.354202229500951 
1245	 0.354622749952963 
1246	 0.355085079484224 
1247	 0.355485226957951 
1248	 0.355879122558431 
1249	 0.356266117825942 
1250	 0.356596055704786 
1251	 0.356968311356983 
1252	 0.357378253617999 
1253	 0.357763078184714 
1254	 0.358137010408871 
1255	 0.358518674621443 
1256	 0.358919284631555 
1257	 0.359285561129055 
1258	 0.359621726309877 
1259	 0.359976711635538 
1260	 0.360314311628665 
1261	 0.360665098752363 
1262	 0.361058670035982 
1263	 0.361428247309045 
1264	 0.361761179526066 
1265	 0.362054751609497 
1266	 0.362395623437223 
1267	 0.362733254906591 
1268	 0.363060163464564 
1269	 0.363403361909782 
1270	 0.363748987019086 
1271	 0.364083393470686 
1272	 0.364404675650005 
1273	 0.364765801395013 
1274	 0.365066484622488 
1275	 0.365278958586029 
1276	 0.365554612731968 
1277	 0.365854660859114 
1278	 0.366131899827319 
1279	 0.36643179064685 
1280	 0.366705205130867 
1281	 0.366956657136214 
1282	 0.367189291390422 
1283	 0.367403293416329 
1284	 0.367612320840346 
1285	 0.367807580479296 
1286	 0.367968648523829 
1287	 0.368162780596387 
1288	 0.368362638824347 
1289	 0.368569864907008 
1290	 0.368794375650009 
1291	 0.36899775353173 
1292	 0.369209801545009 
1293	 0.369389484225535 
1294	 0.369538921924398 
1295	 0.369702712236651 
1296	 0.369840688328234 
1297	 0.370010499800291 
1298	 0.370202208545441 
1299	 0.370388131197655 
1300	 0.370589503586992 
1301	 0.370779603863904 
1302	 0.370968369488164 
1303	 0.371148698631827 
1304	 0.37133131862394 
1305	 0.371495767396049 
1306	 0.371632095874436 
1307	 0.371784277673966 
1308	 0.371926653087541 
1309	 0.37207322172908 
1310	 0.372251929033406 
1311	 0.372463824288643 
1312	 0.372641678282125 
1313	 0.372824191030074 
1314	 0.373003299613616 
1315	 0.373174411741607 
1316	 0.373327307881508 
1317	 0.373465592490257 
1318	 0.373632318748804 
1319	 0.373786207951838 
1320	 0.373954164214426 
1321	 0.374172926693521 
1322	 0.374343918277432 
1323	 0.374483209603378 
1324	 0.374630107028563 
1325	 0.37478002397563 
1326	 0.374906370114758 
1327	 0.375012092742923 
1328	 0.375125719854173 
1329	 0.375239676745482 
1330	 0.375329976892386 
1331	 0.375388472062316 
1332	 0.375481983694811 
1333	 0.375582172670774 
1334	 0.375681246311172 
1335	 0.37575324773267 
1336	 0.37584650998678 
1337	 0.375907473575312 
1338	 0.375920987069116 
1339	 0.375953404693987 
1340	 0.376012979994418 
1341	 0.376019059361848 
1342	 0.375992088234605 
1343	 0.37596230424201 
1344	 0.37591093278881 
1345	 0.375854830822781 
1346	 0.375792765186041 
1347	 0.37571499256054 
1348	 0.375630668350036 
1349	 0.375524307779098 
1350	 0.375378045093561 
1351	 0.375264006382105 
1352	 0.3751746032572 
1353	 0.375037350472181 
1354	 0.374891948729527 
1355	 0.374742870715338 
1356	 0.374547242429069 
1357	 0.374365683025304 
1358	 0.374207668860388 
1359	 0.374031769470367 
1360	 0.373849099031938 
1361	 0.373642938664387 
1362	 0.373438252228021 
1363	 0.373257908769399 
1364	 0.373052312110827 
1365	 0.372862531582091 
1366	 0.372600109926327 
1367	 0.372299875828505 
1368	 0.371994359604121 
1369	 0.371659892980204 
1370	 0.371291165142663 
1371	 0.370919193169261 
1372	 0.370498792346579 
1373	 0.370023887606219 
1374	 0.369531703818196 
1375	 0.368998861072606 
1376	 0.368477209161947 
1377	 0.367928320188423 
1378	 0.367379237493358 
1379	 0.366846851906469 
1380	 0.366280159978224 
1381	 0.365693515918406 
1382	 0.365079185900038 
1383	 0.364466977125582 
1384	 0.36379075620859 
1385	 0.363062284111929 
1386	 0.362320599906354 
1387	 0.361489037150481 
1388	 0.36072709430849 
1389	 0.359963246233316 
1390	 0.359249523926955 
1391	 0.358593052953978 
1392	 0.357938688691108 
1393	 0.357377188598862 
1394	 0.356797404273189 
1395	 0.35621469133571 
1396	 0.355681603516783 
1397	 0.355066997076168 
1398	 0.35443569219753 
1399	 0.353714942557392 
1400	 0.352966229797329 
1401	 0.352101342490966 
1402	 0.351128100604139 
1403	 0.350136885628752 
1404	 0.34908028320876 
1405	 0.34797997926174 
1406	 0.346841296712284 
1407	 0.345648503043445 
1408	 0.344354564889789 
1409	 0.343100508703428 
1410	 0.341809265637542 
1411	 0.340552350639685 
1412	 0.33928096710593 
1413	 0.338084730767591 
1414	 0.336923564191912 
1415	 0.335792033309701 
1416	 0.334712032517019 
1417	 0.33365614539478 
1418	 0.332612973841299 
1419	 0.331608452351186 
1420	 0.33064914656837 
1421	 0.329720610546768 
1422	 0.328846750820778 
1423	 0.327960779171681 
1424	 0.327099459474527 
1425	 0.326207690910388 
1426	 0.325391263381425 
1427	 0.324624238034791 
1428	 0.323925049860388 
1429	 0.323310025903401 
1430	 0.322630347576435 
1431	 0.321969735339238 
1432	 0.321245426488954 
1433	 0.320480258452156 
1434	 0.319719002975741 
1435	 0.31893560549845 
1436	 0.318131824756152 
1437	 0.317318150158819 
1438	 0.316498089758071 
1439	 0.315628024058877 
1440	 0.314811062142949 
1441	 0.313967768471177 
1442	 0.313233000991168 
1443	 0.312468014365846 
1444	 0.31193889672499 
1445	 0.311480288198882 
1446	 0.31128694415086 
1447	 0.311297011108665 
1448	 0.311484430217062 
1449	 0.311903133501972 
1450	 0.312450322698065 
1451	 0.313219091012193 
1452	 0.314033868472491 
1453	 0.315053749133542 
1454	 0.316014811219667 
1455	 0.317054904533525 
1456	 0.318043526801104 
1457	 0.319040658714903 
1458	 0.319983888017574 
1459	 0.320888222051783 
1460	 0.321771058506396 
1461	 0.322627803933157 
1462	 0.323432928719356 
1463	 0.324186136829923 
1464	 0.324937626850681 
1465	 0.325636312268097 
1466	 0.326357932640417 
1467	 0.327020941002105 
1468	 0.327674203461286 
1469	 0.328323734265621 
1470	 0.328917569903253 
1471	 0.329521701099742 
1472	 0.330141977108021 
1473	 0.330726429766975 
1474	 0.33128150369831 
1475	 0.33181784757797 
1476	 0.332351420990444 
1477	 0.332843284011012 
1478	 0.333300156261873 
1479	 0.333721971232193 
1480	 0.334130606145057 
1481	 0.334469805308704 
1482	 0.334747452218687 
1483	 0.335012435965026 
1484	 0.335223310897956 
1485	 0.33544051571703 
1486	 0.335634202741233 
1487	 0.335829270989711 
1488	 0.335959968256162 
1489	 0.336211061483776 
1490	 0.336476953073432 
1491	 0.336839446294828 
1492	 0.337302235468872 
1493	 0.337805775777843 
1494	 0.338361457045078 
1495	 0.338979316730037 
1496	 0.339665780342671 
1497	 0.340401488307135 
1498	 0.341242660545297 
1499	 0.342043307438942 
1500	 0.342872913104563 
1501	 0.343702843464758 
1502	 0.344551949624447 
1503	 0.345346721285325 
1504	 0.346168173255303 
1505	 0.346909450044509 
1506	 0.347563445418811 
1507	 0.348208896144756 
1508	 0.348814382037574 
1509	 0.349401186176676 
1510	 0.349959861537511 
1511	 0.350496069065167 
1512	 0.351020221595825 
1513	 0.351502492485785 
1514	 0.351964584680112 
1515	 0.352380485545403 
1516	 0.352733401582377 
1517	 0.353078300702416 
1518	 0.353402495883652 
1519	 0.353686350979362 
1520	 0.353932453851422 
1521	 0.354174986506532 
1522	 0.354374140636562 
1523	 0.354557133704803 
1524	 0.35469736209104 
1525	 0.354811826162241 
1526	 0.354914970425211 
1527	 0.354975288757943 
1528	 0.355042229315412 
1529	 0.355104085715495 
1530	 0.355168933843281 
1531	 0.355224409356578 
1532	 0.355263626818191 
1533	 0.355287936758672 
1534	 0.355357957970794 
1535	 0.355402321341564 
1536	 0.355524130860589 
1537	 0.355709159815895 
1538	 0.355909182056498 
1539	 0.35613901991456 
1540	 0.356393174966429 
1541	 0.356662569615673 
1542	 0.3570099486505 
1543	 0.357401622605556 
1544	 0.357827397399116 
1545	 0.358333367126394 
1546	 0.358825392317629 
1547	 0.359342122016276 
1548	 0.35984740001406 
1549	 0.360357228884315 
1550	 0.360891103274432 
1551	 0.361438226861103 
1552	 0.361969564445283 
1553	 0.362516459395567 
1554	 0.363062906910256 
1555	 0.363595562113542 
1556	 0.364126707185308 
1557	 0.364687736239278 
1558	 0.365206645945939 
1559	 0.365683835512587 
1560	 0.366178065435015 
1561	 0.366670801606906 
1562	 0.36715316628401 
1563	 0.367641675551391 
1564	 0.368103674104214 
1565	 0.368532537880707 
1566	 0.368983268237602 
1567	 0.369440306458393 
1568	 0.369876260302339 
1569	 0.370314990565934 
1570	 0.370741368921993 
1571	 0.371144398281078 
1572	 0.371544533113457 
1573	 0.371942168117818 
1574	 0.3723368108683 
1575	 0.37271234425037 
1576	 0.373099468840805 
1577	 0.373504493074463 
1578	 0.373887479417052 
1579	 0.374272095959564 
1580	 0.374630077518063 
1581	 0.37494346441245 
1582	 0.375292403885152 
1583	 0.375636264837647 
1584	 0.375997325753063 
1585	 0.376396666032853 
1586	 0.376775051206987 
1587	 0.37714306068445 
1588	 0.377517483527083 
1589	 0.377901715228999 
1590	 0.378267643610577 
1591	 0.378626876195629 
1592	 0.378984635111929 
1593	 0.379317885289155 
1594	 0.379670945389715 
1595	 0.380047002543865 
1596	 0.380400054433287 
1597	 0.3807448827979 
1598	 0.381093447828973 
1599	 0.381450582632336 
1600	 0.381774015912883 
1601	 0.382066243776006 
1602	 0.382386661128299 
1603	 0.382694549461815 
1604	 0.383004505467202 
1605	 0.383340622521487 
1606	 0.383669090230442 
1607	 0.383971487586477 
1608	 0.384296648017536 
1609	 0.384671825539283 
1610	 0.384996038672791 
1611	 0.385312096563192 
1612	 0.38559602432429 
1613	 0.385818473921071 
1614	 0.386063340368674 
1615	 0.386328592013739 
1616	 0.386543816495055 
1617	 0.386721913321399 
1618	 0.386919663429577 
1619	 0.387081070050407 
1620	 0.387258606616559 
1621	 0.38748561450898 
1622	 0.387670895630544 
1623	 0.387836266147181 
1624	 0.387984550973148 
1625	 0.38810964589186 
1626	 0.388223202694041 
1627	 0.388298350026596 
1628	 0.388401301424268 
1629	 0.388514786508471 
1630	 0.388618165559818 
1631	 0.388719235053001 
1632	 0.388836463368173 
1633	 0.388966054709306 
1634	 0.389075099014322 
1635	 0.389210792288284 
1636	 0.389305661377936 
1637	 0.389329266407509 
1638	 0.389398432626285 
1639	 0.389490464965784 
1640	 0.389558555524185 
1641	 0.389655666818593 
1642	 0.389710847332232 
1643	 0.389727004075371 
1644	 0.389727099203642 
1645	 0.389705371796707 
1646	 0.389672348170262 
1647	 0.389604932330092 
1648	 0.389545794232428 
1649	 0.389498191554197 
1650	 0.389414016815853 
1651	 0.389312739462129 
1652	 0.389203590737941 
1653	 0.389078652730391 
1654	 0.388928411252723 
1655	 0.3887762266766 
1656	 0.388573840902103 
1657	 0.38831915449326 
1658	 0.388057669710106 
1659	 0.387796299162517 
1660	 0.387467863536428 
1661	 0.387111213342674 
1662	 0.386704808454545 
1663	 0.386228521080247 
1664	 0.385715406568061 
1665	 0.385177959208081 
1666	 0.384557776623997 
1667	 0.383877740821079 
1668	 0.383150248450373 
1669	 0.382375952247058 
1670	 0.38151880433023 
1671	 0.380577597980474 
1672	 0.379584279048994 
1673	 0.378535536483516 
1674	 0.377401051500877 
1675	 0.376211843416883 
1676	 0.374953895610295 
1677	 0.373602527706028 
1678	 0.372203105049876 
1679	 0.37072213029175 
1680	 0.369206829251827 
1681	 0.367651988344573 
1682	 0.366000676735276 
1683	 0.364297258794077 
1684	 0.362547969296105 
1685	 0.360712925949676 
1686	 0.358835304032993 
1687	 0.35690326080351 
1688	 0.354917577010667 
1689	 0.352870661066014 
1690	 0.350749811124731 
1691	 0.3485613653855 
1692	 0.346394515796737 
1693	 0.344185865629776 
1694	 0.341947228558953 
1695	 0.339694511830695 
1696	 0.337403422387914 
1697	 0.335058892676135 
1698	 0.332654573532774 
1699	 0.330246267583238 
1700	 0.327819152972214 
1701	 0.325285571290588 
1702	 0.322868939974076 
1703	 0.320427288682959 
1704	 0.318113435087448 
1705	 0.315855551293178 
1706	 0.313656841557306 
1707	 0.311726481659821 
1708	 0.30986637762373 
1709	 0.308132998006299 
1710	 0.306590277916569 
1711	 0.30505658028994 
1712	 0.303665368498114 
1713	 0.302311399272164 
1714	 0.300981085683019 
1715	 0.299822923639074 
1716	 0.298651800665611 
1717	 0.29749430684733 
1718	 0.296409307138417 
1719	 0.295329036387734 
1720	 0.294275966934593 
1721	 0.293307087619571 
1722	 0.292428720839846 
1723	 0.291628256572369 
1724	 0.290956698688566 
1725	 0.29046365048774 
1726	 0.29017415351289 
1727	 0.290077323785189 
1728	 0.290102153210625 
1729	 0.290287954498779 
1730	 0.290630162375075 
1731	 0.291044832024118 
1732	 0.291747690740392 
1733	 0.292652548560768 
1734	 0.293586846607097 
1735	 0.294619512355993 
1736	 0.295637812732169 
1737	 0.296544767144624 
1738	 0.297438008939379 
1739	 0.298102459020256 
1740	 0.298618642555833 
1741	 0.298973232811039 
1742	 0.299082639353108 
1743	 0.299170949803905 
1744	 0.29914683703719 
1745	 0.29904222057967 
1746	 0.298826134524637 
1747	 0.29862606192639 
1748	 0.298281094296542 
1749	 0.29805174437523 
1750	 0.297864356151153 
1751	 0.297754025903954 
1752	 0.297685591186095 
1753	 0.297721108517554 
1754	 0.297814700305654 
1755	 0.29801908003587 
1756	 0.298318141286221 
1757	 0.298724710727038 
1758	 0.299277207629298 
1759	 0.299897653008766 
1760	 0.300656684827361 
1761	 0.301588145137877 
1762	 0.302547366811925 
1763	 0.303649205167605 
1764	 0.304812976536468 
1765	 0.306054504734192 
1766	 0.307525207384035 
1767	 0.309003166164499 
1768	 0.310575486455358 
1769	 0.312220169812887 
1770	 0.313684542420206 
1771	 0.315167416058839 
1772	 0.316560664029105 
1773	 0.317829393619452 
1774	 0.319126591442213 
1775	 0.32026928987018 
1776	 0.321423685868913 
1777	 0.322538181018106 
1778	 0.323492068080427 
1779	 0.324469948310345 
1780	 0.325330129003243 
1781	 0.326091882985919 
1782	 0.326915745897633 
1783	 0.327676830031538 
1784	 0.328385818136246 
1785	 0.329053689362623 
1786	 0.329660749159733 
1787	 0.330198877040111 
1788	 0.330738357950794 
1789	 0.331245168166217 
1790	 0.331731915569693 
1791	 0.332210567143124 
1792	 0.332665705048548 
1793	 0.33305719772938 
1794	 0.333485314470305 
1795	 0.333877807324756 
1796	 0.334235938138583 
1797	 0.334729142066836 
1798	 0.3352256774004 
1799	 0.335666615039967 
1800	 0.336127113263023 
1801	 0.332059962365565 
1802	 0.332448085707638 
1803	 0.332821321795093 
1804	 0.333109437034502 
1805	 0.333419812667114 
1806	 0.333763839811864 
1807	 0.334162013541091 
1808	 0.334523852674768 
1809	 0.334900550524478 
1810	 0.33523887161867 
1811	 0.335552681821993 
1812	 0.335870874479061 
1813	 0.336171102608035 
1814	 0.336461692736635 
1815	 0.336732781833644 
1816	 0.33709086821538 
1817	 0.337447321186361 
1818	 0.337827587173097 
1819	 0.338183056810775 
1820	 0.338551015387286 
1821	 0.338918317390016 
1822	 0.339233604748954 
1823	 0.339650024198392 
1824	 0.340043341036557 
1825	 0.340445969525089 
1826	 0.340843913398521 
1827	 0.34124284835653 
1828	 0.341610231239871 
1829	 0.341970096822758 
1830	 0.342322517043737 
1831	 0.342656626717839 
1832	 0.342990859303913 
1833	 0.343272601353439 
1834	 0.343575002807756 
1835	 0.343834272623246 
1836	 0.344038254575923 
1837	 0.344329532526867 
1838	 0.344701715429395 
1839	 0.344983902319603 
1840	 0.345267362310024 
1841	 0.345555228104386 
1842	 0.345817144608722 
1843	 0.346039893113103 
1844	 0.346278672991617 
1845	 0.346522632913953 
1846	 0.346732606160529 
1847	 0.346899141405142 
1848	 0.347048951073306 
1849	 0.347196085920373 
1850	 0.347293550467259 
1851	 0.347353762525316 
1852	 0.34739723892973 
1853	 0.347370921081975 
1854	 0.347304409815896 
1855	 0.347138546618321 
1856	 0.346889161916275 
1857	 0.34662682343614 
1858	 0.346334095326156 
1859	 0.346004632793096 
1860	 0.345656064930328 
1861	 0.345258265955857 
1862	 0.344828950104708 
1863	 0.344337862650873 
1864	 0.343781220082152 
1865	 0.3431776362997 
1866	 0.342496772976114 
1867	 0.341696751448365 
1868	 0.340881875853734 
1869	 0.339950677353939 
1870	 0.338943213108496 
1871	 0.337874233815123 
1872	 0.33674065835297 
1873	 0.335509803088576 
1874	 0.334265257379206 
1875	 0.332973882277177 
1876	 0.331478256168515 
1877	 0.330023725272571 
1878	 0.328417206977831 
1879	 0.326614742749843 
1880	 0.324921253762318 
1881	 0.323063398885485 
1882	 0.321052877325936 
1883	 0.318988591157933 
1884	 0.316937147499874 
1885	 0.314610847066419 
1886	 0.312270759117985 
1887	 0.309780281937319 
1888	 0.307064533325594 
1889	 0.304431155003344 
1890	 0.301630102602843 
1891	 0.298823352739896 
1892	 0.296034134063696 
1893	 0.29310886526066 
1894	 0.290018771394872 
1895	 0.287042972898299 
1896	 0.284012781116104 
1897	 0.280947048139239 
1898	 0.278130789613509 
1899	 0.275204060229369 
1900	 0.272303619433833 
1901	 0.269493658303982 
1902	 0.266507062087809 
1903	 0.263703671079435 
1904	 0.260945548984786 
1905	 0.258203845413671 
1906	 0.255496202113717 
1907	 0.253141815708312 
1908	 0.250783788208165 
1909	 0.248539372597142 
1910	 0.246441890727806 
1911	 0.244178569108379 
1912	 0.24205934330745 
1913	 0.240035047641257 
1914	 0.238036931630136 
1915	 0.236184048967961 
1916	 0.234528849677767 
1917	 0.232820322344669 
1918	 0.231152473912645 
1919	 0.229563151193107 
1920	 0.227881966479607 
1921	 0.226349941788126 
1922	 0.224856615387133 
1923	 0.223331383042407 
1924	 0.221980844538444 
1925	 0.220588745422248 
1926	 0.219237511269883 
1927	 0.217910023802838 
1928	 0.216646006542128 
1929	 0.215387042819326 
1930	 0.21425480453077 
1931	 0.213180853118058 
1932	 0.212137811732314 
1933	 0.211245869377903 
1934	 0.210422138379389 
1935	 0.209684105196156 
1936	 0.209110366685586 
1937	 0.208623865786794 
1938	 0.208251271042698 
1939	 0.207969513982578 
1940	 0.207789985167268 
1941	 0.207696666638374 
1942	 0.207712851445476 
1943	 0.207832546726171 
1944	 0.20804260554005 
1945	 0.208327241619839 
1946	 0.208706251145515 
1947	 0.209147764621567 
1948	 0.209670293136122 
1949	 0.210274273248207 
1950	 0.210935440509137 
1951	 0.211639403110739 
1952	 0.212460767458003 
1953	 0.213327474255951 
1954	 0.214365616162822 
1955	 0.215568980316799 
1956	 0.216804905844671 
1957	 0.218088546685213 
1958	 0.219377456493225 
1959	 0.220529894386128 
1960	 0.221639193932741 
1961	 0.222692950413315 
1962	 0.223666318250402 
1963	 0.224610059073018 
1964	 0.225552911085049 
1965	 0.22636618360085 
1966	 0.227118358633654 
1967	 0.227774244066955 
1968	 0.228296813078246 
1969	 0.228803750456227 
1970	 0.229304387884683 
1971	 0.229831398220719 
1972	 0.230452367936778 
1973	 0.231094447673164 
1974	 0.231742263303632 
1975	 0.232440549514566 
1976	 0.233120060382302 
1977	 0.23378252603086 
1978	 0.234483853908882 
1979	 0.235197393149846 
1980	 0.235940588093634 
1981	 0.236720611569148 
1982	 0.237461943001698 
1983	 0.23826361778445 
1984	 0.239124415808249 
1985	 0.239979997442463 
1986	 0.240895036422777 
1987	 0.241850913672871 
1988	 0.242781068309119 
1989	 0.24386114805755 
1990	 0.245019639903471 
1991	 0.246273457793638 
1992	 0.24762784456807 
1993	 0.249118740711667 
1994	 0.250579243384901 
1995	 0.252174756496933 
1996	 0.253776009346962 
1997	 0.255348221503817 
1998	 0.256991604722944 
1999	 0.258726441576072 
2000	 0.26034506062 
2001	 0.26204541762348 
2002	 0.263560475177872 
2003	 0.264937663599211 
2004	 0.266303015749794 
2005	 0.267559846845039 
2006	 0.268789715613608 
2007	 0.270016494187049 
2008	 0.271151778321347 
2009	 0.272200883856503 
2010	 0.273246152809041 
2011	 0.274144411832078 
2012	 0.274979091197458 
2013	 0.275722993294776 
2014	 0.276327946937295 
2015	 0.276942023053308 
2016	 0.277506505554411 
2017	 0.27801318154681 
2018	 0.278522646315125 
2019	 0.278915667683134 
2020	 0.279175608808776 
2021	 0.279440926291534 
2022	 0.279682763906635 
2023	 0.279848086000607 
2024	 0.280027560235746 
2025	 0.280135244723642 
2026	 0.280178527073787 
2027	 0.280128854856355 
2028	 0.280067155024102 
2029	 0.279937802557266 
2030	 0.279828975500267 
2031	 0.279687500439706 
2032	 0.279547030320007 
2033	 0.279404463501708 
2034	 0.279254500187009 
2035	 0.279079652852866 
2036	 0.278921704487629 
2037	 0.278770530406004 
2038	 0.278598790837457 
2039	 0.278430595836166 
2040	 0.278269328419648 
2041	 0.27806930162228 
2042	 0.277838694010762 
2043	 0.277635797007435 
2044	 0.277393318401948 
2045	 0.277210232487857 
2046	 0.277075424463017 
2047	 0.276939136933559 
2048	 0.276850264343738 
2049	 0.276717322597941 
2050	 0.276564970569606 
2051	 0.276419881874527 
2052	 0.276257262057822 
2053	 0.276117113562054 
2054	 0.275989270186898 
2055	 0.275897920377105 
2056	 0.275769052103344 
2057	 0.275632515481329 
2058	 0.275495490692067 
2059	 0.275343213238261 
2060	 0.275206536518203 
2061	 0.275077142024997 
2062	 0.274941518652616 
2063	 0.274812667577549 
2064	 0.274672924146376 
2065	 0.274515583383907 
2066	 0.274364279076258 
2067	 0.274241126130549 
2068	 0.274163969526818 
2069	 0.27408110430863 
2070	 0.274062102442499 
2071	 0.273962520877891 
2072	 0.273824250967899 
2073	 0.273688457335451 
2074	 0.273523768618498 
2075	 0.273364848205764 
2076	 0.273211483275498 
2077	 0.273046142377064 
2078	 0.2728555215188 
2079	 0.272675931680931 
2080	 0.272470477023587 
2081	 0.27230639183986 
2082	 0.272185239246781 
2083	 0.272059320464902 
2084	 0.271891653285549 
2085	 0.27175267043386 
2086	 0.271563257523587 
2087	 0.271300118435178 
2088	 0.271090344999369 
2089	 0.270904431650569 
2090	 0.270694027111637 
2091	 0.270502092566143 
2092	 0.270257252954487 
2093	 0.269952573150905 
2094	 0.269683440543041 
2095	 0.269418735556289 
2096	 0.269132302386084 
2097	 0.268867585513828 
2098	 0.268571852992667 
2099	 0.26821821826306 
2100	 0.267851488411942 
2101	 0.267510876535219 
2102	 0.267179732161943 
2103	 0.266828671432611 
2104	 0.266484503014567 
2105	 0.266122317182718 
2106	 0.265731771057992 
2107	 0.26534134592033 
2108	 0.264959817396125 
2109	 0.264558944067699 
2110	 0.264157927381045 
2111	 0.263724402356064 
2112	 0.26328008629926 
2113	 0.262785933897772 
2114	 0.26221726439694 
2115	 0.26168015803672 
2116	 0.261125954125729 
2117	 0.260584990596074 
2118	 0.26002284917457 
2119	 0.259486522116134 
2120	 0.258891774491707 
2121	 0.258219483001981 
2122	 0.257629585633592 
2123	 0.257046274106969 
2124	 0.256477370361214 
2125	 0.255956021523285 
2126	 0.255423301819141 
2127	 0.254875354003718 
2128	 0.254357644540196 
2129	 0.253864058128056 
2130	 0.253375197451861 
2131	 0.252906195833649 
2132	 0.252431736944627 
2133	 0.251931601658309 
2134	 0.251488097572911 
2135	 0.25106356032581 
2136	 0.250702197809585 
2137	 0.250302039074003 
2138	 0.249937009691438 
2139	 0.24954199970164 
2140	 0.24909482193932 
2141	 0.24870759721521 
2142	 0.248365474595194 
2143	 0.247994907278109 
2144	 0.247612706535169 
2145	 0.247266024681891 
2146	 0.246907879919332 
2147	 0.246601604263679 
2148	 0.246346969573273 
2149	 0.246092841889001 
2150	 0.245910193387971 
2151	 0.245659455659415 
2152	 0.245348987333578 
2153	 0.245096884153594 
2154	 0.244846664931049 
2155	 0.244564627197443 
2156	 0.244363925978854 
2157	 0.244238455074831 
2158	 0.244095375036319 
2159	 0.243997055400794 
2160	 0.243830710440286 
2161	 0.243654935832338 
2162	 0.243468486103838 
2163	 0.243219536334213 
2164	 0.243016556479209 
2165	 0.242867415742959 
2166	 0.24265391518521 
2167	 0.242389567040566 
2168	 0.242172771885518 
2169	 0.241937538015041 
2170	 0.241728886447868 
2171	 0.241583219331589 
2172	 0.241409734753876 
2173	 0.241247950010434 
2174	 0.241015881516032 
2175	 0.240851428791518 
2176	 0.240720635507051 
2177	 0.240590725436608 
2178	 0.240499845331138 
2179	 0.240392452010511 
2180	 0.240280420751151 
2181	 0.240164620917311 
2182	 0.240048905198571 
2183	 0.239950187693563 
2184	 0.239857071061941 
2185	 0.239760247318106 
2186	 0.239680133815714 
2187	 0.239588435339532 
2188	 0.239464496189228 
2189	 0.239371280585924 
2190	 0.239352768895706 
2191	 0.239237211176231 
2192	 0.239081389765718 
2193	 0.238921226719621 
2194	 0.238688259633502 
2195	 0.238464776695156 
2196	 0.238231240467377 
2197	 0.23801647641483 
2198	 0.237845678616056 
2199	 0.23764082407287 
2200	 0.237424481949162 
2201	 0.237245527285446 
2202	 0.237000636321095 
2203	 0.236690443589502 
2204	 0.236405982636922 
2205	 0.236128225015297 
2206	 0.235807571713096 
2207	 0.235441358144439 
2208	 0.235112452695326 
2209	 0.234781709447605 
2210	 0.234439403097278 
2211	 0.234079755777983 
2212	 0.233784786371333 
2213	 0.233485280771762 
2214	 0.23322438622198 
2215	 0.233063374832344 
2216	 0.232858992294051 
2217	 0.232652628509431 
2218	 0.232438196781031 
2219	 0.232192288052013 
2220	 0.231982866893155 
2221	 0.231768211381756 
2222	 0.231570062788155 
2223	 0.231475274687001 
2224	 0.231404842552769 
2225	 0.231271571292315 
2226	 0.231136663560082 
2227	 0.230968609503082 
2228	 0.23077178408146 
2229	 0.230483954083555 
2230	 0.230170575858932 
2231	 0.229789692936791 
2232	 0.229331079896748 
2233	 0.228770834367341 
2234	 0.228227701602311 
2235	 0.227453563051167 
2236	 0.226483258333598 
2237	 0.225449277262525 
2238	 0.224195588661507 
2239	 0.22300776785812 
2240	 0.221814245559639 
2241	 0.220501353956895 
2242	 0.219231176594904 
2243	 0.217741041317495 
2244	 0.216009302744226 
2245	 0.214287718526974 
2246	 0.212418680242563 
2247	 0.210548556869582 
2248	 0.208705311474941 
2249	 0.206735734874586 
2250	 0.204662656375185 
2251	 0.202560525417063 
2252	 0.200332342807317 
2253	 0.198173324725969 
2254	 0.195963461956631 
2255	 0.193733055917564 
2256	 0.191656014825051 
2257	 0.189554446298863 
2258	 0.187532125708213 
2259	 0.185662762783397 
2260	 0.183667446256533 
2261	 0.181600444329807 
2262	 0.179666310061938 
2263	 0.177688982233127 
2264	 0.175907405063652 
2265	 0.174313863028826 
2266	 0.172664409132666 
2267	 0.171137025964366 
2268	 0.169540554616261 
2269	 0.167883393935955 
2270	 0.166331710315033 
2271	 0.164808471758471 
2272	 0.163312515954553 
2273	 0.16190003098357 
2274	 0.160462808458889 
2275	 0.159071836197013 
2276	 0.157613528797095 
2277	 0.156128566645841 
2278	 0.1546491371597 
2279	 0.153102694683699 
2280	 0.151586662777661 
2281	 0.150114133285438 
2282	 0.148604092278438 
2283	 0.147101287792849 
2284	 0.145540354548767 
2285	 0.143957474369023 
2286	 0.142344159179736 
2287	 0.140609069120657 
2288	 0.138818599053886 
2289	 0.137022933674238 
2290	 0.135193175426975 
2291	 0.133473339309384 
2292	 0.131743365015911 
2293	 0.12989841297733 
2294	 0.128140493291554 
2295	 0.126332845613025 
2296	 0.124622431966067 
2297	 0.123143859087078 
2298	 0.121833731702155 
2299	 0.120663572078729 
2300	 0.119646432989995 
2301	 0.118888578923566 
2302	 0.118292291001822 
2303	 0.118004039584026 
2304	 0.118069544870913 
2305	 0.118200684104548 
2306	 0.11858167977849 
2307	 0.119030097175142 
2308	 0.119543093913592 
2309	 0.120322006813663 
2310	 0.121288875139908 
2311	 0.122446095044899 
2312	 0.124006725737231 
2313	 0.125396974224132 
2314	 0.12689730956683 
2315	 0.12834516375683 
2316	 0.129658342147345 
2317	 0.131097937192047 
2318	 0.132748029694109 
2319	 0.134118143167863 
2320	 0.135579403605572 
2321	 0.136666311889506 
2322	 0.137433680915611 
2323	 0.138082971312695 
2324	 0.138417774313287 
2325	 0.138748176951053 
2326	 0.138997955833032 
2327	 0.139069032586759 
2328	 0.139029352293708 
2329	 0.138872285466852 
2330	 0.138578639292836 
2331	 0.138062119170473 
2332	 0.137511740450982 
2333	 0.136775415870842 
2334	 0.135775156409505 
2335	 0.134781508024877 
2336	 0.133692564176746 
2337	 0.132478141741358 
2338	 0.131393522166628 
2339	 0.130337630151783 
2340	 0.129304086898624 
2341	 0.128252683604843 
2342	 0.127047212941339 
2343	 0.125971256444423 
2344	 0.125056090536755 
2345	 0.124335572407973 
2346	 0.123998846921297 
2347	 0.123883091556744 
2348	 0.123950614732131 
2349	 0.124282734673083 
2350	 0.124816167886239 
2351	 0.125447816117449 
2352	 0.126214579969251 
2353	 0.127264236424602 
2354	 0.128245647407379 
2355	 0.129248377623034 
2356	 0.130323528876928 
2357	 0.131164000515635 
2358	 0.131926646329918 
2359	 0.132595766226205 
2360	 0.133091759740439 
2361	 0.133465711833122 
2362	 0.133737121933515 
2363	 0.133886712880539 
2364	 0.133855817322937 
2365	 0.133682490604763 
2366	 0.133527730337959 
2367	 0.133346382206694 
2368	 0.133238773745505 
2369	 0.133154400062309 
2370	 0.132937634211634 
2371	 0.13277897170007 
2372	 0.132624085414127 
2373	 0.132362781435331 
2374	 0.132111184846794 
2375	 0.13188761018301 
2376	 0.131647908692206 
2377	 0.131534337836461 
2378	 0.131495194449306 
2379	 0.131428054075462 
2380	 0.131358276778369 
2381	 0.131356967863388 
2382	 0.13137440827544 
2383	 0.13141311858571 
2384	 0.131441286600328 
2385	 0.131547601055961 
2386	 0.13151099555129 
2387	 0.131398607666795 
2388	 0.13140338754947 
2389	 0.131364277483104 
2390	 0.131317079707297 
2391	 0.1313826333934 
2392	 0.131291830658283 
2393	 0.131090842175831 
2394	 0.130982948297063 
2395	 0.130811287077788 
2396	 0.13066733767876 
2397	 0.130557117461718 
2398	 0.130479793312033 
2399	 0.130428573192151 
2400	 0.130432617655388 
2401	 0.130532716116362 
2402	 0.130546906714165 
2403	 0.130464579902586 
2404	 0.130244214563984 
2405	 0.13015038408723 
2406	 0.130036862506754 
2407	 0.129709786989005 
2408	 0.129560242297987 
2409	 0.129387720986018 
2410	 0.129002055045517 
2411	 0.128866777614135 
2412	 0.12873022570332 
2413	 0.128503786555465 
2414	 0.128418982892416 
2415	 0.128340367986851 
2416	 0.128240300242753 
2417	 0.128151770367435 
2418	 0.128151780401546 
2419	 0.128171110076446 
2420	 0.128184551142164 
2421	 0.12827177156589 
2422	 0.128158389724758 
2423	 0.127959473716415 
2424	 0.127906000591214 
2425	 0.127715324921561 
2426	 0.127680385038993 
2427	 0.127739833848411 
2428	 0.127441230960576 
2429	 0.127122846518989 
2430	 0.12688243470833 
2431	 0.126651824345909 
2432	 0.126640757026386 
2433	 0.126834574452166 
2434	 0.12687903435122 
2435	 0.126569790360007 
2436	 0.126277241473249 
2437	 0.125808715776129 
2438	 0.125371078867656 
2439	 0.125382787120248 
2440	 0.125206200464611 
2441	 0.125075427257116 
2442	 0.125064981086369 
2443	 0.124963750736499 
2444	 0.124910795728733 
2445	 0.124812093770948 
2446	 0.124400247549046 
2447	 0.123595076436911 
2448	 0.12270786936192 
2449	 0.122071359768528 
2450	 0.121770213596536 
2451	 0.121690037140362 
2452	 0.122265745471686 
2453	 0.122479338123308 
2454	 0.122097394506474 
2455	 0.121841972886736 
2456	 0.121134098092187 
2457	 0.120649733096954 
2458	 0.120440056541335 
2459	 0.120112528404362 
2460	 0.119762563655701 
2461	 0.11909654584118 
2462	 0.118703908123251 
2463	 0.118464171513016 
2464	 0.117885840309598 
2465	 0.117505867217183 
2466	 0.117504758912392 
2467	 0.117687491873423 
2468	 0.118085662209563 
2469	 0.118496952035778 
2470	 0.118255758182155 
2471	 0.117416707195269 
2472	 0.116486715842009 
2473	 0.115711479881773 
2474	 0.115239320104716 
2475	 0.115196799782353 
2476	 0.115069986572998 
2477	 0.114703952097188 
2478	 0.114758368166936 
2479	 0.114816056743493 
2480	 0.115455925075867 
2481	 0.115764125698875 
2482	 0.115931107513789 
2483	 0.116130875865301 
2484	 0.115839044942146 
2485	 0.115755613012513 
2486	 0.115689490308946 
2487	 0.115230881042706 
2488	 0.115825583378375 
2489	 0.116465012290556 
2490	 0.116366101551697 
2491	 0.116063418197322 
2492	 0.115565679518885 
2493	 0.115901645689079 
2494	 0.116216284598644 
2495	 0.116607243647314 
2496	 0.117701227810856 
2497	 0.117866537087094 
2498	 0.117833651018238 
2499	 0.118682683782537 
2500	 0.118607667854044 
