Wavelength	Tablay400032.asd
350	 0.125128189804895 
351	 0.125731624206114 
352	 0.170598727198351 
353	 0.207789325602652 
354	 5.83218634820009E-02 
355	 6.64965519641937E-02 
356	 0.132623341156328 
357	 0.137985970552832 
358	 0.195601748271828 
359	 0.185577276545089 
360	 0.142990758940622 
361	 0.160012768114787 
362	 8.19594776906213E-02 
363	 5.93773952028207E-02 
364	 0.126755634957294 
365	 0.113514431118244 
366	 0.116102483617592 
367	 0.115337748374221 
368	 9.94344212537924E-02 
369	 0.178302079023811 
370	 0.14353466878228 
371	 5.84767156970874E-02 
372	 0.120526091283116 
373	 0.139649643257133 
374	 0.123322132289257 
375	 0.097709141387279 
376	 0.086568062328113 
377	 9.48288989788622E-02 
378	 0.119245954306945 
379	 0.135096415340502 
380	 6.35521099330172E-02 
381	 3.68676180066746E-02 
382	 7.59007794688293E-02 
383	 0.117475648819635 
384	 0.116600718938041 
385	 8.49635339796423E-02 
386	 5.65457097692946E-02 
387	 0.074570111213841 
388	 9.75845914784895E-02 
389	 0.102027343412103 
390	 8.47977444845922E-02 
391	 9.16895232700143E-02 
392	 9.75329467261159E-02 
393	 8.59629694885918E-02 
394	 5.25242016898014E-02 
395	 6.24857743042422E-02 
396	 7.34309386541616E-02 
397	 6.41822136983332E-02 
398	 7.01931957128434E-02 
399	 6.58233307527276E-02 
400	 6.31185589769013E-02 
401	 7.63494666771322E-02 
402	 9.07667459921717E-02 
403	 8.50078065540681E-02 
404	 7.15146910526383E-02 
405	 8.28388447965291E-02 
406	 8.94713385744888E-02 
407	 8.47008034228838E-02 
408	 7.24153105563075E-02 
409	 6.87495279047154E-02 
410	 0.068494082634728 
411	 7.47445571226269E-02 
412	 8.61370913872402E-02 
413	 6.96503121589593E-02 
414	 5.77797942124092E-02 
415	 5.98615932261647E-02 
416	 6.21560809031657E-02 
417	 6.40875687061567E-02 
418	 6.76443824177025E-02 
419	 0.071854643350798 
420	 0.067115949531774 
421	 6.17021889611377E-02 
422	 6.09933209535579E-02 
423	 0.066908214805839 
424	 6.75861120066003E-02 
425	 6.58948872514815E-02 
426	 6.35312638469777E-02 
427	 5.95577414746012E-02 
428	 5.90923484933247E-02 
429	 0.059046240253867 
430	 5.71085837823225E-02 
431	 5.94229275695094E-02 
432	 5.61469662319637E-02 
433	 5.18463398832246E-02 
434	 5.66457370007378E-02 
435	 5.68378933831019E-02 
436	 0.057146526929904 
437	 5.95097161695492E-02 
438	 5.88096476168734E-02 
439	 5.61933779920317E-02 
440	 5.50022538863338E-02 
441	 5.71155591658948E-02 
442	 5.60478133049902E-02 
443	 5.46903444698911E-02 
444	 5.44258236948131E-02 
445	 5.50142797804591E-02 
446	 0.05241705736113 
447	 5.21137954069229E-02 
448	 5.61934991531776E-02 
449	 5.70290411749567E-02 
450	 5.42598778891351E-02 
451	 5.24730111567351E-02 
452	 0.056148265396303 
453	 5.65638324935179E-02 
454	 5.46397209202153E-02 
455	 0.052417185403764 
456	 0.052298618611413 
457	 5.23373888676823E-02 
458	 5.26543618625726E-02 
459	 5.33583154561919E-02 
460	 5.32296178492625E-02 
461	 5.36128903584807E-02 
462	 5.37463116347969E-02 
463	 5.22818179872321E-02 
464	 5.31356709391346E-02 
465	 5.30609436548191E-02 
466	 5.13585780648367E-02 
467	 5.22826005172392E-02 
468	 0.051777093496536 
469	 5.15722133860034E-02 
470	 5.32418302110618E-02 
471	 0.050796262018276 
472	 5.07659500480133E-02 
473	 5.25886778538795E-02 
474	 5.05276567354907E-02 
475	 4.99119236175382E-02 
476	 4.99674661032824E-02 
477	 4.97789476729666E-02 
478	 5.03048335612088E-02 
479	 5.00458003221286E-02 
480	 4.97810973347482E-02 
481	 5.07118644478906E-02 
482	 5.10715147764863E-02 
483	 5.08715355174394E-02 
484	 0.050609883040853 
485	 5.11285253782142E-02 
486	 5.03640954994279E-02 
487	 0.04922645810768 
488	 4.88686920590867E-02 
489	 4.91961501963448E-02 
490	 4.85919112449155E-02 
491	 4.81408109997249E-02 
492	 4.98857833643364E-02 
493	 4.93044005948318E-02 
494	 4.88641525091539E-02 
495	 4.96193090637453E-02 
496	 4.89858507375211E-02 
497	 4.97897702070057E-02 
498	 5.02731578372801E-02 
499	 4.86468478063649E-02 
500	 4.92299764549481E-02 
501	 0.049726823566105 
502	 0.049516778444157 
503	 4.95642629693769E-02 
504	 4.86504976423069E-02 
505	 4.81072125893802E-02 
506	 4.87126586363274E-02 
507	 0.049094406056331 
508	 4.86637041802961E-02 
509	 4.81883012122983E-02 
510	 4.87022080064225E-02 
511	 4.83730164972879E-02 
512	 4.80650693431974E-02 
513	 4.81708849276656E-02 
514	 4.82127824443422E-02 
515	 4.81018538483094E-02 
516	 4.81334896892307E-02 
517	 4.84418514364745E-02 
518	 4.82254605899082E-02 
519	 4.81745548282981E-02 
520	 4.81516847053245E-02 
521	 0.047589086011548 
522	 4.80303226218608E-02 
523	 4.85256666643065E-02 
524	 4.84413125831708E-02 
525	 4.84149304401272E-02 
526	 4.82412617002861E-02 
527	 4.79487251315672E-02 
528	 4.77535954663006E-02 
529	 4.85927381935087E-02 
530	 4.86431361146813E-02 
531	 4.78852270673081E-02 
532	 0.048261879955579 
533	 4.82865071182321E-02 
534	 4.82732259952849E-02 
535	 4.85767878819486E-02 
536	 4.86250123699197E-02 
537	 4.83253000701935E-02 
538	 4.81713514147237E-02 
539	 4.87856501171524E-02 
540	 4.89181269275634E-02 
541	 4.86748055225711E-02 
542	 4.84004944165647E-02 
543	 4.85535728969531E-02 
544	 4.87388713104763E-02 
545	 4.88535875641164E-02 
546	 4.88935793642448E-02 
547	 0.048871128524633 
548	 4.89238556679969E-02 
549	 4.90793071082989E-02 
550	 4.92576926113927E-02 
551	 4.93179790812476E-02 
552	 0.049229360776715 
553	 4.91240801324114E-02 
554	 4.95324422561563E-02 
555	 4.96025487768324E-02 
556	 4.94597742944691E-02 
557	 4.96141129852001E-02 
558	 0.049644612605306 
559	 4.96332211301732E-02 
560	 4.97213895251013E-02 
561	 5.00779261695206E-02 
562	 0.049960483150672 
563	 4.98818376291572E-02 
564	 5.03401961794895E-02 
565	 5.04271598057795E-02 
566	 5.05408922481638E-02 
567	 5.07376875904107E-02 
568	 5.08330431059838E-02 
569	 5.12113080470538E-02 
570	 5.11832111531305E-02 
571	 5.06062168921825E-02 
572	 5.08085988202303E-02 
573	 5.10049001005817E-02 
574	 5.11367796421059E-02 
575	 5.13291377917351E-02 
576	 5.12251048628728E-02 
577	 5.11611605521983E-02 
578	 5.12898908198573E-02 
579	 5.15029173199865E-02 
580	 5.17132466319745E-02 
581	 5.17951889070966E-02 
582	 5.17413100977071E-02 
583	 5.18722711483448E-02 
584	 5.22870759790347E-02 
585	 5.26133978629638E-02 
586	 0.052326222776309 
587	 5.22249741872381E-02 
588	 5.23270922197594E-02 
589	 0.052499006272289 
590	 5.25274049981407E-02 
591	 5.26003406441594E-02 
592	 5.27038005304365E-02 
593	 5.27886337325275E-02 
594	 5.29369054343871E-02 
595	 5.30358049085264E-02 
596	 5.30387119079466E-02 
597	 5.29744621704333E-02 
598	 5.30631699122292E-02 
599	 5.31401168031932E-02 
600	 5.31086920334841E-02 
601	 5.32052650120573E-02 
602	 5.33276482005401E-02 
603	 5.34609372722541E-02 
604	 5.36037580021912E-02 
605	 0.053612106028456 
606	 5.36569624303106E-02 
607	 5.38058209756003E-02 
608	 0.053967666164133 
609	 5.38757253867032E-02 
610	 5.37563014192929E-02 
611	 5.38319179720282E-02 
612	 5.38778428614492E-02 
613	 5.38719600907044E-02 
614	 5.39096310083381E-02 
615	 5.41136570079877E-02 
616	 5.40584357441439E-02 
617	 5.39463686135062E-02 
618	 0.053912664363514 
619	 5.38058230439924E-02 
620	 5.39712505353475E-02 
621	 5.41620694688249E-02 
622	 5.40990789755448E-02 
623	 5.43825567557181E-02 
624	 5.45373139768544E-02 
625	 5.44799883934774E-02 
626	 5.45197813085431E-02 
627	 5.45103561212512E-02 
628	 5.45127409124037E-02 
629	 5.45703481942267E-02 
630	 5.45923737720771E-02 
631	 0.054683557659631 
632	 5.47853278931481E-02 
633	 5.47850939332749E-02 
634	 5.47378149607846E-02 
635	 5.47244086039083E-02 
636	 5.47570640912472E-02 
637	 5.47614448006981E-02 
638	 5.46434224706883E-02 
639	 5.46654233732489E-02 
640	 5.49718877399389E-02 
641	 5.50583096872967E-02 
642	 0.055066798599017 
643	 5.50664073525126E-02 
644	 5.50789771055502E-02 
645	 5.50857991572553E-02 
646	 0.055157580644496 
647	 5.52513009846927E-02 
648	 5.51142516542977E-02 
649	 5.51414578423082E-02 
650	 5.53026254783295E-02 
651	 5.54382401406269E-02 
652	 5.54578646282739E-02 
653	 5.54821212386522E-02 
654	 5.55020963555049E-02 
655	 5.54196972542735E-02 
656	 0.055505285212464 
657	 5.55593917990674E-02 
658	 5.54831347133224E-02 
659	 5.55542391036848E-02 
660	 5.55727962831991E-02 
661	 0.055566377289866 
662	 5.56177160043079E-02 
663	 5.56222553467926E-02 
664	 5.57714312767661E-02 
665	 5.59826966840669E-02 
666	 5.59081303962878E-02 
667	 5.58889886570974E-02 
668	 5.59709744844008E-02 
669	 5.60880315444788E-02 
670	 5.60467803549643E-02 
671	 5.59854146945964E-02 
672	 0.055962238474398 
673	 5.59921237920962E-02 
674	 0.056060039629566 
675	 5.60813475441884E-02 
676	 5.60813677438932E-02 
677	 5.62169815426492E-02 
678	 5.62099664820883E-02 
679	 5.61636924220622E-02 
680	 5.62018820927316E-02 
681	 5.62213570350048E-02 
682	 5.62651214570578E-02 
683	 5.63830420328604E-02 
684	 5.65839442093643E-02 
685	 0.056529675666045 
686	 5.64829069885358E-02 
687	 0.056556355670026 
688	 5.65648455845951E-02 
689	 5.65805656197688E-02 
690	 5.66492686399617E-02 
691	 5.67602573896126E-02 
692	 5.67284467815077E-02 
693	 5.66932368239074E-02 
694	 5.67534375438027E-02 
695	 5.69404004555261E-02 
696	 5.69679692999688E-02 
697	 5.69559052845076E-02 
698	 5.69738675527017E-02 
699	 5.69251485358782E-02 
700	 5.70616322799868E-02 
701	 5.72137440385414E-02 
702	 5.71915897659684E-02 
703	 5.72089190389108E-02 
704	 5.72502992268865E-02 
705	 5.73156500081139E-02 
706	 5.74135744282108E-02 
707	 5.75408660699635E-02 
708	 5.75844185079232E-02 
709	 5.75327638550854E-02 
710	 5.75597923258921E-02 
711	 5.75913019825848E-02 
712	 5.76436992358402E-02 
713	 5.77309884737325E-02 
714	 5.77647672194764E-02 
715	 5.77977224352955E-02 
716	 5.78563362697926E-02 
717	 5.79412316660062E-02 
718	 5.80226350923286E-02 
719	 5.81075660749195E-02 
720	 5.81657010258805E-02 
721	 0.058082162405959 
722	 5.82248230350091E-02 
723	 5.83844462888707E-02 
724	 5.83200478011409E-02 
725	 5.84017797711835E-02 
726	 5.85316340480363E-02 
727	 5.86033257460868E-02 
728	 5.85476110879533E-02 
729	 0.058670233668951 
730	 0.058740176987386 
731	 5.86994208895116E-02 
732	 5.88923997022687E-02 
733	 5.89461973231964E-02 
734	 5.89343430723348E-02 
735	 5.90077807087784E-02 
736	 5.90980284257333E-02 
737	 5.91408117478024E-02 
738	 5.91711268489707E-02 
739	 5.92768156622364E-02 
740	 5.93813726433929E-02 
741	 5.94550585703891E-02 
742	 5.94946826152368E-02 
743	 5.95264558915602E-02 
744	 5.95716620965005E-02 
745	 5.96475580264278E-02 
746	 5.97539195236439E-02 
747	 5.98548340589158E-02 
748	 5.98848006146791E-02 
749	 5.98968940657834E-02 
750	 5.99962510245308E-02 
751	 6.01139238959885E-02 
752	 6.01764930525812E-02 
753	 6.02070970079858E-02 
754	 6.03472118132376E-02 
755	 6.04024173820229E-02 
756	 6.04405138350584E-02 
757	 6.05503079558923E-02 
758	 6.07234951192473E-02 
759	 6.06891085863728E-02 
760	 6.06157535229588E-02 
761	 6.08017724642915E-02 
762	 6.09178459865157E-02 
763	 6.09443438761948E-02 
764	 6.09339234867807E-02 
765	 6.09869732590079E-02 
766	 0.061108329665324 
767	 6.12145959812368E-02 
768	 6.12650544699749E-02 
769	 6.13632571881273E-02 
770	 6.13940170724863E-02 
771	 6.14593617385473E-02 
772	 6.16583992250467E-02 
773	 6.16770780888451E-02 
774	 6.17020426105546E-02 
775	 6.18002794288131E-02 
776	 0.061914961090628 
777	 6.19615695288261E-02 
778	 6.19849468560716E-02 
779	 6.20312026146054E-02 
780	 6.21125857386332E-02 
781	 6.21768823015693E-02 
782	 6.22434212593425E-02 
783	 6.23326549375817E-02 
784	 6.23950717573507E-02 
785	 6.24266031363391E-02 
786	 6.24776684750663E-02 
787	 6.26059932440995E-02 
788	 6.26859598240317E-02 
789	 6.27594249211752E-02 
790	 6.28027450191677E-02 
791	 6.27110037692599E-02 
792	 6.28068269284425E-02 
793	 6.29683515297985E-02 
794	 6.30593618101478E-02 
795	 6.31570283219814E-02 
796	 6.31382233325299E-02 
797	 6.31046279237843E-02 
798	 6.31895005946081E-02 
799	 6.32319360067889E-02 
800	 6.33635415426639E-02 
801	 6.35155889983691E-02 
802	 0.063492801027506 
803	 6.35320174669737E-02 
804	 6.36255727618422E-02 
805	 6.37129349887144E-02 
806	 0.06370910166906 
807	 6.37713092281499E-02 
808	 6.38948572453093E-02 
809	 0.064009989179711 
810	 6.39820304533449E-02 
811	 0.064016959252202 
812	 6.41050716393958E-02 
813	 6.41620800319931E-02 
814	 0.064304826872219 
815	 6.43663618221295E-02 
816	 6.43673747625148E-02 
817	 0.064488116059229 
818	 6.45782506869509E-02 
819	 6.46039566255328E-02 
820	 6.46241272592691E-02 
821	 0.064816704112962 
822	 6.48456431232545E-02 
823	 6.47976334377321E-02 
824	 6.48284394652194E-02 
825	 6.49342146184446E-02 
826	 6.49908282722505E-02 
827	 6.50050999845533E-02 
828	 6.50433820889725E-02 
829	 6.50982281268532E-02 
830	 6.52147344175226E-02 
831	 6.53577274815714E-02 
832	 6.54260502715058E-02 
833	 6.54072429940883E-02 
834	 6.53652799414193E-02 
835	 6.54026319363954E-02 
836	 6.56527268172281E-02 
837	 6.57642351810972E-02 
838	 6.57928978041911E-02 
839	 6.58544265256575E-02 
840	 6.59103759036226E-02 
841	 0.06602751389998 
842	 0.066094657459789 
843	 6.60117391009812E-02 
844	 6.60856776597969E-02 
845	 6.62280356230392E-02 
846	 6.63389490270989E-02 
847	 6.63467141800638E-02 
848	 6.63740253710684E-02 
849	 6.64034247700039E-02 
850	 6.64657236138213E-02 
851	 6.66571346483797E-02 
852	 6.67040824496024E-02 
853	 6.67121529653182E-02 
854	 6.67850726606802E-02 
855	 6.68463649456968E-02 
856	 6.69248062654856E-02 
857	 6.69988417218227E-02 
858	 6.70523215617083E-02 
859	 0.067146366902511 
860	 6.71947981685568E-02 
861	 6.72184390027614E-02 
862	 6.72739901544018E-02 
863	 6.72573074047682E-02 
864	 6.73314972654881E-02 
865	 6.74612211938161E-02 
866	 6.74573552651155E-02 
867	 6.75330716657652E-02 
868	 6.76348741397483E-02 
869	 6.76989821015249E-02 
870	 6.77035096388721E-02 
871	 6.77645971146472E-02 
872	 6.78784454082657E-02 
873	 6.80096521645091E-02 
874	 6.81248808499538E-02 
875	 6.81903084498594E-02 
876	 6.82405588199444E-02 
877	 6.82897808788008E-02 
878	 6.81624242575175E-02 
879	 6.83303189092837E-02 
880	 6.85146153252448E-02 
881	 6.82874187331997E-02 
882	 0.068547534714586 
883	 0.068805662358431 
884	 6.88648354397497E-02 
885	 6.88412914474361E-02 
886	 6.89310537433297E-02 
887	 6.90086237046015E-02 
888	 6.90375700436114E-02 
889	 6.91194675266177E-02 
890	 6.91292907456165E-02 
891	 6.91968186466106E-02 
892	 6.93444019835152E-02 
893	 6.93440400585697E-02 
894	 6.94129654618788E-02 
895	 6.94675798678564E-02 
896	 6.94669200305376E-02 
897	 6.96855492538295E-02 
898	 0.069807349253349 
899	 6.98625323774873E-02 
900	 6.99662723114909E-02 
901	 7.00762459209844E-02 
902	 7.00817215655655E-02 
903	 0.070079318787388 
904	 7.02164053647644E-02 
905	 7.03094237826616E-02 
906	 0.070433835405834 
907	 0.070525359987201 
908	 7.04622646550692E-02 
909	 7.05148403045661E-02 
910	 7.06446694328861E-02 
911	 7.07798381673186E-02 
912	 7.08666187689412E-02 
913	 7.10860394378551E-02 
914	 7.11694180183814E-02 
915	 7.10840509425817E-02 
916	 7.11851808958043E-02 
917	 7.12705421886511E-02 
918	 7.13151261702695E-02 
919	 7.13712498579235E-02 
920	 7.15652254538259E-02 
921	 0.071705613956292 
922	 7.17750012507328E-02 
923	 7.18509692456924E-02 
924	 7.21287512060521E-02 
925	 7.22817488948042E-02 
926	 7.22872240830051E-02 
927	 7.22791647100111E-02 
928	 7.25356452188921E-02 
929	 7.26790149119703E-02 
930	 7.27580541458211E-02 
931	 7.29173291641664E-02 
932	 7.28496844048874E-02 
933	 7.28946467506165E-02 
934	 7.30958091718342E-02 
935	 7.32838156224818E-02 
936	 7.31746272979239E-02 
937	 7.32557801307023E-02 
938	 7.34933961446416E-02 
939	 0.073529834686329 
940	 7.36557308502497E-02 
941	 7.38688116160573E-02 
942	 0.074018385360423 
943	 7.39349033967857E-02 
944	 7.42059226298932E-02 
945	 7.43755392133307E-02 
946	 0.07428172310187 
947	 0.074224271357467 
948	 7.46036097002232E-02 
949	 0.074906519732339 
950	 7.49985034187085E-02 
951	 0.075340985646898 
952	 7.52488086565378E-02 
953	 7.52305145322047E-02 
954	 7.55128969556308E-02 
955	 7.56173892718275E-02 
956	 7.58350789427882E-02 
957	 7.58196169101575E-02 
958	 7.55839557306952E-02 
959	 7.59117367157716E-02 
960	 0.076140541674624 
961	 7.63654503927683E-02 
962	 7.66346540205314E-02 
963	 7.65716528711152E-02 
964	 7.66476346010307E-02 
965	 7.68030899559694E-02 
966	 7.68953795080369E-02 
967	 0.076932814557155 
968	 7.68624555974612E-02 
969	 0.07700435636775 
970	 7.74684622950383E-02 
971	 7.76058331657833E-02 
972	 7.77988367341742E-02 
973	 7.78103623127299E-02 
974	 7.75384735685829E-02 
975	 7.77136696287989E-02 
976	 7.81657517093342E-02 
977	 7.84560405179168E-02 
978	 7.83646843322074E-02 
979	 7.86001992445101E-02 
980	 7.88466206582833E-02 
981	 0.078877416424866 
982	 7.87067895148719E-02 
983	 0.078995967719493 
984	 7.92556382776535E-02 
985	 0.079387955630081 
986	 7.94819893057028E-02 
987	 7.97367278837535E-02 
988	 8.00558617122958E-02 
989	 8.02438407195075E-02 
990	 8.01621651677046E-02 
991	 7.99284534463061E-02 
992	 8.00513535733906E-02 
993	 8.02840425996415E-02 
994	 8.02787101871636E-02 
995	 8.04154953661102E-02 
996	 8.02851602201208E-02 
997	 8.04778525581308E-02 
998	 8.13374415118315E-02 
999	 8.12525466666661E-02 
1000	 8.11626780733324E-02 
1001	 8.10502698471268E-02 
1002	 8.11202473185438E-02 
1003	 8.12303617788876E-02 
1004	 8.14421096388813E-02 
1005	 8.18564021286025E-02 
1006	 8.21821437154787E-02 
1007	 8.25852088192959E-02 
1008	 8.27823971343695E-02 
1009	 0.082915974478014 
1010	 8.30160075371681E-02 
1011	 8.29034723959578E-02 
1012	 8.29457284223374E-02 
1013	 8.29803667073516E-02 
1014	 8.31714556054033E-02 
1015	 8.35486369985551E-02 
1016	 8.38499097730357E-02 
1017	 0.084009229171999 
1018	 8.41050618499331E-02 
1019	 8.40257391806153E-02 
1020	 8.38106557202182E-02 
1021	 8.38855122590902E-02 
1022	 0.084193173812126 
1023	 8.43640377700242E-02 
1024	 8.46357011915962E-02 
1025	 8.48282467630078E-02 
1026	 8.48867928296663E-02 
1027	 8.50412595615482E-02 
1028	 0.085205047692133 
1029	 8.54705647877724E-02 
1030	 8.57203908516445E-02 
1031	 8.58423456015871E-02 
1032	 8.58949149498797E-02 
1033	 8.58406193130873E-02 
1034	 8.58950462584302E-02 
1035	 8.60368315428447E-02 
1036	 8.61025466959884E-02 
1037	 8.61942684185704E-02 
1038	 0.086355463408634 
1039	 8.64639625465934E-02 
1040	 8.66017035365957E-02 
1041	 8.69172163811259E-02 
1042	 8.70698675560095E-02 
1043	 0.087023836046721 
1044	 8.71872918374252E-02 
1045	 8.74493788640162E-02 
1046	 8.76753564048463E-02 
1047	 8.80446547137911E-02 
1048	 8.82493822987447E-02 
1049	 8.83838703554962E-02 
1050	 8.85552366829441E-02 
1051	 8.86474055946743E-02 
1052	 8.87661150003139E-02 
1053	 8.88791770280929E-02 
1054	 8.89410543776324E-02 
1055	 8.90633928374257E-02 
1056	 8.92098440145011E-02 
1057	 8.93558076969656E-02 
1058	 8.94997587675503E-02 
1059	 8.97247582957503E-02 
1060	 9.00005581090554E-02 
1061	 9.02856832187793E-02 
1062	 9.04432714045257E-02 
1063	 9.05327255453149E-02 
1064	 9.05905134493698E-02 
1065	 9.06975449529008E-02 
1066	 9.08491020262771E-02 
1067	 9.10813031214732E-02 
1068	 9.13270197793885E-02 
1069	 9.13529872727166E-02 
1070	 9.14347835125229E-02 
1071	 9.15348920086909E-02 
1072	 9.16211600137657E-02 
1073	 9.16753197603143E-02 
1074	 9.19514020632602E-02 
1075	 9.22957200369669E-02 
1076	 9.25363215116845E-02 
1077	 9.26612458614314E-02 
1078	 9.27696896273274E-02 
1079	 9.27522254851396E-02 
1080	 9.27908757416843E-02 
1081	 9.31263543392607E-02 
1082	 9.33777451045943E-02 
1083	 9.34822663439591E-02 
1084	 9.35828515347729E-02 
1085	 9.36976246349924E-02 
1086	 9.38240671385747E-02 
1087	 9.39132270708803E-02 
1088	 9.41206950650853E-02 
1089	 9.43983765087029E-02 
1090	 0.094473046729399 
1091	 0.094511175489423 
1092	 0.094610449447103 
1093	 0.094656469212621 
1094	 9.48249791593106E-02 
1095	 0.095065947680038 
1096	 9.53307852679763E-02 
1097	 9.56545164297729E-02 
1098	 9.59096187511189E-02 
1099	 9.60672496672993E-02 
1100	 9.61308228984982E-02 
1101	 9.62267109244747E-02 
1102	 9.63448646030359E-02 
1103	 9.64478679381431E-02 
1104	 9.65320494840332E-02 
1105	 0.096734724010537 
1106	 0.096963042332669 
1107	 0.09706586453922 
1108	 9.71887868273083E-02 
1109	 9.73937562280097E-02 
1110	 0.097453019221209 
1111	 9.75868049561331E-02 
1112	 9.78629460414224E-02 
1113	 9.79642997490083E-02 
1114	 9.80646899864441E-02 
1115	 9.82137320791237E-02 
1116	 9.82939531809111E-02 
1117	 9.84946127328449E-02 
1118	 9.86836534740462E-02 
1119	 9.89072428468779E-02 
1120	 0.09907038801759 
1121	 9.92232720296355E-02 
1122	 9.93914935264477E-02 
1123	 9.94866426414473E-02 
1124	 9.97080573570848E-02 
1125	 9.99418705452687E-02 
1126	 0.100073757863617 
1127	 0.100221217929757 
1128	 0.100370552818896 
1129	 0.100519822193429 
1130	 0.100631971768581 
1131	 0.100750425736535 
1132	 0.100904305572702 
1133	 0.101069194456694 
1134	 0.10129702186448 
1135	 0.101441391935274 
1136	 0.101518712499431 
1137	 0.101658429557563 
1138	 0.101803596946007 
1139	 0.101916322589024 
1140	 0.102026555474933 
1141	 0.102227394394996 
1142	 0.102375473650664 
1143	 0.102391323999459 
1144	 0.10248859529546 
1145	 0.102685919784727 
1146	 0.102866712069603 
1147	 0.10306373273194 
1148	 0.103266429354255 
1149	 0.103412565057397 
1150	 0.103540230106722 
1151	 0.10370714169509 
1152	 0.103853496592649 
1153	 0.104008858185927 
1154	 0.104164188482206 
1155	 0.104289359278806 
1156	 0.104435825102881 
1157	 0.104642651631253 
1158	 0.104796469095084 
1159	 0.104928234385396 
1160	 0.105041120026456 
1161	 0.105153777761025 
1162	 0.105249393345948 
1163	 0.105346096323925 
1164	 0.105507949740352 
1165	 0.105713979837649 
1166	 0.105900747908901 
1167	 0.106096594600168 
1168	 0.106282765975131 
1169	 0.106413193243639 
1170	 0.106463467262974 
1171	 0.106575957886566 
1172	 0.106667955287875 
1173	 0.106787425351468 
1174	 0.106931720012041 
1175	 0.107090117667502 
1176	 0.107262002539217 
1177	 0.107446999517495 
1178	 0.107672160007472 
1179	 0.107888874633082 
1180	 0.10804572919925 
1181	 0.108204368800463 
1182	 0.108263914515095 
1183	 0.108290528690152 
1184	 0.108411455520564 
1185	 0.108525725698215 
1186	 0.108684223962588 
1187	 0.108939713661178 
1188	 0.109127161815708 
1189	 0.109302796274606 
1190	 0.109469567514314 
1191	 0.109616595477407 
1192	 0.109773971759506 
1193	 0.109924338453141 
1194	 0.110068695860261 
1195	 0.110210877459032 
1196	 0.110370698786787 
1197	 0.110506894456247 
1198	 0.110703344029678 
1199	 0.110938560994519 
1200	 0.11108881420386 
1201	 0.111223885025993 
1202	 0.111305991135562 
1203	 0.111397915323787 
1204	 0.111535461726912 
1205	 0.111689398338353 
1206	 0.111900925776439 
1207	 0.112094889979035 
1208	 0.11230015997287 
1209	 0.112491804853846 
1210	 0.112680275363803 
1211	 0.11286369317911 
1212	 0.113026797440314 
1213	 0.113208586428075 
1214	 0.113402861457064 
1215	 0.113605432996222 
1216	 0.113846660016139 
1217	 0.1140447665278 
1218	 0.114195714840078 
1219	 0.114393187170786 
1220	 0.114622773275061 
1221	 0.114767771073516 
1222	 0.11496956367687 
1223	 0.115217202165116 
1224	 0.115420311555902 
1225	 0.115600787855185 
1226	 0.115780775389603 
1227	 0.115933501897302 
1228	 0.116124193554065 
1229	 0.116340311522854 
1230	 0.116533531474408 
1231	 0.116735854237524 
1232	 0.116940771306573 
1233	 0.117123346526095 
1234	 0.117309881356295 
1235	 0.117524111966339 
1236	 0.117715502748513 
1237	 0.117870426034672 
1238	 0.118051809860387 
1239	 0.11822079196133 
1240	 0.118442646282591 
1241	 0.118649934884918 
1242	 0.118837715885108 
1243	 0.11905270676801 
1244	 0.119293065940803 
1245	 0.119476601447252 
1246	 0.119652743198708 
1247	 0.119811528349161 
1248	 0.1198786356695 
1249	 0.120066191759439 
1250	 0.120340046767581 
1251	 0.120552196888839 
1252	 0.120802631486831 
1253	 0.121013005845723 
1254	 0.121155249003632 
1255	 0.121329817117283 
1256	 0.121527026112119 
1257	 0.121708944721758 
1258	 0.121893540567058 
1259	 0.122054981829914 
1260	 0.122156472850441 
1261	 0.122326885089052 
1262	 0.122513018786703 
1263	 0.122723642451102 
1264	 0.122939580998606 
1265	 0.123224835565375 
1266	 0.123435841735157 
1267	 0.123603093658327 
1268	 0.123794378961487 
1269	 0.123988496223518 
1270	 0.124168637637801 
1271	 0.124329449675964 
1272	 0.124523784734478 
1273	 0.12474162093579 
1274	 0.124918771769169 
1275	 0.125062449580202 
1276	 0.125270739247383 
1277	 0.125493093146688 
1278	 0.125701792925156 
1279	 0.12596115402081 
1280	 0.126206629141405 
1281	 0.126420690523417 
1282	 0.126633644598198 
1283	 0.126881912540929 
1284	 0.12709783669636 
1285	 0.127291415246685 
1286	 0.127432637509208 
1287	 0.127634838619344 
1288	 0.12786185861314 
1289	 0.128045711997041 
1290	 0.128227255532922 
1291	 0.128419547573254 
1292	 0.128570952052327 
1293	 0.128769778721065 
1294	 0.1290432262899 
1295	 0.129234563928073 
1296	 0.129372109659458 
1297	 0.129559713119624 
1298	 0.129726854488817 
1299	 0.129921394381667 
1300	 0.130181855890338 
1301	 0.130395761771053 
1302	 0.130585212393116 
1303	 0.130778528111602 
1304	 0.130956747866471 
1305	 0.131141980133358 
1306	 0.131342784274619 
1307	 0.131521532232892 
1308	 0.131676163045266 
1309	 0.131848034085152 
1310	 0.132018669604243 
1311	 0.132165337443364 
1312	 0.132362388500107 
1313	 0.132601458037578 
1314	 0.132800282271692 
1315	 0.133020767577197 
1316	 0.133190535522558 
1317	 0.133293480176264 
1318	 0.133467455541845 
1319	 0.13364273866643 
1320	 0.133842135935903 
1321	 0.134112935464975 
1322	 0.134317481981533 
1323	 0.134499526571583 
1324	 0.134675300165086 
1325	 0.134792149446952 
1326	 0.134971966818457 
1327	 0.135194369130034 
1328	 0.135389674754594 
1329	 0.13560901550256 
1330	 0.135810028430127 
1331	 0.135985577768199 
1332	 0.136157541790655 
1333	 0.136323277357579 
1334	 0.136488684809748 
1335	 0.13667107864823 
1336	 0.136842283026671 
1337	 0.137044854818363 
1338	 0.137288036368968 
1339	 0.137487366505615 
1340	 0.137687431705744 
1341	 0.137860144430696 
1342	 0.137989806146249 
1343	 0.138163235526986 
1344	 0.138347348896791 
1345	 0.138523072825184 
1346	 0.138710663596805 
1347	 0.138899873047595 
1348	 0.139085838901606 
1349	 0.139262010460062 
1350	 0.139426110780175 
1351	 0.139625012206416 
1352	 0.139843161527302 
1353	 0.140037018254634 
1354	 0.14025893431787 
1355	 0.140456207242793 
1356	 0.14060598642398 
1357	 0.140775012342334 
1358	 0.140962858623134 
1359	 0.141135671150667 
1360	 0.141278668812577 
1361	 0.141463543125798 
1362	 0.141629531606569 
1363	 0.141763741899371 
1364	 0.14195806945649 
1365	 0.142193494864848 
1366	 0.142355057829399 
1367	 0.142511151324153 
1368	 0.142679114025589 
1369	 0.142794335787576 
1370	 0.142963426776026 
1371	 0.143206025679196 
1372	 0.143371385565492 
1373	 0.143498948292337 
1374	 0.143641594032128 
1375	 0.143759766158843 
1376	 0.143899744971442 
1377	 0.144050375570081 
1378	 0.144207728465009 
1379	 0.144396272999904 
1380	 0.144540980191636 
1381	 0.144669296987976 
1382	 0.144800671965417 
1383	 0.144887771287067 
1384	 0.145005944155642 
1385	 0.145170822835343 
1386	 0.145295052967495 
1387	 0.145385143184177 
1388	 0.145510274169941 
1389	 0.14563938421549 
1390	 0.145758411388717 
1391	 0.145905255596724 
1392	 0.146028181209558 
1393	 0.146154880699931 
1394	 0.146291843754093 
1395	 0.146419699537242 
1396	 0.146564082860022 
1397	 0.146698644194968 
1398	 0.146804799607051 
1399	 0.146949623263362 
1400	 0.147152340322397 
1401	 0.147256968000896 
1402	 0.147308508350459 
1403	 0.147411809526028 
1404	 0.147483162547809 
1405	 0.147572401735745 
1406	 0.147728371469839 
1407	 0.147824212649592 
1408	 0.147858476463665 
1409	 0.147938222378395 
1410	 0.148014066084587 
1411	 0.148117540705503 
1412	 0.148253258416464 
1413	 0.148374187882673 
1414	 0.148521438534262 
1415	 0.148642984078637 
1416	 0.148729487215469 
1417	 0.148845010798188 
1418	 0.148965295902166 
1419	 0.149088009540673 
1420	 0.149230828818021 
1421	 0.149367861336653 
1422	 0.149511604041214 
1423	 0.149634550874354 
1424	 0.149718057861329 
1425	 0.149856108806213 
1426	 0.15000228778337 
1427	 0.150116926819001 
1428	 0.150276516401625 
1429	 0.150454786153225 
1430	 0.150600750111624 
1431	 0.150719642789524 
1432	 0.150878297003317 
1433	 0.151034426262996 
1434	 0.151215011736365 
1435	 0.151435913283505 
1436	 0.151625044122832 
1437	 0.151815162939622 
1438	 0.151992483691937 
1439	 0.152154598221677 
1440	 0.152323350557805 
1441	 0.15248206080518 
1442	 0.152658051013403 
1443	 0.152825886158324 
1444	 0.153033158451042 
1445	 0.153272679047451 
1446	 0.153501561750137 
1447	 0.153764457981758 
1448	 0.153992499930504 
1449	 0.154200268957949 
1450	 0.154413198482237 
1451	 0.154594389994047 
1452	 0.154821163871233 
1453	 0.155063727506643 
1454	 0.155318979785863 
1455	 0.15559935118384 
1456	 0.155895961931461 
1457	 0.156230025443418 
1458	 0.156532014210256 
1459	 0.156835142915121 
1460	 0.157140098211815 
1461	 0.15741703389383 
1462	 0.157704842482132 
1463	 0.158029479372908 
1464	 0.158320739213136 
1465	 0.158565536955566 
1466	 0.158845054181376 
1467	 0.159144859837188 
1468	 0.159440269780141 
1469	 0.159763526639694 
1470	 0.160076738884177 
1471	 0.160346045703028 
1472	 0.160560413664404 
1473	 0.160831756228515 
1474	 0.161096126323929 
1475	 0.161382761215088 
1476	 0.161727278439352 
1477	 0.161992168350601 
1478	 0.162217068006546 
1479	 0.162475022916885 
1480	 0.16269588890929 
1481	 0.162969859928775 
1482	 0.163295238753435 
1483	 0.163590310695585 
1484	 0.16389354908091 
1485	 0.164181873335085 
1486	 0.164466664285554 
1487	 0.164732148982096 
1488	 0.164979011824441 
1489	 0.165235187699803 
1490	 0.165476209661838 
1491	 0.165730556032339 
1492	 0.16598779186792 
1493	 0.16625860664633 
1494	 0.166545567639499 
1495	 0.166818340675361 
1496	 0.167090576745446 
1497	 0.167371782580722 
1498	 0.167647056136022 
1499	 0.1679297442984 
1500	 0.168244921389131 
1501	 0.168526298866406 
1502	 0.168779479960449 
1503	 0.169043813147625 
1504	 0.169275795390125 
1505	 0.169553122950996 
1506	 0.169901944942878 
1507	 0.170182081792514 
1508	 0.170441982937742 
1509	 0.170704176189893 
1510	 0.170894232540892 
1511	 0.171135846702562 
1512	 0.171439304994431 
1513	 0.171712132611428 
1514	 0.171980244127766 
1515	 0.172253358443104 
1516	 0.172529852364867 
1517	 0.172783457120969 
1518	 0.173012626095094 
1519	 0.173267432186246 
1520	 0.173518376862926 
1521	 0.17376406181357 
1522	 0.174061434620398 
1523	 0.174354438640182 
1524	 0.174633300339532 
1525	 0.174926351512069 
1526	 0.175138046018738 
1527	 0.175299421967834 
1528	 0.175502426404637 
1529	 0.175667621236127 
1530	 0.175854797955625 
1531	 0.17607408235323 
1532	 0.17629558429202 
1533	 0.176493048943667 
1534	 0.176726970608033 
1535	 0.177013848870122 
1536	 0.177259757917797 
1537	 0.177486145513829 
1538	 0.177729184737586 
1539	 0.177970668324484 
1540	 0.178225704644735 
1541	 0.17849850338551 
1542	 0.178751973441276 
1543	 0.179012874494398 
1544	 0.179249771819755 
1545	 0.179451250939197 
1546	 0.179692193411669 
1547	 0.179930282165605 
1548	 0.180197767833374 
1549	 0.180513414984376 
1550	 0.180786169002822 
1551	 0.181050428550997 
1552	 0.181319193902636 
1553	 0.181573547804593 
1554	 0.181832065054002 
1555	 0.18211074971163 
1556	 0.182359282896836 
1557	 0.18256960997887 
1558	 0.182819306551449 
1559	 0.183073854208897 
1560	 0.183335887533495 
1561	 0.183620814381424 
1562	 0.183903754749605 
1563	 0.184194609015957 
1564	 0.184469116396749 
1565	 0.184755487997873 
1566	 0.185015543031027 
1567	 0.185228506172692 
1568	 0.185485594666704 
1569	 0.185751686358696 
1570	 0.186024892812304 
1571	 0.186336655327727 
1572	 0.186615730910362 
1573	 0.186867900539311 
1574	 0.187145196071766 
1575	 0.187430244797834 
1576	 0.18770500648149 
1577	 0.188001690903239 
1578	 0.188268272248213 
1579	 0.188485468600795 
1580	 0.188748462715836 
1581	 0.189032157527412 
1582	 0.189302874685031 
1583	 0.189598412710465 
1584	 0.189872655090357 
1585	 0.190115094167174 
1586	 0.19037486652481 
1587	 0.19064494455729 
1588	 0.190907283303299 
1589	 0.191164932081481 
1590	 0.191430842860541 
1591	 0.191705520596546 
1592	 0.191964396009612 
1593	 0.192231239805642 
1594	 0.192476015258464 
1595	 0.192678231619698 
1596	 0.192913924466247 
1597	 0.193151942997201 
1598	 0.193402872235198 
1599	 0.193683611595449 
1600	 0.193950958130091 
1601	 0.19421099976781 
1602	 0.194481871453322 
1603	 0.194762118517253 
1604	 0.19503569474974 
1605	 0.195307748110131 
1606	 0.195588586971283 
1607	 0.195875942898102 
1608	 0.196150317753936 
1609	 0.196420599931234 
1610	 0.196700325692935 
1611	 0.196967285163847 
1612	 0.197246379585808 
1613	 0.19756892703982 
1614	 0.197849960570014 
1615	 0.198106427907664 
1616	 0.198358771297665 
1617	 0.198565128528091 
1618	 0.198810048086121 
1619	 0.199101698274599 
1620	 0.199349982576461 
1621	 0.199587260575127 
1622	 0.199824814693411 
1623	 0.200021079056647 
1624	 0.200238480006003 
1625	 0.200496298229521 
1626	 0.200723091768927 
1627	 0.200910472679367 
1628	 0.2011331291194 
1629	 0.201359005518092 
1630	 0.20159534247353 
1631	 0.201884293478118 
1632	 0.202131353947609 
1633	 0.202328691088822 
1634	 0.202566608612727 
1635	 0.202821754294465 
1636	 0.20306188992442 
1637	 0.203307571476203 
1638	 0.203573767499032 
1639	 0.203863343086556 
1640	 0.204099247301876 
1641	 0.20430960174044 
1642	 0.204558808902136 
1643	 0.204811734841751 
1644	 0.205014029926995 
1645	 0.205193997605557 
1646	 0.205425076159272 
1647	 0.205641102926019 
1648	 0.205843630487585 
1649	 0.206104876534881 
1650	 0.206339646856172 
1651	 0.20649855092263 
1652	 0.206714082552102 
1653	 0.20702001320584 
1654	 0.20723352166125 
1655	 0.207383340144915 
1656	 0.207570782648685 
1657	 0.207742883388699 
1658	 0.207904307751264 
1659	 0.208134358041056 
1660	 0.208262513260062 
1661	 0.208261286016131 
1662	 0.208340819747328 
1663	 0.208425814810534 
1664	 0.208500634525403 
1665	 0.208636009355281 
1666	 0.208705594250506 
1667	 0.208674845660548 
1668	 0.208731386895208 
1669	 0.208834149347809 
1670	 0.208892906010514 
1671	 0.209047504111608 
1672	 0.209030406524974 
1673	 0.208840484369574 
1674	 0.208753922540859 
1675	 0.208633749706011 
1676	 0.208507501082145 
1677	 0.208459632968645 
1678	 0.208317159961514 
1679	 0.208070681214481 
1680	 0.207886976957188 
1681	 0.207704388985333 
1682	 0.207513835234447 
1683	 0.207359902573674 
1684	 0.207138264428218 
1685	 0.206899823479472 
1686	 0.206619206951008 
1687	 0.206283177975768 
1688	 0.205920039873432 
1689	 0.205507487280486 
1690	 0.205101127906378 
1691	 0.204685734707829 
1692	 0.204240319308919 
1693	 0.203761171203129 
1694	 0.203304288192949 
1695	 0.202815793104736 
1696	 0.20234554100852 
1697	 0.201945432555429 
1698	 0.20144852276015 
1699	 0.200891521458074 
1700	 0.20037896986121 
1701	 0.199836198056545 
1702	 0.199292378641405 
1703	 0.198744722746297 
1704	 0.198234896695407 
1705	 0.197694171360206 
1706	 0.197251697372311 
1707	 0.196916194399726 
1708	 0.196571141390066 
1709	 0.196266601694871 
1710	 0.196038964385349 
1711	 0.195779539413964 
1712	 0.195519470555776 
1713	 0.195305017674204 
1714	 0.195110239539648 
1715	 0.194942058032289 
1716	 0.194772556682136 
1717	 0.194656043442034 
1718	 0.194564528373378 
1719	 0.19444547052987 
1720	 0.194428468794966 
1721	 0.194413619888877 
1722	 0.194316424672391 
1723	 0.194274176857862 
1724	 0.194330070806784 
1725	 0.194451588028222 
1726	 0.194621261110853 
1727	 0.194878954829974 
1728	 0.195116556565617 
1729	 0.19535150992989 
1730	 0.195702687636729 
1731	 0.196097174184661 
1732	 0.196583997307263 
1733	 0.197126248778909 
1734	 0.197715755902237 
1735	 0.198343685279611 
1736	 0.198882268508068 
1737	 0.199405352809234 
1738	 0.199831164629563 
1739	 0.200234024284945 
1740	 0.200640882938503 
1741	 0.20096391814026 
1742	 0.201239493511946 
1743	 0.201476266671392 
1744	 0.201617796893339 
1745	 0.201777436728463 
1746	 0.20191503568399 
1747	 0.202019433021035 
1748	 0.202093090405316 
1749	 0.202168284072617 
1750	 0.202179528952082 
1751	 0.202286275555063 
1752	 0.202448171242916 
1753	 0.20262265146019 
1754	 0.202839000028467 
1755	 0.203083853224667 
1756	 0.203324315887487 
1757	 0.203689498715611 
1758	 0.204095705080774 
1759	 0.204436101757244 
1760	 0.204794029931688 
1761	 0.205222642385635 
1762	 0.205640306638827 
1763	 0.206161441817512 
1764	 0.206716251532153 
1765	 0.207297036391074 
1766	 0.20802555570707 
1767	 0.208736129145764 
1768	 0.209440439385121 
1769	 0.210178354440176 
1770	 0.210758255998953 
1771	 0.211349110593435 
1772	 0.212067969942492 
1773	 0.212644865710084 
1774	 0.213197857489467 
1775	 0.213834608363241 
1776	 0.214384256903465 
1777	 0.214878927055058 
1778	 0.215382209234533 
1779	 0.215849153801022 
1780	 0.216288263457954 
1781	 0.216815678440454 
1782	 0.217339138209589 
1783	 0.21773126601037 
1784	 0.218094020423808 
1785	 0.218458948812329 
1786	 0.218820087638399 
1787	 0.219240039978473 
1788	 0.21955300688266 
1789	 0.219751139825557 
1790	 0.220035395429736 
1791	 0.220327902395624 
1792	 0.220565302785669 
1793	 0.220805764110644 
1794	 0.220968780737458 
1795	 0.221153366015049 
1796	 0.221461486912463 
1797	 0.221791422948877 
1798	 0.221975333697046 
1799	 0.222307755363539 
1800	 0.222651603652788 
1801	 0.225166169119246 
1802	 0.225498044910592 
1803	 0.225813511167228 
1804	 0.226182293627106 
1805	 0.226480309908796 
1806	 0.226792692920495 
1807	 0.227097088135944 
1808	 0.227396543401986 
1809	 0.2277027215921 
1810	 0.227984957150231 
1811	 0.228235701869268 
1812	 0.228500733523601 
1813	 0.228743567362419 
1814	 0.229028804626952 
1815	 0.229264557267816 
1816	 0.22956308209489 
1817	 0.229863826972621 
1818	 0.230156064327229 
1819	 0.230476592080135 
1820	 0.230852493539865 
1821	 0.231188700176282 
1822	 0.231502440845475 
1823	 0.231878000509762 
1824	 0.232193590146611 
1825	 0.232467296384621 
1826	 0.232801840008551 
1827	 0.233150822420903 
1828	 0.233495347211112 
1829	 0.233901034164148 
1830	 0.234247904287132 
1831	 0.234574018108265 
1832	 0.234876009206777 
1833	 0.2351452367843 
1834	 0.235392657605404 
1835	 0.235697384781689 
1836	 0.236017249451356 
1837	 0.236320793489681 
1838	 0.23665489393469 
1839	 0.236953261426962 
1840	 0.237203332715781 
1841	 0.237496826773908 
1842	 0.237782305709846 
1843	 0.238119539424166 
1844	 0.238483719359057 
1845	 0.238761961403823 
1846	 0.23911257001666 
1847	 0.239453623335359 
1848	 0.239760763070123 
1849	 0.24008666283959 
1850	 0.240394190275172 
1851	 0.240662203951189 
1852	 0.240903895678683 
1853	 0.241221297636291 
1854	 0.241511556114055 
1855	 0.241775673957728 
1856	 0.242014640900334 
1857	 0.242277897148488 
1858	 0.242546543407475 
1859	 0.242762389719967 
1860	 0.242980543169817 
1861	 0.243169280971378 
1862	 0.24332287418263 
1863	 0.24341434270455 
1864	 0.243533580007239 
1865	 0.243630415275992 
1866	 0.243744106109278 
1867	 0.243800337467276 
1868	 0.243766752312811 
1869	 0.243814292335258 
1870	 0.243848562094278 
1871	 0.243858174034175 
1872	 0.243865249430389 
1873	 0.243942002118942 
1874	 0.243897206604146 
1875	 0.243739295969774 
1876	 0.243578541320726 
1877	 0.243409696498604 
1878	 0.243280169485009 
1879	 0.243141896599003 
1880	 0.24294666502397 
1881	 0.242689827957023 
1882	 0.242377178018066 
1883	 0.241960134765791 
1884	 0.2415340691706 
1885	 0.241091874519484 
1886	 0.240611889995054 
1887	 0.240103261464281 
1888	 0.239464059571846 
1889	 0.238807910229407 
1890	 0.238090547818941 
1891	 0.237278631321857 
1892	 0.236501073213754 
1893	 0.235680317321061 
1894	 0.234805906283948 
1895	 0.233926787787229 
1896	 0.233095975504743 
1897	 0.232195798378472 
1898	 0.231365712046612 
1899	 0.230542688826587 
1900	 0.229644291525976 
1901	 0.228813521388864 
1902	 0.227962670373958 
1903	 0.227177399128699 
1904	 0.226445643091111 
1905	 0.225770526036916 
1906	 0.225111265946593 
1907	 0.224578620306446 
1908	 0.224017493864079 
1909	 0.223468003796074 
1910	 0.223008339744563 
1911	 0.222525625174179 
1912	 0.222108168791281 
1913	 0.221772974773216 
1914	 0.221487901626264 
1915	 0.221226607129731 
1916	 0.22103194883395 
1917	 0.220815367149901 
1918	 0.220583223427303 
1919	 0.220385898728297 
1920	 0.220183550831459 
1921	 0.219987005690936 
1922	 0.219855494166312 
1923	 0.219753806500799 
1924	 0.219681157540797 
1925	 0.219692502686329 
1926	 0.219689701901005 
1927	 0.219700588334453 
1928	 0.219732264898099 
1929	 0.219787591800161 
1930	 0.219826813310446 
1931	 0.219905357831288 
1932	 0.220000632760768 
1933	 0.220060456778774 
1934	 0.220151110655337 
1935	 0.220290739449478 
1936	 0.22044412493723 
1937	 0.220628483249348 
1938	 0.220881527063225 
1939	 0.221097736193771 
1940	 0.221288232747776 
1941	 0.221552199891785 
1942	 0.221825306295254 
1943	 0.222115795919329 
1944	 0.222475948956504 
1945	 0.222780021940871 
1946	 0.223098801628513 
1947	 0.223448343695706 
1948	 0.22380554618621 
1949	 0.224250365067041 
1950	 0.224633624864688 
1951	 0.224993011432863 
1952	 0.225356535266456 
1953	 0.22569400746809 
1954	 0.226036465913354 
1955	 0.226453309592293 
1956	 0.226908633741227 
1957	 0.227404485868871 
1958	 0.227902028984887 
1959	 0.228329604297143 
1960	 0.228839593174887 
1961	 0.229299060541559 
1962	 0.229732258072288 
1963	 0.230151911478965 
1964	 0.230547640827246 
1965	 0.230930273931928 
1966	 0.231296623412665 
1967	 0.231665888107899 
1968	 0.232007496860542 
1969	 0.23241901725171 
1970	 0.232824141340973 
1971	 0.233203287932473 
1972	 0.233576528124373 
1973	 0.233933397506988 
1974	 0.234327202179099 
1975	 0.234765373608923 
1976	 0.235146260339382 
1977	 0.23550518231785 
1978	 0.235891412611242 
1979	 0.236262067245051 
1980	 0.236585077141679 
1981	 0.237031655700766 
1982	 0.237475529567444 
1983	 0.237910047594352 
1984	 0.238443800498123 
1985	 0.238845306598538 
1986	 0.239290590925928 
1987	 0.239729968658283 
1988	 0.240100747409458 
1989	 0.24051894543234 
1990	 0.240994852799918 
1991	 0.241448421267797 
1992	 0.241889180225182 
1993	 0.242366525238104 
1994	 0.242833061081701 
1995	 0.243351464413408 
1996	 0.243845315591638 
1997	 0.244337794007068 
1998	 0.244804593851783 
1999	 0.245227712524037 
2000	 0.24566915006287 
2001	 0.246124633835657 
2002	 0.246571658050305 
2003	 0.247021933915584 
2004	 0.247464857852686 
2005	 0.247905703437051 
2006	 0.248299342216963 
2007	 0.248647228432413 
2008	 0.249056204904684 
2009	 0.249405960014616 
2010	 0.249712246995948 
2011	 0.250048729305608 
2012	 0.250364375230615 
2013	 0.250649834593537 
2014	 0.250913459913351 
2015	 0.25117995627444 
2016	 0.251415635177154 
2017	 0.251652044451615 
2018	 0.251916140626094 
2019	 0.252120075904054 
2020	 0.252276375238891 
2021	 0.25244158671889 
2022	 0.252602985864745 
2023	 0.252709650093016 
2024	 0.252784326024803 
2025	 0.252859806753711 
2026	 0.252922235233529 
2027	 0.252923196894406 
2028	 0.252982589066667 
2029	 0.253085628465697 
2030	 0.253140996389615 
2031	 0.253198125396977 
2032	 0.253231641295862 
2033	 0.253213493605049 
2034	 0.253239006167982 
2035	 0.253268603418961 
2036	 0.253305701003793 
2037	 0.253389448665419 
2038	 0.253445914547527 
2039	 0.253458769583282 
2040	 0.253446572167098 
2041	 0.25342400000581 
2042	 0.253330866385378 
2043	 0.253310611002357 
2044	 0.253297372744043 
2045	 0.253324905002817 
2046	 0.253404288684003 
2047	 0.253476131434313 
2048	 0.25359802047415 
2049	 0.253680611282727 
2050	 0.253756423526028 
2051	 0.25381813101387 
2052	 0.253831970569872 
2053	 0.253810802497251 
2054	 0.253868275520379 
2055	 0.253965407894218 
2056	 0.254007611971034 
2057	 0.254082142738139 
2058	 0.254123528068758 
2059	 0.254053354331617 
2060	 0.254103400601461 
2061	 0.254287187057929 
2062	 0.254347949916889 
2063	 0.254360838830258 
2064	 0.254408599381348 
2065	 0.25440406913397 
2066	 0.254404574425748 
2067	 0.254473780079749 
2068	 0.254623191854722 
2069	 0.254709368102468 
2070	 0.254774171410919 
2071	 0.254852080358008 
2072	 0.254934656463383 
2073	 0.254997303027479 
2074	 0.255060412863226 
2075	 0.255111985590625 
2076	 0.255130163583444 
2077	 0.255168753614476 
2078	 0.255192573931218 
2079	 0.255255368528821 
2080	 0.255382024272397 
2081	 0.255461016165961 
2082	 0.255566494525077 
2083	 0.255611842397381 
2084	 0.25558932132923 
2085	 0.255573307984349 
2086	 0.255598626151195 
2087	 0.255628228387402 
2088	 0.255673525251347 
2089	 0.255789254674596 
2090	 0.255832030105763 
2091	 0.255813555680575 
2092	 0.255863501360917 
2093	 0.255930553501562 
2094	 0.255964921391104 
2095	 0.256042883372086 
2096	 0.256081667478379 
2097	 0.25604988483969 
2098	 0.256053174912445 
2099	 0.256073073567658 
2100	 0.256125185018426 
2101	 0.256132508276245 
2102	 0.256121189909919 
2103	 0.25613402570687 
2104	 0.256160428853281 
2105	 0.256131662985414 
2106	 0.256110984480316 
2107	 0.256058671946238 
2108	 0.255921388776265 
2109	 0.2558268842076 
2110	 0.255754008944871 
2111	 0.255670329741474 
2112	 0.255589960462159 
2113	 0.255495477975091 
2114	 0.255386577001833 
2115	 0.25528124756469 
2116	 0.255176101878779 
2117	 0.255060663689867 
2118	 0.254933327158625 
2119	 0.254801213782268 
2120	 0.254676120342504 
2121	 0.254523915160143 
2122	 0.254403801155156 
2123	 0.254295052546472 
2124	 0.254208614993589 
2125	 0.254136653505244 
2126	 0.254094380566263 
2127	 0.254070675692909 
2128	 0.254077320036711 
2129	 0.254156560981 
2130	 0.254163583529654 
2131	 0.254144276325135 
2132	 0.254160765056655 
2133	 0.254152649686145 
2134	 0.254162034468521 
2135	 0.254199756919158 
2136	 0.254178148859559 
2137	 0.254187880814164 
2138	 0.25414586935897 
2139	 0.254181017927007 
2140	 0.254283618876991 
2141	 0.254351837830036 
2142	 0.254414461301932 
2143	 0.254509043305612 
2144	 0.254606463359217 
2145	 0.254730266478961 
2146	 0.25494285039134 
2147	 0.255045868968184 
2148	 0.255032164021606 
2149	 0.25515692787551 
2150	 0.25528078086652 
2151	 0.255449544637933 
2152	 0.255747515769538 
2153	 0.256050081150126 
2154	 0.256265066581823 
2155	 0.256441853699017 
2156	 0.256585714469869 
2157	 0.256654759396653 
2158	 0.256813726930703 
2159	 0.256986579317795 
2160	 0.257144111777429 
2161	 0.257378441171227 
2162	 0.257507881973417 
2163	 0.257566922655584 
2164	 0.257611127361193 
2165	 0.257604181010996 
2166	 0.257619302482841 
2167	 0.257600992548199 
2168	 0.257605101245069 
2169	 0.257616970734625 
2170	 0.257639572127175 
2171	 0.257636445789529 
2172	 0.257701382259999 
2173	 0.257894002675562 
2174	 0.257977161806571 
2175	 0.257941926579468 
2176	 0.257941003163739 
2177	 0.257908633499619 
2178	 0.257740234502682 
2179	 0.257687521284259 
2180	 0.257708846015874 
2181	 0.257711295113502 
2182	 0.257686545166324 
2183	 0.257721441878118 
2184	 0.257841805304024 
2185	 0.257894185846722 
2186	 0.257961878624745 
2187	 0.257970710562413 
2188	 0.257935155534773 
2189	 0.257888507540015 
2190	 0.257786238893233 
2191	 0.257705476805778 
2192	 0.257617050911773 
2193	 0.257528090517528 
2194	 0.257473099129295 
2195	 0.257363051572991 
2196	 0.257168542760968 
2197	 0.257041808822566 
2198	 0.256992043972783 
2199	 0.256920422704538 
2200	 0.256870006810134 
2201	 0.25692462998217 
2202	 0.256875230272433 
2203	 0.256773597164851 
2204	 0.256634882941547 
2205	 0.256451854537501 
2206	 0.256314265600472 
2207	 0.256149354428444 
2208	 0.255979182384008 
2209	 0.255851760240666 
2210	 0.25568040951576 
2211	 0.255438266872722 
2212	 0.255246462725373 
2213	 0.255104973475613 
2214	 0.254904688042447 
2215	 0.254665411535529 
2216	 0.254450175199626 
2217	 0.254206973146667 
2218	 0.253993895458227 
2219	 0.253901744230526 
2220	 0.253655759231386 
2221	 0.253312514429834 
2222	 0.252991005707137 
2223	 0.252540325215713 
2224	 0.252087388283967 
2225	 0.251749744876343 
2226	 0.2513354996905 
2227	 0.250930043575272 
2228	 0.250575498304029 
2229	 0.250072166379924 
2230	 0.249489922636119 
2231	 0.248893204761943 
2232	 0.248194699055598 
2233	 0.247529542121848 
2234	 0.246954084191021 
2235	 0.246146464788995 
2236	 0.245264602781378 
2237	 0.244253210958902 
2238	 0.242973214598304 
2239	 0.241810204889005 
2240	 0.240621709322594 
2241	 0.239401485350585 
2242	 0.238285591768559 
2243	 0.236947171251288 
2244	 0.235483990776229 
2245	 0.233967639398275 
2246	 0.232252740904288 
2247	 0.230554519984744 
2248	 0.228824720546654 
2249	 0.227057156905623 
2250	 0.225187163642963 
2251	 0.223399373716855 
2252	 0.221648387155176 
2253	 0.219848823811538 
2254	 0.2181026477049 
2255	 0.216391471939444 
2256	 0.214608731649414 
2257	 0.21280245575724 
2258	 0.211107063732113 
2259	 0.209458256067167 
2260	 0.207802569594661 
2261	 0.206182939038434 
2262	 0.204682803483153 
2263	 0.203163315750051 
2264	 0.201834255779479 
2265	 0.2007779984204 
2266	 0.199524119635502 
2267	 0.198299233859199 
2268	 0.197001827192894 
2269	 0.195583832353048 
2270	 0.194260580824113 
2271	 0.192970114719622 
2272	 0.191686947085675 
2273	 0.190465064660453 
2274	 0.189145394713243 
2275	 0.187735429351405 
2276	 0.186417752896519 
2277	 0.185098189162218 
2278	 0.183809833908704 
2279	 0.182602081105415 
2280	 0.181355880421656 
2281	 0.180142596627312 
2282	 0.178817310248794 
2283	 0.177486050229783 
2284	 0.176069761677641 
2285	 0.174437489291017 
2286	 0.172823827981319 
2287	 0.171148064705174 
2288	 0.169557604842192 
2289	 0.168174898435883 
2290	 0.16666580234023 
2291	 0.165168327512357 
2292	 0.16372542998938 
2293	 0.16200796638855 
2294	 0.160395704564691 
2295	 0.159089942616455 
2296	 0.157743085278132 
2297	 0.156534275420537 
2298	 0.155540714875884 
2299	 0.15462666398891 
2300	 0.153647457614958 
2301	 0.153023905323246 
2302	 0.152641607965721 
2303	 0.152482160515131 
2304	 0.152560110872826 
2305	 0.152861317748418 
2306	 0.153552680735801 
2307	 0.154124529710652 
2308	 0.154735032511242 
2309	 0.155632432611665 
2310	 0.156625576091918 
2311	 0.15780359106678 
2312	 0.159397587092594 
2313	 0.160823675780221 
2314	 0.16230486455003 
2315	 0.163696873286688 
2316	 0.165079935264391 
2317	 0.166356077248416 
2318	 0.167630945590693 
2319	 0.168717354521311 
2320	 0.169742301236561 
2321	 0.170588761488944 
2322	 0.171155040786655 
2323	 0.171752649967493 
2324	 0.172354751694114 
2325	 0.172638308712386 
2326	 0.17276033997917 
2327	 0.172726758606903 
2328	 0.172235133443244 
2329	 0.17199907930732 
2330	 0.171868009051369 
2331	 0.171691535479587 
2332	 0.171286935694168 
2333	 0.170606315698229 
2334	 0.169661893450693 
2335	 0.168650973139983 
2336	 0.16778591783281 
2337	 0.167063846583055 
2338	 0.1662223306353 
2339	 0.165317106576247 
2340	 0.164572898351021 
2341	 0.163598330626705 
2342	 0.162559125231729 
2343	 0.161802484963443 
2344	 0.16104203632935 
2345	 0.160506646783494 
2346	 0.160467105905227 
2347	 0.160541128835213 
2348	 0.160515167842121 
2349	 0.160908118585517 
2350	 0.161494717738964 
2351	 0.162044115286394 
2352	 0.16302306787042 
2353	 0.164138370828704 
2354	 0.16533080503093 
2355	 0.166612800726371 
2356	 0.167418382195345 
2357	 0.16808272634824 
2358	 0.168657052818287 
2359	 0.168872785089725 
2360	 0.169304809131978 
2361	 0.169721677688869 
2362	 0.16989861334152 
2363	 0.170063780465345 
2364	 0.17017824029422 
2365	 0.170379666184946 
2366	 0.170509763694401 
2367	 0.170483823784162 
2368	 0.170588385540962 
2369	 0.170450406416708 
2370	 0.17011580175774 
2371	 0.170237342012818 
2372	 0.170198928725303 
2373	 0.170021977723613 
2374	 0.170180636876111 
2375	 0.170220674273747 
2376	 0.170184050980056 
2377	 0.170332179339971 
2378	 0.170447520422899 
2379	 0.170197563041718 
2380	 0.170042991950797 
2381	 0.170079699471679 
2382	 0.170260180991272 
2383	 0.170791416939978 
2384	 0.170992800595393 
2385	 0.171142937281562 
2386	 0.171195414202245 
2387	 0.170817038621969 
2388	 0.170948459091824 
2389	 0.171532956421947 
2390	 0.171850546941406 
2391	 0.172293970501015 
2392	 0.172458313323421 
2393	 0.172229410175865 
2394	 0.172321902773103 
2395	 0.172473193439967 
2396	 0.172582838755861 
2397	 0.172796285451182 
2398	 0.17300169860774 
2399	 0.173110199082881 
2400	 0.173550746473075 
2401	 0.174415260058972 
2402	 0.174624490756435 
2403	 0.174462845343799 
2404	 0.173779970460973 
2405	 0.173576372429471 
2406	 0.173363099021118 
2407	 0.173197922537095 
2408	 0.173477841618861 
2409	 0.173552084537498 
2410	 0.173978937864466 
2411	 0.174313967105721 
2412	 0.174535487163415 
2413	 0.174977111684021 
2414	 0.174803268308782 
2415	 0.174857218652738 
2416	 0.175045448851277 
2417	 0.17443223653751 
2418	 0.174161924994981 
2419	 0.174374137562113 
2420	 0.174151983232202 
2421	 0.173956031144384 
2422	 0.174070181433363 
2423	 0.173962494212586 
2424	 0.174045664054493 
2425	 0.174360675653036 
2426	 0.174165969942671 
2427	 0.174253877394053 
2428	 0.174584916097946 
2429	 0.174561549860649 
2430	 0.174999858732624 
2431	 0.175541919014699 
2432	 0.175462881044566 
2433	 0.175240940945881 
2434	 0.175006332218625 
2435	 0.174518561561875 
2436	 0.174328168956452 
2437	 0.17445504137562 
2438	 0.174283771010435 
2439	 0.174324880930124 
2440	 0.174654760451208 
2441	 0.174580629536299 
2442	 0.17483132341679 
2443	 0.174751264802823 
2444	 0.173612942717856 
2445	 0.172950226123805 
2446	 0.17247004346616 
2447	 0.172239086955428 
2448	 0.172646824989706 
2449	 0.172765420780686 
2450	 0.17307448590804 
2451	 0.173447736396912 
2452	 0.17343486623159 
2453	 0.173421240964143 
2454	 0.173075317558264 
2455	 0.172438968983772 
2456	 0.171531844448453 
2457	 0.171054092276339 
2458	 0.170819336184011 
2459	 0.170298841135578 
2460	 0.170827371232878 
2461	 0.170840969218457 
2462	 0.170160673342381 
2463	 0.170200223461641 
2464	 0.16965693111661 
2465	 0.169299902420687 
2466	 0.169736739393518 
2467	 0.170039702819342 
2468	 0.170035248883179 
2469	 0.169687885940761 
2470	 0.169281447444362 
2471	 0.168628271704588 
2472	 0.168220623024486 
2473	 0.168333206078302 
2474	 0.168263120205869 
2475	 0.168067596149166 
2476	 0.167713937084932 
2477	 0.167699845678626 
2478	 0.167898873432332 
2479	 0.168274063596781 
2480	 0.168331199478494 
2481	 0.168888074772597 
2482	 0.170174554485287 
2483	 0.170401498896914 
2484	 0.170963868239911 
2485	 0.17088410519042 
2486	 0.170800207549213 
2487	 0.171287619150582 
2488	 0.171680298940201 
2489	 0.171154881313574 
2490	 0.170712572916453 
2491	 0.170392482232659 
2492	 0.169826276654867 
2493	 0.170928127585258 
2494	 0.172054144127487 
2495	 0.173005770896685 
2496	 0.17496667048425 
2497	 0.174968826059309 
2498	 0.17422462590629 
2499	 0.174684501521507 
2500	 0.174194183049734 
