Wavelength	Tablay400015.asd
350	 0.269924305988849 
351	 0.261561628662503 
352	 0.265804636497025 
353	 0.251469388235014 
354	 0.24581069668875 
355	 0.292039616411114 
356	 0.31206602504292 
357	 0.252686947726677 
358	 0.257471359285694 
359	 0.248872826446596 
360	 0.237073348604858 
361	 0.265854878693818 
362	 0.245508069059662 
363	 0.223847015168632 
364	 0.226886868156109 
365	 0.231978738190677 
366	 0.216669761458996 
367	 0.192727537120224 
368	 0.180043302381741 
369	 0.191934045499659 
370	 0.197576118005067 
371	 0.197066136469505 
372	 0.207206736002514 
373	 0.223609939587953 
374	 0.210709322862179 
375	 0.172082044851927 
376	 0.170954706636135 
377	 0.175531129311746 
378	 0.17707581155805 
379	 0.171915469166835 
380	 0.151610933870344 
381	 0.157957731200472 
382	 0.177947190338144 
383	 0.168899140100891 
384	 0.151091143876233 
385	 0.146370185105314 
386	 0.157201567129937 
387	 0.158839847838949 
388	 0.151166101169068 
389	 0.145748289470633 
390	 0.151216793512907 
391	 0.153520458383403 
392	 0.14558376769034 
393	 0.132458186646908 
394	 0.124933633743727 
395	 0.114805073695734 
396	 0.114958254536976 
397	 0.126557566634087 
398	 0.128767529945511 
399	 0.133634413161629 
400	 0.132811645198113 
401	 0.120438740826195 
402	 0.122966889451242 
403	 0.120336988864904 
404	 0.112751093034238 
405	 0.115252268191275 
406	 0.121942600721776 
407	 0.123275253152825 
408	 0.116542757712817 
409	 0.111920107072697 
410	 0.108706068399142 
411	 0.109273695207671 
412	 0.113663742434479 
413	 0.108176465784503 
414	 0.10398137991231 
415	 0.105286930306068 
416	 0.108727040961829 
417	 0.110105567537618 
418	 0.107137461829568 
419	 0.102227558683144 
420	 0.108329879979144 
421	 0.104640001410543 
422	 9.86803153210203E-02 
423	 0.104760313806172 
424	 0.10283208661311 
425	 0.10219901119226 
426	 0.10487092177821 
427	 0.102697564379668 
428	 0.103295912927046 
429	 0.104419203564917 
430	 0.103753476675159 
431	 0.105127706350628 
432	 0.10585030023317 
433	 0.105732645146123 
434	 0.105838908396513 
435	 0.104853763197707 
436	 0.106258821543276 
437	 0.109950899952022 
438	 0.10994109853043 
439	 0.11040274848038 
440	 0.110899848533642 
441	 0.110662531941858 
442	 0.112857393528039 
443	 0.114230269096744 
444	 0.11442760827719 
445	 0.115359918627222 
446	 0.115669096297262 
447	 0.117039708840393 
448	 0.119961328185089 
449	 0.121721283742964 
450	 0.121710985108153 
451	 0.122284725306196 
452	 0.125778144658534 
453	 0.127250458189179 
454	 0.127875590496987 
455	 0.128928285671213 
456	 0.131274763318718 
457	 0.133613189708972 
458	 0.135025892459279 
459	 0.135466112355613 
460	 0.136813509320121 
461	 0.139523999156502 
462	 0.142149365344226 
463	 0.142853832918635 
464	 0.145820582744273 
465	 0.14785418235212 
466	 0.148292816666922 
467	 0.151375152502499 
468	 0.154200621457365 
469	 0.155891963124435 
470	 0.156746265703625 
471	 0.159358758862066 
472	 0.161636977039565 
473	 0.163349718805714 
474	 0.165767841881825 
475	 0.168837629121222 
476	 0.171334802225108 
477	 0.172957852336334 
478	 0.175668236619014 
479	 0.178703725499699 
480	 0.181681893348213 
481	 0.184319340615314 
482	 0.186201995408498 
483	 0.188096558685968 
484	 0.190512204312491 
485	 0.193555952418021 
486	 0.195761081414303 
487	 0.197970690720401 
488	 0.200882303181887 
489	 0.203117506873791 
490	 0.205538316252486 
491	 0.208084834702084 
492	 0.210248490189332 
493	 0.212424213045365 
494	 0.215470248401169 
495	 0.219090059962806 
496	 0.221072177642027 
497	 0.223352701665463 
498	 0.225682752745743 
499	 0.227532309401108 
500	 0.230067537602056 
501	 0.23258232893096 
502	 0.234987290844743 
503	 0.237737425110828 
504	 0.24014809049329 
505	 0.24227988931018 
506	 0.244428159211854 
507	 0.247170506192413 
508	 0.249672631417171 
509	 0.251825851091021 
510	 0.253871230648954 
511	 0.256061214755448 
512	 0.258056614855608 
513	 0.25996389593643 
514	 0.262510179345324 
515	 0.264650005451012 
516	 0.266629519212634 
517	 0.268798851338415 
518	 0.27067193623048 
519	 0.272532408976719 
520	 0.274548818664432 
521	 0.276761538162723 
522	 0.278776221495911 
523	 0.280736791029233 
524	 0.282746943554547 
525	 0.284679052804231 
526	 0.28652360508721 
527	 0.28832443363266 
528	 0.290175987241941 
529	 0.292366455312924 
530	 0.294299912145552 
531	 0.295913754021489 
532	 0.297728260361701 
533	 0.299532738524118 
534	 0.30122339800986 
535	 0.302817440954475 
536	 0.304617039224663 
537	 0.306516975940224 
538	 0.308436921607604 
539	 0.310300310244334 
540	 0.311945110331806 
541	 0.313538963146693 
542	 0.315230781005524 
543	 0.317102046966561 
544	 0.318711549171925 
545	 0.32012918104406 
546	 0.321592528826301 
547	 0.323300481606289 
548	 0.324931168837783 
549	 0.326400114792174 
550	 0.327855546982792 
551	 0.329465631356677 
552	 0.330999490314817 
553	 0.332339265664518 
554	 0.333832602069186 
555	 0.335338645014868 
556	 0.336789973087715 
557	 0.338161638946077 
558	 0.33951806592941 
559	 0.340826004819044 
560	 0.342134828127444 
561	 0.343620594571817 
562	 0.344856754546623 
563	 0.346029615591503 
564	 0.347338624429209 
565	 0.348353761010239 
566	 0.34936523601876 
567	 0.350504061579372 
568	 0.351757914805271 
569	 0.352971155862692 
570	 0.354172727652939 
571	 0.355412812447331 
572	 0.356707391120984 
573	 0.358147398506937 
574	 0.359604984617263 
575	 0.360916867429517 
576	 0.362256359324902 
577	 0.363554219540895 
578	 0.364815647098038 
579	 0.366142775676855 
580	 0.367413157626406 
581	 0.368699643480944 
582	 0.370041296877125 
583	 0.371212978760526 
584	 0.372460222048079 
585	 0.373759701408432 
586	 0.374943975177089 
587	 0.376106443885973 
588	 0.377152589711382 
589	 0.378098922556753 
590	 0.379171130406 
591	 0.38016078591525 
592	 0.381122130520963 
593	 0.382112661831601 
594	 0.382822322837621 
595	 0.383614798125434 
596	 0.384532584586301 
597	 0.385324061591636 
598	 0.386025426777488 
599	 0.386618784110048 
600	 0.387160019241935 
601	 0.387912538015426 
602	 0.388482478163027 
603	 0.388902035778487 
604	 0.389382816654299 
605	 0.389957416657745 
606	 0.390561430176926 
607	 0.391082906091062 
608	 0.391368106470395 
609	 0.391714407094395 
610	 0.392070157645515 
611	 0.392358072220419 
612	 0.392719779207713 
613	 0.393119311123535 
614	 0.393509613458298 
615	 0.393848310140245 
616	 0.394207370890741 
617	 0.394599256281206 
618	 0.394969887595594 
619	 0.395157971030851 
620	 0.395359412649998 
621	 0.395601633713916 
622	 0.395848866348633 
623	 0.396045419636149 
624	 0.396319820526802 
625	 0.396680189436549 
626	 0.397014912350234 
627	 0.397278356693199 
628	 0.397416025859607 
629	 0.397476776704418 
630	 0.397765453880248 
631	 0.397989073979299 
632	 0.398132281480044 
633	 0.39830264551852 
634	 0.398547203296589 
635	 0.398714807260534 
636	 0.398797388203322 
637	 0.398980600734057 
638	 0.39920699191536 
639	 0.399449634853177 
640	 0.399668072723675 
641	 0.399761202136756 
642	 0.399860017216122 
643	 0.400028300265439 
644	 0.400259283734668 
645	 0.400329700274689 
646	 0.400443748954123 
647	 0.40066052151159 
648	 0.400714894400185 
649	 0.400806103606253 
650	 0.400948333269481 
651	 0.401095945264474 
652	 0.401200571082224 
653	 0.401297632910514 
654	 0.401395419627806 
655	 0.40148488617002 
656	 0.401693264627354 
657	 0.401785994441351 
658	 0.401704870925047 
659	 0.401892158561139 
660	 0.40197277796878 
661	 0.402003401275908 
662	 0.402145532989473 
663	 0.402228205569826 
664	 0.40229602727968 
665	 0.402357309019506 
666	 0.402375585156813 
667	 0.402422885988648 
668	 0.402466648922632 
669	 0.402488249834022 
670	 0.402563487591087 
671	 0.402624406897668 
672	 0.402667433808078 
673	 0.402714778177401 
674	 0.402743122938118 
675	 0.402803741531226 
676	 0.40287700885837 
677	 0.402855283315858 
678	 0.40279449205392 
679	 0.402778927967605 
680	 0.402844733391888 
681	 0.402870452075602 
682	 0.402878039992636 
683	 0.402918972174977 
684	 0.403031600141417 
685	 0.403010826585354 
686	 0.402953114183217 
687	 0.402934168634299 
688	 0.402953556731105 
689	 0.402978400433718 
690	 0.403001094995913 
691	 0.403014164977029 
692	 0.402977407874823 
693	 0.402978296408698 
694	 0.403002601322818 
695	 0.402980215974228 
696	 0.402971656298996 
697	 0.403012457912186 
698	 0.403055332148597 
699	 0.402923677599881 
700	 0.402997771481624 
701	 0.403086372009617 
702	 0.402962999992638 
703	 0.402921153065774 
704	 0.402904866226529 
705	 0.402911411694156 
706	 0.402962552769378 
707	 0.402918947350368 
708	 0.40286592717219 
709	 0.402859034314927 
710	 0.402854043401573 
711	 0.402854195894456 
712	 0.402854068751506 
713	 0.402844346780905 
714	 0.402803882860299 
715	 0.402773165920805 
716	 0.402761208009586 
717	 0.402754458379409 
718	 0.402774725629089 
719	 0.402786123298685 
720	 0.402764637156253 
721	 0.402713704582342 
722	 0.402746442418695 
723	 0.40279796801306 
724	 0.402778624038732 
725	 0.402735682258285 
726	 0.402695074241277 
727	 0.402697122990202 
728	 0.402771366329424 
729	 0.402750542443164 
730	 0.402704684217057 
731	 0.402678653091638 
732	 0.402617432305431 
733	 0.402660267201504 
734	 0.402726132336663 
735	 0.402713892978527 
736	 0.402704481945679 
737	 0.402715741035091 
738	 0.402733881851304 
739	 0.402724581505451 
740	 0.40266872600171 
741	 0.4026554723746 
742	 0.402689902029986 
743	 0.40263556686042 
744	 0.402584142354441 
745	 0.402602967787142 
746	 0.402691004193678 
747	 0.402639398546133 
748	 0.402663824226217 
749	 0.402732667094349 
750	 0.402697996208266 
751	 0.402726262551185 
752	 0.402738431739161 
753	 0.402731204488638 
754	 0.402825307468572 
755	 0.402835042292301 
756	 0.402842716931504 
757	 0.402926872940495 
758	 0.402970108563152 
759	 0.403017936873612 
760	 0.403065168449264 
761	 0.403092680542627 
762	 0.403142498857005 
763	 0.403198096259207 
764	 0.403252760124324 
765	 0.40331591221591 
766	 0.403421911792253 
767	 0.403476573518525 
768	 0.403461013902509 
769	 0.403586942521838 
770	 0.403706749597677 
771	 0.403781001633028 
772	 0.403819158437566 
773	 0.403863623252968 
774	 0.403950408839979 
775	 0.404039519933407 
776	 0.404048017883228 
777	 0.404135245508881 
778	 0.404250250443412 
779	 0.404342806465756 
780	 0.404417044392527 
781	 0.404525228585976 
782	 0.40462123657713 
783	 0.404655303566122 
784	 0.404658759892712 
785	 0.404739850332949 
786	 0.404840132745938 
787	 0.404836666286743 
788	 0.404907929934388 
789	 0.404985039765803 
790	 0.405053665963084 
791	 0.405185953687435 
792	 0.40528792273369 
793	 0.405351166758535 
794	 0.405395630048811 
795	 0.405458547486853 
796	 0.405538548180982 
797	 0.405664514936562 
798	 0.40582982758706 
799	 0.405825259628286 
800	 0.405805099261402 
801	 0.405865738712153 
802	 0.406025452322182 
803	 0.406160418058535 
804	 0.406200209348412 
805	 0.406180232222284 
806	 0.406271457179713 
807	 0.406369753717833 
808	 0.406465435409534 
809	 0.406565525913163 
810	 0.406669350937563 
811	 0.406676818993193 
812	 0.406662961734139 
813	 0.406751984989599 
814	 0.406861054933965 
815	 0.406863433083633 
816	 0.406817823517653 
817	 0.40692548935969 
818	 0.407012061281196 
819	 0.407114335050509 
820	 0.407212905728962 
821	 0.407149129805541 
822	 0.407157954747016 
823	 0.407194969285753 
824	 0.40719381113697 
825	 0.407275473542152 
826	 0.407296365244706 
827	 0.407285950327008 
828	 0.407335946505386 
829	 0.407396819319133 
830	 0.40737380562059 
831	 0.407331904790574 
832	 0.407442060807387 
833	 0.407413874095958 
834	 0.407351941870054 
835	 0.407346531013587 
836	 0.407372742361313 
837	 0.407371736460738 
838	 0.407395976924942 
839	 0.407455387024313 
840	 0.407352057033557 
841	 0.407280778929382 
842	 0.407321234330377 
843	 0.407454625199366 
844	 0.407466008878903 
845	 0.407439652443287 
846	 0.407407130933619 
847	 0.407360311738954 
848	 0.407386809431417 
849	 0.407389171769369 
850	 0.407336086757066 
851	 0.407304450459683 
852	 0.407287006659785 
853	 0.407258850021373 
854	 0.407241675669229 
855	 0.407375386212488 
856	 0.407365853608029 
857	 0.407266290403413 
858	 0.407227981399258 
859	 0.407323624831195 
860	 0.407289159077627 
861	 0.407171858675934 
862	 0.407145495788407 
863	 0.407042498609784 
864	 0.407016726001112 
865	 0.407068224700755 
866	 0.407058849520361 
867	 0.4070549440307 
868	 0.406977301447297 
869	 0.406843743892828 
870	 0.406817895226687 
871	 0.406808953363357 
872	 0.406753417115256 
873	 0.406645626007396 
874	 0.406590160685626 
875	 0.406554047928088 
876	 0.40654327967243 
877	 0.406537086048763 
878	 0.406378402965312 
879	 0.406331308859567 
880	 0.406328436764628 
881	 0.406201148669573 
882	 0.406208656361187 
883	 0.40612497437119 
884	 0.405997295855982 
885	 0.406045656897129 
886	 0.405933157802043 
887	 0.405809276236244 
888	 0.405750550383832 
889	 0.405686609607284 
890	 0.405625983951735 
891	 0.405592522997337 
892	 0.405568163692524 
893	 0.40546164811739 
894	 0.405439050795386 
895	 0.405393779356517 
896	 0.40526399068777 
897	 0.405290634571725 
898	 0.405256617414285 
899	 0.405153017952472 
900	 0.405056059238401 
901	 0.405069325494517 
902	 0.405049123795282 
903	 0.405000032182164 
904	 0.404977714795786 
905	 0.404848382253033 
906	 0.40484675006263 
907	 0.404930129168856 
908	 0.404876989191584 
909	 0.404829424856438 
910	 0.404837162496836 
911	 0.40486232654075 
912	 0.404798557667808 
913	 0.404675796151351 
914	 0.404649390245694 
915	 0.404707214005094 
916	 0.404605078742223 
917	 0.404618818280317 
918	 0.40456421642254 
919	 0.404380058717145 
920	 0.404390380048051 
921	 0.404409867182246 
922	 0.404467384154087 
923	 0.404564440889943 
924	 0.404502716388238 
925	 0.404453645257603 
926	 0.404468045099959 
927	 0.404509499543633 
928	 0.404388775205423 
929	 0.4043806025228 
930	 0.404436386254309 
931	 0.404415312230451 
932	 0.404436166741229 
933	 0.404418586848889 
934	 0.404407278477499 
935	 0.404474482919621 
936	 0.404445563958364 
937	 0.404427362790288 
938	 0.404423081979951 
939	 0.404378279283501 
940	 0.404439098698693 
941	 0.404477362418349 
942	 0.404470715608923 
943	 0.404502929629053 
944	 0.404566748012662 
945	 0.404547784428836 
946	 0.404495022422751 
947	 0.404609963121937 
948	 0.404723412358376 
949	 0.404745148104105 
950	 0.40469084942437 
951	 0.404682330708771 
952	 0.404629318103082 
953	 0.40467072551744 
954	 0.404781677050344 
955	 0.404671048889906 
956	 0.40471944271665 
957	 0.404723152868797 
958	 0.404619504083722 
959	 0.404774626364587 
960	 0.404813488823632 
961	 0.404761658862191 
962	 0.404727617907873 
963	 0.404782941272735 
964	 0.404736022397192 
965	 0.404682549426296 
966	 0.40470698179109 
967	 0.404690351710682 
968	 0.40472690347239 
969	 0.404807472892481 
970	 0.404881967571084 
971	 0.404873160267715 
972	 0.404989880743418 
973	 0.405029380760899 
974	 0.404871143920564 
975	 0.404976604176501 
976	 0.405021603035315 
977	 0.405026983432764 
978	 0.405072305489581 
979	 0.405076056627896 
980	 0.404979842698462 
981	 0.404998531149965 
982	 0.405230802351194 
983	 0.405109046011196 
984	 0.405141065839922 
985	 0.405161494615525 
986	 0.404968917217231 
987	 0.405052169590119 
988	 0.405095577951194 
989	 0.405179954358366 
990	 0.405372284639433 
991	 0.405215511315575 
992	 0.405052514012091 
993	 0.405002947890898 
994	 0.405055383057038 
995	 0.405071605669043 
996	 0.405199861828006 
997	 0.405274848892365 
998	 0.405168666576885 
999	 0.405273179175893 
1000	 0.405067972501432 
1001	 0.399776517520779 
1002	 0.399770721163241 
1003	 0.399794699955614 
1004	 0.3997757601012 
1005	 0.399825877659372 
1006	 0.399792492805944 
1007	 0.399637988113143 
1008	 0.39962692826634 
1009	 0.399624752598179 
1010	 0.399678353216113 
1011	 0.399940663943848 
1012	 0.399957384953613 
1013	 0.399876526975795 
1014	 0.399827458757835 
1015	 0.399699197320881 
1016	 0.399454103318724 
1017	 0.399419018836738 
1018	 0.399494332542128 
1019	 0.399466732851427 
1020	 0.399361272855997 
1021	 0.399317847900601 
1022	 0.3992279660619 
1023	 0.399189362474986 
1024	 0.399244980597277 
1025	 0.399237718252344 
1026	 0.399200781581819 
1027	 0.399153510737142 
1028	 0.39909498087622 
1029	 0.39900763072167 
1030	 0.398906492975584 
1031	 0.398855571025492 
1032	 0.398881946028223 
1033	 0.398994639614501 
1034	 0.399068614465715 
1035	 0.399013106637914 
1036	 0.399037404488885 
1037	 0.398976311990207 
1038	 0.399030962132154 
1039	 0.399269102302041 
1040	 0.39935583173414 
1041	 0.399411883260614 
1042	 0.399412171144863 
1043	 0.399339117193455 
1044	 0.399239128927794 
1045	 0.399141318460088 
1046	 0.399025063086018 
1047	 0.398992621837658 
1048	 0.398994623764489 
1049	 0.399031917394739 
1050	 0.399103971781748 
1051	 0.399056661545534 
1052	 0.398960708259912 
1053	 0.398912370091973 
1054	 0.398798124728935 
1055	 0.398754216022465 
1056	 0.398827114283967 
1057	 0.398849315149475 
1058	 0.398853091985295 
1059	 0.39889897432864 
1060	 0.398933820742014 
1061	 0.398784427404649 
1062	 0.398578197655779 
1063	 0.398428486783579 
1064	 0.398271438493895 
1065	 0.398226623168049 
1066	 0.398303491486302 
1067	 0.398302333561676 
1068	 0.398257867339936 
1069	 0.398127731536679 
1070	 0.398024240705103 
1071	 0.397864463904572 
1072	 0.397801870408251 
1073	 0.397708189538739 
1074	 0.39762960716601 
1075	 0.397589626812953 
1076	 0.397519968859318 
1077	 0.39750480567102 
1078	 0.397449559329342 
1079	 0.397343303144326 
1080	 0.397317370223282 
1081	 0.397253435492249 
1082	 0.397241592994864 
1083	 0.397287756061319 
1084	 0.397237650339001 
1085	 0.39720177653331 
1086	 0.397165627589454 
1087	 0.397136412483344 
1088	 0.397103201617656 
1089	 0.397097866041669 
1090	 0.397040324094228 
1091	 0.396923221709331 
1092	 0.396827398818753 
1093	 0.39672902415265 
1094	 0.396632821546363 
1095	 0.396625147439282 
1096	 0.396620909883738 
1097	 0.396604186456037 
1098	 0.396606080249737 
1099	 0.396623648122414 
1100	 0.396661850066674 
1101	 0.396653849191534 
1102	 0.396650103998132 
1103	 0.396645970517968 
1104	 0.396634950904021 
1105	 0.396584156999782 
1106	 0.39660473305615 
1107	 0.39661384681365 
1108	 0.396539421930132 
1109	 0.396535689590917 
1110	 0.396519930842182 
1111	 0.396481295184404 
1112	 0.396543835936856 
1113	 0.396617247309926 
1114	 0.396664994699407 
1115	 0.396724796028907 
1116	 0.396772272241731 
1117	 0.396816033864831 
1118	 0.396877633604501 
1119	 0.396958389257695 
1120	 0.397020610134937 
1121	 0.397077504750601 
1122	 0.397160487366794 
1123	 0.397232025728702 
1124	 0.39730423553808 
1125	 0.397411406579849 
1126	 0.397485503076693 
1127	 0.397511401779812 
1128	 0.397564023386556 
1129	 0.397608791573154 
1130	 0.397640366085673 
1131	 0.397719743637654 
1132	 0.397797381722001 
1133	 0.397788865350628 
1134	 0.397795742668328 
1135	 0.397815385589353 
1136	 0.3977844418146 
1137	 0.397798518247547 
1138	 0.397895790332426 
1139	 0.397928515638795 
1140	 0.397919066819447 
1141	 0.39795470599958 
1142	 0.397989360380891 
1143	 0.398016107183625 
1144	 0.3980614450966 
1145	 0.398038694376667 
1146	 0.398030415062864 
1147	 0.398053275889667 
1148	 0.398029228850591 
1149	 0.398031696334513 
1150	 0.398041467023565 
1151	 0.397980747213128 
1152	 0.397942884366974 
1153	 0.397930478630189 
1154	 0.397894725835669 
1155	 0.397814671439674 
1156	 0.397782755815339 
1157	 0.397785226971988 
1158	 0.397748190865911 
1159	 0.397717055732796 
1160	 0.397686717764417 
1161	 0.397603071105431 
1162	 0.397488034670698 
1163	 0.397434657432803 
1164	 0.39735645093816 
1165	 0.397263865905488 
1166	 0.397251773068076 
1167	 0.397208880630281 
1168	 0.397149820126396 
1169	 0.397094545069204 
1170	 0.39703450115021 
1171	 0.396969121239751 
1172	 0.396916248309886 
1173	 0.396839257113337 
1174	 0.396741106513284 
1175	 0.396664800258694 
1176	 0.396588420586263 
1177	 0.396487749688804 
1178	 0.396381864415118 
1179	 0.396305618212096 
1180	 0.396155721586583 
1181	 0.396007990273414 
1182	 0.395902490929739 
1183	 0.395770835620608 
1184	 0.395662783324855 
1185	 0.395546991720382 
1186	 0.395423163255431 
1187	 0.395275764965844 
1188	 0.395166681533895 
1189	 0.395062495891336 
1190	 0.394984789016525 
1191	 0.394951843032201 
1192	 0.394877657361157 
1193	 0.394811453265394 
1194	 0.394719956360748 
1195	 0.394572055750327 
1196	 0.394481434996353 
1197	 0.394406303647265 
1198	 0.394327335600814 
1199	 0.394318576800162 
1200	 0.394310569656904 
1201	 0.394271426453916 
1202	 0.394238660021934 
1203	 0.39419791732352 
1204	 0.394194667953281 
1205	 0.394218404063723 
1206	 0.394278735732954 
1207	 0.394349977151679 
1208	 0.394441578148789 
1209	 0.394548482709574 
1210	 0.394684127895086 
1211	 0.394824449759152 
1212	 0.394955160984508 
1213	 0.395143173155603 
1214	 0.395312364356578 
1215	 0.395591550909532 
1216	 0.395994160345815 
1217	 0.396365633245045 
1218	 0.396784868325001 
1219	 0.397230243564714 
1220	 0.397632522145388 
1221	 0.39804026122366 
1222	 0.398452468871445 
1223	 0.398874471857011 
1224	 0.399312549189436 
1225	 0.399775933187485 
1226	 0.400186180921579 
1227	 0.400597148544107 
1228	 0.400995140561814 
1229	 0.401361882555341 
1230	 0.401710728551197 
1231	 0.402065224741859 
1232	 0.402388225682495 
1233	 0.402677919313729 
1234	 0.402942115493138 
1235	 0.403164100285357 
1236	 0.403411249730916 
1237	 0.403639943974847 
1238	 0.403869492176448 
1239	 0.404121920751065 
1240	 0.404364175226539 
1241	 0.404598018901714 
1242	 0.404820672380047 
1243	 0.405018118600003 
1244	 0.405209392735119 
1245	 0.405393880958398 
1246	 0.405538393892449 
1247	 0.40570796471931 
1248	 0.405900155620813 
1249	 0.406071212081441 
1250	 0.406234426918746 
1251	 0.406389045832359 
1252	 0.406515552602914 
1253	 0.406677212326164 
1254	 0.40683864462458 
1255	 0.407026071003823 
1256	 0.407286923554016 
1257	 0.407475686623018 
1258	 0.407618507787125 
1259	 0.407788605573254 
1260	 0.407918792611224 
1261	 0.408082116388745 
1262	 0.408297699970751 
1263	 0.408504569268506 
1264	 0.408689193614212 
1265	 0.408864486783707 
1266	 0.40904248868642 
1267	 0.409210297884123 
1268	 0.409372647853384 
1269	 0.409538102735944 
1270	 0.409690988418078 
1271	 0.409822425993242 
1272	 0.409970823279464 
1273	 0.410129707125583 
1274	 0.410271981901289 
1275	 0.410412521936961 
1276	 0.410544541404473 
1277	 0.410662377201987 
1278	 0.410781551310055 
1279	 0.410916942302439 
1280	 0.411016524770703 
1281	 0.411083087448739 
1282	 0.411160285763141 
1283	 0.411209190914379 
1284	 0.411275613440456 
1285	 0.411351546892426 
1286	 0.411446781052455 
1287	 0.411525409924679 
1288	 0.411610491974899 
1289	 0.411673107996399 
1290	 0.411724142134874 
1291	 0.41177011948597 
1292	 0.411798652135036 
1293	 0.411835139276265 
1294	 0.411857306133695 
1295	 0.411909687891306 
1296	 0.411980530726386 
1297	 0.412041806155027 
1298	 0.412130948802428 
1299	 0.412187428714839 
1300	 0.412201886628168 
1301	 0.412253502709785 
1302	 0.412322764862572 
1303	 0.412374843050905 
1304	 0.412446215329771 
1305	 0.41249828290189 
1306	 0.41249652666024 
1307	 0.412539371052405 
1308	 0.412594821924048 
1309	 0.412674115040457 
1310	 0.412748688823363 
1311	 0.412843669355359 
1312	 0.41293899770336 
1313	 0.413031750643907 
1314	 0.413130922245632 
1315	 0.413236322201184 
1316	 0.413363759914912 
1317	 0.413510405363885 
1318	 0.413632464577765 
1319	 0.413775636703017 
1320	 0.413888110465616 
1321	 0.413963362664924 
1322	 0.414049584519011 
1323	 0.414120341338232 
1324	 0.414218668335354 
1325	 0.414312660039085 
1326	 0.41443265948965 
1327	 0.414600226454951 
1328	 0.414739060397514 
1329	 0.414864919281095 
1330	 0.415006672155113 
1331	 0.415155228272498 
1332	 0.415293285912473 
1333	 0.415439024268095 
1334	 0.415592683747352 
1335	 0.41570138525882 
1336	 0.415769845397164 
1337	 0.415877569874278 
1338	 0.415974195272573 
1339	 0.41609157565769 
1340	 0.416249306331056 
1341	 0.416356658760242 
1342	 0.416445621424196 
1343	 0.416536189789745 
1344	 0.416610404405208 
1345	 0.41668263585624 
1346	 0.416753372814685 
1347	 0.416818690174413 
1348	 0.416859884844554 
1349	 0.416931114879176 
1350	 0.417021358154324 
1351	 0.417104036217048 
1352	 0.417212969617674 
1353	 0.417286224051868 
1354	 0.41732673419023 
1355	 0.417384817233523 
1356	 0.417444138363734 
1357	 0.41749108954266 
1358	 0.417549932981612 
1359	 0.417588990666741 
1360	 0.41761452818194 
1361	 0.417615734856194 
1362	 0.417604716982696 
1363	 0.417609878287767 
1364	 0.417582402883156 
1365	 0.417531654344064 
1366	 0.417489474394399 
1367	 0.41744154994314 
1368	 0.417380998304967 
1369	 0.417339318013597 
1370	 0.417230368699739 
1371	 0.417068503254846 
1372	 0.416931718432518 
1373	 0.41676696310984 
1374	 0.416614574372404 
1375	 0.416494291071574 
1376	 0.416325768518052 
1377	 0.416121521355508 
1378	 0.415922872305064 
1379	 0.415723145448428 
1380	 0.415491879034663 
1381	 0.415230980025732 
1382	 0.41498421049153 
1383	 0.414713287544667 
1384	 0.414451501087192 
1385	 0.414219697959471 
1386	 0.413962455567687 
1387	 0.413673415046599 
1388	 0.413410895211728 
1389	 0.413138400655279 
1390	 0.412890239198373 
1391	 0.41264836717645 
1392	 0.412442029326958 
1393	 0.412271193138062 
1394	 0.412128961576993 
1395	 0.412003987182287 
1396	 0.411934362911506 
1397	 0.411816180697556 
1398	 0.411711224624975 
1399	 0.411550912103936 
1400	 0.411369101679565 
1401	 0.411146998318071 
1402	 0.410899626194159 
1403	 0.410590538570394 
1404	 0.410247325305045 
1405	 0.409851038042938 
1406	 0.409372264717673 
1407	 0.408910516331115 
1408	 0.408415553084151 
1409	 0.407918836264119 
1410	 0.407407399706722 
1411	 0.406900045665975 
1412	 0.406368692606993 
1413	 0.405867920837908 
1414	 0.405354747090221 
1415	 0.404900753085173 
1416	 0.404483160948798 
1417	 0.404083910677358 
1418	 0.403737931764211 
1419	 0.403385971011722 
1420	 0.403041794367261 
1421	 0.402710944823655 
1422	 0.402388750992362 
1423	 0.402082256614662 
1424	 0.401788178629298 
1425	 0.401504822505588 
1426	 0.40124734921825 
1427	 0.400999597320138 
1428	 0.400754428181082 
1429	 0.400511945081615 
1430	 0.400280648192239 
1431	 0.400043536927258 
1432	 0.399840197534403 
1433	 0.399653203969035 
1434	 0.399486811421393 
1435	 0.399350735415001 
1436	 0.39920385764667 
1437	 0.399081937057661 
1438	 0.398932140509052 
1439	 0.398748830806144 
1440	 0.398616635879149 
1441	 0.39849828896837 
1442	 0.398381509915077 
1443	 0.398259747628109 
1444	 0.398212743213093 
1445	 0.398174654393975 
1446	 0.398195849710253 
1447	 0.398291132114295 
1448	 0.398421011482417 
1449	 0.39856066443812 
1450	 0.398787021488252 
1451	 0.399109664203684 
1452	 0.399439220645806 
1453	 0.39982831781931 
1454	 0.400220715543871 
1455	 0.40062307458416 
1456	 0.401059146889519 
1457	 0.401544679004809 
1458	 0.402018910736291 
1459	 0.402530084422504 
1460	 0.403013701087625 
1461	 0.403467584550304 
1462	 0.403933296024275 
1463	 0.40439994902433 
1464	 0.404863356827655 
1465	 0.405342268999483 
1466	 0.405808756007224 
1467	 0.406229385772055 
1468	 0.406642631043861 
1469	 0.407061581213365 
1470	 0.407463202880568 
1471	 0.407869864542742 
1472	 0.408293001625756 
1473	 0.408691739113106 
1474	 0.409070596750322 
1475	 0.409455163593174 
1476	 0.409843000555967 
1477	 0.410212506363467 
1478	 0.410560489669886 
1479	 0.410929352593988 
1480	 0.411296502213459 
1481	 0.411667230280095 
1482	 0.412077392941665 
1483	 0.412415963771578 
1484	 0.412720427366156 
1485	 0.413019206772675 
1486	 0.413263207992705 
1487	 0.413545338505914 
1488	 0.413835528876255 
1489	 0.414133304166923 
1490	 0.414451742108035 
1491	 0.414748274952884 
1492	 0.415037017939441 
1493	 0.415335350900736 
1494	 0.415607075318319 
1495	 0.415920251808501 
1496	 0.416272133907675 
1497	 0.41660644782581 
1498	 0.416960440330795 
1499	 0.417299404207719 
1500	 0.417622875996538 
1501	 0.417951246023881 
1502	 0.418261987818466 
1503	 0.418601045111296 
1504	 0.418970812472651 
1505	 0.419314121618408 
1506	 0.419694096706862 
1507	 0.420015081274014 
1508	 0.420266625911285 
1509	 0.420542739893668 
1510	 0.420808511922558 
1511	 0.421062090482644 
1512	 0.421346495516093 
1513	 0.42157661417544 
1514	 0.421731056983884 
1515	 0.421923106173758 
1516	 0.422102937465596 
1517	 0.42229212821256 
1518	 0.422521692062091 
1519	 0.422727544400477 
1520	 0.422929418682787 
1521	 0.423101034728555 
1522	 0.423277509172284 
1523	 0.423466445685537 
1524	 0.423585742062978 
1525	 0.4236697719351 
1526	 0.423765510853418 
1527	 0.423809362390862 
1528	 0.423906765326633 
1529	 0.4240376842902 
1530	 0.42415048690295 
1531	 0.424267161085618 
1532	 0.424374839184513 
1533	 0.424476017143857 
1534	 0.424589245073169 
1535	 0.424704824553134 
1536	 0.424811622873072 
1537	 0.424916788681875 
1538	 0.42504045416875 
1539	 0.425156932132456 
1540	 0.425295110071633 
1541	 0.425457832765136 
1542	 0.425623328167936 
1543	 0.425791299055137 
1544	 0.425972415618519 
1545	 0.426177662535059 
1546	 0.42636845715155 
1547	 0.426551992307401 
1548	 0.426754964173634 
1549	 0.42697419813348 
1550	 0.427172239780653 
1551	 0.427367708616733 
1552	 0.427572779699221 
1553	 0.427764021044694 
1554	 0.427968358307 
1555	 0.428201023014118 
1556	 0.428409711741831 
1557	 0.428608935863764 
1558	 0.428800358536537 
1559	 0.428974117359409 
1560	 0.429166598573752 
1561	 0.42935206157437 
1562	 0.429555878497836 
1563	 0.42979369750061 
1564	 0.429999909929108 
1565	 0.430186260490722 
1566	 0.43039659158014 
1567	 0.430601489735459 
1568	 0.430818054231407 
1569	 0.431078048038829 
1570	 0.431292047502947 
1571	 0.431484933538041 
1572	 0.431671928955741 
1573	 0.431823506072472 
1574	 0.432001576467259 
1575	 0.432185557202267 
1576	 0.432374013759451 
1577	 0.432569880138791 
1578	 0.432774110903899 
1579	 0.432979367897592 
1580	 0.433197905757127 
1581	 0.433441837021448 
1582	 0.433668826041552 
1583	 0.433913312312424 
1584	 0.43412079042662 
1585	 0.434291647095084 
1586	 0.434478472893218 
1587	 0.434619410770489 
1588	 0.434824888252282 
1589	 0.435099589647749 
1590	 0.435327904490359 
1591	 0.435584280438341 
1592	 0.435799543844738 
1593	 0.435947496256707 
1594	 0.436130513134083 
1595	 0.436316686816277 
1596	 0.436506686299813 
1597	 0.436724087195535 
1598	 0.436909990628676 
1599	 0.437079104836509 
1600	 0.437249510826186 
1601	 0.437378038845137 
1602	 0.437554092928983 
1603	 0.437765098842183 
1604	 0.437962286434268 
1605	 0.43818018353292 
1606	 0.438390771863559 
1607	 0.438602875089402 
1608	 0.438794593290892 
1609	 0.438992376230731 
1610	 0.439166050468198 
1611	 0.439298453479704 
1612	 0.439437367174616 
1613	 0.439561399365589 
1614	 0.439693339626883 
1615	 0.439834126482056 
1616	 0.439967280879108 
1617	 0.440123902654312 
1618	 0.44023310710033 
1619	 0.440293396632365 
1620	 0.440377464781285 
1621	 0.44042140849478 
1622	 0.440509192330787 
1623	 0.440675897650635 
1624	 0.440768679128582 
1625	 0.440825405211982 
1626	 0.440904622390446 
1627	 0.440942831764861 
1628	 0.441008355449139 
1629	 0.441140507031616 
1630	 0.441209112485101 
1631	 0.44121364366463 
1632	 0.441268827970102 
1633	 0.441317745310209 
1634	 0.441381293628591 
1635	 0.441508118215181 
1636	 0.441590808442363 
1637	 0.441633428420545 
1638	 0.441704931707683 
1639	 0.44178481605984 
1640	 0.441849208088025 
1641	 0.441940874292962 
1642	 0.441987572960939 
1643	 0.441983436505254 
1644	 0.442001688235441 
1645	 0.442008207382211 
1646	 0.442016025759899 
1647	 0.442042067433783 
1648	 0.442045777731648 
1649	 0.442043368910508 
1650	 0.442016768318414 
1651	 0.441986012096258 
1652	 0.441921015583535 
1653	 0.441816043101064 
1654	 0.441708186506374 
1655	 0.441594039312805 
1656	 0.441429220712979 
1657	 0.441209282479911 
1658	 0.441022000914706 
1659	 0.440844519519342 
1660	 0.440612556190616 
1661	 0.440387623766093 
1662	 0.440123334872362 
1663	 0.439818377732335 
1664	 0.439438128822714 
1665	 0.43902526601648 
1666	 0.438556244935872 
1667	 0.437974750315458 
1668	 0.43741068125889 
1669	 0.436883498701428 
1670	 0.436235827926478 
1671	 0.435513626914017 
1672	 0.434752530498212 
1673	 0.433909841657759 
1674	 0.433017342439062 
1675	 0.432092049698716 
1676	 0.431113893413276 
1677	 0.430069560251684 
1678	 0.428986839224518 
1679	 0.427846888130638 
1680	 0.426676710130788 
1681	 0.425464700054599 
1682	 0.424186545571381 
1683	 0.422882282949772 
1684	 0.421534270719177 
1685	 0.42011832108343 
1686	 0.418658354404093 
1687	 0.417159143074414 
1688	 0.415579039652359 
1689	 0.413903907305628 
1690	 0.412229950678522 
1691	 0.410543251203061 
1692	 0.408801570234134 
1693	 0.407027015143225 
1694	 0.405211976518357 
1695	 0.403321441885589 
1696	 0.401395647889294 
1697	 0.39946198317905 
1698	 0.3974108698769 
1699	 0.395249120348868 
1700	 0.393192446538999 
1701	 0.39108777231643 
1702	 0.389044178694916 
1703	 0.387034079422537 
1704	 0.385074833760305 
1705	 0.383077954489455 
1706	 0.381270778208802 
1707	 0.379671612017921 
1708	 0.378149487613452 
1709	 0.376749961335981 
1710	 0.375424757919823 
1711	 0.374108701812275 
1712	 0.372943102369403 
1713	 0.371860025683426 
1714	 0.370850534961777 
1715	 0.369944236200342 
1716	 0.369004976511512 
1717	 0.368101485121544 
1718	 0.367237410706719 
1719	 0.366409377139726 
1720	 0.365683185306637 
1721	 0.365002236009183 
1722	 0.364424912946109 
1723	 0.363930612288258 
1724	 0.363507932276758 
1725	 0.363251930472968 
1726	 0.36309959479422 
1727	 0.363120414285811 
1728	 0.363344269457957 
1729	 0.363700826305435 
1730	 0.364291140449467 
1731	 0.3650589051346 
1732	 0.36600117371359 
1733	 0.367099061279289 
1734	 0.36829326635407 
1735	 0.369567765815582 
1736	 0.370817961036669 
1737	 0.371963285995314 
1738	 0.372957228937017 
1739	 0.373818579874963 
1740	 0.374558566001129 
1741	 0.375147261064314 
1742	 0.375633539262615 
1743	 0.375922031831572 
1744	 0.375980592954982 
1745	 0.376008617882737 
1746	 0.375867645010117 
1747	 0.375729044903034 
1748	 0.375489941371808 
1749	 0.375306099935725 
1750	 0.375076624170014 
1751	 0.374909827747206 
1752	 0.374787283717296 
1753	 0.374723425260029 
1754	 0.374670453133759 
1755	 0.37475232347922 
1756	 0.374900324970884 
1757	 0.37515360146606 
1758	 0.375514848169554 
1759	 0.375910753732757 
1760	 0.376487133387674 
1761	 0.377222000601754 
1762	 0.377999555707677 
1763	 0.378942055190649 
1764	 0.379989148843611 
1765	 0.381115977349125 
1766	 0.382377663017867 
1767	 0.383671958157669 
1768	 0.38508487724113 
1769	 0.386566533903584 
1770	 0.387950281390303 
1771	 0.389308189490883 
1772	 0.390602221920639 
1773	 0.391802512993822 
1774	 0.392979204160274 
1775	 0.394091773446854 
1776	 0.395187119332953 
1777	 0.396191885131623 
1778	 0.397053703514461 
1779	 0.397865475314355 
1780	 0.398593119944441 
1781	 0.399240715716189 
1782	 0.399888920389119 
1783	 0.400541439601143 
1784	 0.401142712711509 
1785	 0.401661289101742 
1786	 0.402132347010996 
1787	 0.402535593097976 
1788	 0.402919054871404 
1789	 0.403250100472739 
1790	 0.403575328160745 
1791	 0.403875993829982 
1792	 0.404177874526912 
1793	 0.404446794745219 
1794	 0.404720806399326 
1795	 0.405041375852926 
1796	 0.405328676383947 
1797	 0.405587004111203 
1798	 0.405854410668902 
1799	 0.406100525739079 
1800	 0.40636474098798 
1801	 0.40831754700419 
1802	 0.40856975777551 
1803	 0.408816390232961 
1804	 0.409060605907558 
1805	 0.409307882226606 
1806	 0.409534476698535 
1807	 0.40972697437012 
1808	 0.409971074443997 
1809	 0.410211516883584 
1810	 0.410482092696448 
1811	 0.410807835342523 
1812	 0.411110451166695 
1813	 0.411419103026908 
1814	 0.411729556834742 
1815	 0.412026889612488 
1816	 0.412296222575555 
1817	 0.412595020885798 
1818	 0.412909183119789 
1819	 0.413203476828596 
1820	 0.413488947865671 
1821	 0.413799434396613 
1822	 0.414111480794562 
1823	 0.414409496590929 
1824	 0.414754556681423 
1825	 0.415114893302106 
1826	 0.415463007829173 
1827	 0.415810873699165 
1828	 0.416163104498359 
1829	 0.416560441835044 
1830	 0.416880355428016 
1831	 0.417169080283046 
1832	 0.417435343349156 
1833	 0.41769970144101 
1834	 0.417963444725605 
1835	 0.418265124479174 
1836	 0.41854458815903 
1837	 0.418812597246231 
1838	 0.419028183344083 
1839	 0.419306980184187 
1840	 0.419611311395543 
1841	 0.419924113106704 
1842	 0.420282663503039 
1843	 0.420603703591487 
1844	 0.420925815918667 
1845	 0.421235756842211 
1846	 0.421509981373993 
1847	 0.421774228060569 
1848	 0.422024167761907 
1849	 0.422264342682409 
1850	 0.422464960799544 
1851	 0.422632952472762 
1852	 0.422817947032482 
1853	 0.422968462753373 
1854	 0.423071140241217 
1855	 0.423194575258947 
1856	 0.423270834356258 
1857	 0.423328289900048 
1858	 0.423361056247437 
1859	 0.423368086556366 
1860	 0.423356589347043 
1861	 0.423328587639381 
1862	 0.423276314489601 
1863	 0.423201907759802 
1864	 0.423123520242688 
1865	 0.422963805613791 
1866	 0.422745816099422 
1867	 0.422514716047205 
1868	 0.422212202423503 
1869	 0.421872554183056 
1870	 0.421526277550825 
1871	 0.421167869590351 
1872	 0.420759657253714 
1873	 0.420326350771695 
1874	 0.419891824121667 
1875	 0.419364565943898 
1876	 0.418728735261212 
1877	 0.418085665405196 
1878	 0.417346514970215 
1879	 0.416520272365908 
1880	 0.415682708828327 
1881	 0.414759987434795 
1882	 0.413743740321317 
1883	 0.412695285736889 
1884	 0.41157758120918 
1885	 0.410323873542577 
1886	 0.409039789641933 
1887	 0.407559816215034 
1888	 0.405958905122158 
1889	 0.404421061811933 
1890	 0.402746965682998 
1891	 0.40109938326761 
1892	 0.399443455226096 
1893	 0.39769081175971 
1894	 0.395824562634899 
1895	 0.394007762950867 
1896	 0.392128790421472 
1897	 0.39027940991721 
1898	 0.388585326293538 
1899	 0.386842847349256 
1900	 0.385178485272031 
1901	 0.383588664179037 
1902	 0.381884622993469 
1903	 0.380250389645467 
1904	 0.378717449145899 
1905	 0.377224769884 
1906	 0.375786314674373 
1907	 0.374541065567654 
1908	 0.373365363874185 
1909	 0.372240539398193 
1910	 0.371204756610898 
1911	 0.370151566607102 
1912	 0.369186406944205 
1913	 0.368271586542634 
1914	 0.367347115314203 
1915	 0.366546939401549 
1916	 0.365845577562276 
1917	 0.365216621502981 
1918	 0.364641339135724 
1919	 0.364128967512928 
1920	 0.363654089882986 
1921	 0.363234271477036 
1922	 0.362843617737236 
1923	 0.362513322381976 
1924	 0.362225673855325 
1925	 0.361933321771617 
1926	 0.361686072901735 
1927	 0.361474184286207 
1928	 0.361297612528303 
1929	 0.361163654724376 
1930	 0.361042772597088 
1931	 0.3609495034037 
1932	 0.360849203915065 
1933	 0.360769116424565 
1934	 0.360779028102664 
1935	 0.360815519919806 
1936	 0.360881461596521 
1937	 0.361004210865276 
1938	 0.361178824183205 
1939	 0.361365042762199 
1940	 0.361587688587691 
1941	 0.361869825965156 
1942	 0.362110946024266 
1943	 0.362398112450297 
1944	 0.362703949772741 
1945	 0.36302827206384 
1946	 0.363452663843151 
1947	 0.363889434658234 
1948	 0.364334430211641 
1949	 0.364791922988659 
1950	 0.365280104126225 
1951	 0.365786292143047 
1952	 0.366316290599492 
1953	 0.366869115798573 
1954	 0.367453529291245 
1955	 0.368102058646508 
1956	 0.368702760669565 
1957	 0.369325229057411 
1958	 0.369996222811205 
1959	 0.370612093738636 
1960	 0.371213780859258 
1961	 0.371806810007741 
1962	 0.372408019540096 
1963	 0.372968700793603 
1964	 0.37349231400686 
1965	 0.374011097545551 
1966	 0.374513028892681 
1967	 0.375012030090794 
1968	 0.375462513179086 
1969	 0.37596112618001 
1970	 0.376453326934751 
1971	 0.376901264127007 
1972	 0.377404749574573 
1973	 0.377880912872771 
1974	 0.378364684333064 
1975	 0.378861051098302 
1976	 0.379349438699221 
1977	 0.379836522941497 
1978	 0.380323029228056 
1979	 0.380804165250958 
1980	 0.38126297378026 
1981	 0.381788076155152 
1982	 0.382278908952307 
1983	 0.382796481425222 
1984	 0.383306959518987 
1985	 0.383705687350821 
1986	 0.384169794486155 
1987	 0.384659488319762 
1988	 0.38513922970232 
1989	 0.385663342986574 
1990	 0.386258583882399 
1991	 0.386819389391369 
1992	 0.387365133717667 
1993	 0.387964323230122 
1994	 0.388515353539696 
1995	 0.389132786560254 
1996	 0.389762096898999 
1997	 0.39035948813564 
1998	 0.391008174321626 
1999	 0.391723970180101 
2000	 0.392359579307574 
2001	 0.393033102298295 
2002	 0.393615820513677 
2003	 0.394123877362854 
2004	 0.394605104309897 
2005	 0.395008663037338 
2006	 0.395421278662291 
2007	 0.395788552598659 
2008	 0.396202573634716 
2009	 0.396610680612754 
2010	 0.396980400591139 
2011	 0.397280849459938 
2012	 0.397544939841683 
2013	 0.397786504817033 
2014	 0.397969346156316 
2015	 0.398150551933794 
2016	 0.398338070346235 
2017	 0.398470829196631 
2018	 0.398567893025549 
2019	 0.398624252671003 
2020	 0.39863713025744 
2021	 0.398616800236404 
2022	 0.39854479322431 
2023	 0.398504289325526 
2024	 0.398478040480325 
2025	 0.398414465923524 
2026	 0.398323875957534 
2027	 0.398228289098429 
2028	 0.398087017461824 
2029	 0.397883804804297 
2030	 0.397699085243769 
2031	 0.397509154063324 
2032	 0.397297786283219 
2033	 0.397068390340314 
2034	 0.396833929771308 
2035	 0.396565344805157 
2036	 0.396307994945598 
2037	 0.396089071885609 
2038	 0.395876163524065 
2039	 0.395669786000459 
2040	 0.395496921681807 
2041	 0.395289726079709 
2042	 0.395066932039337 
2043	 0.394852162253659 
2044	 0.394628583812485 
2045	 0.394418090799006 
2046	 0.394207566749679 
2047	 0.394011437783082 
2048	 0.393812981806097 
2049	 0.393633103778883 
2050	 0.393468507968088 
2051	 0.393319735158443 
2052	 0.393177040106526 
2053	 0.393095431755232 
2054	 0.392984990873101 
2055	 0.392890958546379 
2056	 0.392786797994559 
2057	 0.392678983697822 
2058	 0.392555918289071 
2059	 0.392429493717807 
2060	 0.392299453575568 
2061	 0.392124876157932 
2062	 0.392002641536204 
2063	 0.39192245862401 
2064	 0.391821014931487 
2065	 0.391738177095616 
2066	 0.391664122308893 
2067	 0.391498695664164 
2068	 0.391354130221333 
2069	 0.391231380195241 
2070	 0.391088241031891 
2071	 0.390983026857552 
2072	 0.390945849186543 
2073	 0.39083877414571 
2074	 0.390703131945472 
2075	 0.390584951377622 
2076	 0.39044765265869 
2077	 0.390319851887238 
2078	 0.390211357557591 
2079	 0.39008255438596 
2080	 0.389917996381146 
2081	 0.38979502436738 
2082	 0.389691812508777 
2083	 0.389602057767506 
2084	 0.389483057803578 
2085	 0.389347299089825 
2086	 0.389233794688524 
2087	 0.389086180404386 
2088	 0.38897785327178 
2089	 0.388935666277669 
2090	 0.388827217644691 
2091	 0.388704197385429 
2092	 0.388554078394767 
2093	 0.388364191348347 
2094	 0.388191271481545 
2095	 0.388001533481474 
2096	 0.387808561754106 
2097	 0.387635980264317 
2098	 0.387420213179382 
2099	 0.387190194097926 
2100	 0.387007736416354 
2101	 0.386790839379408 
2102	 0.386565449613425 
2103	 0.386350563075735 
2104	 0.386129224346117 
2105	 0.385896948739308 
2106	 0.385677936883652 
2107	 0.385437441865803 
2108	 0.385192966689934 
2109	 0.384912320400496 
2110	 0.384593416108892 
2111	 0.38428874944921 
2112	 0.383958753546099 
2113	 0.383631758492339 
2114	 0.383346207259592 
2115	 0.383014911072121 
2116	 0.382654632748267 
2117	 0.382252655440511 
2118	 0.381888365816569 
2119	 0.381521988778943 
2120	 0.381134497121303 
2121	 0.38073827053778 
2122	 0.380380684827372 
2123	 0.379979977500689 
2124	 0.379664645532384 
2125	 0.379421429442908 
2126	 0.379187866183198 
2127	 0.378986668556685 
2128	 0.378812953939914 
2129	 0.378687121197972 
2130	 0.378555281429565 
2131	 0.378425173718314 
2132	 0.378329937944026 
2133	 0.378258472709458 
2134	 0.378205767159779 
2135	 0.378150834624894 
2136	 0.378103150321582 
2137	 0.378078344684508 
2138	 0.378059868012787 
2139	 0.378032903818594 
2140	 0.378021085771446 
2141	 0.378025006912807 
2142	 0.378008529154894 
2143	 0.378023539765471 
2144	 0.378102689320838 
2145	 0.378137843988912 
2146	 0.378115399510646 
2147	 0.378176628589437 
2148	 0.378264314920689 
2149	 0.378370758298042 
2150	 0.378540844981115 
2151	 0.378705249119985 
2152	 0.37888497441539 
2153	 0.379051309789469 
2154	 0.379249414298256 
2155	 0.379428033140215 
2156	 0.379564901370918 
2157	 0.379685744485671 
2158	 0.379759581102724 
2159	 0.379773044829014 
2160	 0.379813814498279 
2161	 0.379853110807925 
2162	 0.379840968034896 
2163	 0.379807020371068 
2164	 0.379767868597743 
2165	 0.379658465590767 
2166	 0.379599911715822 
2167	 0.379616758283302 
2168	 0.379541236731275 
2169	 0.379413713579841 
2170	 0.379304983729748 
2171	 0.379143683325672 
2172	 0.379002229730828 
2173	 0.378896362920997 
2174	 0.378762504484531 
2175	 0.378639721791102 
2176	 0.378527296895775 
2177	 0.378415069932977 
2178	 0.378315890284399 
2179	 0.378238057655119 
2180	 0.378162022181943 
2181	 0.378094306543935 
2182	 0.378089733960186 
2183	 0.37799468303732 
2184	 0.377818860328688 
2185	 0.377720427913112 
2186	 0.377642470240709 
2187	 0.377526081084078 
2188	 0.377461938247622 
2189	 0.377330391931202 
2190	 0.377103922513177 
2191	 0.376908858788892 
2192	 0.376711987512269 
2193	 0.376510813387719 
2194	 0.376324871391331 
2195	 0.376104436628148 
2196	 0.375862683043799 
2197	 0.375610008408718 
2198	 0.375349254141892 
2199	 0.375045062318588 
2200	 0.374740504049339 
2201	 0.374426899714625 
2202	 0.374103495276145 
2203	 0.373768191969363 
2204	 0.373409369520014 
2205	 0.373029340667348 
2206	 0.372653768298272 
2207	 0.372252141856709 
2208	 0.371859318556131 
2209	 0.37148440229923 
2210	 0.371098542315004 
2211	 0.370713961969891 
2212	 0.370301182830266 
2213	 0.369868472809063 
2214	 0.369434445477923 
2215	 0.368963168408669 
2216	 0.36852021893461 
2217	 0.368163738515933 
2218	 0.36768621420121 
2219	 0.367127630779111 
2220	 0.36659529764856 
2221	 0.366008589812675 
2222	 0.365397280760041 
2223	 0.364864689075152 
2224	 0.364302397590469 
2225	 0.363703209565551 
2226	 0.363035445393845 
2227	 0.362281731502414 
2228	 0.361451823879726 
2229	 0.360602380326189 
2230	 0.359676749078793 
2231	 0.358719050347032 
2232	 0.357743802290288 
2233	 0.35667816896832 
2234	 0.355596659542168 
2235	 0.354320925947271 
2236	 0.352941567687363 
2237	 0.35146069637124 
2238	 0.349748323769494 
2239	 0.348081626052675 
2240	 0.346440420155036 
2241	 0.344603469570651 
2242	 0.342710029454768 
2243	 0.340647766789 
2244	 0.338364325902868 
2245	 0.336047234097652 
2246	 0.333537210936424 
2247	 0.331084098612232 
2248	 0.328602267508045 
2249	 0.326082892926066 
2250	 0.323531534220697 
2251	 0.321052890966817 
2252	 0.318369490735418 
2253	 0.315718981947574 
2254	 0.313097664133878 
2255	 0.310376223028715 
2256	 0.307845791905443 
2257	 0.305336684347419 
2258	 0.302875868374042 
2259	 0.30052172718975 
2260	 0.298100326908736 
2261	 0.295663159046894 
2262	 0.293292489778324 
2263	 0.290858895136293 
2264	 0.288620053708494 
2265	 0.286533000024054 
2266	 0.284430686084609 
2267	 0.282476681485388 
2268	 0.280435057154596 
2269	 0.278352030507191 
2270	 0.276320638848859 
2271	 0.274237899090479 
2272	 0.272293588455035 
2273	 0.270454898232531 
2274	 0.268616657561745 
2275	 0.266944986107874 
2276	 0.265129535794226 
2277	 0.263263616221674 
2278	 0.261363499238208 
2279	 0.25931894669732 
2280	 0.257355209015529 
2281	 0.255491749189263 
2282	 0.253498813941019 
2283	 0.251497643234146 
2284	 0.249438828608617 
2285	 0.247133970287954 
2286	 0.244832607204418 
2287	 0.242479518549052 
2288	 0.24011015507551 
2289	 0.237837723228522 
2290	 0.235362317312791 
2291	 0.232883582000912 
2292	 0.23052828989705 
2293	 0.228144444489912 
2294	 0.225802159407908 
2295	 0.223440575375527 
2296	 0.221000322306646 
2297	 0.218837034964924 
2298	 0.216682441960443 
2299	 0.214918141451565 
2300	 0.213455341840326 
2301	 0.212194052379641 
2302	 0.211163685948119 
2303	 0.210427868784893 
2304	 0.20996460920117 
2305	 0.209745479973437 
2306	 0.209807227070948 
2307	 0.210142817606229 
2308	 0.210710403503712 
2309	 0.211658126664658 
2310	 0.21301128065264 
2311	 0.214526782334485 
2312	 0.216463564882581 
2313	 0.218399982689133 
2314	 0.220560857751316 
2315	 0.222743279225113 
2316	 0.225112477339575 
2317	 0.227319903500997 
2318	 0.22960160056171 
2319	 0.231669714632837 
2320	 0.233738737136297 
2321	 0.235440929748974 
2322	 0.236958514789791 
2323	 0.238143870008801 
2324	 0.238876350704455 
2325	 0.239541426995616 
2326	 0.239996730021911 
2327	 0.240285883352969 
2328	 0.240458133190319 
2329	 0.24035321057983 
2330	 0.239954414771531 
2331	 0.239382027714607 
2332	 0.238801261123086 
2333	 0.237997302889742 
2334	 0.236968671832056 
2335	 0.235877882629127 
2336	 0.234472659337437 
2337	 0.232883010670627 
2338	 0.23159251694564 
2339	 0.230273390889122 
2340	 0.228789263821418 
2341	 0.227351307954062 
2342	 0.225803289185246 
2343	 0.224399160138772 
2344	 0.223233628529811 
2345	 0.222392603048088 
2346	 0.221841256507635 
2347	 0.221424244609396 
2348	 0.221380903753703 
2349	 0.221620421342805 
2350	 0.222108150187296 
2351	 0.222962165450256 
2352	 0.224295658852573 
2353	 0.225980042265988 
2354	 0.22752856464733 
2355	 0.229118214757697 
2356	 0.230443190756521 
2357	 0.231669271412989 
2358	 0.233157120431161 
2359	 0.234422564082562 
2360	 0.235431843358772 
2361	 0.235952636304092 
2362	 0.236090720799637 
2363	 0.236113362189105 
2364	 0.236124286763735 
2365	 0.236224326806452 
2366	 0.236329019256648 
2367	 0.236367613576225 
2368	 0.23607965824066 
2369	 0.235683628526291 
2370	 0.235497253916973 
2371	 0.235337011273101 
2372	 0.235485401048369 
2373	 0.235821382972383 
2374	 0.235887360532718 
2375	 0.235810998499694 
2376	 0.235676236491592 
2377	 0.235605821030795 
2378	 0.235486852303239 
2379	 0.235386333596605 
2380	 0.235443544059734 
2381	 0.235430627115813 
2382	 0.235441676947954 
2383	 0.235439443361141 
2384	 0.235657334550756 
2385	 0.23601606876155 
2386	 0.23629928287536 
2387	 0.236845969753353 
2388	 0.237102419392957 
2389	 0.236954688746548 
2390	 0.237142476798448 
2391	 0.237505959671398 
2392	 0.237685443497422 
2393	 0.238018621437184 
2394	 0.238211001598535 
2395	 0.238079275398889 
2396	 0.238214936524224 
2397	 0.238465049160845 
2398	 0.238611230747673 
2399	 0.238749735272537 
2400	 0.238990838363175 
2401	 0.23929693280331 
2402	 0.239492248059499 
2403	 0.239833924869828 
2404	 0.239941151088357 
2405	 0.239894680076671 
2406	 0.23991329683561 
2407	 0.239727297012634 
2408	 0.239765349943744 
2409	 0.240018065513675 
2410	 0.239895163904723 
2411	 0.23991079136321 
2412	 0.239964578732648 
2413	 0.239791151970708 
2414	 0.240043650557817 
2415	 0.240427044365609 
2416	 0.240702665401939 
2417	 0.240891101995994 
2418	 0.241026571353056 
2419	 0.24109548510529 
2420	 0.240966618281471 
2421	 0.240877404043602 
2422	 0.240763648945898 
2423	 0.240831792643038 
2424	 0.241016838648678 
2425	 0.241104979941777 
2426	 0.241218514634961 
2427	 0.241264507881205 
2428	 0.241297796649846 
2429	 0.24130063290467 
2430	 0.241299603392979 
2431	 0.241267944823843 
2432	 0.241212113131331 
2433	 0.24122202355282 
2434	 0.241206697797452 
2435	 0.24118214879398 
2436	 0.241129867585403 
2437	 0.241276751243312 
2438	 0.241344463599892 
2439	 0.2411959787208 
2440	 0.241236644753378 
2441	 0.241204797425381 
2442	 0.241349809028305 
2443	 0.241656546644847 
2444	 0.241736276493738 
2445	 0.241877132106656 
2446	 0.242105627820241 
2447	 0.24212589302602 
2448	 0.241837411122027 
2449	 0.241421031577187 
2450	 0.240967978256019 
2451	 0.240552599418076 
2452	 0.240463375236617 
2453	 0.240528534693767 
2454	 0.240538141129631 
2455	 0.240530363980152 
2456	 0.240423484054971 
2457	 0.240267727150592 
2458	 0.239791031715016 
2459	 0.239350265884836 
2460	 0.239230564501709 
2461	 0.239265825298842 
2462	 0.23957850829342 
2463	 0.239610237493386 
2464	 0.239580612305411 
2465	 0.239296950149743 
2466	 0.238698793278099 
2467	 0.238637719038051 
2468	 0.238603758384853 
2469	 0.23859989191389 
2470	 0.238803998538541 
2471	 0.238868191054613 
2472	 0.23898828507373 
2473	 0.239193932756584 
2474	 0.239153509297842 
2475	 0.239020019153215 
2476	 0.238925807590672 
2477	 0.239021185810032 
2478	 0.239386936674973 
2479	 0.239630839722449 
2480	 0.23936704678671 
2481	 0.239163223414823 
2482	 0.238922966503895 
2483	 0.238923099037404 
2484	 0.239209273706146 
2485	 0.239884691185765 
2486	 0.24031969452203 
2487	 0.240813915126077 
2488	 0.240979759839601 
2489	 0.240881633009734 
2490	 0.241356232260691 
2491	 0.242227288543204 
2492	 0.243024734340167 
2493	 0.24431792547155 
2494	 0.245244691533021 
2495	 0.245030145576432 
2496	 0.244957828355529 
2497	 0.245244678358038 
2498	 0.245673141679619 
2499	 0.246172794291777 
2500	 0.246781046162676 
