Wavelength	Tablay400053.asd
350	 0.31029821771587 
351	 0.305278297792849 
352	 0.309365691584226 
353	 0.273248918588409 
354	 0.281616255969627 
355	 0.27800706942541 
356	 0.274330538731365 
357	 0.289042086475663 
358	 0.322745368031415 
359	 0.320606481279022 
360	 0.305622684474518 
361	 0.321108661002714 
362	 0.218467907154027 
363	 0.159099973849727 
364	 0.185687665203484 
365	 0.152783675454625 
366	 0.171766810935751 
367	 0.194603954596347 
368	 0.179039432949179 
369	 0.213059331278279 
370	 0.231086368151759 
371	 0.224897003438154 
372	 0.217817511309092 
373	 0.179468966490745 
374	 0.14405711342583 
375	 0.137657656173557 
376	 0.175306429792705 
377	 0.189435140571684 
378	 0.189002105632789 
379	 0.187826132494428 
380	 0.134566172714521 
381	 0.116862062554971 
382	 0.142135938716659 
383	 0.15946422716948 
384	 0.14755010558349 
385	 0.133869650274086 
386	 0.136579677466425 
387	 0.145582079789299 
388	 0.161055210769931 
389	 0.173896751689037 
390	 0.171569167865258 
391	 0.136567157596277 
392	 0.103143749443696 
393	 0.088926457070425 
394	 9.53528314864355E-02 
395	 9.60667629226958E-02 
396	 0.101193102989355 
397	 0.110258895892953 
398	 9.47100257639844E-02 
399	 0.103845349819044 
400	 0.115354302776197 
401	 0.104276166399697 
402	 0.113147811401294 
403	 0.119897935446674 
404	 0.118410102820433 
405	 0.115128633271415 
406	 0.104324088438244 
407	 9.53641802562392E-02 
408	 9.22811105384683E-02 
409	 8.67004421053705E-02 
410	 8.98647420896925E-02 
411	 0.100167649060178 
412	 0.108714144823055 
413	 9.36596169973178E-02 
414	 8.48132378643988E-02 
415	 8.78141824891713E-02 
416	 8.60773318273971E-02 
417	 8.52421441192565E-02 
418	 8.10885584409582E-02 
419	 7.34501630338428E-02 
420	 7.57205466749096E-02 
421	 0.074135385918926 
422	 7.14843249109594E-02 
423	 0.074899944714492 
424	 7.34361330475317E-02 
425	 7.39516184887555E-02 
426	 7.69770910659242E-02 
427	 7.49925852653525E-02 
428	 7.62223148569301E-02 
429	 7.27159916915297E-02 
430	 6.23654235479971E-02 
431	 7.02662769110841E-02 
432	 0.074833548394816 
433	 7.29910089856509E-02 
434	 7.17893778501481E-02 
435	 6.96779913692288E-02 
436	 6.80546489346251E-02 
437	 6.76869425638603E-02 
438	 6.83174459219785E-02 
439	 6.60517493973419E-02 
440	 6.46104917707191E-02 
441	 0.06732910390923 
442	 6.75189379135412E-02 
443	 6.59853644867464E-02 
444	 6.49926347820188E-02 
445	 6.70097557814102E-02 
446	 6.24159481614497E-02 
447	 0.059512836624894 
448	 0.063056598405588 
449	 6.51420460119774E-02 
450	 0.064759374552939 
451	 6.35267296663447E-02 
452	 0.063834038235866 
453	 6.44893820312996E-02 
454	 6.42483880143824E-02 
455	 0.062923114550433 
456	 6.14781138572528E-02 
457	 6.26085573308474E-02 
458	 6.27436745641808E-02 
459	 6.00231654975288E-02 
460	 6.13882710567007E-02 
461	 6.34031504929059E-02 
462	 6.36453994621145E-02 
463	 6.11551399133455E-02 
464	 6.20578498453224E-02 
465	 6.27046263719833E-02 
466	 6.13856670383841E-02 
467	 6.08252133986399E-02 
468	 6.04950853387477E-02 
469	 5.99691563289423E-02 
470	 0.059222588339692 
471	 5.99886336470057E-02 
472	 6.05256804969152E-02 
473	 6.02624593434804E-02 
474	 5.96867213472972E-02 
475	 5.98541329558828E-02 
476	 5.94339147056577E-02 
477	 5.82898591123767E-02 
478	 5.99526657078852E-02 
479	 0.059545367581607 
480	 5.78494918692008E-02 
481	 0.057585482604851 
482	 5.90756631306988E-02 
483	 0.059588347809451 
484	 5.83726769287693E-02 
485	 5.70673820026647E-02 
486	 5.76058355144521E-02 
487	 5.85574596327105E-02 
488	 5.84938460530327E-02 
489	 5.87344222023376E-02 
490	 5.69572073051405E-02 
491	 0.055285934201375 
492	 5.75231767902829E-02 
493	 5.81020761603231E-02 
494	 5.75864507319069E-02 
495	 5.71254564678487E-02 
496	 5.75911441737775E-02 
497	 0.058022121864625 
498	 5.76123377556805E-02 
499	 5.61539721775541E-02 
500	 5.54394948433316E-02 
501	 5.62924507550013E-02 
502	 5.77726453811004E-02 
503	 5.76354330263841E-02 
504	 5.68194329525603E-02 
505	 5.67237944010392E-02 
506	 5.77503943295281E-02 
507	 5.79287377876822E-02 
508	 5.73463312154884E-02 
509	 5.69864175148791E-02 
510	 5.77718614102188E-02 
511	 5.70393863905816E-02 
512	 5.64983272468208E-02 
513	 5.67431321097257E-02 
514	 5.65070319685731E-02 
515	 5.71529562604529E-02 
516	 5.77082595222835E-02 
517	 5.72206704042246E-02 
518	 5.67508858747838E-02 
519	 5.64826272127588E-02 
520	 5.64374712125452E-02 
521	 5.65182116688162E-02 
522	 5.65923138310635E-02 
523	 5.71761133138995E-02 
524	 0.058121129703293 
525	 5.77814981911004E-02 
526	 0.057594789785087 
527	 5.76936864654095E-02 
528	 5.77958120089972E-02 
529	 0.057983202234231 
530	 5.80158752750711E-02 
531	 5.79682547053105E-02 
532	 5.82415213291089E-02 
533	 5.88196502924194E-02 
534	 5.89599664584531E-02 
535	 5.84236319741449E-02 
536	 5.88064774344118E-02 
537	 5.93187446797251E-02 
538	 5.95712575686657E-02 
539	 5.94980447400601E-02 
540	 5.98085591465668E-02 
541	 6.01545356376816E-02 
542	 6.02990291354091E-02 
543	 6.03690454754783E-02 
544	 6.03888362535786E-02 
545	 6.06452956694072E-02 
546	 6.12766085508303E-02 
547	 6.14932045677436E-02 
548	 6.15924524899749E-02 
549	 6.18204307486614E-02 
550	 6.23205232060588E-02 
551	 6.29033546028231E-02 
552	 6.34007158470454E-02 
553	 6.37402949963855E-02 
554	 6.40221450789698E-02 
555	 6.45458300616845E-02 
556	 0.065178541794304 
557	 6.56414817975054E-02 
558	 6.62892722229555E-02 
559	 6.70846723333934E-02 
560	 6.80175389873013E-02 
561	 0.069173066051775 
562	 7.01147516728579E-02 
563	 7.10867895021652E-02 
564	 7.23087083194276E-02 
565	 7.31250867358864E-02 
566	 7.41797381434574E-02 
567	 7.55670436608338E-02 
568	 7.69525596174553E-02 
569	 7.82062250523476E-02 
570	 7.96632063759876E-02 
571	 8.14704522144349E-02 
572	 8.31964090450914E-02 
573	 8.54171270186248E-02 
574	 0.087936187055737 
575	 9.03120595973058E-02 
576	 9.25249153142441E-02 
577	 0.094916976763762 
578	 9.76696797802751E-02 
579	 0.100745574746529 
580	 0.103894033570824 
581	 0.107077723009003 
582	 0.110362396066288 
583	 0.113845796562026 
584	 0.117934400477079 
585	 0.122587114959285 
586	 0.127491620303952 
587	 0.13262157139967 
588	 0.137937749115331 
589	 0.14356936568417 
590	 0.149908222755264 
591	 0.156407552641708 
592	 0.16313755654005 
593	 0.170241198406077 
594	 0.177270428929742 
595	 0.184620295788809 
596	 0.192235549938015 
597	 0.199681887680442 
598	 0.207154174273867 
599	 0.214803075334886 
600	 0.222731949383736 
601	 0.230920493486622 
602	 0.239083273192312 
603	 0.247060531405017 
604	 0.254776270891303 
605	 0.262407026815766 
606	 0.269769624570136 
607	 0.276795751319104 
608	 0.283559490480461 
609	 0.289820175141037 
610	 0.295666568341209 
611	 0.301260568480315 
612	 0.306628062526451 
613	 0.311771193881371 
614	 0.316610820252028 
615	 0.321050606436395 
616	 0.325285636790043 
617	 0.32915222609033 
618	 0.332601892989833 
619	 0.335876685144926 
620	 0.338883912443935 
621	 0.341675983090355 
622	 0.34435306062536 
623	 0.347003951275153 
624	 0.349491360027324 
625	 0.351713626120769 
626	 0.353632960750284 
627	 0.355488295165932 
628	 0.357245320983266 
629	 0.358892039482904 
630	 0.360640760733907 
631	 0.362078020103618 
632	 0.363295040023871 
633	 0.36456882986414 
634	 0.36571456806227 
635	 0.367056124612377 
636	 0.368511115609055 
637	 0.369461519095651 
638	 0.37030339922545 
639	 0.371301587417069 
640	 0.372517288764254 
641	 0.373486269606567 
642	 0.374309292399898 
643	 0.375110290720256 
644	 0.375995653116079 
645	 0.376693250062659 
646	 0.377455317661036 
647	 0.378326332931204 
648	 0.378899590433919 
649	 0.379723472200915 
650	 0.380507605063276 
651	 0.380948369623108 
652	 0.381821050725983 
653	 0.382655098230783 
654	 0.383226593994273 
655	 0.383586413005776 
656	 0.384284398958139 
657	 0.384998056810443 
658	 0.385481636506063 
659	 0.38593537646883 
660	 0.386567164218698 
661	 0.387287288548035 
662	 0.387887153219754 
663	 0.388238783313329 
664	 0.38873292795514 
665	 0.389430685658243 
666	 0.390033135471006 
667	 0.390504170785748 
668	 0.390881333781143 
669	 0.391271687079465 
670	 0.391933241681239 
671	 0.392390801984462 
672	 0.392716347808413 
673	 0.393192661909216 
674	 0.39363643393916 
675	 0.394053290383567 
676	 0.394510879603389 
677	 0.395127586458347 
678	 0.395489579897656 
679	 0.395787830337138 
680	 0.396225166580414 
681	 0.396567019028803 
682	 0.397011487244373 
683	 0.397528158682104 
684	 0.39797129908247 
685	 0.398367086212492 
686	 0.398756048003936 
687	 0.399140933461847 
688	 0.399469141605064 
689	 0.39985329119911 
690	 0.400212005342925 
691	 0.400498334047541 
692	 0.400987115613672 
693	 0.401295334762268 
694	 0.401514295637573 
695	 0.401983698023935 
696	 0.402301644553153 
697	 0.402700046688662 
698	 0.403221865145485 
699	 0.403505458030994 
700	 0.40372928235495 
701	 0.40397970736001 
702	 0.404296385661367 
703	 0.404629305742716 
704	 0.404986959861236 
705	 0.405325829447126 
706	 0.405585210149774 
707	 0.405921511454228 
708	 0.406179791529024 
709	 0.406354889812302 
710	 0.406757154223847 
711	 0.40713206776291 
712	 0.407435365896042 
713	 0.407697664655987 
714	 0.407967893282115 
715	 0.408298236487771 
716	 0.408636340357826 
717	 0.408868562843066 
718	 0.409056606070485 
719	 0.40934402371079 
720	 0.409742131659075 
721	 0.410032040309803 
722	 0.410202329636422 
723	 0.410426860091701 
724	 0.410827060490874 
725	 0.411059344851831 
726	 0.41143127947838 
727	 0.411821938366685 
728	 0.411863931237652 
729	 0.412011770201138 
730	 0.412300416310415 
731	 0.412656818700462 
732	 0.412927287164816 
733	 0.413359604112146 
734	 0.413726653066419 
735	 0.413802899863083 
736	 0.413885512917362 
737	 0.413948384705838 
738	 0.414156665807707 
739	 0.414706555959713 
740	 0.414904305481343 
741	 0.415083280872356 
742	 0.415448076720791 
743	 0.415821945637663 
744	 0.416121178670627 
745	 0.416375425100022 
746	 0.416632016888063 
747	 0.41686046895012 
748	 0.41708346207364 
749	 0.417353209322661 
750	 0.417709912360161 
751	 0.417977908994037 
752	 0.418243153639996 
753	 0.418518133499159 
754	 0.418688808539068 
755	 0.418893359240872 
756	 0.419195923958687 
757	 0.419555041757939 
758	 0.419676995339795 
759	 0.419904607290489 
760	 0.420203925159788 
761	 0.420403294761119 
762	 0.420698380235015 
763	 0.420974113517772 
764	 0.421184764271253 
765	 0.421386163628827 
766	 0.421669418346023 
767	 0.421953618877605 
768	 0.422176990529599 
769	 0.422396661859377 
770	 0.422678753748088 
771	 0.422934494050188 
772	 0.423077682760637 
773	 0.423328158294859 
774	 0.423692890653744 
775	 0.424056000333348 
776	 0.424238804104133 
777	 0.424430997551165 
778	 0.4246962014617 
779	 0.424995224021576 
780	 0.42514979863604 
781	 0.425383321315257 
782	 0.425692982513089 
783	 0.425994239213187 
784	 0.426170131090078 
785	 0.426297791800662 
786	 0.426486339533486 
787	 0.426821915399219 
788	 0.427110753465184 
789	 0.427428243678891 
790	 0.427730622053988 
791	 0.42782186829471 
792	 0.427963415512318 
793	 0.428204443753431 
794	 0.428502718135451 
795	 0.428719104632 
796	 0.428899648285663 
797	 0.429071252375361 
798	 0.429275983671399 
799	 0.429648317975684 
800	 0.429950935763063 
801	 0.430173094957905 
802	 0.430462193344801 
803	 0.430516282923552 
804	 0.430729844959009 
805	 0.431157471340735 
806	 0.431228734823582 
807	 0.431419427282788 
808	 0.431655912467199 
809	 0.43182166185535 
810	 0.432100271118332 
811	 0.432262284250464 
812	 0.432370660880466 
813	 0.432587174662488 
814	 0.432804128090156 
815	 0.433071333415626 
816	 0.433356265109772 
817	 0.433549230213078 
818	 0.43358804142917 
819	 0.433669268063434 
820	 0.433905422870697 
821	 0.43420518066164 
822	 0.434629388665485 
823	 0.434817611894936 
824	 0.434625852100561 
825	 0.434890248307406 
826	 0.435073250478643 
827	 0.435219955842918 
828	 0.435552487173566 
829	 0.435679631341767 
830	 0.435839168299702 
831	 0.436069652551837 
832	 0.436212025355032 
833	 0.436285254946306 
834	 0.436507364530729 
835	 0.436803669770226 
836	 0.4366264965406 
837	 0.436947005545533 
838	 0.437416476037346 
839	 0.437542843979594 
840	 0.437369888992621 
841	 0.437484148907206 
842	 0.43778579897959 
843	 0.437933586074916 
844	 0.437997387143671 
845	 0.438106599014579 
846	 0.438345794571098 
847	 0.438703274267745 
848	 0.438716623102308 
849	 0.438836837074282 
850	 0.439165914108905 
851	 0.439255235715133 
852	 0.439325340665323 
853	 0.439386468325745 
854	 0.439458977132181 
855	 0.439669734572227 
856	 0.439814640358228 
857	 0.439980198961427 
858	 0.440245663944323 
859	 0.44032014058684 
860	 0.44039941392564 
861	 0.44052220883255 
862	 0.440632109397657 
863	 0.440645427300387 
864	 0.440764446478485 
865	 0.440961631759938 
866	 0.441030454859286 
867	 0.441227898648378 
868	 0.441442450426481 
869	 0.441592762421813 
870	 0.441710484168684 
871	 0.441841169957634 
872	 0.441945483513694 
873	 0.44199748729437 
874	 0.442040633037395 
875	 0.442119510783343 
876	 0.442185156008437 
877	 0.442235236019917 
878	 0.442554586955842 
879	 0.442794160600845 
880	 0.442815737846276 
881	 0.442680613735199 
882	 0.442806884337051 
883	 0.44298037202304 
884	 0.443065866010345 
885	 0.443055320599001 
886	 0.443172558966912 
887	 0.443382289646108 
888	 0.443638337703353 
889	 0.443906003391726 
890	 0.443876916051541 
891	 0.443802679816414 
892	 0.443874594587711 
893	 0.443996239132758 
894	 0.444054053200536 
895	 0.444200265387789 
896	 0.444523296863807 
897	 0.444803209826207 
898	 0.444725395563783 
899	 0.44457666380914 
900	 0.44473845205265 
901	 0.44507341709944 
902	 0.445339675665235 
903	 0.445378915085501 
904	 0.445181352238084 
905	 0.445104018424505 
906	 0.445342621610264 
907	 0.44573500042942 
908	 0.445895779724826 
909	 0.445770492214431 
910	 0.44576116009445 
911	 0.445974470903788 
912	 0.446168719204434 
913	 0.446291209993333 
914	 0.446353301570442 
915	 0.446392721701533 
916	 0.44645335637375 
917	 0.446406228644252 
918	 0.44628394246283 
919	 0.446281108605898 
920	 0.446804163865621 
921	 0.447092091521676 
922	 0.447120004178412 
923	 0.447086387852661 
924	 0.447189266520558 
925	 0.447376886456394 
926	 0.447475880651071 
927	 0.447429461243824 
928	 0.447705414050478 
929	 0.447939161668104 
930	 0.448101739407442 
931	 0.448246654404006 
932	 0.448097544499914 
933	 0.448174601016241 
934	 0.448298437671408 
935	 0.448115375208461 
936	 0.448637699520195 
937	 0.448749233655621 
938	 0.448523789444738 
939	 0.448796579150303 
940	 0.448997161242508 
941	 0.44930077137514 
942	 0.449668792228752 
943	 0.449849345955464 
944	 0.44978148890012 
945	 0.449806555917331 
946	 0.449986732280558 
947	 0.450059483722563 
948	 0.450129752389155 
949	 0.450269497939513 
950	 0.450524397337767 
951	 0.450882318470326 
952	 0.450935336819733 
953	 0.45079450045317 
954	 0.450772078177953 
955	 0.451250775917455 
956	 0.451212559426308 
957	 0.451215108658477 
958	 0.451554675054945 
959	 0.451529878876268 
960	 0.451795180024968 
961	 0.452106815401102 
962	 0.452170814022341 
963	 0.452023726791233 
964	 0.452051174101051 
965	 0.452144225817938 
966	 0.45220535400515 
967	 0.452494989046614 
968	 0.452412836692613 
969	 0.45237710089971 
970	 0.452749065847162 
971	 0.453002367685664 
972	 0.453105178923811 
973	 0.453329467792244 
974	 0.453799222588434 
975	 0.453960006723851 
976	 0.453996177397075 
977	 0.453821729806232 
978	 0.453510633576717 
979	 0.453821380744677 
980	 0.454060671931511 
981	 0.454145531500884 
982	 0.454271889182994 
983	 0.45483874395745 
984	 0.454995004167224 
985	 0.454676089387344 
986	 0.454324216354735 
987	 0.454978236177862 
988	 0.454963655993007 
989	 0.454865390087623 
990	 0.455516982229785 
991	 0.455655220499715 
992	 0.455725688046707 
993	 0.455737132615977 
994	 0.455668387739118 
995	 0.455883578806953 
996	 0.456148896679562 
997	 0.456147688177161 
998	 0.455832297639811 
999	 0.456065139507164 
1000	 0.456255284970347 
1001	 0.466086518754154 
1002	 0.466362250525418 
1003	 0.466387422822883 
1004	 0.466597137219645 
1005	 0.466987313372774 
1006	 0.467139045033824 
1007	 0.467151678964157 
1008	 0.467346624739291 
1009	 0.467431331174238 
1010	 0.467662416666176 
1011	 0.46834334033997 
1012	 0.468540184707279 
1013	 0.468473211354382 
1014	 0.468470627201245 
1015	 0.468145109985403 
1016	 0.468014313174728 
1017	 0.468376391880332 
1018	 0.468545155168024 
1019	 0.468719199346209 
1020	 0.46896682373983 
1021	 0.469123974127593 
1022	 0.469138280678329 
1023	 0.469265546153897 
1024	 0.469459528057996 
1025	 0.469568074319808 
1026	 0.469536322651562 
1027	 0.469677399281972 
1028	 0.469879646784438 
1029	 0.470202433868496 
1030	 0.470315117153522 
1031	 0.470417614281638 
1032	 0.470667193820271 
1033	 0.470634533332855 
1034	 0.470641614742013 
1035	 0.470898091111953 
1036	 0.470965420766768 
1037	 0.470759894145779 
1038	 0.470819084845 
1039	 0.471059603261432 
1040	 0.471133084263103 
1041	 0.471189669185347 
1042	 0.471294566661882 
1043	 0.471439731374846 
1044	 0.471384307592882 
1045	 0.471324840556461 
1046	 0.47143102363673 
1047	 0.471393033815577 
1048	 0.471284455425442 
1049	 0.471401904017577 
1050	 0.471546854114967 
1051	 0.471759947567012 
1052	 0.471941942819084 
1053	 0.472040245774952 
1054	 0.472014608856068 
1055	 0.472187010001063 
1056	 0.472361887871132 
1057	 0.472566695459912 
1058	 0.472989763889428 
1059	 0.473226879705988 
1060	 0.47310990040058 
1061	 0.473299548069554 
1062	 0.473633111862203 
1063	 0.473821553899314 
1064	 0.474265020451159 
1065	 0.47463507461467 
1066	 0.474771446145895 
1067	 0.474955305171018 
1068	 0.475102259557609 
1069	 0.475267493506117 
1070	 0.47543771218935 
1071	 0.475591559912597 
1072	 0.475818026322889 
1073	 0.476237893870219 
1074	 0.476615969776975 
1075	 0.47705723955979 
1076	 0.477491121852874 
1077	 0.477722380016046 
1078	 0.47785485107388 
1079	 0.478066046472035 
1080	 0.478355450341584 
1081	 0.478667227975396 
1082	 0.47917365920652 
1083	 0.479635086815967 
1084	 0.479989913739048 
1085	 0.480392214696873 
1086	 0.48068835610916 
1087	 0.480865980087541 
1088	 0.481027107206445 
1089	 0.481285785469687 
1090	 0.481424598134135 
1091	 0.481555691949319 
1092	 0.481789592321683 
1093	 0.481944078924035 
1094	 0.482124838657381 
1095	 0.482410707939122 
1096	 0.482662610596337 
1097	 0.482747298410123 
1098	 0.482864777393542 
1099	 0.483043779203923 
1100	 0.483129943581855 
1101	 0.483287546522129 
1102	 0.48344090057197 
1103	 0.483573682442773 
1104	 0.483656518936758 
1105	 0.483720484122943 
1106	 0.483760524412083 
1107	 0.483900364347791 
1108	 0.484031796211052 
1109	 0.484121341852741 
1110	 0.484338694495787 
1111	 0.484578237885112 
1112	 0.484678486169565 
1113	 0.484747601831623 
1114	 0.484809431448655 
1115	 0.484754943353893 
1116	 0.484718972147843 
1117	 0.484787692622581 
1118	 0.484825090612868 
1119	 0.484895530029952 
1120	 0.484929386145792 
1121	 0.484959681016625 
1122	 0.484918733400551 
1123	 0.48494702635055 
1124	 0.48488488659755 
1125	 0.484847794702708 
1126	 0.48490629410347 
1127	 0.484783829708525 
1128	 0.484691717935405 
1129	 0.484730508172101 
1130	 0.484721542938216 
1131	 0.484718841396599 
1132	 0.484794496993947 
1133	 0.484817210560371 
1134	 0.484686803019981 
1135	 0.484638944397985 
1136	 0.484670644618628 
1137	 0.4846458100128 
1138	 0.484539084732913 
1139	 0.48453182545414 
1140	 0.484605444722995 
1141	 0.484591143911775 
1142	 0.484482787920728 
1143	 0.484515491049066 
1144	 0.484413750631595 
1145	 0.484211335411834 
1146	 0.484166954438937 
1147	 0.484169482867209 
1148	 0.484237329424844 
1149	 0.484293571721216 
1150	 0.484360396549941 
1151	 0.484429005575397 
1152	 0.484430773551196 
1153	 0.484340782225637 
1154	 0.484366766156372 
1155	 0.484425565647176 
1156	 0.484405679266616 
1157	 0.484389554069252 
1158	 0.484410201091725 
1159	 0.484371128606118 
1160	 0.48440449975256 
1161	 0.484483986768447 
1162	 0.484465437095587 
1163	 0.484448936744794 
1164	 0.484437128092531 
1165	 0.484521983473525 
1166	 0.484680253600983 
1167	 0.484783398910866 
1168	 0.484889385149908 
1169	 0.484922429876766 
1170	 0.484865129737568 
1171	 0.484868320176724 
1172	 0.484841043938463 
1173	 0.484836793173018 
1174	 0.48487527301702 
1175	 0.484887844016316 
1176	 0.48487260731797 
1177	 0.484899574303134 
1178	 0.484952173553478 
1179	 0.484991347447418 
1180	 0.485048288575245 
1181	 0.485076039360984 
1182	 0.485143883254472 
1183	 0.485158695385874 
1184	 0.485117372361198 
1185	 0.485243538095305 
1186	 0.485332126838944 
1187	 0.485418022640144 
1188	 0.485500643783361 
1189	 0.485641265268266 
1190	 0.485693096837251 
1191	 0.485674942697157 
1192	 0.485700244647713 
1193	 0.485653773252021 
1194	 0.485726099060526 
1195	 0.48589771183912 
1196	 0.486028904677437 
1197	 0.486227365132377 
1198	 0.486390541510862 
1199	 0.486484820560165 
1200	 0.486559447208382 
1201	 0.486595592820297 
1202	 0.486770245382544 
1203	 0.487023818815784 
1204	 0.487199791007474 
1205	 0.487353442373365 
1206	 0.48751000092463 
1207	 0.487666013047083 
1208	 0.487724479125785 
1209	 0.487901042692649 
1210	 0.488173394717011 
1211	 0.488407029297847 
1212	 0.488627181784206 
1213	 0.488920437375441 
1214	 0.489267837128239 
1215	 0.489595195148241 
1216	 0.48996366800661 
1217	 0.490323568479364 
1218	 0.490680906492783 
1219	 0.491002005285727 
1220	 0.491378708997762 
1221	 0.49174373401992 
1222	 0.492055834138442 
1223	 0.492387243795285 
1224	 0.492764269679668 
1225	 0.493179084866007 
1226	 0.493543853569983 
1227	 0.493933578764275 
1228	 0.494304734793141 
1229	 0.494632970577074 
1230	 0.494960198423694 
1231	 0.495321139639289 
1232	 0.495628731675563 
1233	 0.495869393225193 
1234	 0.496137263002846 
1235	 0.49639616963176 
1236	 0.4966598355885 
1237	 0.496955406573628 
1238	 0.497202481996813 
1239	 0.497399461107721 
1240	 0.497643821151056 
1241	 0.497859901453921 
1242	 0.498016518156477 
1243	 0.498256770540136 
1244	 0.498530683241755 
1245	 0.498814109141241 
1246	 0.499149660445838 
1247	 0.499445691948716 
1248	 0.499733254219989 
1249	 0.500023515807827 
1250	 0.500337320601847 
1251	 0.500574679725164 
1252	 0.500769948535653 
1253	 0.500988852111141 
1254	 0.501137088304578 
1255	 0.501343717926723 
1256	 0.501637117616588 
1257	 0.501859898445268 
1258	 0.502078881215384 
1259	 0.502255731425591 
1260	 0.502370605686344 
1261	 0.50249627045161 
1262	 0.502559560695027 
1263	 0.502677645005249 
1264	 0.502845790678025 
1265	 0.503062408832602 
1266	 0.503222651196079 
1267	 0.503433857712391 
1268	 0.503573422568287 
1269	 0.50362475520438 
1270	 0.503745029920683 
1271	 0.503870184080294 
1272	 0.504017520558427 
1273	 0.504161544723589 
1274	 0.50436535050085 
1275	 0.504680752609655 
1276	 0.504865949400132 
1277	 0.505012504006784 
1278	 0.505180775826961 
1279	 0.505189438908829 
1280	 0.505368845996713 
1281	 0.505746825055356 
1282	 0.506010059181023 
1283	 0.506273525321464 
1284	 0.506549043178894 
1285	 0.506807541415893 
1286	 0.506986418150172 
1287	 0.507250635536366 
1288	 0.507541310491611 
1289	 0.507914216011607 
1290	 0.508359759717203 
1291	 0.508727092892658 
1292	 0.509131796075356 
1293	 0.509531606390355 
1294	 0.509878230515764 
1295	 0.510234883288438 
1296	 0.510669895975515 
1297	 0.511015436368244 
1298	 0.511185446517616 
1299	 0.511553429362608 
1300	 0.512052090690381 
1301	 0.512458887853199 
1302	 0.512963676488026 
1303	 0.51336894862821 
1304	 0.513621017122944 
1305	 0.513936627677986 
1306	 0.514308335352147 
1307	 0.514605855621411 
1308	 0.514851195932507 
1309	 0.515116222258994 
1310	 0.515362910776806 
1311	 0.515552515794352 
1312	 0.515788105392317 
1313	 0.51605525732615 
1314	 0.516301777662459 
1315	 0.516524076376087 
1316	 0.516787249674511 
1317	 0.517097735584224 
1318	 0.517340780844898 
1319	 0.517613003812416 
1320	 0.517781980450633 
1321	 0.517831596252393 
1322	 0.51795361984488 
1323	 0.518075533349039 
1324	 0.518163724681196 
1325	 0.518269496294509 
1326	 0.518348687468775 
1327	 0.518359825730045 
1328	 0.518401592799276 
1329	 0.518468635474456 
1330	 0.518519709624184 
1331	 0.518590455274054 
1332	 0.518611260447629 
1333	 0.518568800219462 
1334	 0.518565076024717 
1335	 0.518581521537623 
1336	 0.518601306019747 
1337	 0.518574579770046 
1338	 0.518579129644516 
1339	 0.518523347057058 
1340	 0.51840526705358 
1341	 0.518279186956338 
1342	 0.518129861928793 
1343	 0.518002875024478 
1344	 0.517833911768022 
1345	 0.517702857350386 
1346	 0.517635711175163 
1347	 0.51751354132142 
1348	 0.517371300687166 
1349	 0.517215346576273 
1350	 0.5170013482909 
1351	 0.516857264177642 
1352	 0.516749060444438 
1353	 0.516621524594598 
1354	 0.516527523140631 
1355	 0.516417157631588 
1356	 0.516278856202841 
1357	 0.516146646910268 
1358	 0.516038037101888 
1359	 0.515905117030038 
1360	 0.515764244660921 
1361	 0.515587756987882 
1362	 0.515398146760187 
1363	 0.515289596898331 
1364	 0.515136820580468 
1365	 0.514985406688634 
1366	 0.514836054433719 
1367	 0.514693939549981 
1368	 0.514512126959514 
1369	 0.514319975106227 
1370	 0.514130417765711 
1371	 0.513905188622089 
1372	 0.513705963773981 
1373	 0.513550715547586 
1374	 0.513333486153564 
1375	 0.513055666924782 
1376	 0.512839845385628 
1377	 0.512637755379732 
1378	 0.512412550468557 
1379	 0.512209610144966 
1380	 0.51200421382644 
1381	 0.511769251251163 
1382	 0.511542179247794 
1383	 0.511338679361679 
1384	 0.511121659951292 
1385	 0.510863481095288 
1386	 0.510646142525026 
1387	 0.510456815497004 
1388	 0.510276956247154 
1389	 0.510085238167579 
1390	 0.509947915857647 
1391	 0.509848980178806 
1392	 0.509766335348705 
1393	 0.509679559399171 
1394	 0.509681600000957 
1395	 0.509628721991668 
1396	 0.509554742240893 
1397	 0.509510983942047 
1398	 0.509483290869088 
1399	 0.509439347285279 
1400	 0.509432406914127 
1401	 0.509334178237931 
1402	 0.509216386537128 
1403	 0.509022992967331 
1404	 0.508746876720352 
1405	 0.508479178721434 
1406	 0.508157049158287 
1407	 0.507849830843656 
1408	 0.507531630298661 
1409	 0.507213727504282 
1410	 0.506863673496719 
1411	 0.506565033953319 
1412	 0.506290639225585 
1413	 0.506024664909537 
1414	 0.5057865776192 
1415	 0.505560547629116 
1416	 0.505335426413466 
1417	 0.505124611182182 
1418	 0.50493221204355 
1419	 0.504753525515507 
1420	 0.504583760374237 
1421	 0.504439458377713 
1422	 0.504353756810199 
1423	 0.504222971029643 
1424	 0.504086219202266 
1425	 0.503919116615827 
1426	 0.503795068451113 
1427	 0.503666129095753 
1428	 0.50354783622338 
1429	 0.503455197109101 
1430	 0.503343921463819 
1431	 0.503190645053899 
1432	 0.503101155035815 
1433	 0.503064403116342 
1434	 0.502966376642865 
1435	 0.502881270251543 
1436	 0.502750388965207 
1437	 0.502543615094754 
1438	 0.502412416532137 
1439	 0.502300662150894 
1440	 0.502180531509701 
1441	 0.502082604046953 
1442	 0.501991834382131 
1443	 0.501856950024507 
1444	 0.501809145122565 
1445	 0.501813886608375 
1446	 0.501841396681501 
1447	 0.50191420136464 
1448	 0.502012987669514 
1449	 0.502091675098535 
1450	 0.502291282984655 
1451	 0.502584199683527 
1452	 0.502894151414565 
1453	 0.503319321497025 
1454	 0.503700157099219 
1455	 0.504073747691333 
1456	 0.504456583694415 
1457	 0.504856983318688 
1458	 0.50524045924149 
1459	 0.5056393202184 
1460	 0.506006895268765 
1461	 0.506317964563071 
1462	 0.506667729796857 
1463	 0.507049020593856 
1464	 0.507387922406401 
1465	 0.507709763779137 
1466	 0.508066149823905 
1467	 0.508353721946507 
1468	 0.508593088008583 
1469	 0.508897559460501 
1470	 0.509163405474132 
1471	 0.509423473278882 
1472	 0.509676998566418 
1473	 0.509944869861165 
1474	 0.51019214442554 
1475	 0.510466077508457 
1476	 0.51075174423128 
1477	 0.51106997314189 
1478	 0.511430112601995 
1479	 0.511717922450218 
1480	 0.512027050236216 
1481	 0.512273938896648 
1482	 0.512420493406108 
1483	 0.512645327467613 
1484	 0.512897883291689 
1485	 0.513122405246739 
1486	 0.513345862085568 
1487	 0.51357043045832 
1488	 0.513814065833618 
1489	 0.51398593880088 
1490	 0.514102719506556 
1491	 0.514275068077227 
1492	 0.514382878688679 
1493	 0.514583623274038 
1494	 0.514908088562814 
1495	 0.515156307407587 
1496	 0.515357333672973 
1497	 0.515634912231753 
1498	 0.515933106349923 
1499	 0.516240922871526 
1500	 0.516617745498264 
1501	 0.516969369821053 
1502	 0.517306735889034 
1503	 0.517636665526947 
1504	 0.518015289692637 
1505	 0.518315591575646 
1506	 0.518507051958809 
1507	 0.518783029692487 
1508	 0.51908029961466 
1509	 0.519350813616597 
1510	 0.519681279567952 
1511	 0.519959780568078 
1512	 0.52017608933489 
1513	 0.520385781040005 
1514	 0.520600541891842 
1515	 0.520780798312951 
1516	 0.52090172652533 
1517	 0.521042330437936 
1518	 0.52116506532355 
1519	 0.521295664818063 
1520	 0.52141567127367 
1521	 0.521588067357309 
1522	 0.521750438984699 
1523	 0.521900723918983 
1524	 0.522003134361976 
1525	 0.522076797627739 
1526	 0.522178446292275 
1527	 0.522245308549737 
1528	 0.522349765745201 
1529	 0.52251393027764 
1530	 0.522593922624845 
1531	 0.522622132862649 
1532	 0.522699827516406 
1533	 0.5227592905858 
1534	 0.522852981858906 
1535	 0.523003334698159 
1536	 0.523089762223107 
1537	 0.523140877219584 
1538	 0.523234171263182 
1539	 0.523311315066449 
1540	 0.523430918758111 
1541	 0.523585564931843 
1542	 0.52375663943143 
1543	 0.523961706520368 
1544	 0.524135352271664 
1545	 0.524334478901146 
1546	 0.524490923821757 
1547	 0.524588279744328 
1548	 0.524745115802249 
1549	 0.524917665233365 
1550	 0.525089414683852 
1551	 0.525295997087865 
1552	 0.525468529365014 
1553	 0.525579568176232 
1554	 0.525795868665252 
1555	 0.526124686061459 
1556	 0.526290320865455 
1557	 0.526420979429834 
1558	 0.526572683664424 
1559	 0.526582935785907 
1560	 0.526718424036038 
1561	 0.526980864317246 
1562	 0.527186587418718 
1563	 0.527389084026503 
1564	 0.527579544538798 
1565	 0.527770960518481 
1566	 0.527957843206628 
1567	 0.528138626967099 
1568	 0.528298635095548 
1569	 0.528472394156917 
1570	 0.528596227252344 
1571	 0.528668862381173 
1572	 0.528747969427514 
1573	 0.528758797943724 
1574	 0.528861265176326 
1575	 0.52903884936253 
1576	 0.529153217639317 
1577	 0.529259348802573 
1578	 0.529409539937645 
1579	 0.529520686522183 
1580	 0.529684613356407 
1581	 0.529958701555083 
1582	 0.53016572518934 
1583	 0.53035444087915 
1584	 0.530527594354534 
1585	 0.530673791619587 
1586	 0.530826729974771 
1587	 0.530969859717746 
1588	 0.531106471920688 
1589	 0.5312448133828 
1590	 0.53137427556041 
1591	 0.531521768309336 
1592	 0.531606583998646 
1593	 0.53163012064252 
1594	 0.531691221045351 
1595	 0.531679503328681 
1596	 0.531762429813483 
1597	 0.531959640441934 
1598	 0.532092431266921 
1599	 0.532246023296213 
1600	 0.532372797324931 
1601	 0.532452005642074 
1602	 0.532543045989014 
1603	 0.532647427645267 
1604	 0.532728185367534 
1605	 0.532799986672101 
1606	 0.532840175951969 
1607	 0.532797350313503 
1608	 0.532856470070683 
1609	 0.53294610216056 
1610	 0.53305503989438 
1611	 0.533280851969777 
1612	 0.533420967391737 
1613	 0.533537769496358 
1614	 0.533612417115672 
1615	 0.533638785867598 
1616	 0.533654285591946 
1617	 0.533633483889606 
1618	 0.533597364190368 
1619	 0.533514575164451 
1620	 0.533469464232512 
1621	 0.533411412770406 
1622	 0.533379016430407 
1623	 0.533375481917927 
1624	 0.533390499766168 
1625	 0.533427100208204 
1626	 0.533468814689088 
1627	 0.533547286307283 
1628	 0.533613354417233 
1629	 0.533718192729441 
1630	 0.533735561675075 
1631	 0.53370291631036 
1632	 0.533657273601366 
1633	 0.533481459668845 
1634	 0.53342909280391 
1635	 0.533481335310153 
1636	 0.533463808931199 
1637	 0.533490793532973 
1638	 0.533461277498576 
1639	 0.533310381668332 
1640	 0.533251591459754 
1641	 0.533240809634798 
1642	 0.533207790045288 
1643	 0.533207615156942 
1644	 0.533193371134167 
1645	 0.533134832387333 
1646	 0.533119669763653 
1647	 0.533188928833793 
1648	 0.533155067509284 
1649	 0.533080209062119 
1650	 0.533003300450697 
1651	 0.532885710525789 
1652	 0.532722278214759 
1653	 0.532478440419197 
1654	 0.532337053328067 
1655	 0.532206466308331 
1656	 0.532073414940994 
1657	 0.532086210829317 
1658	 0.531959622432693 
1659	 0.531694428886279 
1660	 0.531482681616908 
1661	 0.531284764965315 
1662	 0.531012941587658 
1663	 0.530675033924167 
1664	 0.53040414614351 
1665	 0.530162909449571 
1666	 0.529827952140098 
1667	 0.529510206473277 
1668	 0.529141045701973 
1669	 0.52864010500183 
1670	 0.528170369189291 
1671	 0.52776422882445 
1672	 0.527251743637054 
1673	 0.526620792968246 
1674	 0.526053813349387 
1675	 0.525496999898524 
1676	 0.524901146129588 
1677	 0.524333156560959 
1678	 0.523705851200426 
1679	 0.523042282121903 
1680	 0.522280708648071 
1681	 0.521464623024815 
1682	 0.520590590674624 
1683	 0.519606206355859 
1684	 0.518633799773299 
1685	 0.517659928479107 
1686	 0.516625416864446 
1687	 0.515503752753837 
1688	 0.514409924842355 
1689	 0.513299232703777 
1690	 0.512171445534453 
1691	 0.511071607633334 
1692	 0.509910823327967 
1693	 0.508685166228487 
1694	 0.507466177390463 
1695	 0.506230380358413 
1696	 0.504979667440775 
1697	 0.503714876309048 
1698	 0.502425165081925 
1699	 0.501102977268764 
1700	 0.499808938592899 
1701	 0.498530055055476 
1702	 0.497206136344833 
1703	 0.495826765251155 
1704	 0.494537240959566 
1705	 0.493210572408877 
1706	 0.492088835001284 
1707	 0.491056702007831 
1708	 0.490127134676531 
1709	 0.489244339585916 
1710	 0.488370822994308 
1711	 0.487614693316908 
1712	 0.486977408032851 
1713	 0.486347842541733 
1714	 0.485794869995363 
1715	 0.485286234302696 
1716	 0.484763406159444 
1717	 0.484254497779917 
1718	 0.483756670283937 
1719	 0.483314336484474 
1720	 0.482884529163931 
1721	 0.482443768672766 
1722	 0.482075630776374 
1723	 0.481719147225964 
1724	 0.481396518541025 
1725	 0.48127764368047 
1726	 0.481206072580857 
1727	 0.481232152146409 
1728	 0.481473264897483 
1729	 0.481741052290671 
1730	 0.482123669291737 
1731	 0.482594079149708 
1732	 0.48306992355348 
1733	 0.48362038918447 
1734	 0.484212403312457 
1735	 0.484864583011255 
1736	 0.485557309977205 
1737	 0.486150744634157 
1738	 0.486749622747916 
1739	 0.487177782442292 
1740	 0.487460384050137 
1741	 0.487685732570782 
1742	 0.487788112371869 
1743	 0.487798742553079 
1744	 0.487689358564441 
1745	 0.48760994865167 
1746	 0.487414268517586 
1747	 0.487307709960084 
1748	 0.487299660909777 
1749	 0.487190006046472 
1750	 0.486992727673749 
1751	 0.486953280457866 
1752	 0.486914196574967 
1753	 0.486931831799096 
1754	 0.487076674190192 
1755	 0.487205182695064 
1756	 0.487289707100526 
1757	 0.487526212837956 
1758	 0.487894474330527 
1759	 0.488315159043964 
1760	 0.48883532503697 
1761	 0.489481101227356 
1762	 0.490073933252802 
1763	 0.490752490580043 
1764	 0.491518080600298 
1765	 0.492190215938649 
1766	 0.493044578133432 
1767	 0.493910779696602 
1768	 0.494703062958183 
1769	 0.495593406218631 
1770	 0.496361846272781 
1771	 0.497181361133274 
1772	 0.497990841382359 
1773	 0.498730513809171 
1774	 0.499531765786093 
1775	 0.500188517851082 
1776	 0.500796511700186 
1777	 0.501336815640547 
1778	 0.501763239358452 
1779	 0.502216627094338 
1780	 0.502704657211659 
1781	 0.50320817015711 
1782	 0.503741816058182 
1783	 0.504242195355081 
1784	 0.504586996494052 
1785	 0.504899800085491 
1786	 0.505193806051665 
1787	 0.505395423824985 
1788	 0.505580695586484 
1789	 0.50573942504934 
1790	 0.505912718027395 
1791	 0.50595815965303 
1792	 0.506166788791173 
1793	 0.506562598880126 
1794	 0.506737853700026 
1795	 0.506999585553874 
1796	 0.507172886970836 
1797	 0.507229915702621 
1798	 0.507310078086694 
1799	 0.507455687143004 
1800	 0.507686093766221 
1801	 0.510286370039716 
1802	 0.510522984674871 
1803	 0.510670760033602 
1804	 0.510708108700293 
1805	 0.510808876974436 
1806	 0.510897852649967 
1807	 0.510900800207971 
1808	 0.511006411245462 
1809	 0.511163494929418 
1810	 0.511345047834489 
1811	 0.511627170259153 
1812	 0.511844820050303 
1813	 0.512047221913792 
1814	 0.512236539222567 
1815	 0.51251324379246 
1816	 0.512719147719934 
1817	 0.512968201569276 
1818	 0.513320494880571 
1819	 0.513589502080673 
1820	 0.513742678250572 
1821	 0.513999175434982 
1822	 0.514296344510353 
1823	 0.514612640251147 
1824	 0.514885833465487 
1825	 0.515233479609321 
1826	 0.515497276456827 
1827	 0.5156401168098 
1828	 0.515919961283553 
1829	 0.516287585711792 
1830	 0.51655972519121 
1831	 0.516855213294658 
1832	 0.517140762604811 
1833	 0.517270486735515 
1834	 0.517453303005314 
1835	 0.517717546563122 
1836	 0.517928013363203 
1837	 0.518144631496095 
1838	 0.518352805495118 
1839	 0.518592417756554 
1840	 0.518842887620629 
1841	 0.519085340155551 
1842	 0.519374189157468 
1843	 0.519636542700117 
1844	 0.519780148260904 
1845	 0.519924220733607 
1846	 0.520044332857403 
1847	 0.520170310176961 
1848	 0.520332169465445 
1849	 0.520534635303997 
1850	 0.52070913677339 
1851	 0.520913529217398 
1852	 0.521067853244881 
1853	 0.521206886199544 
1854	 0.521282443928118 
1855	 0.521276944001325 
1856	 0.521320337009941 
1857	 0.521339644260428 
1858	 0.521398838156146 
1859	 0.521408784991942 
1860	 0.521414838857853 
1861	 0.521383585183495 
1862	 0.521340960401043 
1863	 0.521221403335898 
1864	 0.520995091314332 
1865	 0.520851603402014 
1866	 0.520660416888445 
1867	 0.520374274546797 
1868	 0.520272198344425 
1869	 0.520128811293746 
1870	 0.519902907570503 
1871	 0.519681230781083 
1872	 0.519358016512829 
1873	 0.518914997393156 
1874	 0.518491991762519 
1875	 0.518092445441749 
1876	 0.517573933702794 
1877	 0.51701446835092 
1878	 0.516363007807201 
1879	 0.515615242294243 
1880	 0.514908556436382 
1881	 0.514165690443122 
1882	 0.513443239555706 
1883	 0.512658352573232 
1884	 0.511764128965949 
1885	 0.510750679335839 
1886	 0.509712117566999 
1887	 0.508613208000557 
1888	 0.507410758673693 
1889	 0.506235417750813 
1890	 0.504991311181445 
1891	 0.503703518444384 
1892	 0.50246245272002 
1893	 0.501148382942699 
1894	 0.499757252939343 
1895	 0.498406719431162 
1896	 0.497046585591517 
1897	 0.495608530044771 
1898	 0.494370595740667 
1899	 0.493184408023381 
1900	 0.492020850469555 
1901	 0.490926482047831 
1902	 0.489779208942501 
1903	 0.488702566196779 
1904	 0.487652216537675 
1905	 0.486605630452313 
1906	 0.485663470783491 
1907	 0.484808055448821 
1908	 0.483880511961867 
1909	 0.483120537467663 
1910	 0.482423239070632 
1911	 0.481600227918883 
1912	 0.480915324713001 
1913	 0.480219240571998 
1914	 0.479453725260153 
1915	 0.478838643475335 
1916	 0.478370896181715 
1917	 0.477884438187684 
1918	 0.477430188407522 
1919	 0.477110431109156 
1920	 0.47667734318714 
1921	 0.476175752169864 
1922	 0.475678749427428 
1923	 0.475129536864424 
1924	 0.474639647232476 
1925	 0.474238295443271 
1926	 0.473860941509213 
1927	 0.473534390697048 
1928	 0.473210656238042 
1929	 0.472896857032105 
1930	 0.472647328330162 
1931	 0.472467447922432 
1932	 0.472222298606109 
1933	 0.471998194569474 
1934	 0.471833656886044 
1935	 0.471672411841543 
1936	 0.471639979651059 
1937	 0.471624804687345 
1938	 0.471686878199597 
1939	 0.47177216974043 
1940	 0.471889078702329 
1941	 0.472023134212735 
1942	 0.472226667521675 
1943	 0.472489476488394 
1944	 0.472789371804099 
1945	 0.473045876673804 
1946	 0.473329047683061 
1947	 0.473656998263669 
1948	 0.473948902658469 
1949	 0.474290676614253 
1950	 0.47468207551891 
1951	 0.475124018189668 
1952	 0.475577446874258 
1953	 0.476055078663752 
1954	 0.47657702564178 
1955	 0.477225973165105 
1956	 0.477870537772534 
1957	 0.478443419800258 
1958	 0.479033676555664 
1959	 0.479548492327384 
1960	 0.479964141390906 
1961	 0.480415042685372 
1962	 0.480893314626166 
1963	 0.481361431407609 
1964	 0.481834545485869 
1965	 0.482244511791838 
1966	 0.482647206674858 
1967	 0.483027729682058 
1968	 0.483286406594835 
1969	 0.483544852364537 
1970	 0.483947004004597 
1971	 0.484365415042293 
1972	 0.484814388806728 
1973	 0.485259083856897 
1974	 0.485680808655289 
1975	 0.486042588965265 
1976	 0.48646767500841 
1977	 0.486939577420356 
1978	 0.487382762264566 
1979	 0.487837445059484 
1980	 0.488245433743685 
1981	 0.488734761497691 
1982	 0.489178061686476 
1983	 0.489627750249648 
1984	 0.490121914328281 
1985	 0.490511836078638 
1986	 0.491023548009916 
1987	 0.491561454414718 
1988	 0.492164955238747 
1989	 0.492746318912601 
1990	 0.493339711926931 
1991	 0.493954318465072 
1992	 0.494558348515091 
1993	 0.495249302977677 
1994	 0.495912921714983 
1995	 0.496675606030584 
1996	 0.497471265632736 
1997	 0.498215443767274 
1998	 0.498907901932241 
1999	 0.49961571640249 
2000	 0.500228265883807 
2001	 0.500686788245892 
2002	 0.501262894416668 
2003	 0.501875466989796 
2004	 0.502463288385326 
2005	 0.503127465059146 
2006	 0.503686796549189 
2007	 0.504213766161092 
2008	 0.504648275262487 
2009	 0.504964403271793 
2010	 0.50529605568893 
2011	 0.505701556991729 
2012	 0.506025886098328 
2013	 0.506328998564749 
2014	 0.506672362824973 
2015	 0.506932229046488 
2016	 0.507061850717382 
2017	 0.50727574831591 
2018	 0.507552254840908 
2019	 0.507743000574493 
2020	 0.507937352914692 
2021	 0.508032970458768 
2022	 0.508126195619287 
2023	 0.508137958339069 
2024	 0.508092384239094 
2025	 0.508108160264918 
2026	 0.508120612894524 
2027	 0.508108539577982 
2028	 0.508124822085485 
2029	 0.508191971890302 
2030	 0.508210948960593 
2031	 0.508203534494265 
2032	 0.508205866472527 
2033	 0.508215710521003 
2034	 0.508205517888061 
2035	 0.508228837316283 
2036	 0.508141983682289 
2037	 0.508029154434154 
2038	 0.507993692450246 
2039	 0.507902131923954 
2040	 0.507753063460633 
2041	 0.507687606446235 
2042	 0.507627409476392 
2043	 0.507592062007734 
2044	 0.507644660583249 
2045	 0.507632237373914 
2046	 0.507602677616198 
2047	 0.507574698928185 
2048	 0.507513993059645 
2049	 0.507468786776151 
2050	 0.507402646213334 
2051	 0.50740516555402 
2052	 0.507399138405382 
2053	 0.507358939863628 
2054	 0.507340468555835 
2055	 0.507351630828124 
2056	 0.50731473865024 
2057	 0.507242253179667 
2058	 0.507199023798389 
2059	 0.507123770175863 
2060	 0.50709489582152 
2061	 0.507133712122651 
2062	 0.507129283768551 
2063	 0.507129027607666 
2064	 0.507115108885658 
2065	 0.507062295051037 
2066	 0.507022650353135 
2067	 0.507007158226095 
2068	 0.506965205632732 
2069	 0.506951510272178 
2070	 0.506961006482907 
2071	 0.506938494753967 
2072	 0.50691989450192 
2073	 0.50689363900468 
2074	 0.506788376888057 
2075	 0.506795443634438 
2076	 0.506864123050301 
2077	 0.506920739989548 
2078	 0.507063933581067 
2079	 0.507168007392293 
2080	 0.507235972568629 
2081	 0.507320920213341 
2082	 0.507465551266077 
2083	 0.507494644968335 
2084	 0.507536971827624 
2085	 0.507599569330407 
2086	 0.507616404217688 
2087	 0.507582123774114 
2088	 0.507582657666353 
2089	 0.507581294588258 
2090	 0.507577931360781 
2091	 0.507626503476379 
2092	 0.5075906993269 
2093	 0.5074632399023 
2094	 0.507391912965444 
2095	 0.507307811191857 
2096	 0.507225161250541 
2097	 0.507126525975492 
2098	 0.507134101937324 
2099	 0.507094593053371 
2100	 0.507010109224867 
2101	 0.506981785627581 
2102	 0.50700543215472 
2103	 0.506978328434229 
2104	 0.506959427248707 
2105	 0.506899043271616 
2106	 0.506790068706608 
2107	 0.506710717903617 
2108	 0.506639505140158 
2109	 0.506535800967822 
2110	 0.50641291206029 
2111	 0.506303697134289 
2112	 0.506189258630649 
2113	 0.506050581685374 
2114	 0.505881512750434 
2115	 0.505763254651079 
2116	 0.505639161200011 
2117	 0.505536835263411 
2118	 0.505434353652318 
2119	 0.505407077007656 
2120	 0.505292604801498 
2121	 0.505107758024434 
2122	 0.504969679227879 
2123	 0.50483622834264 
2124	 0.504673866283766 
2125	 0.504545209632956 
2126	 0.504354804592235 
2127	 0.504028475068433 
2128	 0.503861566591719 
2129	 0.503767145724996 
2130	 0.5036289261722 
2131	 0.503611593796548 
2132	 0.503508789762968 
2133	 0.503290182047934 
2134	 0.503104395234501 
2135	 0.50301466311364 
2136	 0.502872661106988 
2137	 0.502747246005838 
2138	 0.502691694428593 
2139	 0.502498362125138 
2140	 0.502213474901909 
2141	 0.501983909067957 
2142	 0.501669722893609 
2143	 0.501484798119804 
2144	 0.501366134086879 
2145	 0.501272418225973 
2146	 0.501280502349287 
2147	 0.501220729287141 
2148	 0.501183034925491 
2149	 0.501093084987057 
2150	 0.500946497228926 
2151	 0.50080555209507 
2152	 0.500612907079173 
2153	 0.500482523284572 
2154	 0.500321822018846 
2155	 0.500193664731055 
2156	 0.500090682265751 
2157	 0.500057488599048 
2158	 0.499903967535022 
2159	 0.499719146189297 
2160	 0.499525825779962 
2161	 0.499288992511132 
2162	 0.49900474113626 
2163	 0.49868960262878 
2164	 0.49840570957907 
2165	 0.49801972457967 
2166	 0.497743375826855 
2167	 0.497542773693252 
2168	 0.497357247544259 
2169	 0.497293464454153 
2170	 0.497091920654683 
2171	 0.496865861119382 
2172	 0.496624396497196 
2173	 0.496308370790851 
2174	 0.495913388413174 
2175	 0.495685121444448 
2176	 0.495376868562882 
2177	 0.495111486099225 
2178	 0.494853615863192 
2179	 0.494653027479874 
2180	 0.494461537174701 
2181	 0.494312349028437 
2182	 0.494259428833391 
2183	 0.494114905845522 
2184	 0.493931823432668 
2185	 0.493800497336674 
2186	 0.493662409175193 
2187	 0.493518929970853 
2188	 0.493412318067083 
2189	 0.493297485022769 
2190	 0.493180283744083 
2191	 0.493021852217941 
2192	 0.492868184245435 
2193	 0.492695624467122 
2194	 0.492429124445302 
2195	 0.4922211638723 
2196	 0.492041566511624 
2197	 0.491896158402963 
2198	 0.491656878347849 
2199	 0.491445716113464 
2200	 0.491338407539411 
2201	 0.491283999913978 
2202	 0.491146435677358 
2203	 0.491114165766629 
2204	 0.490956410724373 
2205	 0.490638393389923 
2206	 0.490412857202302 
2207	 0.49021563318004 
2208	 0.489995352788074 
2209	 0.489768212694209 
2210	 0.489525945965339 
2211	 0.489198646627422 
2212	 0.489035161312464 
2213	 0.48901852497819 
2214	 0.488868948425499 
2215	 0.488785985540437 
2216	 0.488616637319026 
2217	 0.488260120015345 
2218	 0.487984668916553 
2219	 0.487773840898015 
2220	 0.487539303015037 
2221	 0.487304811001249 
2222	 0.48702719063963 
2223	 0.486845940550696 
2224	 0.486529470944165 
2225	 0.48626283622371 
2226	 0.485975266301856 
2227	 0.485613824027851 
2228	 0.485198078030904 
2229	 0.484776718379311 
2230	 0.484292629804347 
2231	 0.483842324430847 
2232	 0.483399260268508 
2233	 0.482882416284277 
2234	 0.482423885429558 
2235	 0.481745879374235 
2236	 0.480965201448316 
2237	 0.480089662441546 
2238	 0.478998204709086 
2239	 0.477955936901628 
2240	 0.476856405039143 
2241	 0.475717325415023 
2242	 0.474627894925903 
2243	 0.473368124739807 
2244	 0.471993364325255 
2245	 0.47056802865884 
2246	 0.468919884085207 
2247	 0.467373868624296 
2248	 0.465921517727767 
2249	 0.464333342476443 
2250	 0.462677533167317 
2251	 0.461055107365906 
2252	 0.459311597777051 
2253	 0.457501734512226 
2254	 0.455717134779336 
2255	 0.4539239900592 
2256	 0.45227228291677 
2257	 0.450589031105494 
2258	 0.448970884948969 
2259	 0.447539364819773 
2260	 0.445889613665152 
2261	 0.444097997667789 
2262	 0.442468024323969 
2263	 0.440773801644484 
2264	 0.439257346920582 
2265	 0.437907486846021 
2266	 0.436498027933129 
2267	 0.435169463423697 
2268	 0.43382258539683 
2269	 0.43250776328271 
2270	 0.431163076100085 
2271	 0.429737129732534 
2272	 0.42842796019306 
2273	 0.427191553336797 
2274	 0.42591225556345 
2275	 0.424740452563792 
2276	 0.423475086514373 
2277	 0.422111088723921 
2278	 0.420773018944924 
2279	 0.419445721925337 
2280	 0.418071800123691 
2281	 0.41665185479827 
2282	 0.415206120884922 
2283	 0.413754738822041 
2284	 0.412246388035515 
2285	 0.410638640643629 
2286	 0.409021360088548 
2287	 0.407261672462149 
2288	 0.405553755966331 
2289	 0.403969898191299 
2290	 0.40243487117037 
2291	 0.400980431765768 
2292	 0.399461603839124 
2293	 0.397751518437194 
2294	 0.396015704597483 
2295	 0.394458987562114 
2296	 0.393147896705527 
2297	 0.392010578008913 
2298	 0.391236735236293 
2299	 0.390349329175415 
2300	 0.389384248519601 
2301	 0.388870034522529 
2302	 0.388517453414916 
2303	 0.388564524970361 
2304	 0.389144933771635 
2305	 0.389620498259463 
2306	 0.390253680596649 
2307	 0.391054108551023 
2308	 0.391902108649224 
2309	 0.393038995030926 
2310	 0.394489005629181 
2311	 0.395937526898017 
2312	 0.397686327702887 
2313	 0.399279545772578 
2314	 0.400882365991169 
2315	 0.402504035252409 
2316	 0.404087788966008 
2317	 0.405602497996237 
2318	 0.407271541816187 
2319	 0.408609573570902 
2320	 0.409816682834076 
2321	 0.410839244509458 
2322	 0.411604341859487 
2323	 0.412236104441422 
2324	 0.412651251946504 
2325	 0.412955987032905 
2326	 0.413051030889335 
2327	 0.413111008541131 
2328	 0.413164121098086 
2329	 0.412991950800012 
2330	 0.412599051379664 
2331	 0.412244174045254 
2332	 0.411586692552775 
2333	 0.410862939147699 
2334	 0.410312924025296 
2335	 0.409622245647984 
2336	 0.408971357425887 
2337	 0.408133802256221 
2338	 0.407109303297082 
2339	 0.405993685284265 
2340	 0.404987033802008 
2341	 0.404082633725264 
2342	 0.403076517074839 
2343	 0.402293005254254 
2344	 0.401561806310462 
2345	 0.400922470167901 
2346	 0.400738764097435 
2347	 0.401062751219943 
2348	 0.401555195504044 
2349	 0.402158245004035 
2350	 0.402974294216975 
2351	 0.403620017953603 
2352	 0.404326746263109 
2353	 0.405452892784859 
2354	 0.406581168359371 
2355	 0.407757377915478 
2356	 0.408907937024497 
2357	 0.409787339956854 
2358	 0.410623941329408 
2359	 0.411251256106341 
2360	 0.411671603436368 
2361	 0.412055557749909 
2362	 0.412115120062947 
2363	 0.41212912416101 
2364	 0.412051361004236 
2365	 0.411753223984118 
2366	 0.411845320404916 
2367	 0.411803955260623 
2368	 0.412129150978579 
2369	 0.412811624945568 
2370	 0.412745973771996 
2371	 0.412722436836722 
2372	 0.412657994794411 
2373	 0.412333140906464 
2374	 0.412445398245377 
2375	 0.412705870912613 
2376	 0.412887651975584 
2377	 0.41320887868514 
2378	 0.413522684877633 
2379	 0.413692654323178 
2380	 0.413668672059891 
2381	 0.413514514433737 
2382	 0.413458769010206 
2383	 0.413331911935864 
2384	 0.413400392927416 
2385	 0.413554913258193 
2386	 0.413736987113084 
2387	 0.414033991835949 
2388	 0.414259563167282 
2389	 0.414601955745486 
2390	 0.414785460145957 
2391	 0.414820172066293 
2392	 0.415042610858097 
2393	 0.415076794393816 
2394	 0.415497276126256 
2395	 0.416484040360709 
2396	 0.416802094872926 
2397	 0.417187316455132 
2398	 0.417166177939581 
2399	 0.416225958917047 
2400	 0.416058448842875 
2401	 0.415993460112522 
2402	 0.416540060923109 
2403	 0.417270877263685 
2404	 0.417761548115102 
2405	 0.418271447721746 
2406	 0.41820856018017 
2407	 0.418122246805582 
2408	 0.418206663360847 
2409	 0.417750743613581 
2410	 0.417264499619461 
2411	 0.417024579079488 
2412	 0.41693694849704 
2413	 0.416939421059623 
2414	 0.417606474481255 
2415	 0.41800854408766 
2416	 0.41794815239837 
2417	 0.418166086491884 
2418	 0.417586905896406 
2419	 0.417063624118619 
2420	 0.417256062306992 
2421	 0.417062807644497 
2422	 0.417147570390472 
2423	 0.417662726107479 
2424	 0.417988053300709 
2425	 0.418528116233382 
2426	 0.418792503358566 
2427	 0.4189481571465 
2428	 0.418880758629048 
2429	 0.418148444015867 
2430	 0.417756338457301 
2431	 0.417597217238718 
2432	 0.417244434798107 
2433	 0.417110491230857 
2434	 0.417763862560438 
2435	 0.418301230258934 
2436	 0.418231503853378 
2437	 0.418376980333872 
2438	 0.417614901613902 
2439	 0.416518205626493 
2440	 0.416815716090873 
2441	 0.417153395764204 
2442	 0.417161816381574 
2443	 0.417999404911884 
2444	 0.418242957142282 
2445	 0.417410777252 
2446	 0.417503019138173 
2447	 0.417644440268207 
2448	 0.416990039203105 
2449	 0.417084748488058 
2450	 0.41727224731417 
2451	 0.416734873736171 
2452	 0.416178718183603 
2453	 0.415748978448457 
2454	 0.415409983726664 
2455	 0.414557610268611 
2456	 0.413825188246973 
2457	 0.4138369844529 
2458	 0.413189563266827 
2459	 0.412583059580219 
2460	 0.412726530615081 
2461	 0.412620403883488 
2462	 0.412133460647042 
2463	 0.411938712022152 
2464	 0.411593268225037 
2465	 0.4106761721928 
2466	 0.410897147481522 
2467	 0.411533075162052 
2468	 0.411461446389769 
2469	 0.410914049687365 
2470	 0.409885823722933 
2471	 0.409392262309721 
2472	 0.409625135051613 
2473	 0.410456534319754 
2474	 0.411412391366017 
2475	 0.412068006942373 
2476	 0.412263680611251 
2477	 0.41219548603672 
2478	 0.412203387085674 
2479	 0.411520335596245 
2480	 0.410774770706058 
2481	 0.410382799080821 
2482	 0.409886159010219 
2483	 0.410160252204005 
2484	 0.410655723080831 
2485	 0.411137179445285 
2486	 0.412113183875924 
2487	 0.41326871396299 
2488	 0.413053251986016 
2489	 0.412277281038631 
2490	 0.412367408364332 
2491	 0.412614031447428 
2492	 0.412716325611817 
2493	 0.41339941859887 
2494	 0.413949691163293 
2495	 0.413287639320708 
2496	 0.413526160196889 
2497	 0.415123106127452 
2498	 0.416272316037905 
2499	 0.417400830617822 
2500	 0.417260939836845 
