Wavelength	Tablay400078.asd
350	 0.19192813101477 
351	 0.150079253331569 
352	 0.178947736248453 
353	 0.254797396096903 
354	 0.214401799073425 
355	 0.186010304481225 
356	 0.188933305009772 
357	 0.201878967786952 
358	 0.177761477093248 
359	 0.130188932533192 
360	 0.109649657875208 
361	 0.159265690864494 
362	 0.148332607058575 
363	 9.90405903817395E-02 
364	 8.17053479942149E-02 
365	 0.171219879204615 
366	 0.19578026743113 
367	 0.177493835510773 
368	 0.173860693043754 
369	 0.205808611536574 
370	 0.155520862384243 
371	 9.18169365565907E-02 
372	 0.156415010745852 
373	 0.181179461480389 
374	 0.158188699360655 
375	 0.11885232852845 
376	 0.126945615386613 
377	 0.108245541516125 
378	 8.76339834267391E-02 
379	 9.36506968576065E-02 
380	 8.58438622902792E-02 
381	 0.084657788850319 
382	 9.07260303050539E-02 
383	 9.36346081128387E-02 
384	 0.104437680128752 
385	 0.111349767116412 
386	 0.108524610631704 
387	 9.92993314364458E-02 
388	 9.52242316393127E-02 
389	 0.105839417734161 
390	 0.126561115132195 
391	 0.106211653744625 
392	 0.110176622989417 
393	 0.118891822397139 
394	 7.08318353489194E-02 
395	 7.10544785474958E-02 
396	 8.21256725296849E-02 
397	 7.47341361740316E-02 
398	 6.04378333496481E-02 
399	 8.25671240715182E-02 
400	 9.59656669336071E-02 
401	 6.29337396133862E-02 
402	 7.45504118310007E-02 
403	 7.53331817037353E-02 
404	 5.97896730637129E-02 
405	 6.19990705143122E-02 
406	 0.075454988522073 
407	 8.15299091249016E-02 
408	 7.10124464838055E-02 
409	 5.15134016594207E-02 
410	 5.32557785740223E-02 
411	 6.58079728198489E-02 
412	 6.88066067341863E-02 
413	 6.78041504654108E-02 
414	 6.30820678544958E-02 
415	 6.11133508764838E-02 
416	 0.071964498963335 
417	 6.90644230694238E-02 
418	 6.51276725133124E-02 
419	 6.89408678809194E-02 
420	 6.49562103857511E-02 
421	 6.39490615179389E-02 
422	 6.31714051018539E-02 
423	 5.71382578113142E-02 
424	 5.77706509162193E-02 
425	 6.00388362268144E-02 
426	 5.95340396208138E-02 
427	 5.40159065626349E-02 
428	 5.17225976221135E-02 
429	 5.21662399570323E-02 
430	 0.053268225632602 
431	 5.55922042101213E-02 
432	 5.38707362286485E-02 
433	 5.08801683812688E-02 
434	 5.26682960898534E-02 
435	 5.35484967212212E-02 
436	 5.26089919239119E-02 
437	 5.11583797040311E-02 
438	 5.30551013497468E-02 
439	 5.17080435893578E-02 
440	 4.99156385485395E-02 
441	 5.11538974854076E-02 
442	 5.04182437607393E-02 
443	 5.11350565143058E-02 
444	 0.051909466617948 
445	 0.048155951944632 
446	 4.68941301651401E-02 
447	 4.75197691766527E-02 
448	 4.84038320609077E-02 
449	 4.87528107361178E-02 
450	 4.60763989449406E-02 
451	 4.41704631098162E-02 
452	 0.047382309335206 
453	 4.84472214243528E-02 
454	 4.66879753912495E-02 
455	 4.46536018566296E-02 
456	 4.75120187190896E-02 
457	 4.65641548571039E-02 
458	 4.54012546368453E-02 
459	 4.72720869070827E-02 
460	 4.64528552868236E-02 
461	 0.04646408081671 
462	 4.72719307042294E-02 
463	 4.71315979285462E-02 
464	 4.71571621354162E-02 
465	 0.046262278397917 
466	 4.47730749228708E-02 
467	 4.54910572563383E-02 
468	 4.46279988681989E-02 
469	 0.043370566643174 
470	 4.37533720840979E-02 
471	 4.54107737048038E-02 
472	 4.64885325653702E-02 
473	 4.60591709977025E-02 
474	 4.42377971940713E-02 
475	 4.47103425843638E-02 
476	 4.50135852115015E-02 
477	 4.38697682669872E-02 
478	 4.48493204750466E-02 
479	 0.044364127415497 
480	 4.32317275978364E-02 
481	 4.34756986787104E-02 
482	 0.043498092588707 
483	 4.40857249062277E-02 
484	 0.044695102334091 
485	 4.32378769989877E-02 
486	 4.20251905675236E-02 
487	 4.21965296812028E-02 
488	 4.35439469265259E-02 
489	 4.28185196660977E-02 
490	 4.25301974619687E-02 
491	 0.042669201527721 
492	 4.19648940449073E-02 
493	 4.17387891123322E-02 
494	 4.19203532728069E-02 
495	 4.23122798915033E-02 
496	 4.28413194710404E-02 
497	 4.28765149821651E-02 
498	 4.22991061812314E-02 
499	 4.13911896388907E-02 
500	 4.12245247078743E-02 
501	 4.13234675474171E-02 
502	 4.15136863885339E-02 
503	 4.18788719056815E-02 
504	 4.10441879887942E-02 
505	 4.03751689279724E-02 
506	 4.08097519389475E-02 
507	 4.13258214361164E-02 
508	 4.07514001867785E-02 
509	 4.01239813431867E-02 
510	 0.0409659598412 
511	 4.07785388528073E-02 
512	 0.040110252489173 
513	 3.96659380918792E-02 
514	 3.99916141031782E-02 
515	 4.05283485242971E-02 
516	 4.07731455119867E-02 
517	 4.04778624083399E-02 
518	 4.00956184911156E-02 
519	 3.99871118422416E-02 
520	 3.99313818476807E-02 
521	 3.94133286811631E-02 
522	 3.93984988434756E-02 
523	 3.95478209302319E-02 
524	 3.96514766382718E-02 
525	 4.01881509664549E-02 
526	 4.02221554254426E-02 
527	 3.98539873706648E-02 
528	 3.96059639853807E-02 
529	 4.01232329607095E-02 
530	 4.00269584402981E-02 
531	 3.93500811326876E-02 
532	 3.96553438458598E-02 
533	 3.97985339413919E-02 
534	 3.96121872879728E-02 
535	 3.92615609520149E-02 
536	 3.92166328753725E-02 
537	 3.93697659631375E-02 
538	 0.039537325489946 
539	 3.95172823946999E-02 
540	 3.94105617857635E-02 
541	 3.90412206635086E-02 
542	 3.85923217983491E-02 
543	 3.88860200738657E-02 
544	 3.88386263037532E-02 
545	 3.85995554154553E-02 
546	 3.85895075020809E-02 
547	 3.86313693538205E-02 
548	 3.88612242142444E-02 
549	 3.90528192186119E-02 
550	 3.87129401425375E-02 
551	 3.86736953467508E-02 
552	 3.86107251742749E-02 
553	 3.83404740255633E-02 
554	 3.86086939352652E-02 
555	 3.87498571630704E-02 
556	 3.86909625779277E-02 
557	 3.86668554520697E-02 
558	 3.89878661485063E-02 
559	 3.90862685220139E-02 
560	 3.88497741090234E-02 
561	 3.88928951605515E-02 
562	 3.92910719633115E-02 
563	 3.96134786675238E-02 
564	 3.95456485286085E-02 
565	 3.98212877139204E-02 
566	 3.98704170430412E-02 
567	 3.96946590443827E-02 
568	 3.97421155217211E-02 
569	 4.02519748678938E-02 
570	 4.06981337568008E-02 
571	 4.07527096001517E-02 
572	 4.06914815621666E-02 
573	 4.09255947190067E-02 
574	 4.13048104235797E-02 
575	 4.15161602897168E-02 
576	 4.17796091334981E-02 
577	 4.20946856658408E-02 
578	 4.25393992085729E-02 
579	 0.043281062382342 
580	 4.38000787148177E-02 
581	 4.41214909073301E-02 
582	 4.44816166426596E-02 
583	 4.53121464883086E-02 
584	 4.63022350499681E-02 
585	 4.72906258869609E-02 
586	 4.82213506460211E-02 
587	 4.91074013279709E-02 
588	 5.00451316988772E-02 
589	 5.10832510968757E-02 
590	 5.21725349212054E-02 
591	 5.33712345036388E-02 
592	 5.45623465718081E-02 
593	 5.56287178671761E-02 
594	 5.66725521464655E-02 
595	 5.77463883832972E-02 
596	 5.89086876955084E-02 
597	 6.02014966237186E-02 
598	 6.13024945984187E-02 
599	 0.062350870012431 
600	 6.34544233973325E-02 
601	 0.064385504704769 
602	 6.56281688499002E-02 
603	 6.68863254714039E-02 
604	 6.76565549523761E-02 
605	 6.85370528334616E-02 
606	 6.95403822846159E-02 
607	 7.06004775974514E-02 
608	 7.16148253210835E-02 
609	 7.24894484189341E-02 
610	 7.33776800644877E-02 
611	 7.43865868437769E-02 
612	 7.52242984754434E-02 
613	 7.61699956362132E-02 
614	 7.71251821787137E-02 
615	 7.78119149544553E-02 
616	 7.87866259383588E-02 
617	 7.96727714046207E-02 
618	 8.03458484602247E-02 
619	 8.13495985014854E-02 
620	 8.22890905731462E-02 
621	 8.30859902681264E-02 
622	 8.38013914132012E-02 
623	 8.46211000704397E-02 
624	 8.55194905623858E-02 
625	 8.63823257127928E-02 
626	 8.70476948237577E-02 
627	 8.78808752145537E-02 
628	 8.87191801562189E-02 
629	 8.94587145448879E-02 
630	 0.090410505421261 
631	 9.13021045120206E-02 
632	 0.092081123325283 
633	 9.28064144530459E-02 
634	 9.35544846132777E-02 
635	 9.44677619203806E-02 
636	 9.54135517356319E-02 
637	 9.59278478354134E-02 
638	 9.69092181156682E-02 
639	 9.78361138598072E-02 
640	 0.098290485588261 
641	 9.93946317912989E-02 
642	 0.100256616708649 
643	 0.100919003091084 
644	 0.10193813456739 
645	 0.102831093094545 
646	 0.103704704305485 
647	 0.104638512129087 
648	 0.105556121151665 
649	 0.106436262166189 
650	 0.107283207979678 
651	 0.108137747677953 
652	 0.109133776577609 
653	 0.110164779663889 
654	 0.111149202152501 
655	 0.112053832721192 
656	 0.113155366178488 
657	 0.114279566116048 
658	 0.115280185107845 
659	 0.1162172719894 
660	 0.117202348166258 
661	 0.11816608655181 
662	 0.119042326321932 
663	 0.120183112052381 
664	 0.121375969250657 
665	 0.122520429131116 
666	 0.123661386138262 
667	 0.124691592121609 
668	 0.12576805784847 
669	 0.126976044716837 
670	 0.128087559526567 
671	 0.129193629778857 
672	 0.130288624382527 
673	 0.131362612685646 
674	 0.132640437871356 
675	 0.133902184429963 
676	 0.135108467482167 
677	 0.136475346243862 
678	 0.137747492753357 
679	 0.138875172299962 
680	 0.139936080601267 
681	 0.141224374060523 
682	 0.142498970625478 
683	 0.143804843634021 
684	 0.145295961000318 
685	 0.146638324474401 
686	 0.147958971458441 
687	 0.149317824127142 
688	 0.150616334794421 
689	 0.151995509975536 
690	 0.153408070521952 
691	 0.154807042701229 
692	 0.1563413469194 
693	 0.157695243891918 
694	 0.158965696954114 
695	 0.160474296169711 
696	 0.161980877971929 
697	 0.16350261139669 
698	 0.164998276530997 
699	 0.166278510799189 
700	 0.167829280338663 
701	 0.169468290452176 
702	 0.170932209104038 
703	 0.172428329856035 
704	 0.173994543169174 
705	 0.175614168676848 
706	 0.177224647607921 
707	 0.178734022618341 
708	 0.180191240493916 
709	 0.181711463885785 
710	 0.183493540496099 
711	 0.185099564082617 
712	 0.186607851566321 
713	 0.188216107300899 
714	 0.189917098992347 
715	 0.191557649120975 
716	 0.193139212161658 
717	 0.194771372580981 
718	 0.196420171427164 
719	 0.198088069885667 
720	 0.199752164112074 
721	 0.201334110241739 
722	 0.20308613271021 
723	 0.204837302035208 
724	 0.20639841832902 
725	 0.208040500744727 
726	 0.209748865340568 
727	 0.211470171976315 
728	 0.213139290822736 
729	 0.214845767576526 
730	 0.216545957905327 
731	 0.218226286219066 
732	 0.219950278769608 
733	 0.221568425607813 
734	 0.223109690602665 
735	 0.224677057928886 
736	 0.226431634026002 
737	 0.228139116570317 
738	 0.229805923263071 
739	 0.231572863680902 
740	 0.23324211533776 
741	 0.234886709668621 
742	 0.236534532508374 
743	 0.238096385862929 
744	 0.239804292714026 
745	 0.24153439724893 
746	 0.243122931694769 
747	 0.244607607522519 
748	 0.246235425805878 
749	 0.247940278519939 
750	 0.249498898696834 
751	 0.251052297685776 
752	 0.252586489005967 
753	 0.254082644051714 
754	 0.255537776661283 
755	 0.257180629529182 
756	 0.258802882901731 
757	 0.260238457689867 
758	 0.26172508419258 
759	 0.263275924266076 
760	 0.264811280518784 
761	 0.266243746205586 
762	 0.267790451527277 
763	 0.269223689828712 
764	 0.270547908619265 
765	 0.272037025111626 
766	 0.273591223508882 
767	 0.275082692976112 
768	 0.276449242391627 
769	 0.277772795798237 
770	 0.279185393793369 
771	 0.280662894598411 
772	 0.282115593099637 
773	 0.283506432387519 
774	 0.284755731980508 
775	 0.285971899992089 
776	 0.287383705327918 
777	 0.288743228947104 
778	 0.290082391827748 
779	 0.291393415056509 
780	 0.292525247465259 
781	 0.293844742567183 
782	 0.295202137829943 
783	 0.296403192017213 
784	 0.297663075737672 
785	 0.298839547687097 
786	 0.300012540747826 
787	 0.301333177478841 
788	 0.30248199498487 
789	 0.303606799370881 
790	 0.304786613764906 
791	 0.30596524303233 
792	 0.307062290289834 
793	 0.308175107859855 
794	 0.309359353514125 
795	 0.310488871071899 
796	 0.311453836401453 
797	 0.312410348177947 
798	 0.313540119564812 
799	 0.31461966629616 
800	 0.315647796056841 
801	 0.31665473220526 
802	 0.317681096754506 
803	 0.318657173022182 
804	 0.319649775168505 
805	 0.320656270136366 
806	 0.321551850921286 
807	 0.322422765388815 
808	 0.323326109022101 
809	 0.324272596068803 
810	 0.325168860833898 
811	 0.326009234400055 
812	 0.326811622879215 
813	 0.327619905959988 
814	 0.328530029646521 
815	 0.329420534511474 
816	 0.330209124762392 
817	 0.330883404049199 
818	 0.331643598761208 
819	 0.332396586924025 
820	 0.333114441444457 
821	 0.333950131774569 
822	 0.334756990500417 
823	 0.335488451954882 
824	 0.336144992975033 
825	 0.336769718637293 
826	 0.337424585906081 
827	 0.338109860400313 
828	 0.338799539165442 
829	 0.339530086058299 
830	 0.340191985080974 
831	 0.340757720009657 
832	 0.341285842456969 
833	 0.341842558087802 
834	 0.342423959867203 
835	 0.342969845001168 
836	 0.343361019477033 
837	 0.343891639769248 
838	 0.344489909172828 
839	 0.345038014248304 
840	 0.345569041777937 
841	 0.346087284879421 
842	 0.346607548631756 
843	 0.34712532063782 
844	 0.347518450932741 
845	 0.347988936605816 
846	 0.348443858473253 
847	 0.348651426034305 
848	 0.349250812064255 
849	 0.349702288642378 
850	 0.349917410430581 
851	 0.35049942828211 
852	 0.350864687590377 
853	 0.351133681911167 
854	 0.351485779573886 
855	 0.351924693838685 
856	 0.352169915674485 
857	 0.352380999596155 
858	 0.352769158603231 
859	 0.353200759546008 
860	 0.353454916336055 
861	 0.353703529993214 
862	 0.354202847546495 
863	 0.354397983672796 
864	 0.35463908995226 
865	 0.354991889418443 
866	 0.355235263751408 
867	 0.355367273629513 
868	 0.35557710105585 
869	 0.355912953974171 
870	 0.356197416200889 
871	 0.356478308788754 
872	 0.35672174636954 
873	 0.356914897635769 
874	 0.357127961965893 
875	 0.357176738516287 
876	 0.357287737223268 
877	 0.357647683730206 
878	 0.357834628008834 
879	 0.358080308832411 
880	 0.358352712309472 
881	 0.358525910695305 
882	 0.358711608176309 
883	 0.358887225680121 
884	 0.359043019001003 
885	 0.35918611756168 
886	 0.359331358224853 
887	 0.359510093025488 
888	 0.359651326074287 
889	 0.359604529582415 
890	 0.359887380281736 
891	 0.36014524268141 
892	 0.360150088170585 
893	 0.360159736391673 
894	 0.360368833694297 
895	 0.360585769076223 
896	 0.360663915092974 
897	 0.360870960050126 
898	 0.360889491106922 
899	 0.360884311270882 
900	 0.36108049749607 
901	 0.361275264415652 
902	 0.361459903170327 
903	 0.361579370079822 
904	 0.361604533485942 
905	 0.361729009772854 
906	 0.361864626123346 
907	 0.361942635231737 
908	 0.361950491248465 
909	 0.362070129212839 
910	 0.362215467884844 
911	 0.362405104081764 
912	 0.362742157819631 
913	 0.362717038008337 
914	 0.362814808448051 
915	 0.363103207407517 
916	 0.362930882137118 
917	 0.363055626296601 
918	 0.363176886233771 
919	 0.36313695351093 
920	 0.363428613058375 
921	 0.363664842146101 
922	 0.363730010325842 
923	 0.363677719038477 
924	 0.36377428845575 
925	 0.36398287625004 
926	 0.364249088700809 
927	 0.364493233550126 
928	 0.364607311889856 
929	 0.364695813170148 
930	 0.364869348049988 
931	 0.36513988569925 
932	 0.365110757555888 
933	 0.365242276744671 
934	 0.36554095772053 
935	 0.365743550940814 
936	 0.3656827189306 
937	 0.365762927189554 
938	 0.366086793228111 
939	 0.366467509115617 
940	 0.366550341591758 
941	 0.366553104297455 
942	 0.366675470365136 
943	 0.366989930927141 
944	 0.367139370402692 
945	 0.367193331647653 
946	 0.367273511246719 
947	 0.36746768804176 
948	 0.367535234500789 
949	 0.367605567384754 
950	 0.367767722807999 
951	 0.367983588283737 
952	 0.368228736904359 
953	 0.368291362399426 
954	 0.368277957426486 
955	 0.368737778648015 
956	 0.368783413294236 
957	 0.368858922475917 
958	 0.369212360892462 
959	 0.36929424534824 
960	 0.369495191032775 
961	 0.369669303255878 
962	 0.369680348886884 
963	 0.369653297377117 
964	 0.369556071175805 
965	 0.3696237135021 
966	 0.369866596939374 
967	 0.369670044993907 
968	 0.36969029077786 
969	 0.369948987077706 
970	 0.370288828273589 
971	 0.370631268931802 
972	 0.370530030731119 
973	 0.370319714438408 
974	 0.370424780309489 
975	 0.370771433455983 
976	 0.371335228771639 
977	 0.37142815403812 
978	 0.370747184357042 
979	 0.37064645972347 
980	 0.370974151969905 
981	 0.371335324943151 
982	 0.371442499891116 
983	 0.371764491078922 
984	 0.371678761672546 
985	 0.371649473200527 
986	 0.372136301980101 
987	 0.372339548832234 
988	 0.371904581636487 
989	 0.371657829575862 
990	 0.372224950468651 
991	 0.371994666222051 
992	 0.37252075185073 
993	 0.373044962775584 
994	 0.372732099044973 
995	 0.373474862328002 
996	 0.373630570241017 
997	 0.373444842405316 
998	 0.373539467552332 
999	 0.373321758657914 
1000	 0.37327860940707 
1001	 0.376709084562803 
1002	 0.376660701671132 
1003	 0.376522653253366 
1004	 0.376597191589621 
1005	 0.3767815019076 
1006	 0.376853527398069 
1007	 0.376916487692161 
1008	 0.377078870538419 
1009	 0.377214582574427 
1010	 0.377384507387133 
1011	 0.377834325920987 
1012	 0.377986389849136 
1013	 0.377866926578203 
1014	 0.377880867515807 
1015	 0.377739586165742 
1016	 0.377784095803306 
1017	 0.37817856400123 
1018	 0.378471598327498 
1019	 0.378532145471364 
1020	 0.378517785704379 
1021	 0.378570099239275 
1022	 0.378440189750163 
1023	 0.37844396849785 
1024	 0.378571016232969 
1025	 0.378702455001915 
1026	 0.378776558619299 
1027	 0.378933039643816 
1028	 0.379227162782252 
1029	 0.379556595289975 
1030	 0.379594365849206 
1031	 0.379493891593093 
1032	 0.379394643969292 
1033	 0.379349804274429 
1034	 0.379462056789914 
1035	 0.379515829957453 
1036	 0.379623148970214 
1037	 0.379786953421119 
1038	 0.379839154165715 
1039	 0.379880414631634 
1040	 0.380046015050074 
1041	 0.380114424511047 
1042	 0.380251374503526 
1043	 0.380653604013317 
1044	 0.380778613202763 
1045	 0.380594966620175 
1046	 0.380483594685598 
1047	 0.380128823253975 
1048	 0.379957064007111 
1049	 0.380014551033517 
1050	 0.380118192557974 
1051	 0.380299288435595 
1052	 0.380281452118626 
1053	 0.380423826470241 
1054	 0.380664423244227 
1055	 0.380833325795599 
1056	 0.381105925065283 
1057	 0.381276822194092 
1058	 0.381402930665826 
1059	 0.381213816616506 
1060	 0.381208703509847 
1061	 0.381396014001601 
1062	 0.381439898023358 
1063	 0.381691857584411 
1064	 0.381925275151786 
1065	 0.381965737463944 
1066	 0.382056721858238 
1067	 0.382041441805477 
1068	 0.381994348515021 
1069	 0.382036866180414 
1070	 0.382107019277451 
1071	 0.382233493898919 
1072	 0.382262987103039 
1073	 0.382259379942784 
1074	 0.382381185825162 
1075	 0.382361507393669 
1076	 0.382454189792402 
1077	 0.382744674123145 
1078	 0.382884894248221 
1079	 0.38296840523338 
1080	 0.383091218728707 
1081	 0.383193150272479 
1082	 0.383271616333138 
1083	 0.383408817548573 
1084	 0.383510779721485 
1085	 0.383520298637448 
1086	 0.383538759459655 
1087	 0.383517237740325 
1088	 0.383473912990159 
1089	 0.383531932057591 
1090	 0.383684599412379 
1091	 0.383799199153921 
1092	 0.38386603360815 
1093	 0.383964072000949 
1094	 0.384063884899622 
1095	 0.384096991188536 
1096	 0.384188816508179 
1097	 0.384271759309602 
1098	 0.38429452765379 
1099	 0.384424386199599 
1100	 0.384622770113634 
1101	 0.384726500198085 
1102	 0.3847637279111 
1103	 0.38484363574111 
1104	 0.384894959139614 
1105	 0.38495845289779 
1106	 0.385112266530186 
1107	 0.385337222966377 
1108	 0.385554166844206 
1109	 0.385682871250859 
1110	 0.385681187598129 
1111	 0.385698594246688 
1112	 0.38575204541559 
1113	 0.385764125341215 
1114	 0.385902816630383 
1115	 0.386037424393523 
1116	 0.386083694093297 
1117	 0.386220188902728 
1118	 0.38629951194664 
1119	 0.386335180506136 
1120	 0.38637889013278 
1121	 0.386403148066224 
1122	 0.386440862602113 
1123	 0.386529837363969 
1124	 0.386703472043212 
1125	 0.386921377023296 
1126	 0.386990344400793 
1127	 0.387039429876634 
1128	 0.387160154307579 
1129	 0.387194662291484 
1130	 0.38731793251668 
1131	 0.387439153527603 
1132	 0.387466630738834 
1133	 0.387518160049407 
1134	 0.387538076569185 
1135	 0.387595700831493 
1136	 0.387658595344677 
1137	 0.387727629602908 
1138	 0.387816191331413 
1139	 0.387936419293284 
1140	 0.388045380915854 
1141	 0.388237262738226 
1142	 0.388466184666392 
1143	 0.388598812069208 
1144	 0.388657972978152 
1145	 0.388724209415843 
1146	 0.388793096181923 
1147	 0.388895009121648 
1148	 0.389062358474141 
1149	 0.389152896318523 
1150	 0.389184033813839 
1151	 0.389163065910095 
1152	 0.389189614493698 
1153	 0.389192995808217 
1154	 0.389282215229954 
1155	 0.389501386444697 
1156	 0.389584797881923 
1157	 0.389623961082668 
1158	 0.389675144680442 
1159	 0.389674185930348 
1160	 0.389650444317501 
1161	 0.389677569708808 
1162	 0.389664187338633 
1163	 0.389635752616619 
1164	 0.389642297003837 
1165	 0.389619486985622 
1166	 0.389596673438414 
1167	 0.389572359475496 
1168	 0.38944881447141 
1169	 0.389426497756896 
1170	 0.389486068765493 
1171	 0.389509495685276 
1172	 0.38953520701855 
1173	 0.389594990574491 
1174	 0.389677714407531 
1175	 0.389701343278229 
1176	 0.389744020144604 
1177	 0.389760853235032 
1178	 0.389717232530645 
1179	 0.389683975419442 
1180	 0.389703905141052 
1181	 0.389624518972135 
1182	 0.38949287543808 
1183	 0.389446389355506 
1184	 0.389425511115787 
1185	 0.389461334517769 
1186	 0.389499385732407 
1187	 0.389577214246921 
1188	 0.389687643498334 
1189	 0.389856190495532 
1190	 0.38994679427978 
1191	 0.390041326468345 
1192	 0.390144943332166 
1193	 0.390170818744627 
1194	 0.390244475277265 
1195	 0.390383818946388 
1196	 0.390511106174839 
1197	 0.39056087242732 
1198	 0.390751984570321 
1199	 0.391021487049492 
1200	 0.391242314736218 
1201	 0.391517734903454 
1202	 0.391739689256666 
1203	 0.391874430462004 
1204	 0.392134280454202 
1205	 0.392398384451726 
1206	 0.392680334609777 
1207	 0.39298886556238 
1208	 0.393327102744562 
1209	 0.393705685574463 
1210	 0.394096983090095 
1211	 0.394574509685597 
1212	 0.395117544192369 
1213	 0.395687495687015 
1214	 0.396316602309396 
1215	 0.396964189691496 
1216	 0.397666760931302 
1217	 0.398377995354261 
1218	 0.399093516647365 
1219	 0.399851756435857 
1220	 0.400732668512917 
1221	 0.401526664480908 
1222	 0.402364004904259 
1223	 0.403290249186245 
1224	 0.404114508937506 
1225	 0.40488123615396 
1226	 0.405659220034035 
1227	 0.406419288612231 
1228	 0.407154411196011 
1229	 0.407899855674066 
1230	 0.408584000753877 
1231	 0.409213326077704 
1232	 0.409843453025607 
1233	 0.410432627427502 
1234	 0.411021076831123 
1235	 0.411571596976271 
1236	 0.412166374006927 
1237	 0.412787775173353 
1238	 0.413383973740011 
1239	 0.413957878510509 
1240	 0.414613294516887 
1241	 0.415239536926709 
1242	 0.415780610253518 
1243	 0.416342906073121 
1244	 0.416916512734421 
1245	 0.417435040250133 
1246	 0.417896910646881 
1247	 0.418421655124518 
1248	 0.41896599629598 
1249	 0.419467001672055 
1250	 0.419983528868373 
1251	 0.420457785094713 
1252	 0.420860448900481 
1253	 0.421298808260585 
1254	 0.42176293193809 
1255	 0.422201189691114 
1256	 0.422617181093873 
1257	 0.42304843037068 
1258	 0.423485303415341 
1259	 0.423900221534953 
1260	 0.424309612852589 
1261	 0.424719864664492 
1262	 0.42511448535798 
1263	 0.425510958751202 
1264	 0.425891195603089 
1265	 0.426255026461142 
1266	 0.426669305794742 
1267	 0.427090596151214 
1268	 0.427509089097746 
1269	 0.427961820305982 
1270	 0.428411825252033 
1271	 0.428875163070179 
1272	 0.42927651302308 
1273	 0.429654432403929 
1274	 0.430055650387804 
1275	 0.430389399347224 
1276	 0.430784180917994 
1277	 0.431264693175684 
1278	 0.431696521718289 
1279	 0.432090346781023 
1280	 0.432520363756024 
1281	 0.432967273010218 
1282	 0.433406786381338 
1283	 0.433864081560576 
1284	 0.43431638339764 
1285	 0.434764561470121 
1286	 0.435207667976701 
1287	 0.435630467632288 
1288	 0.436051564307953 
1289	 0.436458398570306 
1290	 0.436815812395542 
1291	 0.437240543637929 
1292	 0.437706528777039 
1293	 0.43813138706385 
1294	 0.438590542552015 
1295	 0.438986382976064 
1296	 0.439326279267412 
1297	 0.439674779650666 
1298	 0.439971527886285 
1299	 0.440327667578977 
1300	 0.440723264079342 
1301	 0.441083596742589 
1302	 0.441463142185419 
1303	 0.441825661953737 
1304	 0.442162713655634 
1305	 0.442484519785025 
1306	 0.442757352350348 
1307	 0.443095467648262 
1308	 0.443485049435766 
1309	 0.443817500679365 
1310	 0.444163982003947 
1311	 0.444561236946696 
1312	 0.444905084540187 
1313	 0.445181758007228 
1314	 0.445517518339008 
1315	 0.445891346030891 
1316	 0.446223378973635 
1317	 0.446554680553515 
1318	 0.446861960110215 
1319	 0.447152063028135 
1320	 0.447423610168712 
1321	 0.447669583140005 
1322	 0.447918193878509 
1323	 0.448127270816299 
1324	 0.448380371933052 
1325	 0.448634815998903 
1326	 0.448927181731977 
1327	 0.449309518667863 
1328	 0.449602534940471 
1329	 0.449903363826389 
1330	 0.450142157760657 
1331	 0.450221095961154 
1332	 0.450419452393013 
1333	 0.450672371661145 
1334	 0.450917028947338 
1335	 0.45113307298669 
1336	 0.451411649770509 
1337	 0.451592995592351 
1338	 0.451674064323318 
1339	 0.451832928591852 
1340	 0.452043258071022 
1341	 0.452142208259488 
1342	 0.45219078426793 
1343	 0.45227287251668 
1344	 0.452281931222484 
1345	 0.45236359796919 
1346	 0.452561850137497 
1347	 0.452620812652319 
1348	 0.452619442626051 
1349	 0.452626489363119 
1350	 0.452554983779251 
1351	 0.45253596782745 
1352	 0.452578162897336 
1353	 0.452552825775539 
1354	 0.452464244049339 
1355	 0.452437411684386 
1356	 0.452417734642696 
1357	 0.45239381609854 
1358	 0.452423295335582 
1359	 0.452420939711087 
1360	 0.452387448371506 
1361	 0.452355325946283 
1362	 0.452280398889129 
1363	 0.452194254285395 
1364	 0.452112954347855 
1365	 0.451994813172324 
1366	 0.451906565441504 
1367	 0.451875613939932 
1368	 0.451733267257068 
1369	 0.451540576126508 
1370	 0.451354065996232 
1371	 0.451115529048085 
1372	 0.450890316154167 
1373	 0.450673621400256 
1374	 0.450445275803582 
1375	 0.4502031562176 
1376	 0.449941880005479 
1377	 0.449690899679757 
1378	 0.449393976916781 
1379	 0.449040923403791 
1380	 0.448706760554359 
1381	 0.448349677934287 
1382	 0.448007251434254 
1383	 0.44767840912051 
1384	 0.447335206389436 
1385	 0.446999817340994 
1386	 0.44664945184487 
1387	 0.446256990198705 
1388	 0.445912207188358 
1389	 0.445571911213094 
1390	 0.445257648798652 
1391	 0.444979253430505 
1392	 0.444719575732707 
1393	 0.444487310623732 
1394	 0.444220797101829 
1395	 0.443995989739314 
1396	 0.443801346728406 
1397	 0.443583362383534 
1398	 0.443421987866053 
1399	 0.443114529972787 
1400	 0.442760887683633 
1401	 0.442336309311963 
1402	 0.44185632094584 
1403	 0.441232011355709 
1404	 0.440524400705787 
1405	 0.439745276185495 
1406	 0.438775983399355 
1407	 0.437887445823418 
1408	 0.436991270047483 
1409	 0.436077786025126 
1410	 0.435163825078507 
1411	 0.434214428888598 
1412	 0.433227832967952 
1413	 0.432253611459814 
1414	 0.431256022747199 
1415	 0.430275490607481 
1416	 0.429260862820595 
1417	 0.428321155080114 
1418	 0.427406302510642 
1419	 0.426522690983526 
1420	 0.425708959617547 
1421	 0.424907872554221 
1422	 0.424119934510318 
1423	 0.423358935127118 
1424	 0.42265785482749 
1425	 0.421911578838814 
1426	 0.421222121510678 
1427	 0.420544351864083 
1428	 0.419845121202569 
1429	 0.419210260689764 
1430	 0.418553916097942 
1431	 0.41792907805758 
1432	 0.417209828540238 
1433	 0.416492584748339 
1434	 0.415661591517905 
1435	 0.414721882996833 
1436	 0.413789973838314 
1437	 0.412801137438155 
1438	 0.411825843047633 
1439	 0.410819453940759 
1440	 0.409836574166176 
1441	 0.40876886100333 
1442	 0.407892376298532 
1443	 0.407018781006039 
1444	 0.406373645634816 
1445	 0.405832617013014 
1446	 0.405568085177214 
1447	 0.40544199665875 
1448	 0.405630878230714 
1449	 0.406155292738172 
1450	 0.406798036397516 
1451	 0.407746639532534 
1452	 0.408720747228694 
1453	 0.409860942702801 
1454	 0.41101166896466 
1455	 0.412310018300574 
1456	 0.413527493743232 
1457	 0.414789234195025 
1458	 0.415979188480733 
1459	 0.417117715109834 
1460	 0.418215000983481 
1461	 0.41927794870335 
1462	 0.420284644464726 
1463	 0.421230650060624 
1464	 0.422146210212829 
1465	 0.422998400030183 
1466	 0.423849228671783 
1467	 0.424633926232643 
1468	 0.425436231783144 
1469	 0.426211259107411 
1470	 0.426924680825334 
1471	 0.427627617015535 
1472	 0.428302088935616 
1473	 0.428967951853706 
1474	 0.429611713853952 
1475	 0.430235726457715 
1476	 0.430870597559712 
1477	 0.431420203301723 
1478	 0.431925129581297 
1479	 0.43237391452947 
1480	 0.432756420346057 
1481	 0.433115949818242 
1482	 0.433463859410538 
1483	 0.433701937290665 
1484	 0.433837271606255 
1485	 0.434010766057646 
1486	 0.434083266300207 
1487	 0.43424753960033 
1488	 0.434456200419716 
1489	 0.434689752419143 
1490	 0.434886950610683 
1491	 0.435244464983438 
1492	 0.435665084008583 
1493	 0.436206280673613 
1494	 0.436928886711806 
1495	 0.437614675704984 
1496	 0.438334487875829 
1497	 0.439133508487762 
1498	 0.439980917571691 
1499	 0.440864694375855 
1500	 0.441885368051483 
1501	 0.442824093736669 
1502	 0.443769198794681 
1503	 0.444656053644617 
1504	 0.44550515554817 
1505	 0.446323265562626 
1506	 0.44709967591457 
1507	 0.44784273025155 
1508	 0.448563804811264 
1509	 0.449237323987599 
1510	 0.449855068317308 
1511	 0.450451295790128 
1512	 0.451010037202763 
1513	 0.451540283922918 
1514	 0.452065456841119 
1515	 0.452529734090725 
1516	 0.452937154349867 
1517	 0.453319365638848 
1518	 0.453672900798196 
1519	 0.453961689497206 
1520	 0.454174647540119 
1521	 0.454396407319935 
1522	 0.454603771535111 
1523	 0.454754978141003 
1524	 0.454932684673221 
1525	 0.455154215711287 
1526	 0.455267116926655 
1527	 0.455320572358019 
1528	 0.455390449382038 
1529	 0.45539179423187 
1530	 0.455482363124447 
1531	 0.455635172544028 
1532	 0.455697777798913 
1533	 0.455734969142581 
1534	 0.45582668063691 
1535	 0.455874992813929 
1536	 0.455993374665919 
1537	 0.45618805600503 
1538	 0.456378993915905 
1539	 0.456537362424236 
1540	 0.456816966126496 
1541	 0.457187794031235 
1542	 0.457551853839829 
1543	 0.457942441467752 
1544	 0.458421345960322 
1545	 0.458930855734311 
1546	 0.459513216080881 
1547	 0.460243406170332 
1548	 0.46087743831231 
1549	 0.461508610999294 
1550	 0.462137237061786 
1551	 0.462744746174113 
1552	 0.463355991267439 
1553	 0.463975251421125 
1554	 0.464589571349885 
1555	 0.465190033971397 
1556	 0.465797570227892 
1557	 0.466427459800765 
1558	 0.467020889063459 
1559	 0.467595115456421 
1560	 0.468165355696005 
1561	 0.46869983195688 
1562	 0.469270361129615 
1563	 0.46987590364871 
1564	 0.470433229968733 
1565	 0.47098622776618 
1566	 0.47152451505873 
1567	 0.472034561942107 
1568	 0.472527519208498 
1569	 0.47299815717851 
1570	 0.473488740130573 
1571	 0.473970021072982 
1572	 0.474439442746745 
1573	 0.474962628069591 
1574	 0.475393228993297 
1575	 0.475707217957828 
1576	 0.476114597581153 
1577	 0.47654522503023 
1578	 0.476939945330909 
1579	 0.47734861045261 
1580	 0.477778126953292 
1581	 0.478192733152823 
1582	 0.478588554630559 
1583	 0.479013539221759 
1584	 0.479429562266209 
1585	 0.479784526277754 
1586	 0.480183970281027 
1587	 0.480628433143684 
1588	 0.481067582992088 
1589	 0.481518592502064 
1590	 0.481951155598254 
1591	 0.482398633306928 
1592	 0.482822761217811 
1593	 0.483218099737229 
1594	 0.483612790779088 
1595	 0.484005697224325 
1596	 0.484379742800982 
1597	 0.484707128017942 
1598	 0.485087104669688 
1599	 0.485476471217506 
1600	 0.485883339518767 
1601	 0.486368547134727 
1602	 0.486784946938679 
1603	 0.487167718918849 
1604	 0.487547387510126 
1605	 0.487891432356745 
1606	 0.488241510364317 
1607	 0.488623698712872 
1608	 0.488948934402471 
1609	 0.489204629672758 
1610	 0.489505032049152 
1611	 0.489784074711946 
1612	 0.490084786814934 
1613	 0.490466005749683 
1614	 0.490775133830045 
1615	 0.491049292533054 
1616	 0.491311112454449 
1617	 0.491563454616495 
1618	 0.491752786042749 
1619	 0.491877445923848 
1620	 0.492024059094107 
1621	 0.492107413626002 
1622	 0.492235085537351 
1623	 0.49244128631043 
1624	 0.492578091083202 
1625	 0.492696430792858 
1626	 0.492790310761184 
1627	 0.492808462662982 
1628	 0.492871471902089 
1629	 0.492934587854055 
1630	 0.4930079558087 
1631	 0.493096518665745 
1632	 0.493211752990172 
1633	 0.493359757101947 
1634	 0.493493306239972 
1635	 0.49364873635857 
1636	 0.493785176119279 
1637	 0.493897972015418 
1638	 0.494013325262948 
1639	 0.49414964369937 
1640	 0.494245825293506 
1641	 0.494351510866443 
1642	 0.494382255894258 
1643	 0.494345105971352 
1644	 0.494297574874656 
1645	 0.494189466279731 
1646	 0.494082503112172 
1647	 0.494016386754866 
1648	 0.493847117198471 
1649	 0.493631409601899 
1650	 0.493348228700408 
1651	 0.492992273127964 
1652	 0.492564690364141 
1653	 0.492086537653157 
1654	 0.491514945185756 
1655	 0.490835226881634 
1656	 0.490116863186407 
1657	 0.489338701482157 
1658	 0.488493297880952 
1659	 0.487573199011862 
1660	 0.486614798979882 
1661	 0.485569924095314 
1662	 0.484524393544022 
1663	 0.483402644140969 
1664	 0.482336925817681 
1665	 0.481310127518892 
1666	 0.480215194615378 
1667	 0.479093995587936 
1668	 0.478030949624869 
1669	 0.476931578481511 
1670	 0.475885269142939 
1671	 0.47494286191372 
1672	 0.47393414300851 
1673	 0.472897863682925 
1674	 0.471849821394829 
1675	 0.470787365514103 
1676	 0.469745929954541 
1677	 0.468725835953487 
1678	 0.467651979402387 
1679	 0.466590448508399 
1680	 0.465433534206573 
1681	 0.46424342092686 
1682	 0.462934911222628 
1683	 0.461538487011054 
1684	 0.460096530591439 
1685	 0.458624555833879 
1686	 0.456939207642736 
1687	 0.455114330460731 
1688	 0.453195383081756 
1689	 0.451064045784282 
1690	 0.448928011429311 
1691	 0.446760036395603 
1692	 0.444561297180983 
1693	 0.442297816792696 
1694	 0.439972801777694 
1695	 0.437624704377007 
1696	 0.435129198141538 
1697	 0.432514600025623 
1698	 0.429812619175941 
1699	 0.426978591207305 
1700	 0.424258085167152 
1701	 0.421501347041823 
1702	 0.418751598095067 
1703	 0.415965863853791 
1704	 0.413317542679879 
1705	 0.410627571671724 
1706	 0.408116971667634 
1707	 0.405957838055886 
1708	 0.403870940326233 
1709	 0.401952528077042 
1710	 0.400295421419156 
1711	 0.398600772448951 
1712	 0.396973085903652 
1713	 0.395438634182297 
1714	 0.393878809690333 
1715	 0.392418208006111 
1716	 0.391055774521516 
1717	 0.389703171545418 
1718	 0.388445665367687 
1719	 0.387242062438919 
1720	 0.386062132684342 
1721	 0.384964383408791 
1722	 0.383875426004769 
1723	 0.382975908968368 
1724	 0.382194283267567 
1725	 0.381526667855803 
1726	 0.381157770413251 
1727	 0.380891258071457 
1728	 0.380845658663786 
1729	 0.38109666188832 
1730	 0.38157212350601 
1731	 0.382287409154869 
1732	 0.38317462373438 
1733	 0.38417123279879 
1734	 0.385305622224294 
1735	 0.386506252449952 
1736	 0.387723677236152 
1737	 0.388929601457618 
1738	 0.389825640304524 
1739	 0.390641184370035 
1740	 0.391375312919129 
1741	 0.391902289393166 
1742	 0.392377703022276 
1743	 0.392550185059483 
1744	 0.392367319840497 
1745	 0.39220684720428 
1746	 0.391810533385183 
1747	 0.391492970555673 
1748	 0.391081675403863 
1749	 0.390832363923543 
1750	 0.390622797800616 
1751	 0.39053399869833 
1752	 0.390600511962986 
1753	 0.390767829267562 
1754	 0.390964835741065 
1755	 0.391300315601501 
1756	 0.391746651765613 
1757	 0.392302080573844 
1758	 0.393112711585219 
1759	 0.394006172823581 
1760	 0.39505117096253 
1761	 0.396173567286783 
1762	 0.397239319719353 
1763	 0.398514986491471 
1764	 0.39998473256726 
1765	 0.401590974784201 
1766	 0.403472727301937 
1767	 0.405381995663188 
1768	 0.407276433978282 
1769	 0.40923720339027 
1770	 0.411059939279375 
1771	 0.412807570717549 
1772	 0.414486426681631 
1773	 0.416049577417786 
1774	 0.417647637504685 
1775	 0.419181740406416 
1776	 0.42064180502107 
1777	 0.421949735245163 
1778	 0.423071410656026 
1779	 0.424184423340512 
1780	 0.425187729685778 
1781	 0.426205682440158 
1782	 0.427283979559555 
1783	 0.428194685518799 
1784	 0.429141160848895 
1785	 0.429970824486241 
1786	 0.4308081484169 
1787	 0.431681155425644 
1788	 0.432456671540769 
1789	 0.433223616600492 
1790	 0.433887849880083 
1791	 0.434424580601798 
1792	 0.435014751298733 
1793	 0.435547660925695 
1794	 0.43617108315889 
1795	 0.43673171562775 
1796	 0.437229465585185 
1797	 0.43780084916708 
1798	 0.438388575195849 
1799	 0.438933646356314 
1800	 0.439497936265677 
1801	 0.438201545688572 
1802	 0.438747768141905 
1803	 0.439239361409547 
1804	 0.439712790822241 
1805	 0.440235292369183 
1806	 0.440705644021227 
1807	 0.441082664897303 
1808	 0.441565819144939 
1809	 0.442149880784313 
1810	 0.442611246205374 
1811	 0.44304705381287 
1812	 0.443496197434337 
1813	 0.443910812591199 
1814	 0.44426987060964 
1815	 0.444707185858334 
1816	 0.445183414017572 
1817	 0.445615387343854 
1818	 0.445985106962872 
1819	 0.446451237464548 
1820	 0.446959994624956 
1821	 0.447439187563402 
1822	 0.447919708196295 
1823	 0.448503056862781 
1824	 0.448987635298866 
1825	 0.449446703362207 
1826	 0.449943426358381 
1827	 0.450480608934164 
1828	 0.450961875584682 
1829	 0.451430083935536 
1830	 0.451893944541748 
1831	 0.45236560629263 
1832	 0.452758252319265 
1833	 0.453144306794043 
1834	 0.45354367490156 
1835	 0.453889897540841 
1836	 0.45419288208723 
1837	 0.454560525601303 
1838	 0.454950430024919 
1839	 0.455364390438457 
1840	 0.455853975749622 
1841	 0.456268453072081 
1842	 0.456692321910464 
1843	 0.457043280431689 
1844	 0.457334546829187 
1845	 0.457633073594646 
1846	 0.457948501557222 
1847	 0.45821649137493 
1848	 0.45846624729036 
1849	 0.458769129482195 
1850	 0.458909678101977 
1851	 0.458958785386941 
1852	 0.458969217047774 
1853	 0.458922109791232 
1854	 0.458906954457916 
1855	 0.45886406517481 
1856	 0.458701446342106 
1857	 0.458520387245799 
1858	 0.458203319471623 
1859	 0.45783910202412 
1860	 0.457449290706246 
1861	 0.456978221257074 
1862	 0.456405139211011 
1863	 0.45581010342911 
1864	 0.455163301938766 
1865	 0.454395902787778 
1866	 0.453678282702139 
1867	 0.452889961061637 
1868	 0.452022789731921 
1869	 0.451081525109388 
1870	 0.450009748492543 
1871	 0.448829759658044 
1872	 0.447559023894448 
1873	 0.446175387116306 
1874	 0.44472745213189 
1875	 0.443198757593357 
1876	 0.441471168513115 
1877	 0.439735780486068 
1878	 0.43792719611271 
1879	 0.436018466662738 
1880	 0.434125526666474 
1881	 0.432083048414655 
1882	 0.429897520797092 
1883	 0.427673948569376 
1884	 0.425372062100034 
1885	 0.422812014491119 
1886	 0.420260948572724 
1887	 0.41750737856263 
1888	 0.414478425934262 
1889	 0.411605510200916 
1890	 0.408577760878655 
1891	 0.405537397605777 
1892	 0.402600566457849 
1893	 0.39948877999467 
1894	 0.396213064348842 
1895	 0.393008751515223 
1896	 0.389738257512677 
1897	 0.386426936159887 
1898	 0.383405323224433 
1899	 0.380328281232361 
1900	 0.377369097829235 
1901	 0.374518245895169 
1902	 0.371492282029785 
1903	 0.368640783261804 
1904	 0.365866283644113 
1905	 0.36308572941744 
1906	 0.36046352775415 
1907	 0.358176148474257 
1908	 0.355818594506505 
1909	 0.35359129114894 
1910	 0.351476256440429 
1911	 0.349250870062813 
1912	 0.347209042894787 
1913	 0.345246067488091 
1914	 0.343290280236343 
1915	 0.341439534299222 
1916	 0.339726671132995 
1917	 0.337963473859635 
1918	 0.336248894966261 
1919	 0.33461900355378 
1920	 0.332847239677834 
1921	 0.331178488852589 
1922	 0.329524378948254 
1923	 0.327740182691804 
1924	 0.326132684506808 
1925	 0.324545060917158 
1926	 0.322990100013567 
1927	 0.321528408067808 
1928	 0.320013703501567 
1929	 0.318442681267713 
1930	 0.317000041502015 
1931	 0.315585029364726 
1932	 0.314257756448492 
1933	 0.313192506173179 
1934	 0.312142601706847 
1935	 0.311173396311311 
1936	 0.310402725754815 
1937	 0.309718447931275 
1938	 0.309107344203089 
1939	 0.308703047773666 
1940	 0.308456699944429 
1941	 0.308329582772101 
1942	 0.308362041452126 
1943	 0.308439139789788 
1944	 0.308634435236846 
1945	 0.30889159304925 
1946	 0.309250458300858 
1947	 0.309782020845949 
1948	 0.310381725178064 
1949	 0.311091402251304 
1950	 0.311907864277184 
1951	 0.31280495116446 
1952	 0.313861490738033 
1953	 0.315048658728927 
1954	 0.316342481013911 
1955	 0.317810218365287 
1956	 0.319390373895935 
1957	 0.321008725117837 
1958	 0.322718221176072 
1959	 0.324303389456777 
1960	 0.32576535727499 
1961	 0.32713151054029 
1962	 0.32836115727114 
1963	 0.329509564867001 
1964	 0.330598540648626 
1965	 0.331560397430512 
1966	 0.332396749763319 
1967	 0.333173017992997 
1968	 0.333836436194604 
1969	 0.334435844005071 
1970	 0.335051786443738 
1971	 0.335639287394992 
1972	 0.336198424969337 
1973	 0.336827995029074 
1974	 0.337514605003585 
1975	 0.338220938622017 
1976	 0.338985670178125 
1977	 0.339880773891969 
1978	 0.340712611445857 
1979	 0.341509463783304 
1980	 0.34236043113893 
1981	 0.343301874600096 
1982	 0.344205489504501 
1983	 0.345256544401558 
1984	 0.34634272941814 
1985	 0.347247563938068 
1986	 0.348228516890277 
1987	 0.349303895984824 
1988	 0.35026251011283 
1989	 0.351528786899516 
1990	 0.35300305821437 
1991	 0.35458224601552 
1992	 0.356312373338887 
1993	 0.35824505368553 
1994	 0.360146280991355 
1995	 0.362207772258429 
1996	 0.364264291446037 
1997	 0.366291576160623 
1998	 0.368401723269873 
1999	 0.370605750479135 
2000	 0.372719651785643 
2001	 0.374964724944003 
2002	 0.376943949184639 
2003	 0.378851290704531 
2004	 0.380586417824352 
2005	 0.382012403731683 
2006	 0.383537524224427 
2007	 0.385062790884201 
2008	 0.386424800463752 
2009	 0.387830720666616 
2010	 0.389208091178306 
2011	 0.390283084330124 
2012	 0.391227176939518 
2013	 0.392118150551176 
2014	 0.392831866505231 
2015	 0.393572681913636 
2016	 0.39431456608713 
2017	 0.394931802761411 
2018	 0.39547032252009 
2019	 0.395921115042927 
2020	 0.396223067544988 
2021	 0.396572990728267 
2022	 0.396818944962937 
2023	 0.39698263971588 
2024	 0.397183295320005 
2025	 0.397200722187138 
2026	 0.397181664402245 
2027	 0.397075483821566 
2028	 0.396981621943654 
2029	 0.396825277508448 
2030	 0.39664773828614 
2031	 0.396491836470701 
2032	 0.396240905387065 
2033	 0.39584733047662 
2034	 0.395515351505297 
2035	 0.395126107751528 
2036	 0.394811277585279 
2037	 0.394568649075144 
2038	 0.394296592398911 
2039	 0.394027629473734 
2040	 0.393779076700578 
2041	 0.393512129500174 
2042	 0.393196711949684 
2043	 0.392975254289075 
2044	 0.392823142783214 
2045	 0.392631716363753 
2046	 0.392494106821537 
2047	 0.392292556211136 
2048	 0.392028728731958 
2049	 0.391779956272983 
2050	 0.391515551365024 
2051	 0.391254580426331 
2052	 0.390967803875217 
2053	 0.390748999542794 
2054	 0.390570087861488 
2055	 0.390433377633324 
2056	 0.390292140930553 
2057	 0.390210525531281 
2058	 0.3900951089654 
2059	 0.389974231015892 
2060	 0.389840579948076 
2061	 0.389716914530976 
2062	 0.389562501680902 
2063	 0.38939847106131 
2064	 0.389195628522742 
2065	 0.388929671773831 
2066	 0.388692402868292 
2067	 0.388510709582479 
2068	 0.388311543867118 
2069	 0.388169067135582 
2070	 0.388148641360586 
2071	 0.388009438714851 
2072	 0.38782124622072 
2073	 0.387659789884366 
2074	 0.387493296002507 
2075	 0.387286431633482 
2076	 0.38704066580432 
2077	 0.386840376585744 
2078	 0.386590249169371 
2079	 0.386408088150141 
2080	 0.386394445125098 
2081	 0.38623944660625 
2082	 0.386047972945501 
2083	 0.385806429861082 
2084	 0.385479491640868 
2085	 0.38511578248257 
2086	 0.384811525978443 
2087	 0.384533984494146 
2088	 0.384239268390291 
2089	 0.38398742355513 
2090	 0.383662267409393 
2091	 0.383319772097318 
2092	 0.3829260628908 
2093	 0.382421728685162 
2094	 0.381991617787061 
2095	 0.381578932100001 
2096	 0.381142328180527 
2097	 0.380705754036653 
2098	 0.380344123947535 
2099	 0.379852088616379 
2100	 0.379271788643306 
2101	 0.378755201964209 
2102	 0.378192045749473 
2103	 0.377713722001514 
2104	 0.377338952274373 
2105	 0.376843461910968 
2106	 0.376353808856404 
2107	 0.375797820050753 
2108	 0.375136334045775 
2109	 0.374503578916556 
2110	 0.373864908354386 
2111	 0.373205163889424 
2112	 0.372546290130689 
2113	 0.371835935738348 
2114	 0.371093796949664 
2115	 0.370320032061053 
2116	 0.36948962718441 
2117	 0.368648519539966 
2118	 0.367813281836908 
2119	 0.366972370957769 
2120	 0.36613669758857 
2121	 0.365300523034819 
2122	 0.364448911438881 
2123	 0.363599751082716 
2124	 0.362702380841942 
2125	 0.361784890117194 
2126	 0.36085320559376 
2127	 0.35986814357931 
2128	 0.358912273219553 
2129	 0.357910076365836 
2130	 0.356992755675934 
2131	 0.356038292086033 
2132	 0.355240545183545 
2133	 0.354556594511644 
2134	 0.353960495587547 
2135	 0.353393967224265 
2136	 0.352939396696445 
2137	 0.35244886765862 
2138	 0.35193449194313 
2139	 0.351524449854946 
2140	 0.351211564812463 
2141	 0.350846902511709 
2142	 0.350497255403202 
2143	 0.350190232181602 
2144	 0.34982933743912 
2145	 0.34959336684402 
2146	 0.349503212490998 
2147	 0.349367492588227 
2148	 0.349262319959262 
2149	 0.349173152121473 
2150	 0.349117851656503 
2151	 0.349017890413527 
2152	 0.348902987869377 
2153	 0.348823626484536 
2154	 0.348702626775723 
2155	 0.348563066242007 
2156	 0.3484569736943 
2157	 0.348396438918509 
2158	 0.348277888474569 
2159	 0.348164029500416 
2160	 0.347987192118051 
2161	 0.347703803916441 
2162	 0.34756971830019 
2163	 0.347482792618627 
2164	 0.347355938638698 
2165	 0.347341564791734 
2166	 0.347210190886541 
2167	 0.346925079948744 
2168	 0.346740923990183 
2169	 0.346585722262982 
2170	 0.346428590828761 
2171	 0.346311320090317 
2172	 0.346186433012437 
2173	 0.346059658170423 
2174	 0.345896522336921 
2175	 0.345801880304196 
2176	 0.345762945132539 
2177	 0.345762088925365 
2178	 0.345841845173967 
2179	 0.345866942254551 
2180	 0.345895986883149 
2181	 0.345940296939422 
2182	 0.346016198108806 
2183	 0.346005450454226 
2184	 0.345988650892331 
2185	 0.345935772013814 
2186	 0.345774464820934 
2187	 0.345676139965152 
2188	 0.345638456284697 
2189	 0.345525231258754 
2190	 0.345368757482888 
2191	 0.34521649649735 
2192	 0.345044962490325 
2193	 0.344837931501003 
2194	 0.344630338213913 
2195	 0.344391469788912 
2196	 0.344080248660823 
2197	 0.343776040575477 
2198	 0.343550013994451 
2199	 0.343274426549308 
2200	 0.343021340615135 
2201	 0.342790138800392 
2202	 0.342573985207338 
2203	 0.342347664683541 
2204	 0.342158316024041 
2205	 0.342024706793415 
2206	 0.341847541886104 
2207	 0.341679965746597 
2208	 0.341462044402923 
2209	 0.341244468309548 
2210	 0.340951883859632 
2211	 0.340613219490655 
2212	 0.340227795750619 
2213	 0.339679043627817 
2214	 0.339305859331655 
2215	 0.338950975935617 
2216	 0.338658057727871 
2217	 0.338533439511174 
2218	 0.338340491736201 
2219	 0.338159454893941 
2220	 0.337948313593423 
2221	 0.337745484852064 
2222	 0.337464198998405 
2223	 0.337180077305466 
2224	 0.336974341645802 
2225	 0.336757001354648 
2226	 0.336544971854537 
2227	 0.336186001162858 
2228	 0.335722321972591 
2229	 0.335311415618668 
2230	 0.334868519650762 
2231	 0.334300034372043 
2232	 0.333836291841153 
2233	 0.33299842707873 
2234	 0.331887211999479 
2235	 0.330723237914562 
2236	 0.329394095398973 
2237	 0.327925333435476 
2238	 0.32627095901278 
2239	 0.324586358050852 
2240	 0.322797090808486 
2241	 0.320864197335446 
2242	 0.318898372546569 
2243	 0.316738226636145 
2244	 0.314363271117713 
2245	 0.311886077834283 
2246	 0.309171295829555 
2247	 0.306507318999801 
2248	 0.303703184786192 
2249	 0.300943218749962 
2250	 0.298281349922009 
2251	 0.295553219739336 
2252	 0.292521453463701 
2253	 0.289540559799036 
2254	 0.286430280995701 
2255	 0.283306271221582 
2256	 0.2805696543493 
2257	 0.27774838333411 
2258	 0.274902703021212 
2259	 0.272110768425253 
2260	 0.269304436431749 
2261	 0.266385895759624 
2262	 0.263656353085358 
2263	 0.26098269756959 
2264	 0.258437923847679 
2265	 0.256004928233946 
2266	 0.253631266985865 
2267	 0.251447592544744 
2268	 0.249198365951123 
2269	 0.246967213639971 
2270	 0.244776925349101 
2271	 0.242558145118982 
2272	 0.240442477286906 
2273	 0.238421064598675 
2274	 0.236395770228887 
2275	 0.234448044249464 
2276	 0.232516563331609 
2277	 0.230682947788441 
2278	 0.228702842641637 
2279	 0.226612723677213 
2280	 0.224592708667094 
2281	 0.222587376448282 
2282	 0.220444533346581 
2283	 0.21830911516695 
2284	 0.216133908137028 
2285	 0.213684796399134 
2286	 0.211344547610281 
2287	 0.208961289163309 
2288	 0.206523773794105 
2289	 0.204110728682121 
2290	 0.20147491912873 
2291	 0.198959364143489 
2292	 0.196508052090542 
2293	 0.193938577347975 
2294	 0.191538307625519 
2295	 0.189249142809992 
2296	 0.187000825032637 
2297	 0.185066872330679 
2298	 0.183401498157548 
2299	 0.181880586350626 
2300	 0.180529817812086 
2301	 0.179496027582336 
2302	 0.178642443562396 
2303	 0.178155588664556 
2304	 0.178069158049043 
2305	 0.17813440103984 
2306	 0.178441180691984 
2307	 0.179076621444055 
2308	 0.179933036301184 
2309	 0.181192804223156 
2310	 0.183034657184214 
2311	 0.184720010177343 
2312	 0.186673215810428 
2313	 0.188624442215133 
2314	 0.190555420296516 
2315	 0.192636177101886 
2316	 0.194938090610903 
2317	 0.197096049958241 
2318	 0.199396915010414 
2319	 0.201364167727956 
2320	 0.203274980105445 
2321	 0.204874773334804 
2322	 0.20623340992973 
2323	 0.207311144949978 
2324	 0.208045898296721 
2325	 0.208663309165489 
2326	 0.209009224479897 
2327	 0.209159203097402 
2328	 0.209158590819751 
2329	 0.208957787402545 
2330	 0.208497968447049 
2331	 0.207886808992368 
2332	 0.207053998373873 
2333	 0.205982122809943 
2334	 0.204744158635667 
2335	 0.203335540514438 
2336	 0.201903252564509 
2337	 0.200372774415247 
2338	 0.198816351432073 
2339	 0.197272540265864 
2340	 0.195707864156177 
2341	 0.194176162714418 
2342	 0.192774759175855 
2343	 0.191541834671463 
2344	 0.190502906310379 
2345	 0.189743046584056 
2346	 0.18911590104376 
2347	 0.188853276349159 
2348	 0.189053191304921 
2349	 0.189521312226186 
2350	 0.190449964499674 
2351	 0.19179514701592 
2352	 0.193264866024745 
2353	 0.194977570641707 
2354	 0.196635239819791 
2355	 0.198231511984852 
2356	 0.199794462521219 
2357	 0.201006298654874 
2358	 0.202025874063792 
2359	 0.202882677722589 
2360	 0.203387171700445 
2361	 0.203728258912852 
2362	 0.204051647894604 
2363	 0.204065665855859 
2364	 0.204011524456784 
2365	 0.203932389630396 
2366	 0.2037224221928 
2367	 0.20348249743008 
2368	 0.203200945204839 
2369	 0.202899887582644 
2370	 0.202472868568672 
2371	 0.202188006129298 
2372	 0.202226487687296 
2373	 0.202193209534333 
2374	 0.20197001464915 
2375	 0.201692361941487 
2376	 0.201349307374498 
2377	 0.20106715679785 
2378	 0.201052817587472 
2379	 0.201162426092146 
2380	 0.201353183262247 
2381	 0.201549608559537 
2382	 0.201507343070651 
2383	 0.201364883085097 
2384	 0.20135814003841 
2385	 0.20110458212332 
2386	 0.200977455856966 
2387	 0.201168390559027 
2388	 0.201155285998666 
2389	 0.200981239498937 
2390	 0.200993375555323 
2391	 0.201027049970427 
2392	 0.200994863453263 
2393	 0.201009179849889 
2394	 0.200873688336812 
2395	 0.200602135900245 
2396	 0.200635925292789 
2397	 0.200780042883989 
2398	 0.200869280508882 
2399	 0.201100833130222 
2400	 0.201125879960526 
2401	 0.200937486740011 
2402	 0.200625301331126 
2403	 0.200914730175299 
2404	 0.201101465863216 
2405	 0.201024242462499 
2406	 0.200973963237731 
2407	 0.200683525956158 
2408	 0.200297475876885 
2409	 0.200099510336498 
2410	 0.2002132223368 
2411	 0.200408086590281 
2412	 0.200613164668731 
2413	 0.200596129445248 
2414	 0.200525213912861 
2415	 0.200372068552696 
2416	 0.200059004298638 
2417	 0.200232344429881 
2418	 0.200601454668757 
2419	 0.200794878374735 
2420	 0.200825081919722 
2421	 0.201041800560631 
2422	 0.201220606930365 
2423	 0.20117973419422 
2424	 0.201628823646405 
2425	 0.201657637960795 
2426	 0.201448404247179 
2427	 0.201811132321783 
2428	 0.201706941134132 
2429	 0.201335547418956 
2430	 0.201236014839677 
2431	 0.200945488185475 
2432	 0.200659652725731 
2433	 0.200694784439812 
2434	 0.200386790300187 
2435	 0.200092690642727 
2436	 0.200460088466963 
2437	 0.200518147984963 
2438	 0.200273887884915 
2439	 0.20045654129141 
2440	 0.200368457937997 
2441	 0.199936782569171 
2442	 0.200103420706361 
2443	 0.199878084450672 
2444	 0.198883835289142 
2445	 0.199039993624565 
2446	 0.199197503656651 
2447	 0.198629651305763 
2448	 0.198944209437451 
2449	 0.198729889964062 
2450	 0.198224873112666 
2451	 0.19841756278412 
2452	 0.198159227867275 
2453	 0.19732231169367 
2454	 0.196500814438416 
2455	 0.196098103760088 
2456	 0.195566324032305 
2457	 0.195019843920401 
2458	 0.194373771123584 
2459	 0.193224143658417 
2460	 0.192252917198218 
2461	 0.19176640804613 
2462	 0.192170105601492 
2463	 0.192672751313584 
2464	 0.192644246042674 
2465	 0.192892224979281 
2466	 0.192606279134088 
2467	 0.192335063191617 
2468	 0.192576356776833 
2469	 0.192141655335295 
2470	 0.191642848503117 
2471	 0.191277923427948 
2472	 0.191155601454087 
2473	 0.191446844272836 
2474	 0.191816462292838 
2475	 0.191549896228598 
2476	 0.190773702163575 
2477	 0.190731511671539 
2478	 0.190567642121373 
2479	 0.191034702510867 
2480	 0.191120357409256 
2481	 0.191082993891401 
2482	 0.191151743188847 
2483	 0.190954937448649 
2484	 0.191383702179655 
2485	 0.191674453850366 
2486	 0.191818930799637 
2487	 0.191939769744966 
2488	 0.191448370115229 
2489	 0.190717186934921 
2490	 0.19145340123449 
2491	 0.192460561325644 
2492	 0.192847993167696 
2493	 0.194761727534595 
2494	 0.195185921613029 
2495	 0.193857653228364 
2496	 0.194221640998946 
2497	 0.195160212067767 
2498	 0.196318016159338 
2499	 0.198401594323493 
2500	 0.199267789534359 
