Wavelength	Tablay400096.asd
350	 9.80988270188534E-02 
351	 0.117793184779033 
352	 0.149180728582232 
353	 0.134931539356999 
354	 0.147838286505255 
355	 0.137475985392321 
356	 0.114506563914775 
357	 9.86983070534909E-02 
358	 0.11073087068751 
359	 0.113921638046868 
360	 0.118020603254619 
361	 0.146468573093694 
362	 0.154391256552757 
363	 0.160054043913323 
364	 0.158248549647868 
365	 0.106606713988093 
366	 7.56991104297254E-02 
367	 8.99426625179775E-02 
368	 0.139721525951019 
369	 0.175120456528867 
370	 0.143185237496414 
371	 9.27518324725395E-02 
372	 0.127228055951262 
373	 0.161394208689145 
374	 0.122241799843329 
375	 4.80340392602176E-02 
376	 0.131547901291911 
377	 0.152515021158418 
378	 0.108981639658407 
379	 6.78507746479361E-02 
380	 0.104896507299561 
381	 0.101467319767567 
382	 6.62924209747911E-02 
383	 0.079363031943056 
384	 9.67275014103057E-02 
385	 9.28206186451203E-02 
386	 7.57710505338217E-02 
387	 0.101078257516803 
388	 0.130524680634549 
389	 0.130262552949568 
390	 9.04312673188683E-02 
391	 6.59753119436972E-02 
392	 0.066762962589907 
393	 0.075932188578852 
394	 6.44909558179224E-02 
395	 7.04670892556702E-02 
396	 8.07269662733935E-02 
397	 8.25490116012412E-02 
398	 0.073718441107218 
399	 7.92750758949425E-02 
400	 0.08668099035481 
401	 0.079430074122721 
402	 6.58372281806327E-02 
403	 6.96043668172653E-02 
404	 8.33580900462719E-02 
405	 7.89699413187702E-02 
406	 6.96168031083572E-02 
407	 7.06599676479656E-02 
408	 0.080892924240341 
409	 6.56759382559901E-02 
410	 0.062665857528699 
411	 7.24727482361674E-02 
412	 8.14342270069705E-02 
413	 7.16577251625633E-02 
414	 5.77104709079312E-02 
415	 5.17738656877078E-02 
416	 0.060546698339914 
417	 6.88986316102429E-02 
418	 6.86371253835499E-02 
419	 6.22034098931727E-02 
420	 7.40804702810589E-02 
421	 6.91273732628058E-02 
422	 5.70402087290141E-02 
423	 6.05217158771512E-02 
424	 0.061699022566759 
425	 6.40778042378581E-02 
426	 6.56319865570199E-02 
427	 5.70271252731964E-02 
428	 5.63591829784351E-02 
429	 5.89008932776888E-02 
430	 5.78672744645633E-02 
431	 5.49649059719573E-02 
432	 5.73213513471626E-02 
433	 6.08614899909324E-02 
434	 5.72559706981047E-02 
435	 5.79746042362922E-02 
436	 6.00925432250253E-02 
437	 6.10618909760341E-02 
438	 6.14663669416326E-02 
439	 5.78007385814282E-02 
440	 5.54921833189954E-02 
441	 5.91462555242785E-02 
442	 0.060332231779958 
443	 5.90829168454154E-02 
444	 5.64870737900183E-02 
445	 5.44133252566939E-02 
446	 5.57717457446827E-02 
447	 5.72924054591294E-02 
448	 5.72749724892985E-02 
449	 5.98183241374246E-02 
450	 5.82035248570468E-02 
451	 5.68276889060453E-02 
452	 6.14087409724143E-02 
453	 5.94669513658247E-02 
454	 0.056905816274812 
455	 5.60995466732334E-02 
456	 5.44715256041081E-02 
457	 0.05473403710551 
458	 5.53942221526587E-02 
459	 5.49642138579943E-02 
460	 5.43425326624097E-02 
461	 5.54922991713542E-02 
462	 5.74200847570163E-02 
463	 5.75605245100762E-02 
464	 5.47678273773639E-02 
465	 5.33291696234663E-02 
466	 5.43503480837935E-02 
467	 5.33464202492553E-02 
468	 5.38482888393979E-02 
469	 5.50091496324734E-02 
470	 5.52335292799568E-02 
471	 5.51765288761762E-02 
472	 5.33879986173965E-02 
473	 5.11817571143325E-02 
474	 5.17624645296309E-02 
475	 0.053676800848797 
476	 0.054305918150614 
477	 5.30616308588026E-02 
478	 5.40791841213046E-02 
479	 5.36036120078586E-02 
480	 5.22816173764295E-02 
481	 5.20859144974289E-02 
482	 5.23519814981757E-02 
483	 5.26678422790708E-02 
484	 5.29777193480697E-02 
485	 5.35894922999908E-02 
486	 5.23993496295082E-02 
487	 5.11968296307722E-02 
488	 5.15455304374263E-02 
489	 5.17202044553648E-02 
490	 5.18600563496046E-02 
491	 5.19600152921431E-02 
492	 5.19332318797509E-02 
493	 5.14271250328531E-02 
494	 5.16590444089662E-02 
495	 5.24394352887316E-02 
496	 5.09433486628354E-02 
497	 5.14904135193677E-02 
498	 5.21262013958629E-02 
499	 5.04177077245169E-02 
500	 5.06350807825235E-02 
501	 5.08195918527942E-02 
502	 5.03469384719828E-02 
503	 4.99150333080467E-02 
504	 4.89324337794367E-02 
505	 4.87859033465556E-02 
506	 4.99951255986173E-02 
507	 5.04646161378755E-02 
508	 5.01384348949991E-02 
509	 4.99657366037136E-02 
510	 5.09234901899727E-02 
511	 5.06982804526331E-02 
512	 0.049824759547279 
513	 0.049142814008474 
514	 4.95492340130044E-02 
515	 4.93438722021476E-02 
516	 4.94237983545208E-02 
517	 5.03356486196619E-02 
518	 4.89937925931197E-02 
519	 4.82982250376851E-02 
520	 4.85048514897474E-02 
521	 0.048132118941596 
522	 4.84512650472303E-02 
523	 4.88541468962439E-02 
524	 4.88948040951988E-02 
525	 4.89083776710274E-02 
526	 4.89154168796636E-02 
527	 4.87850303210792E-02 
528	 4.84458720108286E-02 
529	 4.85312771484747E-02 
530	 4.82618124550616E-02 
531	 0.047776079249 
532	 4.82013598984411E-02 
533	 4.85331115992758E-02 
534	 4.82264348868337E-02 
535	 4.74697553791956E-02 
536	 4.82830018399025E-02 
537	 4.85204804095863E-02 
538	 4.80219717690066E-02 
539	 4.77394734813405E-02 
540	 4.78970509076797E-02 
541	 4.79918527358109E-02 
542	 4.78325896628016E-02 
543	 4.78620629625099E-02 
544	 4.77689475107586E-02 
545	 4.77199920952712E-02 
546	 4.78552309503262E-02 
547	 4.75096478665933E-02 
548	 4.75734173871941E-02 
549	 4.79359090478257E-02 
550	 4.76262465381896E-02 
551	 4.75929615314948E-02 
552	 4.75098166702783E-02 
553	 4.71808035493134E-02 
554	 4.73415552557911E-02 
555	 4.74608870701263E-02 
556	 4.73574717457051E-02 
557	 4.70767834687027E-02 
558	 4.70153964784937E-02 
559	 4.71565070055239E-02 
560	 4.73267569194619E-02 
561	 4.72073019960035E-02 
562	 4.69691967753803E-02 
563	 4.69960099156884E-02 
564	 4.74005351067034E-02 
565	 0.047081738842213 
566	 4.69375143555113E-02 
567	 4.70679771197909E-02 
568	 4.69872892956366E-02 
569	 4.70146705919872E-02 
570	 4.68246769317902E-02 
571	 4.63848273116591E-02 
572	 4.64823027914524E-02 
573	 4.65082672915895E-02 
574	 4.65097661216652E-02 
575	 4.66773723573841E-02 
576	 4.65420117706162E-02 
577	 4.65154806049363E-02 
578	 4.66812714288603E-02 
579	 4.66970637343307E-02 
580	 0.046704117697464 
581	 4.66376531150722E-02 
582	 4.64674188215103E-02 
583	 4.63649798898502E-02 
584	 4.64723143130615E-02 
585	 0.046710395563431 
586	 4.68370329725154E-02 
587	 4.64674046733493E-02 
588	 4.62185134538175E-02 
589	 4.63507055135882E-02 
590	 4.63631117582038E-02 
591	 4.64142499111729E-02 
592	 4.64561604887326E-02 
593	 4.64243531932665E-02 
594	 4.64102831456085E-02 
595	 4.64174004715873E-02 
596	 4.64079375187124E-02 
597	 4.63190644018326E-02 
598	 4.62331024736153E-02 
599	 0.046187370318972 
600	 4.62013485126671E-02 
601	 4.63270099107687E-02 
602	 4.60249893843466E-02 
603	 4.57390568302505E-02 
604	 4.61297634366488E-02 
605	 4.61484716480772E-02 
606	 4.59617070302329E-02 
607	 4.58963218635876E-02 
608	 4.63376901927212E-02 
609	 4.62649202757274E-02 
610	 4.59319156099455E-02 
611	 4.58229384568215E-02 
612	 0.046049193314764 
613	 4.62517062000889E-02 
614	 4.62189394899322E-02 
615	 0.045897560786948 
616	 4.56335962415163E-02 
617	 4.56257896571019E-02 
618	 4.58338466602111E-02 
619	 4.58592250579769E-02 
620	 4.58112306448285E-02 
621	 4.57817620948269E-02 
622	 4.58253850827732E-02 
623	 4.57782573570234E-02 
624	 4.58521498874665E-02 
625	 0.045971587890291 
626	 4.58159075292048E-02 
627	 4.59032115819519E-02 
628	 4.58787775005385E-02 
629	 4.55710801461053E-02 
630	 4.56678973256437E-02 
631	 4.58256657270414E-02 
632	 4.58223986567877E-02 
633	 4.55674049506309E-02 
634	 4.54962206481913E-02 
635	 4.56346499494163E-02 
636	 0.045836661704063 
637	 4.58019419531586E-02 
638	 4.57751880813534E-02 
639	 4.56752956017562E-02 
640	 4.54825770486765E-02 
641	 4.56369356049125E-02 
642	 0.045738805968731 
643	 4.57442582642558E-02 
644	 4.58061014294192E-02 
645	 4.56640581255628E-02 
646	 4.55949771036417E-02 
647	 0.045716588048941 
648	 4.58014328807415E-02 
649	 4.55878043838014E-02 
650	 4.54400018993981E-02 
651	 4.57056506524974E-02 
652	 0.045794441621847 
653	 4.57396301265843E-02 
654	 0.045669229080986 
655	 4.57454989042234E-02 
656	 4.56640200358419E-02 
657	 4.55929716746587E-02 
658	 4.56653255775839E-02 
659	 4.57948008053909E-02 
660	 4.58827580874101E-02 
661	 4.58825085787875E-02 
662	 4.58049691788033E-02 
663	 4.57886598735007E-02 
664	 4.58707082810236E-02 
665	 4.60178813385193E-02 
666	 4.61299962673476E-02 
667	 4.59914788519971E-02 
668	 4.59183858318535E-02 
669	 4.61062379907358E-02 
670	 4.61708449984673E-02 
671	 4.62578900509295E-02 
672	 4.62905840147102E-02 
673	 0.046164049878954 
674	 4.62186794803347E-02 
675	 4.64507978785887E-02 
676	 4.66540537321309E-02 
677	 4.64376762247198E-02 
678	 0.046447816284986 
679	 4.65394288352817E-02 
680	 4.65249957509346E-02 
681	 4.66874284352269E-02 
682	 4.68646011769944E-02 
683	 4.69983685784804E-02 
684	 4.70846932367566E-02 
685	 4.70389645783168E-02 
686	 4.71035752764178E-02 
687	 4.73256627053621E-02 
688	 4.74391255686894E-02 
689	 4.76497879718987E-02 
690	 4.78472117257836E-02 
691	 4.79511166601517E-02 
692	 4.82923790245451E-02 
693	 4.84362543144984E-02 
694	 4.84807691572882E-02 
695	 4.88159974716178E-02 
696	 4.91527457955967E-02 
697	 4.94334673372479E-02 
698	 0.04965038418003 
699	 4.98185194822721E-02 
700	 5.02582886731645E-02 
701	 5.08083788895282E-02 
702	 5.12439423874833E-02 
703	 5.16850099975365E-02 
704	 5.21287791775156E-02 
705	 5.26121147463007E-02 
706	 0.053188404998533 
707	 5.37916699157021E-02 
708	 5.44813042777807E-02 
709	 5.52576931596965E-02 
710	 5.59949099934397E-02 
711	 5.68122396469114E-02 
712	 5.77672663643643E-02 
713	 0.058841213133448 
714	 5.97898395471873E-02 
715	 6.08616794654879E-02 
716	 6.21094607636203E-02 
717	 6.34365986815659E-02 
718	 6.48376030415226E-02 
719	 6.63944083354688E-02 
720	 6.80801529086459E-02 
721	 6.96602777795108E-02 
722	 0.071513158100662 
723	 7.35100152320438E-02 
724	 7.54788675608681E-02 
725	 7.77210896850207E-02 
726	 0.080050510526043 
727	 8.24238200329494E-02 
728	 8.49084065542537E-02 
729	 8.75570528490829E-02 
730	 9.02877659255256E-02 
731	 9.30951349013898E-02 
732	 9.61267796464348E-02 
733	 9.92678545755352E-02 
734	 0.102457378269489 
735	 0.105674425978384 
736	 0.108963552438028 
737	 0.112348242056394 
738	 0.115789011851394 
739	 0.11921464858024 
740	 0.122759184806923 
741	 0.12627282023688 
742	 0.129711595393104 
743	 0.133243139440323 
744	 0.136810078116303 
745	 0.140343430725076 
746	 0.143787221434451 
747	 0.147165179982093 
748	 0.150433783852173 
749	 0.153679439186767 
750	 0.157036069543241 
751	 0.160376074134059 
752	 0.163537858187231 
753	 0.166513978439736 
754	 0.169489567903931 
755	 0.172512056640508 
756	 0.175456576436508 
757	 0.178223082505155 
758	 0.180896752778602 
759	 0.183508072435015 
760	 0.186027486538642 
761	 0.188419059497876 
762	 0.190822322302044 
763	 0.193174491812526 
764	 0.195410004236407 
765	 0.197490119812809 
766	 0.19964610935522 
767	 0.201720143339002 
768	 0.203602181997776 
769	 0.205454802025969 
770	 0.207283604378072 
771	 0.209116962952955 
772	 0.210949100043514 
773	 0.212633659857597 
774	 0.214157817502281 
775	 0.215623523706735 
776	 0.217198547997112 
777	 0.218783959481642 
778	 0.220213210652545 
779	 0.221496450218505 
780	 0.222951272554063 
781	 0.224218338527689 
782	 0.225414231029852 
783	 0.226708535825965 
784	 0.227954807306252 
785	 0.229182069197022 
786	 0.230316129086487 
787	 0.231285900982454 
788	 0.23248883659462 
789	 0.233629957162311 
790	 0.234619909247843 
791	 0.23568401069045 
792	 0.236661676026908 
793	 0.237643148423025 
794	 0.238686407297408 
795	 0.239649397950644 
796	 0.240602415914377 
797	 0.241484627005181 
798	 0.242254763123736 
799	 0.243195442631529 
800	 0.244066285186206 
801	 0.24489270807202 
802	 0.245866360492157 
803	 0.246507865835857 
804	 0.24716284201655 
805	 0.248006844706128 
806	 0.248798274715669 
807	 0.249543948156627 
808	 0.250274831926056 
809	 0.251024919019246 
810	 0.251812280601662 
811	 0.252517377799134 
812	 0.253176888211639 
813	 0.253883698622749 
814	 0.254596533504127 
815	 0.255271317588324 
816	 0.255944919196337 
817	 0.256701962782165 
818	 0.257312325392686 
819	 0.257880241050778 
820	 0.258494554688013 
821	 0.259133152204779 
822	 0.259653186711084 
823	 0.260217456505324 
824	 0.260930033021449 
825	 0.261451236822826 
826	 0.261969957982169 
827	 0.262519957948379 
828	 0.263066627725081 
829	 0.263630777318428 
830	 0.264184407186483 
831	 0.264705441643991 
832	 0.265182369605342 
833	 0.265589556762074 
834	 0.266033412309776 
835	 0.26655061232041 
836	 0.2670457495273 
837	 0.267593666328467 
838	 0.268073834120095 
839	 0.268437437439816 
840	 0.268967361242948 
841	 0.269444760050787 
842	 0.26985807666217 
843	 0.270283267098576 
844	 0.27078167198284 
845	 0.271193211609184 
846	 0.27153754947371 
847	 0.271965335058026 
848	 0.272493561567131 
849	 0.272867517953556 
850	 0.27310211288315 
851	 0.273564542806514 
852	 0.274069403895682 
853	 0.274478170364421 
854	 0.274780500601603 
855	 0.275215375239475 
856	 0.275622079519059 
857	 0.275949883807442 
858	 0.276235721784378 
859	 0.276712795636532 
860	 0.277038686955602 
861	 0.277316227537946 
862	 0.277786272022357 
863	 0.278008038918028 
864	 0.278301948205025 
865	 0.278671855551297 
866	 0.278864089686727 
867	 0.279367381130241 
868	 0.279766240181013 
869	 0.279939907711511 
870	 0.280321763454013 
871	 0.280651056625968 
872	 0.280955139879363 
873	 0.281272721187974 
874	 0.281527513198237 
875	 0.281932792567918 
876	 0.282302397153527 
877	 0.282455182827997 
878	 0.282667707694228 
879	 0.283082728064422 
880	 0.283502421215625 
881	 0.28365714645663 
882	 0.283875068857963 
883	 0.284081044951932 
884	 0.284274551778372 
885	 0.284527171813485 
886	 0.284898432439717 
887	 0.285231616440565 
888	 0.285483312356922 
889	 0.285761214863659 
890	 0.285957103940635 
891	 0.286143044241111 
892	 0.286365537699256 
893	 0.286572413442677 
894	 0.286874478268452 
895	 0.287161150870318 
896	 0.287373759934168 
897	 0.287753757545422 
898	 0.287884181014932 
899	 0.28797527259083 
900	 0.288295365132175 
901	 0.288449026462925 
902	 0.28875765482796 
903	 0.289056449086054 
904	 0.289071656467069 
905	 0.28931290668218 
906	 0.289715279891572 
907	 0.29006118391461 
908	 0.290119784801087 
909	 0.290201231831166 
910	 0.290424681571057 
911	 0.290646923630517 
912	 0.290567525706762 
913	 0.29091969383818 
914	 0.291435594609033 
915	 0.291740579044293 
916	 0.291588608398414 
917	 0.291733085691609 
918	 0.291955977413004 
919	 0.292031134534936 
920	 0.292106050328246 
921	 0.292313593811258 
922	 0.292558189403884 
923	 0.292754784598013 
924	 0.293012600435623 
925	 0.293350872256463 
926	 0.293661350489283 
927	 0.293824500730143 
928	 0.293824610063361 
929	 0.293854720534488 
930	 0.294033214830682 
931	 0.294352573991891 
932	 0.294494518772215 
933	 0.294575330227335 
934	 0.294814664247635 
935	 0.295333186647086 
936	 0.295507661335238 
937	 0.295703210487267 
938	 0.295894118720797 
939	 0.295848216277098 
940	 0.296103467909419 
941	 0.296457844251644 
942	 0.296714849509191 
943	 0.296781094431705 
944	 0.29680168419082 
945	 0.2970246599992 
946	 0.297349855923409 
947	 0.297374242079596 
948	 0.297548010183804 
949	 0.297952345146291 
950	 0.29831754580885 
951	 0.298110413774722 
952	 0.298281008782402 
953	 0.298375007289126 
954	 0.29827749929888 
955	 0.298685169904613 
956	 0.298834803325483 
957	 0.298875610608032 
958	 0.299007274164333 
959	 0.299177417970899 
960	 0.299329617757881 
961	 0.299424224728788 
962	 0.299504716144709 
963	 0.299756212277747 
964	 0.299711843126597 
965	 0.299657011095391 
966	 0.299877156507997 
967	 0.300199638810897 
968	 0.30036494814664 
969	 0.300481107053154 
970	 0.300660729240128 
971	 0.300722102578492 
972	 0.30086273069979 
973	 0.300870919745131 
974	 0.300692005789762 
975	 0.301037462402807 
976	 0.301303074444354 
977	 0.301497568270435 
978	 0.30168867361158 
979	 0.301481364660728 
980	 0.30141594893207 
981	 0.301593033267109 
982	 0.301892441645321 
983	 0.302081237369796 
984	 0.302011105448397 
985	 0.302079068800588 
986	 0.302584827010442 
987	 0.302885970261075 
988	 0.302943484664229 
989	 0.30286687287992 
990	 0.302817871482168 
991	 0.302865704411926 
992	 0.302812753784134 
993	 0.30280901840179 
994	 0.302982526376303 
995	 0.302931488709097 
996	 0.303104668361957 
997	 0.303262544264587 
998	 0.303188928078301 
999	 0.303615550180396 
1000	 0.303741752764025 
1001	 0.304390691544167 
1002	 0.304313394058019 
1003	 0.304482005295046 
1004	 0.304590573331476 
1005	 0.304638269827304 
1006	 0.304729784319914 
1007	 0.304882217524749 
1008	 0.304977347511611 
1009	 0.305102349941874 
1010	 0.305224933532818 
1011	 0.305354821061747 
1012	 0.305418285679282 
1013	 0.305369971766384 
1014	 0.305383916727497 
1015	 0.305266848371108 
1016	 0.305528707522558 
1017	 0.305729146439761 
1018	 0.30576272504181 
1019	 0.305849468909029 
1020	 0.305684819754544 
1021	 0.305706134641264 
1022	 0.305813951176262 
1023	 0.305863233911889 
1024	 0.305944356813509 
1025	 0.305973875903558 
1026	 0.305814823728144 
1027	 0.305851635449611 
1028	 0.305930596255381 
1029	 0.30622629905957 
1030	 0.306457775381355 
1031	 0.306551045831603 
1032	 0.306538893026455 
1033	 0.306380834781489 
1034	 0.306238122927442 
1035	 0.306190632654113 
1036	 0.306144561379895 
1037	 0.306021989558496 
1038	 0.306159593730877 
1039	 0.306580940029865 
1040	 0.306700638069909 
1041	 0.306806457438827 
1042	 0.306886276767592 
1043	 0.306830709099864 
1044	 0.306682968452203 
1045	 0.306665731137164 
1046	 0.306984642695826 
1047	 0.307067599120612 
1048	 0.306962779530166 
1049	 0.306976780428523 
1050	 0.306878430243857 
1051	 0.306738896280437 
1052	 0.306812157894139 
1053	 0.306893385205414 
1054	 0.307016969645719 
1055	 0.307055157345235 
1056	 0.30714550096527 
1057	 0.307248460904065 
1058	 0.307273612246551 
1059	 0.307366733909925 
1060	 0.307640822779225 
1061	 0.307687810884195 
1062	 0.307615183052157 
1063	 0.307769671050946 
1064	 0.30786416505224 
1065	 0.307886386672818 
1066	 0.308023197623259 
1067	 0.308049267087075 
1068	 0.308149471790593 
1069	 0.308267965512374 
1070	 0.308294276862261 
1071	 0.30825536469096 
1072	 0.308367189032677 
1073	 0.308386849832885 
1074	 0.30837866016764 
1075	 0.30848866104357 
1076	 0.3084394717923 
1077	 0.308451845716466 
1078	 0.308510850206571 
1079	 0.308489936219614 
1080	 0.308492143728601 
1081	 0.308447718626588 
1082	 0.308433510398374 
1083	 0.308478663359786 
1084	 0.308615943874839 
1085	 0.308787913409251 
1086	 0.308898023561344 
1087	 0.308958853599207 
1088	 0.3090645818528 
1089	 0.30920452319892 
1090	 0.30931375559939 
1091	 0.309406894679364 
1092	 0.309551146450637 
1093	 0.309559004473541 
1094	 0.309475144373223 
1095	 0.309501331803906 
1096	 0.309516329228138 
1097	 0.309607265477007 
1098	 0.309684041463535 
1099	 0.309805784690203 
1100	 0.310014657320781 
1101	 0.310074349106214 
1102	 0.31013241024181 
1103	 0.310190933660212 
1104	 0.310202272418604 
1105	 0.310147000896111 
1106	 0.310186655621478 
1107	 0.310261965431387 
1108	 0.310327526283721 
1109	 0.310404620624851 
1110	 0.310523252930301 
1111	 0.310575500417191 
1112	 0.310620711389828 
1113	 0.310759428651653 
1114	 0.310870164696549 
1115	 0.310997639560321 
1116	 0.311128512156501 
1117	 0.311170074161814 
1118	 0.311175003060296 
1119	 0.311021802758947 
1120	 0.311043410765139 
1121	 0.311121497292275 
1122	 0.311222344888586 
1123	 0.31132012665879 
1124	 0.311464662933278 
1125	 0.311543927700485 
1126	 0.311502418389759 
1127	 0.311444621235559 
1128	 0.311464698109707 
1129	 0.311443794565177 
1130	 0.311462499374281 
1131	 0.311602933961567 
1132	 0.311639078772595 
1133	 0.311721453457863 
1134	 0.311799032282545 
1135	 0.311798152607915 
1136	 0.311708328541397 
1137	 0.311703715762128 
1138	 0.311670052789476 
1139	 0.31167583889563 
1140	 0.311717125494674 
1141	 0.311797578666061 
1142	 0.311876366157471 
1143	 0.311908393258019 
1144	 0.311950463080138 
1145	 0.311948318227331 
1146	 0.311947856422345 
1147	 0.311970444871016 
1148	 0.312088071371758 
1149	 0.312227179996669 
1150	 0.312263160099915 
1151	 0.312319297790507 
1152	 0.312405188869488 
1153	 0.312495447948509 
1154	 0.312519271117036 
1155	 0.312563893475861 
1156	 0.312586371055224 
1157	 0.312510213941204 
1158	 0.312485297570281 
1159	 0.312495798520487 
1160	 0.312531437873532 
1161	 0.312539392962691 
1162	 0.312434116996332 
1163	 0.312425523292377 
1164	 0.312425884915738 
1165	 0.31236659497676 
1166	 0.312453747277041 
1167	 0.312553421333583 
1168	 0.312592551163181 
1169	 0.312619289466636 
1170	 0.312675295964405 
1171	 0.312657371059002 
1172	 0.312532471801215 
1173	 0.3124879104192 
1174	 0.312455138510074 
1175	 0.312413642004674 
1176	 0.312395279486784 
1177	 0.312396108241897 
1178	 0.312407831451888 
1179	 0.31240776248765 
1180	 0.312406367426194 
1181	 0.312290435572485 
1182	 0.312211856450814 
1183	 0.312152463621746 
1184	 0.312091909015412 
1185	 0.312148429047712 
1186	 0.312143315472102 
1187	 0.312119006002359 
1188	 0.312080964048396 
1189	 0.312014712301138 
1190	 0.312010991779668 
1191	 0.312023762975465 
1192	 0.312019359334027 
1193	 0.312058558238514 
1194	 0.312080803712466 
1195	 0.312030304826182 
1196	 0.312067256805171 
1197	 0.312162240925503 
1198	 0.312272082317207 
1199	 0.312394047798837 
1200	 0.312496016921734 
1201	 0.312532336522205 
1202	 0.312519762304491 
1203	 0.312585180276341 
1204	 0.312756793991045 
1205	 0.312913302935049 
1206	 0.313188926161351 
1207	 0.313353576502229 
1208	 0.313415286562637 
1209	 0.313588062201567 
1210	 0.313783626604487 
1211	 0.314005576971992 
1212	 0.314270636530214 
1213	 0.314586093297176 
1214	 0.314900264945136 
1215	 0.315295681044642 
1216	 0.315842495658431 
1217	 0.316280497176357 
1218	 0.316668856901282 
1219	 0.317139182687147 
1220	 0.317524985272618 
1221	 0.318002226355038 
1222	 0.318546938490583 
1223	 0.31905529344835 
1224	 0.319556999870035 
1225	 0.32004310901585 
1226	 0.320535545979997 
1227	 0.32104552324149 
1228	 0.321500298188288 
1229	 0.321957925537262 
1230	 0.322359998611355 
1231	 0.322658448298065 
1232	 0.323044861356606 
1233	 0.323460317998341 
1234	 0.323832019060766 
1235	 0.324197077485303 
1236	 0.324594253098356 
1237	 0.324999990968341 
1238	 0.32536978784106 
1239	 0.325756443079233 
1240	 0.326169964422878 
1241	 0.326436178199 
1242	 0.326664055801872 
1243	 0.326924904057856 
1244	 0.327156621468461 
1245	 0.327427670413001 
1246	 0.327722975507729 
1247	 0.328011023495538 
1248	 0.328307099371307 
1249	 0.328604331583063 
1250	 0.328920892077257 
1251	 0.329202977784581 
1252	 0.329490667955822 
1253	 0.329744775624872 
1254	 0.329910710538641 
1255	 0.330169789399766 
1256	 0.33046844545344 
1257	 0.330753625799423 
1258	 0.331120461104821 
1259	 0.331419358604423 
1260	 0.331680031598568 
1261	 0.331913230315437 
1262	 0.332046265999128 
1263	 0.332269214467098 
1264	 0.332513948456201 
1265	 0.332783451229137 
1266	 0.333010132695732 
1267	 0.33329150794918 
1268	 0.33349157754748 
1269	 0.333564342977707 
1270	 0.33377609286268 
1271	 0.334043732896285 
1272	 0.334289631209837 
1273	 0.334591211144924 
1274	 0.334861759136115 
1275	 0.335134400194243 
1276	 0.335351976804183 
1277	 0.335502212126751 
1278	 0.335729105981253 
1279	 0.335937252994074 
1280	 0.336174579749691 
1281	 0.336560973035791 
1282	 0.336815793310704 
1283	 0.336924582133156 
1284	 0.337131091762788 
1285	 0.337352404280633 
1286	 0.337529647071201 
1287	 0.337803152520999 
1288	 0.338214379934044 
1289	 0.338465458855851 
1290	 0.338697487100491 
1291	 0.33886265640331 
1292	 0.338886662094968 
1293	 0.339058255230406 
1294	 0.339244990706394 
1295	 0.339462598497412 
1296	 0.339798839163627 
1297	 0.340034559250003 
1298	 0.340208084979117 
1299	 0.340424998318571 
1300	 0.340614059140227 
1301	 0.340844303064261 
1302	 0.341140694164473 
1303	 0.341392888965765 
1304	 0.341607773493783 
1305	 0.341869883279028 
1306	 0.342151295381941 
1307	 0.3424191059991 
1308	 0.342684382479072 
1309	 0.343026093294768 
1310	 0.343258404714997 
1311	 0.343434829249249 
1312	 0.343632119287042 
1313	 0.343797289995697 
1314	 0.343980777742441 
1315	 0.344162108043613 
1316	 0.344364832555673 
1317	 0.344549346706706 
1318	 0.344795441779879 
1319	 0.345139545862524 
1320	 0.345359969007042 
1321	 0.345524041125626 
1322	 0.345747464868827 
1323	 0.345943117802902 
1324	 0.346131819022406 
1325	 0.346391848055677 
1326	 0.346593671567505 
1327	 0.346706884329714 
1328	 0.346857593882981 
1329	 0.347034125048461 
1330	 0.347190343306378 
1331	 0.347347311199153 
1332	 0.347481781165953 
1333	 0.347567998914232 
1334	 0.347707411505139 
1335	 0.347818586939548 
1336	 0.347906479170419 
1337	 0.34802844774355 
1338	 0.34817156097349 
1339	 0.348291819043438 
1340	 0.348416340417485 
1341	 0.348530957453183 
1342	 0.348625058296694 
1343	 0.34874258527626 
1344	 0.348894882078288 
1345	 0.348983369157282 
1346	 0.349064981276339 
1347	 0.349106963993229 
1348	 0.349085922590033 
1349	 0.349087875156836 
1350	 0.349087331685454 
1351	 0.349073894575962 
1352	 0.349043092874006 
1353	 0.349022745397404 
1354	 0.34899959087483 
1355	 0.348973243088035 
1356	 0.348954985885449 
1357	 0.348928162323584 
1358	 0.348882642238511 
1359	 0.348851216642504 
1360	 0.348823161389578 
1361	 0.348800542630036 
1362	 0.348794977681266 
1363	 0.348779658062062 
1364	 0.348765334761513 
1365	 0.34876296192101 
1366	 0.34872252255659 
1367	 0.348670699755896 
1368	 0.34860681807437 
1369	 0.348524265160212 
1370	 0.348424339620085 
1371	 0.348300817123239 
1372	 0.348191866530753 
1373	 0.348088298306714 
1374	 0.347948373032147 
1375	 0.347797790232316 
1376	 0.347644483626384 
1377	 0.347464102649746 
1378	 0.347268090201056 
1379	 0.347077004311168 
1380	 0.346870528840757 
1381	 0.346623572616689 
1382	 0.346389711067618 
1383	 0.346159167323352 
1384	 0.345929066433325 
1385	 0.345709534566109 
1386	 0.345463669410316 
1387	 0.345177236974449 
1388	 0.344943501578343 
1389	 0.344680001510287 
1390	 0.34448424602655 
1391	 0.344351824240227 
1392	 0.344261732762648 
1393	 0.344219963392942 
1394	 0.344133923412039 
1395	 0.344009094455965 
1396	 0.343853925425849 
1397	 0.343730101661656 
1398	 0.34358725037015 
1399	 0.343436293232321 
1400	 0.343372308584607 
1401	 0.343108871918855 
1402	 0.342723929671507 
1403	 0.342347915620989 
1404	 0.341873611889225 
1405	 0.34142931217665 
1406	 0.34102544258932 
1407	 0.340520319955588 
1408	 0.339936777230096 
1409	 0.339361148962449 
1410	 0.33868980856363 
1411	 0.338115144285264 
1412	 0.337584788100656 
1413	 0.337058086343048 
1414	 0.336567077497065 
1415	 0.336082386003041 
1416	 0.335589155522658 
1417	 0.335125892834668 
1418	 0.334693548206065 
1419	 0.334273893769247 
1420	 0.333867749936683 
1421	 0.333488201407758 
1422	 0.333124955521399 
1423	 0.332781781598166 
1424	 0.332495522354504 
1425	 0.332169291880558 
1426	 0.331828627926664 
1427	 0.331539949935454 
1428	 0.331208158957976 
1429	 0.330864791048891 
1430	 0.330562241386184 
1431	 0.330268070820498 
1432	 0.330010986430972 
1433	 0.32979403638943 
1434	 0.329566546002247 
1435	 0.32936858527056 
1436	 0.329136855533073 
1437	 0.328890075768402 
1438	 0.328648044614233 
1439	 0.328383380448594 
1440	 0.328156615000852 
1441	 0.327933244640563 
1442	 0.327752241909085 
1443	 0.327575312951291 
1444	 0.327469517483625 
1445	 0.32738051745345 
1446	 0.327398263023197 
1447	 0.327503080660067 
1448	 0.327652109535995 
1449	 0.327864056360509 
1450	 0.328150964850752 
1451	 0.328488437869501 
1452	 0.328907493283488 
1453	 0.329465019447483 
1454	 0.329987075363898 
1455	 0.330537457262153 
1456	 0.331116074257074 
1457	 0.331737620907187 
1458	 0.332334193092652 
1459	 0.332967770877813 
1460	 0.333568119495458 
1461	 0.33411869412789 
1462	 0.334672915532318 
1463	 0.335238349268816 
1464	 0.335779180695713 
1465	 0.336285176046361 
1466	 0.336821909458009 
1467	 0.337308798712128 
1468	 0.337789387149655 
1469	 0.338290246925322 
1470	 0.338770252008915 
1471	 0.339252804688666 
1472	 0.339751732494689 
1473	 0.340201792572235 
1474	 0.340629951578053 
1475	 0.341043745766218 
1476	 0.341426827948529 
1477	 0.341811160761093 
1478	 0.342184782662263 
1479	 0.342547309490632 
1480	 0.342905342701116 
1481	 0.343237484691283 
1482	 0.343574714158322 
1483	 0.343844153670689 
1484	 0.344050298747082 
1485	 0.344286590570132 
1486	 0.344474597881594 
1487	 0.344709115924851 
1488	 0.344975332930215 
1489	 0.345238260845088 
1490	 0.345486498373972 
1491	 0.345790619078786 
1492	 0.346121707649519 
1493	 0.346481795870191 
1494	 0.346922770308626 
1495	 0.347295745152478 
1496	 0.34761017182434 
1497	 0.348013199718947 
1498	 0.34844550687901 
1499	 0.348866188797283 
1500	 0.349357562560994 
1501	 0.34981638390883 
1502	 0.350230251287679 
1503	 0.350655607290861 
1504	 0.351123444529797 
1505	 0.351535756701092 
1506	 0.351899485941381 
1507	 0.352274674298266 
1508	 0.35264449345898 
1509	 0.352988790566161 
1510	 0.353340161979913 
1511	 0.353648203089665 
1512	 0.353873356460424 
1513	 0.354150038979873 
1514	 0.354445931171439 
1515	 0.354720801709034 
1516	 0.355023699415216 
1517	 0.355300309879309 
1518	 0.355537186934668 
1519	 0.355771999342485 
1520	 0.35600812299079 
1521	 0.356234327345631 
1522	 0.356403382669664 
1523	 0.356584243698107 
1524	 0.356766054356461 
1525	 0.356941214494304 
1526	 0.357085600705649 
1527	 0.357221770269783 
1528	 0.357372916212034 
1529	 0.357498261122957 
1530	 0.357631613920077 
1531	 0.357794224783288 
1532	 0.357934799514003 
1533	 0.358051009713887 
1534	 0.358162801782965 
1535	 0.358271383406178 
1536	 0.358402378106721 
1537	 0.358501015217962 
1538	 0.358672345755776 
1539	 0.358908159082349 
1540	 0.359115658047933 
1541	 0.359340064159398 
1542	 0.359561038983484 
1543	 0.359767281788758 
1544	 0.360012307602915 
1545	 0.360275076593632 
1546	 0.360552889959753 
1547	 0.36087359137138 
1548	 0.361155169181317 
1549	 0.361424603233798 
1550	 0.361710462307441 
1551	 0.361964646514763 
1552	 0.362281033402663 
1553	 0.36265910140557 
1554	 0.362991709581087 
1555	 0.3633361826823 
1556	 0.363668366262855 
1557	 0.363971539178183 
1558	 0.364288141852053 
1559	 0.364628668756723 
1560	 0.364935177890141 
1561	 0.365218051565113 
1562	 0.365505523394208 
1563	 0.365798982964821 
1564	 0.366051556171438 
1565	 0.366255595323819 
1566	 0.366514248573624 
1567	 0.36676089570345 
1568	 0.367032943221505 
1569	 0.367371858705392 
1570	 0.367668967099487 
1571	 0.367946390348211 
1572	 0.368223339313407 
1573	 0.368476470825116 
1574	 0.368767452929834 
1575	 0.369080883737284 
1576	 0.369377893377164 
1577	 0.369688821126289 
1578	 0.369999545465539 
1579	 0.370317084464382 
1580	 0.370595833643083 
1581	 0.3708677795632 
1582	 0.371128756114977 
1583	 0.37132242738246 
1584	 0.371569875492144 
1585	 0.371863768934447 
1586	 0.372130324682491 
1587	 0.372402511157908 
1588	 0.372665466757308 
1589	 0.372897641208106 
1590	 0.373155749796111 
1591	 0.373422158471696 
1592	 0.373703532449262 
1593	 0.374029470297923 
1594	 0.374306665008747 
1595	 0.374569436116621 
1596	 0.374824709028781 
1597	 0.375029173618609 
1598	 0.375266730761924 
1599	 0.375550038041119 
1600	 0.375781589398087 
1601	 0.375975391086744 
1602	 0.376203854544283 
1603	 0.376386109160538 
1604	 0.37663352840043 
1605	 0.376994699164842 
1606	 0.37726101785635 
1607	 0.377492019564851 
1608	 0.377742796480355 
1609	 0.377956871480014 
1610	 0.378171708482553 
1611	 0.378460096181081 
1612	 0.378650617656964 
1613	 0.378725721498962 
1614	 0.378857955998602 
1615	 0.378981298983223 
1616	 0.37909316339185 
1617	 0.379233232323414 
1618	 0.379359273376669 
1619	 0.379465519178153 
1620	 0.379548448406538 
1621	 0.379625814642828 
1622	 0.379695536429401 
1623	 0.379703190875773 
1624	 0.379760313512725 
1625	 0.379872088168478 
1626	 0.379940539754772 
1627	 0.380003014646475 
1628	 0.380071622813647 
1629	 0.380103801081014 
1630	 0.380163798826571 
1631	 0.380277813868577 
1632	 0.380341370049422 
1633	 0.380379259912202 
1634	 0.380417525390079 
1635	 0.380410654396152 
1636	 0.380436658985611 
1637	 0.380484418138887 
1638	 0.380539401385383 
1639	 0.380628813036447 
1640	 0.380677228047638 
1641	 0.380708809658255 
1642	 0.380739478624436 
1643	 0.380754735206002 
1644	 0.380765499718988 
1645	 0.380781927440631 
1646	 0.380778129668311 
1647	 0.380802857530196 
1648	 0.380710920236327 
1649	 0.380585974966543 
1650	 0.380379934300594 
1651	 0.380003948932049 
1652	 0.379700013984141 
1653	 0.379397502974353 
1654	 0.379065006895365 
1655	 0.378768257199818 
1656	 0.378394747911908 
1657	 0.377940699648791 
1658	 0.377492675526706 
1659	 0.37700758801876 
1660	 0.376514903235983 
1661	 0.376061274946116 
1662	 0.375510826243747 
1663	 0.374910358339435 
1664	 0.374257679319668 
1665	 0.373525318000046 
1666	 0.372754212556811 
1667	 0.371935059835106 
1668	 0.371077496444646 
1669	 0.370128221799804 
1670	 0.369229597412052 
1671	 0.368339291269459 
1672	 0.367420140933807 
1673	 0.36651771134853 
1674	 0.365565781098903 
1675	 0.364538439279066 
1676	 0.363590199866162 
1677	 0.362706588862853 
1678	 0.361734358980867 
1679	 0.360776968956275 
1680	 0.359724934126093 
1681	 0.35854497380429 
1682	 0.357406189490493 
1683	 0.356266238975319 
1684	 0.355098210912527 
1685	 0.353959550475392 
1686	 0.352708335934144 
1687	 0.351396295695896 
1688	 0.349994915033461 
1689	 0.348472050227002 
1690	 0.34694940277023 
1691	 0.345401847575687 
1692	 0.343804140393681 
1693	 0.342176680257638 
1694	 0.34046711105393 
1695	 0.338654198037811 
1696	 0.336863275826019 
1697	 0.335051255971628 
1698	 0.333181752657611 
1699	 0.331291636427528 
1700	 0.32936900172538 
1701	 0.327380284174342 
1702	 0.325387846571226 
1703	 0.323291881292691 
1704	 0.321411931653251 
1705	 0.319569666549479 
1706	 0.317834649793096 
1707	 0.316342486692804 
1708	 0.314798542720415 
1709	 0.313294766562928 
1710	 0.312064353141312 
1711	 0.310837786622142 
1712	 0.30980832429468 
1713	 0.308874947419232 
1714	 0.307818228858225 
1715	 0.306886136874696 
1716	 0.305905383921866 
1717	 0.304950657431506 
1718	 0.304174015562837 
1719	 0.303450948623925 
1720	 0.302828682250781 
1721	 0.302272772894763 
1722	 0.301622583905733 
1723	 0.300942271583525 
1724	 0.300403892690542 
1725	 0.299969294541516 
1726	 0.299744810837111 
1727	 0.299802563573474 
1728	 0.299950623970402 
1729	 0.300270163193754 
1730	 0.300909979920968 
1731	 0.301680821882558 
1732	 0.302593428884438 
1733	 0.303590585276184 
1734	 0.304539314605272 
1735	 0.305592502991937 
1736	 0.306732248520304 
1737	 0.30782969446866 
1738	 0.308906447609561 
1739	 0.309714016811778 
1740	 0.310289570338755 
1741	 0.310822592586099 
1742	 0.311234050035525 
1743	 0.311508381063523 
1744	 0.311689459929111 
1745	 0.311707450713373 
1746	 0.311473221418235 
1747	 0.311320887233318 
1748	 0.311062231276402 
1749	 0.310904823236653 
1750	 0.310764109035058 
1751	 0.310643140945005 
1752	 0.31057377771697 
1753	 0.310535580100346 
1754	 0.310452560866212 
1755	 0.310621769143227 
1756	 0.310912183671023 
1757	 0.311328322600339 
1758	 0.311807398179547 
1759	 0.312318223293929 
1760	 0.312927347702455 
1761	 0.313601601290297 
1762	 0.314426505732385 
1763	 0.315393012752584 
1764	 0.316500247434931 
1765	 0.317740061369938 
1766	 0.319064707384455 
1767	 0.320424000085418 
1768	 0.321781443137891 
1769	 0.323186203406127 
1770	 0.324613199620696 
1771	 0.326001053922942 
1772	 0.327260529337548 
1773	 0.328511276152766 
1774	 0.329759809045826 
1775	 0.330824641030844 
1776	 0.331979986211824 
1777	 0.333062755263192 
1778	 0.33388225276862 
1779	 0.334756213098844 
1780	 0.335513894674835 
1781	 0.33617490888053 
1782	 0.336918958417736 
1783	 0.337652280108377 
1784	 0.33835502090777 
1785	 0.338918084546516 
1786	 0.339453757794525 
1787	 0.3398494693367 
1788	 0.340261043265717 
1789	 0.340709937843456 
1790	 0.341109787275236 
1791	 0.341470051461918 
1792	 0.34183023686531 
1793	 0.342158160517423 
1794	 0.342383148878086 
1795	 0.342616634742535 
1796	 0.34287553279913 
1797	 0.343154046778473 
1798	 0.343422521597488 
1799	 0.343783881041393 
1800	 0.344083832718349 
1801	 0.345528665210687 
1802	 0.345820593866546 
1803	 0.346094812609682 
1804	 0.346302360631992 
1805	 0.346610499776771 
1806	 0.346882185932343 
1807	 0.347152879477362 
1808	 0.347416539895966 
1809	 0.347678273275206 
1810	 0.347958698795314 
1811	 0.348201715816074 
1812	 0.34851137396223 
1813	 0.348922015900216 
1814	 0.349241514125442 
1815	 0.349514218978266 
1816	 0.34994670214584 
1817	 0.350288862442185 
1818	 0.350558297869247 
1819	 0.350902279631796 
1820	 0.351276109189945 
1821	 0.351627362388866 
1822	 0.351949958792384 
1823	 0.352376837157613 
1824	 0.352809237992511 
1825	 0.353202980416567 
1826	 0.353547791710513 
1827	 0.35386106670771 
1828	 0.354193950432794 
1829	 0.35445803812978 
1830	 0.35479669068916 
1831	 0.355191257279479 
1832	 0.355596486086778 
1833	 0.35595507798723 
1834	 0.356305362189811 
1835	 0.356651361618199 
1836	 0.357010547514965 
1837	 0.35738568662914 
1838	 0.357763444188783 
1839	 0.358147241860747 
1840	 0.358612843364858 
1841	 0.358964740827695 
1842	 0.359238795352228 
1843	 0.359573078448906 
1844	 0.359894008603836 
1845	 0.360117928993172 
1846	 0.360409133345927 
1847	 0.360698918819754 
1848	 0.360923149602072 
1849	 0.361095880609856 
1850	 0.36125589390447 
1851	 0.361370281120457 
1852	 0.361507439568578 
1853	 0.361609549464854 
1854	 0.361633428676204 
1855	 0.361665676557065 
1856	 0.361700189659147 
1857	 0.361756249887738 
1858	 0.361792095186234 
1859	 0.361759562023331 
1860	 0.361714664250896 
1861	 0.361594308109783 
1862	 0.361372740828984 
1863	 0.361153611447554 
1864	 0.360985444819459 
1865	 0.360775651870696 
1866	 0.360561665865592 
1867	 0.36030383662992 
1868	 0.359983980230779 
1869	 0.359604209913753 
1870	 0.359143415193405 
1871	 0.358609094375255 
1872	 0.358040547885151 
1873	 0.357405975363115 
1874	 0.356723975804903 
1875	 0.356019141669996 
1876	 0.355263983030673 
1877	 0.354483961859532 
1878	 0.353583399695579 
1879	 0.352569179220606 
1880	 0.351491567863426 
1881	 0.350323894757047 
1882	 0.34904292528525 
1883	 0.347726691687112 
1884	 0.346251911856415 
1885	 0.344622520923411 
1886	 0.343017122815718 
1887	 0.341216696928393 
1888	 0.339304507502896 
1889	 0.337478606407043 
1890	 0.335459960271094 
1891	 0.333431109652245 
1892	 0.331366614685456 
1893	 0.329213625982002 
1894	 0.326941762920048 
1895	 0.324766673025192 
1896	 0.322449439306752 
1897	 0.320158998803843 
1898	 0.318092042380571 
1899	 0.315875239418605 
1900	 0.31373968432908 
1901	 0.311756534537608 
1902	 0.309658099856074 
1903	 0.307692865601863 
1904	 0.305797510728347 
1905	 0.303969905454699 
1906	 0.302150936431833 
1907	 0.300542298750625 
1908	 0.298946849720423 
1909	 0.297437573461391 
1910	 0.296108445520333 
1911	 0.29468086718553 
1912	 0.29335716577601 
1913	 0.292127256334211 
1914	 0.290890533190175 
1915	 0.28978312455852 
1916	 0.288833436965669 
1917	 0.287868271876477 
1918	 0.286938723690167 
1919	 0.286075526577715 
1920	 0.285130721858179 
1921	 0.284325753205408 
1922	 0.283532162617949 
1923	 0.282717025267549 
1924	 0.282052270090269 
1925	 0.281364984465158 
1926	 0.280692581813067 
1927	 0.280032208998772 
1928	 0.279437987398698 
1929	 0.278870603546651 
1930	 0.278311468664918 
1931	 0.277820756028892 
1932	 0.277442021672418 
1933	 0.27706750503629 
1934	 0.276764626178231 
1935	 0.276560420862595 
1936	 0.276389681698274 
1937	 0.276286330718317 
1938	 0.276222964291018 
1939	 0.276274291694433 
1940	 0.276423860408436 
1941	 0.276609324736077 
1942	 0.276864391465307 
1943	 0.277193174886359 
1944	 0.277502454260944 
1945	 0.277797311496645 
1946	 0.278191531471072 
1947	 0.27864292386071 
1948	 0.279098425688239 
1949	 0.279693957106739 
1950	 0.280280503180686 
1951	 0.280856192741877 
1952	 0.281491410255199 
1953	 0.282187864805673 
1954	 0.282905518921869 
1955	 0.283629859524851 
1956	 0.284481847447545 
1957	 0.285336810862754 
1958	 0.286168116338073 
1959	 0.287022580256646 
1960	 0.287849093460468 
1961	 0.288619336021818 
1962	 0.289369182541101 
1963	 0.290035874566046 
1964	 0.290629901893702 
1965	 0.291192770856471 
1966	 0.291680761223861 
1967	 0.292187263467524 
1968	 0.292632081641697 
1969	 0.293059660600151 
1970	 0.293470837301633 
1971	 0.293866130966701 
1972	 0.294402176693638 
1973	 0.294975533443427 
1974	 0.295453892256221 
1975	 0.295919890703679 
1976	 0.29639928675215 
1977	 0.29676367436489 
1978	 0.297230303126892 
1979	 0.297744931476293 
1980	 0.298341954895002 
1981	 0.298982995105706 
1982	 0.299589076711907 
1983	 0.300209357262114 
1984	 0.300799503861209 
1985	 0.301308968642309 
1986	 0.301824741162411 
1987	 0.302422520400832 
1988	 0.303087029317263 
1989	 0.303747356075746 
1990	 0.304461123873293 
1991	 0.305153471506432 
1992	 0.30583866977756 
1993	 0.30652997695663 
1994	 0.30720731067536 
1995	 0.308027301069944 
1996	 0.308822793857391 
1997	 0.309579072347622 
1998	 0.310372162916104 
1999	 0.311182500713205 
2000	 0.311958743798206 
2001	 0.312809161170037 
2002	 0.31353294842255 
2003	 0.314197525245086 
2004	 0.314802028536225 
2005	 0.315306004798611 
2006	 0.31579212002299 
2007	 0.316187877439272 
2008	 0.316660479078693 
2009	 0.317154766062561 
2010	 0.317485739828645 
2011	 0.317796557361613 
2012	 0.318133429912118 
2013	 0.318356688967932 
2014	 0.31846542548218 
2015	 0.318610856900302 
2016	 0.318720861378643 
2017	 0.318779309298635 
2018	 0.318840065517825 
2019	 0.318824958093267 
2020	 0.318723308975424 
2021	 0.318615412479036 
2022	 0.318510257000467 
2023	 0.318353745268388 
2024	 0.318134046684844 
2025	 0.31787178041827 
2026	 0.317532606979821 
2027	 0.317043445119375 
2028	 0.316644462546833 
2029	 0.316217659121108 
2030	 0.315824675851421 
2031	 0.31549101478828 
2032	 0.315108382134475 
2033	 0.314723008759266 
2034	 0.314306041624561 
2035	 0.31386481980788 
2036	 0.31339304994822 
2037	 0.312909240651659 
2038	 0.312380313760428 
2039	 0.31191632696155 
2040	 0.311457895304814 
2041	 0.311030586990331 
2042	 0.310696687647291 
2043	 0.310279173179169 
2044	 0.309776262774497 
2045	 0.309376307894212 
2046	 0.308975599420005 
2047	 0.308605967109426 
2048	 0.308367403938058 
2049	 0.308046737478106 
2050	 0.307662133519384 
2051	 0.307333259164132 
2052	 0.306939143218558 
2053	 0.306613234329195 
2054	 0.306337690900036 
2055	 0.306080078359319 
2056	 0.305901569583212 
2057	 0.30582458745543 
2058	 0.305714345144133 
2059	 0.305660058536286 
2060	 0.305583390826341 
2061	 0.305504727548141 
2062	 0.305417895443647 
2063	 0.305293507810406 
2064	 0.305233668687399 
2065	 0.305205588272289 
2066	 0.305171291524676 
2067	 0.305176920891242 
2068	 0.30519430041266 
2069	 0.305211051475373 
2070	 0.305204832348099 
2071	 0.305251443899224 
2072	 0.305345955175276 
2073	 0.305424322622324 
2074	 0.305556001530469 
2075	 0.305582755725914 
2076	 0.305531038376582 
2077	 0.305538058076076 
2078	 0.305527698083632 
2079	 0.305504985010972 
2080	 0.305522898315921 
2081	 0.305514043431626 
2082	 0.305490702414408 
2083	 0.305427234100762 
2084	 0.305271452725502 
2085	 0.305120414664625 
2086	 0.304944437474233 
2087	 0.304666844065983 
2088	 0.304434798266643 
2089	 0.304234616534087 
2090	 0.304025197706448 
2091	 0.303765226677812 
2092	 0.30357579878886 
2093	 0.303501505741201 
2094	 0.303300151282431 
2095	 0.303046710586998 
2096	 0.302798240328882 
2097	 0.302481398887752 
2098	 0.30216348846949 
2099	 0.301920009891267 
2100	 0.301692230942118 
2101	 0.301380233845961 
2102	 0.301030147086276 
2103	 0.300681023711185 
2104	 0.300263874391668 
2105	 0.299911564818706 
2106	 0.299626561230627 
2107	 0.29924834664841 
2108	 0.298845389387686 
2109	 0.298422941251078 
2110	 0.297938776041129 
2111	 0.297463616483858 
2112	 0.296999497892153 
2113	 0.296496338940229 
2114	 0.295947149888354 
2115	 0.295411916757007 
2116	 0.294856465241504 
2117	 0.294348141102347 
2118	 0.293737057425109 
2119	 0.293068681879252 
2120	 0.292462360353168 
2121	 0.291787664453855 
2122	 0.291198230460565 
2123	 0.290730668179292 
2124	 0.290149134217882 
2125	 0.289542445644212 
2126	 0.288915752663894 
2127	 0.288209656106695 
2128	 0.287579623056743 
2129	 0.286951456211048 
2130	 0.28636633779499 
2131	 0.285902952299465 
2132	 0.285310846208346 
2133	 0.284651839379673 
2134	 0.284020021773865 
2135	 0.283288639636864 
2136	 0.282680720352874 
2137	 0.282124703164817 
2138	 0.281640902183556 
2139	 0.281219110855212 
2140	 0.28088081786228 
2141	 0.280522628849588 
2142	 0.280197047741876 
2143	 0.279932509867046 
2144	 0.279680252252749 
2145	 0.279486473914874 
2146	 0.279411948142827 
2147	 0.279309230224111 
2148	 0.279205735782119 
2149	 0.279118878976672 
2150	 0.279054955503069 
2151	 0.278998174907942 
2152	 0.278893576418725 
2153	 0.278912878089163 
2154	 0.278983521624776 
2155	 0.279021002566305 
2156	 0.279083439056896 
2157	 0.279173222417509 
2158	 0.279304622599937 
2159	 0.279430067377223 
2160	 0.279621292831612 
2161	 0.279926787606472 
2162	 0.280137858925402 
2163	 0.280345635541559 
2164	 0.280522524208964 
2165	 0.280628725452486 
2166	 0.280800472660844 
2167	 0.280986283230452 
2168	 0.281182035885483 
2169	 0.281416887865019 
2170	 0.281633632235612 
2171	 0.281888579391261 
2172	 0.282079729100897 
2173	 0.28225735028118 
2174	 0.282360696416429 
2175	 0.282508144620388 
2176	 0.282598149240242 
2177	 0.282793542741137 
2178	 0.283072441525284 
2179	 0.28331035535726 
2180	 0.283588864011721 
2181	 0.283802612630502 
2182	 0.283970903720262 
2183	 0.284181186320936 
2184	 0.284442012033868 
2185	 0.284566139956807 
2186	 0.284678417223579 
2187	 0.284706081573395 
2188	 0.284560880267539 
2189	 0.284486160071645 
2190	 0.284414832871733 
2191	 0.284319056938472 
2192	 0.284163727197159 
2193	 0.284086992469927 
2194	 0.284069949558203 
2195	 0.283999780805626 
2196	 0.283984260466542 
2197	 0.28391586286193 
2198	 0.283713494304856 
2199	 0.283537404998825 
2200	 0.283243319714358 
2201	 0.282873569894849 
2202	 0.282473332237322 
2203	 0.281922110992206 
2204	 0.281544125948151 
2205	 0.281174900161011 
2206	 0.28087204626007 
2207	 0.280715894623697 
2208	 0.280471049100363 
2209	 0.280230395017637 
2210	 0.279969192464332 
2211	 0.279657271853453 
2212	 0.27939015075138 
2213	 0.279146200208175 
2214	 0.278894098085541 
2215	 0.278680566469794 
2216	 0.278411110969767 
2217	 0.27811273377704 
2218	 0.277791781457427 
2219	 0.277458270764527 
2220	 0.277094104402436 
2221	 0.276737820007282 
2222	 0.276267845303701 
2223	 0.275801532446894 
2224	 0.275310678745891 
2225	 0.274882753559419 
2226	 0.274418178576128 
2227	 0.273791884181942 
2228	 0.273136767198522 
2229	 0.272323939599925 
2230	 0.271249823464697 
2231	 0.27032854346782 
2232	 0.269423217290081 
2233	 0.268433011030904 
2234	 0.267503378841503 
2235	 0.266368020294269 
2236	 0.265108149453394 
2237	 0.263758972292977 
2238	 0.262262790377482 
2239	 0.260712233832653 
2240	 0.258996917023243 
2241	 0.257329449432579 
2242	 0.255752769958201 
2243	 0.253922011035269 
2244	 0.252061927695683 
2245	 0.250015813814935 
2246	 0.247461226877518 
2247	 0.245206764689115 
2248	 0.243065232805177 
2249	 0.240833559425868 
2250	 0.238643626975987 
2251	 0.236596950024438 
2252	 0.234155126378438 
2253	 0.231695022920716 
2254	 0.229281664320598 
2255	 0.2268166503346 
2256	 0.224602285241496 
2257	 0.222412414446414 
2258	 0.220241945651297 
2259	 0.218155373122883 
2260	 0.216049636991355 
2261	 0.213893686535581 
2262	 0.211895158652283 
2263	 0.209987226498793 
2264	 0.208073040463674 
2265	 0.20627152553974 
2266	 0.204435761678563 
2267	 0.202579752818221 
2268	 0.200776237053782 
2269	 0.198997888379412 
2270	 0.197272946783019 
2271	 0.195559647741362 
2272	 0.193926226197458 
2273	 0.192361307446968 
2274	 0.190837602141516 
2275	 0.189494439399078 
2276	 0.187977145165605 
2277	 0.186365071816075 
2278	 0.184840555788469 
2279	 0.183253608999816 
2280	 0.18167530921828 
2281	 0.180204263556199 
2282	 0.17866893493647 
2283	 0.17710522690666 
2284	 0.175476172143862 
2285	 0.173756464213985 
2286	 0.17208300467414 
2287	 0.170220937515292 
2288	 0.168232178891217 
2289	 0.166436888209216 
2290	 0.16462324492013 
2291	 0.162711045302783 
2292	 0.160887563418838 
2293	 0.158996874286103 
2294	 0.157035354957483 
2295	 0.155229097158997 
2296	 0.153566651141313 
2297	 0.152135326273725 
2298	 0.150882182283421 
2299	 0.149733130169338 
2300	 0.148805014289298 
2301	 0.148029434436762 
2302	 0.147242659522615 
2303	 0.146882416339601 
2304	 0.146893656795454 
2305	 0.147041514763834 
2306	 0.147456168762341 
2307	 0.148077204401702 
2308	 0.148930652107425 
2309	 0.149928729924418 
2310	 0.151193876606781 
2311	 0.152562026427091 
2312	 0.154172002000171 
2313	 0.155707807511036 
2314	 0.157375841321853 
2315	 0.159012261025566 
2316	 0.16056744962258 
2317	 0.162243877058904 
2318	 0.164121759336914 
2319	 0.165755542747552 
2320	 0.167574268680075 
2321	 0.168929223195068 
2322	 0.169947548453202 
2323	 0.170799830489772 
2324	 0.1712009285695 
2325	 0.171659198211438 
2326	 0.17212625875399 
2327	 0.172301574117813 
2328	 0.172330358291249 
2329	 0.172180823626095 
2330	 0.171729473168481 
2331	 0.171176270242441 
2332	 0.170562444351456 
2333	 0.169938136014137 
2334	 0.169024389325959 
2335	 0.168092896536111 
2336	 0.167203130049284 
2337	 0.16592376634936 
2338	 0.164750902704221 
2339	 0.163531643872923 
2340	 0.162214739640215 
2341	 0.161129260261752 
2342	 0.159966017936398 
2343	 0.158926325750283 
2344	 0.158015744128121 
2345	 0.157328400502044 
2346	 0.157041181914842 
2347	 0.157036440138896 
2348	 0.157121527189229 
2349	 0.157329225785434 
2350	 0.157940509061816 
2351	 0.158643270089732 
2352	 0.159600237240037 
2353	 0.160996586179216 
2354	 0.162206495574265 
2355	 0.163359532264301 
2356	 0.164410145941485 
2357	 0.165126625121044 
2358	 0.165845324698055 
2359	 0.166646005767389 
2360	 0.16737646664728 
2361	 0.168019489104714 
2362	 0.168441439428951 
2363	 0.168498733321403 
2364	 0.168560128202487 
2365	 0.168645563544736 
2366	 0.168535629955928 
2367	 0.168350640599599 
2368	 0.168065752913869 
2369	 0.167687117963338 
2370	 0.167686467736642 
2371	 0.167979739107692 
2372	 0.16808316128161 
2373	 0.167977138871531 
2374	 0.167742650950911 
2375	 0.167510558261386 
2376	 0.167128352027807 
2377	 0.166977950922636 
2378	 0.167409521496988 
2379	 0.167543742609296 
2380	 0.16773536982287 
2381	 0.1682030399133 
2382	 0.168153790909689 
2383	 0.167298846210871 
2384	 0.16731731896896 
2385	 0.167538334378835 
2386	 0.167697634175598 
2387	 0.168323766440959 
2388	 0.168678268201724 
2389	 0.168847389455285 
2390	 0.168915366152672 
2391	 0.168955362704667 
2392	 0.168996128813036 
2393	 0.168795616879659 
2394	 0.168948263717859 
2395	 0.169424329870195 
2396	 0.169616288088029 
2397	 0.169755853598119 
2398	 0.169576845102441 
2399	 0.169117466024385 
2400	 0.16894417550499 
2401	 0.168818096917443 
2402	 0.16886092695991 
2403	 0.168757917683196 
2404	 0.169092412418879 
2405	 0.168863392115038 
2406	 0.168833929186614 
2407	 0.169206793055082 
2408	 0.169461928587259 
2409	 0.169803533085781 
2410	 0.169757578302509 
2411	 0.170017686914639 
2412	 0.170077209350252 
2413	 0.16983281529941 
2414	 0.170397297997593 
2415	 0.17044242084434 
2416	 0.170394285753867 
2417	 0.171150666929908 
2418	 0.171220497024476 
2419	 0.171108318563474 
2420	 0.171382871197327 
2421	 0.170777504151 
2422	 0.170092466832458 
2423	 0.169971534579694 
2424	 0.169665539656262 
2425	 0.169616339610674 
2426	 0.169811902851154 
2427	 0.169786708762009 
2428	 0.169689473072642 
2429	 0.169965892416083 
2430	 0.170409894050968 
2431	 0.170894282100122 
2432	 0.17150519942506 
2433	 0.171503580051089 
2434	 0.171589512721995 
2435	 0.17204824958864 
2436	 0.172108563126552 
2437	 0.171823648011304 
2438	 0.171168315971765 
2439	 0.170645541461011 
2440	 0.170361075029009 
2441	 0.170320950610478 
2442	 0.17040673001417 
2443	 0.170305100429542 
2444	 0.170130487282699 
2445	 0.169879128512549 
2446	 0.17004051698703 
2447	 0.169892113482036 
2448	 0.169058442463555 
2449	 0.168786996123998 
2450	 0.168523810970079 
2451	 0.167556604254743 
2452	 0.166288996605579 
2453	 0.165537653668416 
2454	 0.165143595336145 
2455	 0.164647984328794 
2456	 0.165148813835913 
2457	 0.165316296272582 
2458	 0.16466366725554 
2459	 0.164652836495307 
2460	 0.16466963791233 
2461	 0.163956146772404 
2462	 0.163302261319636 
2463	 0.162977626436852 
2464	 0.162542112800524 
2465	 0.162941113535862 
2466	 0.163285170917486 
2467	 0.162976847248274 
2468	 0.162601373937128 
2469	 0.162260359346582 
2470	 0.161954714529965 
2471	 0.161294977987287 
2472	 0.161829795220215 
2473	 0.162753019336604 
2474	 0.162902554725971 
2475	 0.163694336268062 
2476	 0.163523593936774 
2477	 0.16207088543385 
2478	 0.161030388829296 
2479	 0.16040938218783 
2480	 0.160080241112505 
2481	 0.160290277097882 
2482	 0.161438136589044 
2483	 0.161928454904962 
2484	 0.162559168230646 
2485	 0.162255126147828 
2486	 0.161691513906249 
2487	 0.162021645925557 
2488	 0.161930380525286 
2489	 0.161813864756736 
2490	 0.161801434007998 
2491	 0.161049423840657 
2492	 0.161131255958662 
2493	 0.162318778648118 
2494	 0.164185597934843 
2495	 0.164787299698127 
2496	 0.164725276381591 
2497	 0.165427773095271 
2498	 0.164925780807181 
2499	 0.165620392626691 
2500	 0.16708869917555 
