Wavelength	Tablay400086.asd
350	 0.336747538417037 
351	 0.27298582009367 
352	 0.212782050431064 
353	 0.248556869998722 
354	 0.187845378055167 
355	 0.187395388086432 
356	 0.195643285161361 
357	 0.164284417352631 
358	 0.187064438666129 
359	 0.151225232585498 
360	 0.106901788786712 
361	 0.154837236686247 
362	 0.129343510209808 
363	 0.149376456274656 
364	 0.214956469741164 
365	 0.151963231432795 
366	 0.108946811369921 
367	 0.114915483066513 
368	 0.141106971159749 
369	 0.142338390042639 
370	 0.108117070428351 
371	 7.96608177703788E-02 
372	 0.108772417894248 
373	 0.134824719696171 
374	 0.112481900987309 
375	 7.59192778613509E-02 
376	 0.159670940157242 
377	 0.193403660754964 
378	 0.176684453183974 
379	 0.150774314517583 
380	 0.103103418609687 
381	 0.10229334567882 
382	 0.124566941902356 
383	 9.59478445230235E-02 
384	 8.32551288561585E-02 
385	 6.63359811450783E-02 
386	 4.94703064554237E-02 
387	 0.085564192137621 
388	 8.63815289746212E-02 
389	 7.76648205861809E-02 
390	 9.61302044403259E-02 
391	 0.104135604406406 
392	 9.92322816778459E-02 
393	 0.090295341601121 
394	 9.02523595304076E-02 
395	 6.79177963315333E-02 
396	 5.53148617296384E-02 
397	 6.41226801062249E-02 
398	 6.06624683210439E-02 
399	 8.93508525309006E-02 
400	 0.112697454938826 
401	 9.40399204231004E-02 
402	 8.03778522414664E-02 
403	 7.21181099171875E-02 
404	 6.68409977571152E-02 
405	 0.062274183831495 
406	 6.79436949472415E-02 
407	 0.076624494223115 
408	 7.94634570261179E-02 
409	 0.064430944526783 
410	 7.37431942555011E-02 
411	 8.40537390868973E-02 
412	 6.61595296147437E-02 
413	 6.75750374104117E-02 
414	 7.25503436053903E-02 
415	 7.13923718007775E-02 
416	 6.40891055541766E-02 
417	 7.46041894690752E-02 
418	 0.078713564495466 
419	 6.44463855039528E-02 
420	 6.55072549093493E-02 
421	 6.48765807969007E-02 
422	 6.54188608201019E-02 
423	 7.39131307649071E-02 
424	 7.19954349218176E-02 
425	 0.070648993170761 
426	 7.21317460214587E-02 
427	 6.70113981034619E-02 
428	 0.06993919254239 
429	 7.47528530551955E-02 
430	 7.41663970123303E-02 
431	 7.00986444088715E-02 
432	 0.069930088442786 
433	 7.27182798542769E-02 
434	 7.32343251686119E-02 
435	 7.15689274404016E-02 
436	 7.31074962019416E-02 
437	 7.75226937957138E-02 
438	 0.075471722541568 
439	 7.12071887458248E-02 
440	 7.09288386179052E-02 
441	 7.75479414313576E-02 
442	 7.97116520689004E-02 
443	 7.87227417337454E-02 
444	 7.69035004363605E-02 
445	 7.68218760895793E-02 
446	 0.076982960986243 
447	 7.65681336528866E-02 
448	 0.076669595921706 
449	 8.33212919301037E-02 
450	 8.25471903877004E-02 
451	 7.98534157514357E-02 
452	 8.47107147952706E-02 
453	 8.34286416995803E-02 
454	 8.13378452868724E-02 
455	 8.17268311490471E-02 
456	 8.43046279276296E-02 
457	 8.61483715264539E-02 
458	 8.68088344256491E-02 
459	 8.65095609525859E-02 
460	 8.50116309336286E-02 
461	 8.68678259840464E-02 
462	 8.96154827435073E-02 
463	 8.80208975060257E-02 
464	 8.79870535465676E-02 
465	 8.83616306618956E-02 
466	 8.81660686292073E-02 
467	 8.78162665025317E-02 
468	 8.71199876555823E-02 
469	 8.76257804084536E-02 
470	 8.98634520622623E-02 
471	 8.85449214176985E-02 
472	 8.71612977753673E-02 
473	 8.70335739594054E-02 
474	 8.74546480935394E-02 
475	 8.62214806296143E-02 
476	 8.57696026728944E-02 
477	 8.71441178733887E-02 
478	 8.70258851029046E-02 
479	 8.59877511032262E-02 
480	 8.46450808086261E-02 
481	 8.37491751168563E-02 
482	 8.41489953495137E-02 
483	 8.33780842101084E-02 
484	 8.20009682720711E-02 
485	 8.39987163234449E-02 
486	 8.26990007616792E-02 
487	 8.05146539446842E-02 
488	 8.00696981486259E-02 
489	 7.79889298497971E-02 
490	 0.077765836580377 
491	 7.85949178668975E-02 
492	 7.75397227878051E-02 
493	 7.63383983039467E-02 
494	 7.61255870175366E-02 
495	 0.076655735013651 
496	 7.55719799400994E-02 
497	 7.56206987835499E-02 
498	 7.54687670062189E-02 
499	 7.34924172069108E-02 
500	 7.22865805058234E-02 
501	 7.16334881893027E-02 
502	 7.12700468652919E-02 
503	 7.09651354715815E-02 
504	 7.00403063782646E-02 
505	 6.91971535424896E-02 
506	 6.89123197409542E-02 
507	 6.86259886508672E-02 
508	 6.79053885336916E-02 
509	 6.70652506421789E-02 
510	 6.66941091030798E-02 
511	 6.68177542729588E-02 
512	 6.58895656949082E-02 
513	 0.064031543057604 
514	 6.35595904863712E-02 
515	 6.32250031378774E-02 
516	 6.26959506107104E-02 
517	 0.061913875798518 
518	 6.09330901514494E-02 
519	 6.03479031459303E-02 
520	 5.98133318329464E-02 
521	 5.85168324734301E-02 
522	 5.81786948614714E-02 
523	 5.79452669215982E-02 
524	 5.72701273355678E-02 
525	 5.69284186011011E-02 
526	 5.62437670554617E-02 
527	 5.55093984004794E-02 
528	 5.51742980366365E-02 
529	 5.46637590664265E-02 
530	 5.37309267514211E-02 
531	 5.27927340889242E-02 
532	 5.28787183724025E-02 
533	 0.052738139094583 
534	 0.052395753797658 
535	 5.20871509240571E-02 
536	 5.17957352368852E-02 
537	 5.16666286584162E-02 
538	 5.15453551456641E-02 
539	 5.11961534214916E-02 
540	 5.12833157999683E-02 
541	 5.11571748557399E-02 
542	 5.06596886105819E-02 
543	 5.06097314267707E-02 
544	 5.08848384314777E-02 
545	 5.13329898943338E-02 
546	 5.17241896947427E-02 
547	 5.16143599393834E-02 
548	 5.16950699517621E-02 
549	 5.21854347245988E-02 
550	 5.28330185140409E-02 
551	 5.33478111187865E-02 
552	 5.34916566873564E-02 
553	 5.33823680972519E-02 
554	 5.39617530261496E-02 
555	 5.45451739577655E-02 
556	 5.49233471387865E-02 
557	 5.51530928024888E-02 
558	 5.55510349485376E-02 
559	 5.58190728336634E-02 
560	 5.59045492420921E-02 
561	 5.61738556844346E-02 
562	 5.63037482720257E-02 
563	 5.63924324326653E-02 
564	 0.056503626294999 
565	 5.61177380347846E-02 
566	 5.57821889321567E-02 
567	 5.55530431300797E-02 
568	 5.51354359423391E-02 
569	 5.48626136041644E-02 
570	 5.45572174193342E-02 
571	 5.40488648341381E-02 
572	 5.33220014845624E-02 
573	 5.25072608805905E-02 
574	 5.17934479761631E-02 
575	 5.12938758657339E-02 
576	 5.05991953236044E-02 
577	 4.98448562511497E-02 
578	 4.91898917801116E-02 
579	 4.87636881263667E-02 
580	 4.79029864915588E-02 
581	 4.70997791768565E-02 
582	 0.046780413334255 
583	 4.63398786149735E-02 
584	 4.58354974809491E-02 
585	 0.045298634291297 
586	 4.47583618328704E-02 
587	 4.42525961653843E-02 
588	 4.38671557900275E-02 
589	 4.36472119943497E-02 
590	 4.35824209199046E-02 
591	 0.043475733838733 
592	 4.32372534291388E-02 
593	 4.29058839192767E-02 
594	 4.28518174461442E-02 
595	 4.29237298189412E-02 
596	 4.29704518138757E-02 
597	 4.28868290845042E-02 
598	 4.31106171454091E-02 
599	 4.32106188646733E-02 
600	 4.29884467118889E-02 
601	 4.31848892438408E-02 
602	 4.32462410318379E-02 
603	 4.32069783973438E-02 
604	 4.33024764814203E-02 
605	 4.33022549358602E-02 
606	 4.34042856968426E-02 
607	 4.35947961799131E-02 
608	 0.04356495483152 
609	 0.043417440127017 
610	 4.34029443019475E-02 
611	 4.36274154361595E-02 
612	 4.35804823557212E-02 
613	 4.37025389755786E-02 
614	 4.38999071963421E-02 
615	 4.37840268734635E-02 
616	 4.37376996311702E-02 
617	 4.36902892893712E-02 
618	 4.36228707291888E-02 
619	 4.37161279270479E-02 
620	 4.38413505148505E-02 
621	 4.38654462703712E-02 
622	 4.36987904549503E-02 
623	 4.34045368356096E-02 
624	 0.043476977856103 
625	 4.37782245079632E-02 
626	 4.36154500824446E-02 
627	 0.043524364196029 
628	 4.33283252521227E-02 
629	 4.29586502016846E-02 
630	 4.29179046386853E-02 
631	 4.30920509678935E-02 
632	 4.31072337968494E-02 
633	 4.26168564838793E-02 
634	 4.23372688751441E-02 
635	 4.23562886239768E-02 
636	 4.24290011305849E-02 
637	 4.19897849148833E-02 
638	 4.19853444632628E-02 
639	 4.21561802145703E-02 
640	 4.21312977934271E-02 
641	 4.22472451710141E-02 
642	 4.20140619843884E-02 
643	 4.17018911510596E-02 
644	 4.19345757064717E-02 
645	 4.18985150842974E-02 
646	 4.19158658073301E-02 
647	 4.21505386794061E-02 
648	 4.22921873113688E-02 
649	 4.23546327456114E-02 
650	 4.23948538257039E-02 
651	 4.24798631888972E-02 
652	 0.042616656208249 
653	 4.27317822513413E-02 
654	 4.28670168561934E-02 
655	 0.043151744358814 
656	 4.35754800162136E-02 
657	 4.40193697543171E-02 
658	 4.43995581814006E-02 
659	 4.47360045828235E-02 
660	 4.50552253709978E-02 
661	 4.55138889653593E-02 
662	 4.62193731847298E-02 
663	 4.67622157889853E-02 
664	 4.73891258868596E-02 
665	 4.81915004652116E-02 
666	 4.90650893685831E-02 
667	 0.04996473943294 
668	 5.08927626139869E-02 
669	 5.18944967515564E-02 
670	 5.30883989360774E-02 
671	 5.44418042140093E-02 
672	 5.58258636279483E-02 
673	 5.71604667118735E-02 
674	 5.89640091179894E-02 
675	 6.09295313060861E-02 
676	 6.29856385629278E-02 
677	 6.54257670913794E-02 
678	 6.77725578140271E-02 
679	 7.01976859498102E-02 
680	 7.29702284915622E-02 
681	 0.076164316347256 
682	 7.96223984550134E-02 
683	 0.083243145695522 
684	 8.69855840072356E-02 
685	 9.09430882530742E-02 
686	 9.51754820913974E-02 
687	 9.96420184895444E-02 
688	 0.104184906125661 
689	 0.109089295778266 
690	 0.114170442808572 
691	 0.119253146215634 
692	 0.124609107410836 
693	 0.129986484450302 
694	 0.135433713098467 
695	 0.141143441382035 
696	 0.146792548933722 
697	 0.152404605085823 
698	 0.158017157241968 
699	 0.163645689241043 
700	 0.169272894387829 
701	 0.174831547769968 
702	 0.180280236058592 
703	 0.185688553281395 
704	 0.190835937118462 
705	 0.195807629036197 
706	 0.200865641664024 
707	 0.205677829830461 
708	 0.210232127896876 
709	 0.214606737197386 
710	 0.218951867297019 
711	 0.223060248477558 
712	 0.226971574134239 
713	 0.230747657758054 
714	 0.234190030567913 
715	 0.237611289184645 
716	 0.240943096543005 
717	 0.243880064012528 
718	 0.24680053086143 
719	 0.249581911855042 
720	 0.252126229271443 
721	 0.254483977224274 
722	 0.256747964447478 
723	 0.258915446160686 
724	 0.260946742454883 
725	 0.26280507753138 
726	 0.264523337536037 
727	 0.266134890669281 
728	 0.267669242260329 
729	 0.269125386736777 
730	 0.270470550707515 
731	 0.271713742460563 
732	 0.272943502296159 
733	 0.273933454506709 
734	 0.274857548064306 
735	 0.275887099893149 
736	 0.276710316169536 
737	 0.27755238641921 
738	 0.278409153590215 
739	 0.279141349373305 
740	 0.279928207408354 
741	 0.280668728209129 
742	 0.28130402972082 
743	 0.281887057072711 
744	 0.282448099190157 
745	 0.283035599613881 
746	 0.283649418928009 
747	 0.284129880457051 
748	 0.284570525793129 
749	 0.284991199092053 
750	 0.28537884584596 
751	 0.28583535496689 
752	 0.286183905693751 
753	 0.286407071190562 
754	 0.286721707815519 
755	 0.28714569886468 
756	 0.287542152417386 
757	 0.287831686114423 
758	 0.288234139591977 
759	 0.288419670070559 
760	 0.288632693930478 
761	 0.289239736166639 
762	 0.289554684511657 
763	 0.289806021525512 
764	 0.290072875809613 
765	 0.290218326589906 
766	 0.290547787128759 
767	 0.290932969519908 
768	 0.291237076344758 
769	 0.29150883390012 
770	 0.291707259392462 
771	 0.291952801019206 
772	 0.29235752385606 
773	 0.292706462374387 
774	 0.293034316967278 
775	 0.293318454792016 
776	 0.293502633373707 
777	 0.293776262198388 
778	 0.29404368341701 
779	 0.294255895504954 
780	 0.294512654344108 
781	 0.294802841252626 
782	 0.295095413978625 
783	 0.295364402750833 
784	 0.295630947380269 
785	 0.295886308421636 
786	 0.296143111357575 
787	 0.296425652283309 
788	 0.296750823968797 
789	 0.297093990427896 
790	 0.297409487703477 
791	 0.297640595826623 
792	 0.297907850845852 
793	 0.298125578343473 
794	 0.298278851239936 
795	 0.298643376821438 
796	 0.298883980494567 
797	 0.299055846871636 
798	 0.299314380931339 
799	 0.299537894611957 
800	 0.299780890574727 
801	 0.30004527532982 
802	 0.300291344941439 
803	 0.300552946544236 
804	 0.300726857445762 
805	 0.300845298359768 
806	 0.301158278944492 
807	 0.301445792898883 
808	 0.301621616993121 
809	 0.301731605075977 
810	 0.302109900074008 
811	 0.302367005877516 
812	 0.302480395717489 
813	 0.302603739715054 
814	 0.302841499626124 
815	 0.302962318748571 
816	 0.303054958463601 
817	 0.30344870051486 
818	 0.303613131277963 
819	 0.303734231154769 
820	 0.303920209006608 
821	 0.30397032795001 
822	 0.304114751532716 
823	 0.304327625802834 
824	 0.304505163331093 
825	 0.304517697107259 
826	 0.304636502207206 
827	 0.304888131085605 
828	 0.305159214452784 
829	 0.305317431512923 
830	 0.305377220205082 
831	 0.305439791387146 
832	 0.305638220368127 
833	 0.305699170030314 
834	 0.305824042258782 
835	 0.306053725575112 
836	 0.306086002718933 
837	 0.306172603680182 
838	 0.306226635269343 
839	 0.306180988770283 
840	 0.306248143878856 
841	 0.306400543532867 
842	 0.306534216378144 
843	 0.306546212529931 
844	 0.306504200136792 
845	 0.306606664043419 
846	 0.306753622203148 
847	 0.30667637208469 
848	 0.306690698142881 
849	 0.306762712374457 
850	 0.306828305529815 
851	 0.306843967122023 
852	 0.306933454409721 
853	 0.306951369967406 
854	 0.306849516467239 
855	 0.306891230979105 
856	 0.307047604310913 
857	 0.307073109326026 
858	 0.306826651636238 
859	 0.306780779635943 
860	 0.306793774891952 
861	 0.306790920941235 
862	 0.306747001446515 
863	 0.306696280300771 
864	 0.306786336405242 
865	 0.306902775770767 
866	 0.306756675643948 
867	 0.306703457791336 
868	 0.306741678652895 
869	 0.306774488951273 
870	 0.306660024612867 
871	 0.306716950712977 
872	 0.306710075131673 
873	 0.306502005207337 
874	 0.306431729833164 
875	 0.306405438174538 
876	 0.306416301004492 
877	 0.306453914745785 
878	 0.306433454767459 
879	 0.306386269621876 
880	 0.306296165505043 
881	 0.306167290180194 
882	 0.306231672470855 
883	 0.306249362043976 
884	 0.306164701301865 
885	 0.306086596907232 
886	 0.30605398380236 
887	 0.305942130584128 
888	 0.305805724529351 
889	 0.305895951862436 
890	 0.305926913205622 
891	 0.305954124634462 
892	 0.305965474742065 
893	 0.305738232584829 
894	 0.305557597731728 
895	 0.305497538126656 
896	 0.305527869659742 
897	 0.305515113218621 
898	 0.305525300450119 
899	 0.305430957286266 
900	 0.305178069781308 
901	 0.305202340755431 
902	 0.305280982253637 
903	 0.305225547704354 
904	 0.304970255426856 
905	 0.304909320876953 
906	 0.304992481688965 
907	 0.304955815402417 
908	 0.304541729562525 
909	 0.304532723561686 
910	 0.304572727302396 
911	 0.304528264062179 
912	 0.304571788601094 
913	 0.304306487692529 
914	 0.304126582410064 
915	 0.304210903870418 
916	 0.304283239852468 
917	 0.304282232608286 
918	 0.304187065582223 
919	 0.304008587193804 
920	 0.303774605655037 
921	 0.303808913151948 
922	 0.303954171157414 
923	 0.30401873515104 
924	 0.304095627429214 
925	 0.303967497191115 
926	 0.303886155668461 
927	 0.304053390534155 
928	 0.303976632417377 
929	 0.303929102549978 
930	 0.303938689575254 
931	 0.303925844832225 
932	 0.303822802813541 
933	 0.303787214780548 
934	 0.303794405720436 
935	 0.303742705379295 
936	 0.30371434133453 
937	 0.303769679175772 
938	 0.303891316319362 
939	 0.304003665049789 
940	 0.30402141519896 
941	 0.304229225536567 
942	 0.304431598840308 
943	 0.30412559314818 
944	 0.304003010481324 
945	 0.304070849854258 
946	 0.304172841086988 
947	 0.304116660457208 
948	 0.304283334909447 
949	 0.304303068238515 
950	 0.30411322040542 
951	 0.304132319572621 
952	 0.304025293731142 
953	 0.303918839173815 
954	 0.303947195079497 
955	 0.304115510570557 
956	 0.303945980998465 
957	 0.303665987346942 
958	 0.303518983010082 
959	 0.30349125149451 
960	 0.303571849138649 
961	 0.303723558903648 
962	 0.303790646095923 
963	 0.303423593653395 
964	 0.303074245582399 
965	 0.303037724657298 
966	 0.303228127330679 
967	 0.302862538604374 
968	 0.302748494565495 
969	 0.30282866684898 
970	 0.302845746917567 
971	 0.302710267247468 
972	 0.302500955403165 
973	 0.30221800288734 
974	 0.301919635449513 
975	 0.301855102347648 
976	 0.302126031734192 
977	 0.302343763198012 
978	 0.302147669160045 
979	 0.30176091958857 
980	 0.301294464655301 
981	 0.301219069717465 
982	 0.30168767675214 
983	 0.301644380753153 
984	 0.300845023268667 
985	 0.300527146816905 
986	 0.301487274426317 
987	 0.301367313124263 
988	 0.300873118869765 
989	 0.300528199135163 
990	 0.300590660362722 
991	 0.300614033319681 
992	 0.300456140860845 
993	 0.300291445259614 
994	 0.30023199313109 
995	 0.299711242651372 
996	 0.299442743286131 
997	 0.299424892279354 
998	 0.299346416411567 
999	 0.298829208676922 
1000	 0.29868049410876 
1001	 0.300608025203656 
1002	 0.300587625583307 
1003	 0.300443254417417 
1004	 0.300349104081953 
1005	 0.300271482339527 
1006	 0.300173849551912 
1007	 0.300202154004283 
1008	 0.299951549575547 
1009	 0.299409947255624 
1010	 0.299184846798512 
1011	 0.299003775096346 
1012	 0.298746545480604 
1013	 0.298651739362146 
1014	 0.298515957676087 
1015	 0.29823772919182 
1016	 0.29793842273451 
1017	 0.298012261172604 
1018	 0.297962774295959 
1019	 0.297634790497068 
1020	 0.297399251745509 
1021	 0.297151905181753 
1022	 0.296751824777805 
1023	 0.296469625759067 
1024	 0.296381940216784 
1025	 0.296096107327083 
1026	 0.295627482858736 
1027	 0.29531848603231 
1028	 0.295037174703037 
1029	 0.294789873246333 
1030	 0.294435917007413 
1031	 0.294025759447827 
1032	 0.293649074987234 
1033	 0.293189356201755 
1034	 0.292761683700863 
1035	 0.292636220126394 
1036	 0.292397543791482 
1037	 0.292188163035995 
1038	 0.291782691801972 
1039	 0.291299810462867 
1040	 0.290690321775503 
1041	 0.289756087102349 
1042	 0.289254457928047 
1043	 0.288840909118075 
1044	 0.28866138686254 
1045	 0.288563316401418 
1046	 0.288177005592731 
1047	 0.287630227487406 
1048	 0.287065220281291 
1049	 0.286697422965602 
1050	 0.286246695307527 
1051	 0.285731940824465 
1052	 0.285387692759225 
1053	 0.284912843772114 
1054	 0.284305559848374 
1055	 0.283818976611764 
1056	 0.283275705988069 
1057	 0.282799610506913 
1058	 0.282349289296441 
1059	 0.28213049284806 
1060	 0.281829628576477 
1061	 0.281533447110817 
1062	 0.281143075819589 
1063	 0.280516977144111 
1064	 0.280010393940238 
1065	 0.279469328785702 
1066	 0.278924118963387 
1067	 0.278494542831132 
1068	 0.278030643845485 
1069	 0.277763394593492 
1070	 0.277506310099941 
1071	 0.277412658404755 
1072	 0.277260141569638 
1073	 0.27694722078828 
1074	 0.276391036724328 
1075	 0.275759745923143 
1076	 0.275092292969203 
1077	 0.274604753442454 
1078	 0.274323546183811 
1079	 0.274007408094029 
1080	 0.273623076760592 
1081	 0.273124622073672 
1082	 0.272495345047079 
1083	 0.27191215111713 
1084	 0.271431359738821 
1085	 0.271009065366239 
1086	 0.270544164834174 
1087	 0.27010585395686 
1088	 0.269522712286881 
1089	 0.269000746980049 
1090	 0.26848933234546 
1091	 0.267839970834521 
1092	 0.267411741851139 
1093	 0.266889659682242 
1094	 0.266126629253862 
1095	 0.265483284351564 
1096	 0.264861444551469 
1097	 0.264336305475864 
1098	 0.263786394943251 
1099	 0.263143361890715 
1100	 0.262584043150015 
1101	 0.261851288175347 
1102	 0.261128461628778 
1103	 0.260490242331023 
1104	 0.259959306074192 
1105	 0.259284016320536 
1106	 0.258632705452583 
1107	 0.257990359562762 
1108	 0.257284392108204 
1109	 0.256563694187517 
1110	 0.255805705675457 
1111	 0.255050764607804 
1112	 0.254362813329148 
1113	 0.253616920518554 
1114	 0.252880294496819 
1115	 0.252213615431828 
1116	 0.251437803152883 
1117	 0.250688374699828 
1118	 0.249899897881669 
1119	 0.249037236682226 
1120	 0.248233582571929 
1121	 0.247466199132097 
1122	 0.246628740472326 
1123	 0.245779357871123 
1124	 0.245069898342831 
1125	 0.2442623418724 
1126	 0.243348071282768 
1127	 0.242644776805396 
1128	 0.241843463474325 
1129	 0.240900810091387 
1130	 0.240127365133702 
1131	 0.239239074319702 
1132	 0.238313248403986 
1133	 0.237480361465948 
1134	 0.236643224859755 
1135	 0.235808913950029 
1136	 0.23496491053502 
1137	 0.234102968971699 
1138	 0.233293960600263 
1139	 0.232405798447895 
1140	 0.231443121601349 
1141	 0.230517899324329 
1142	 0.229600575477704 
1143	 0.22868558655913 
1144	 0.227803463823093 
1145	 0.226934463502492 
1146	 0.226045044300147 
1147	 0.225129395464568 
1148	 0.224267751817 
1149	 0.2234367180683 
1150	 0.222558190330681 
1151	 0.221697800071916 
1152	 0.220842926356995 
1153	 0.219961241126776 
1154	 0.219089239095482 
1155	 0.218195124544075 
1156	 0.21736997025458 
1157	 0.216627963036019 
1158	 0.215830677670833 
1159	 0.215061684845318 
1160	 0.214282013387399 
1161	 0.213417078267272 
1162	 0.21241293054316 
1163	 0.211524107579195 
1164	 0.210643924770434 
1165	 0.209739431661404 
1166	 0.208923651808465 
1167	 0.208088357777337 
1168	 0.207311808230071 
1169	 0.206487724147716 
1170	 0.205644733012677 
1171	 0.204845145644659 
1172	 0.204066516882818 
1173	 0.203228231943955 
1174	 0.202431351569094 
1175	 0.201605703613854 
1176	 0.200644012744032 
1177	 0.199783567458293 
1178	 0.198988138351969 
1179	 0.19818655639093 
1180	 0.197412656894484 
1181	 0.196685449040142 
1182	 0.195932744455358 
1183	 0.195168835590368 
1184	 0.194336011434407 
1185	 0.193516857301873 
1186	 0.192731434042231 
1187	 0.191945020781585 
1188	 0.191175536427808 
1189	 0.190443573784048 
1190	 0.189691409986718 
1191	 0.188922403619599 
1192	 0.188200495346286 
1193	 0.187506971769515 
1194	 0.18680875176964 
1195	 0.186131163600209 
1196	 0.185434446816668 
1197	 0.184724589612205 
1198	 0.184036152033218 
1199	 0.183290424862987 
1200	 0.18261041343915 
1201	 0.181913862243111 
1202	 0.181244585674398 
1203	 0.18064832261084 
1204	 0.179972870262236 
1205	 0.179352820767202 
1206	 0.178747930184477 
1207	 0.178155818663296 
1208	 0.177560832609983 
1209	 0.177032325513073 
1210	 0.17658582615884 
1211	 0.176059180339225 
1212	 0.175475355947643 
1213	 0.174996116468585 
1214	 0.174547887595616 
1215	 0.174067090643337 
1216	 0.173669705620853 
1217	 0.173253690667308 
1218	 0.172771353598894 
1219	 0.172305903954275 
1220	 0.171903942163067 
1221	 0.171460336759745 
1222	 0.171076704847454 
1223	 0.170634074283718 
1224	 0.170190803174219 
1225	 0.169735346867759 
1226	 0.169327293288728 
1227	 0.16891655576963 
1228	 0.168514768655913 
1229	 0.16817514480939 
1230	 0.167777277220802 
1231	 0.167324896825442 
1232	 0.166898240393636 
1233	 0.166482248004295 
1234	 0.166056327099009 
1235	 0.165628030109379 
1236	 0.165201465964033 
1237	 0.164753721942175 
1238	 0.164327014347057 
1239	 0.163923170445798 
1240	 0.163500359490193 
1241	 0.163096767572382 
1242	 0.162726518264669 
1243	 0.162380560221591 
1244	 0.162078876192616 
1245	 0.161731682533038 
1246	 0.161391740115887 
1247	 0.161047525070095 
1248	 0.160665448186966 
1249	 0.160322466336086 
1250	 0.1600005681389 
1251	 0.15969386457959 
1252	 0.159459761159145 
1253	 0.159106464739663 
1254	 0.158697685082438 
1255	 0.158309267670817 
1256	 0.15779585976425 
1257	 0.157399412932652 
1258	 0.157107960852316 
1259	 0.156786125315767 
1260	 0.156506132981905 
1261	 0.156199617323969 
1262	 0.155847318755716 
1263	 0.155535165787532 
1264	 0.155254045774122 
1265	 0.155011477098736 
1266	 0.154693326427279 
1267	 0.15436225040848 
1268	 0.154073164943187 
1269	 0.153735289768559 
1270	 0.153456815427587 
1271	 0.153262445787609 
1272	 0.15303250948282 
1273	 0.152787285317251 
1274	 0.152546157005589 
1275	 0.152312563495705 
1276	 0.152096153186233 
1277	 0.151854558690936 
1278	 0.151662792357431 
1279	 0.15152425690925 
1280	 0.151379109463955 
1281	 0.151244265772457 
1282	 0.151129528406809 
1283	 0.151050858113476 
1284	 0.150947154253702 
1285	 0.150840322710679 
1286	 0.150719686223235 
1287	 0.150673204041945 
1288	 0.150651822733639 
1289	 0.150601558486642 
1290	 0.150596537404441 
1291	 0.150576582914103 
1292	 0.150499946237772 
1293	 0.150480526561848 
1294	 0.150526031971553 
1295	 0.150536523158306 
1296	 0.150520075549123 
1297	 0.150540623880553 
1298	 0.150560871791836 
1299	 0.150623545772594 
1300	 0.150756473808624 
1301	 0.150831963003941 
1302	 0.150889247219197 
1303	 0.150974670473194 
1304	 0.151033943807759 
1305	 0.151115436322921 
1306	 0.151268627813289 
1307	 0.15137363842293 
1308	 0.151474152625663 
1309	 0.151510416599076 
1310	 0.151602470065597 
1311	 0.151677953164143 
1312	 0.151800036799798 
1313	 0.151957997423378 
1314	 0.152116348002174 
1315	 0.152313731480866 
1316	 0.152452624709146 
1317	 0.152590469753129 
1318	 0.152697153346698 
1319	 0.1527455815179 
1320	 0.152827699053157 
1321	 0.152886522454737 
1322	 0.152998350475747 
1323	 0.153135783858716 
1324	 0.153286032611303 
1325	 0.153533457021975 
1326	 0.153664822096453 
1327	 0.153711908366701 
1328	 0.153812640794057 
1329	 0.153882635703398 
1330	 0.153957523833568 
1331	 0.154072260139479 
1332	 0.154180083771538 
1333	 0.154242477355263 
1334	 0.154328969403406 
1335	 0.154474571241722 
1336	 0.154686282826284 
1337	 0.154824505479862 
1338	 0.154976893289307 
1339	 0.15509984388603 
1340	 0.155161892839135 
1341	 0.155279612803115 
1342	 0.15543126347481 
1343	 0.155553597447877 
1344	 0.155674890379465 
1345	 0.155791045406935 
1346	 0.15589170034563 
1347	 0.156000258983177 
1348	 0.156107749194959 
1349	 0.156222031081152 
1350	 0.156354000940586 
1351	 0.156458270295989 
1352	 0.156552496381533 
1353	 0.156650338677908 
1354	 0.156718899811613 
1355	 0.156809570682034 
1356	 0.156923776432321 
1357	 0.157028214401832 
1358	 0.157133419531844 
1359	 0.157241656218942 
1360	 0.157355525408071 
1361	 0.157457443235614 
1362	 0.15757449784173 
1363	 0.157660945847506 
1364	 0.157730875903604 
1365	 0.157769992844784 
1366	 0.157842352467511 
1367	 0.15790188054697 
1368	 0.157990420379988 
1369	 0.158136421484225 
1370	 0.158196376280194 
1371	 0.158220505400512 
1372	 0.158259223857416 
1373	 0.158250071950112 
1374	 0.158281757865334 
1375	 0.158355445094527 
1376	 0.158395979861368 
1377	 0.15844262769807 
1378	 0.158453530790766 
1379	 0.158435009117348 
1380	 0.158421716405413 
1381	 0.158378354670028 
1382	 0.158355568877779 
1383	 0.158382371244784 
1384	 0.158334106546567 
1385	 0.158222580404804 
1386	 0.158151313953067 
1387	 0.158034662046633 
1388	 0.15796345105525 
1389	 0.157964997878461 
1390	 0.157938767468846 
1391	 0.157899652170764 
1392	 0.15787838215661 
1393	 0.157841164763586 
1394	 0.157803401761034 
1395	 0.157763794406624 
1396	 0.157721862085907 
1397	 0.157681117871 
1398	 0.157649333642738 
1399	 0.157585025012726 
1400	 0.157521154499665 
1401	 0.157417048555288 
1402	 0.157293410141464 
1403	 0.157130161626737 
1404	 0.156912306621357 
1405	 0.156725117236106 
1406	 0.156518825093457 
1407	 0.156308676864025 
1408	 0.156130776607568 
1409	 0.155903183109245 
1410	 0.15562913467522 
1411	 0.155369915042009 
1412	 0.155073945924142 
1413	 0.154822173983251 
1414	 0.154601238392058 
1415	 0.154363245727008 
1416	 0.154141166139598 
1417	 0.153915677844489 
1418	 0.153666431301017 
1419	 0.153438875674397 
1420	 0.15323886242648 
1421	 0.153021899630858 
1422	 0.152799071325347 
1423	 0.152582538905926 
1424	 0.152365009338395 
1425	 0.152152369163249 
1426	 0.151897699534147 
1427	 0.151650093284508 
1428	 0.151421602967849 
1429	 0.151205449599661 
1430	 0.150992910457536 
1431	 0.15082431308623 
1432	 0.150618665191997 
1433	 0.150393584930393 
1434	 0.150155502659049 
1435	 0.149919005096906 
1436	 0.149663530427344 
1437	 0.149359523216739 
1438	 0.149116472520047 
1439	 0.148905247336983 
1440	 0.14866425291545 
1441	 0.148451897463134 
1442	 0.148192393457038 
1443	 0.147862227820221 
1444	 0.147602918548892 
1445	 0.147333287411483 
1446	 0.14713080604964 
1447	 0.146987200617791 
1448	 0.146855916808442 
1449	 0.146761843019187 
1450	 0.1466828795176 
1451	 0.146621274881486 
1452	 0.14658930222598 
1453	 0.146602492672429 
1454	 0.146604227201171 
1455	 0.146637201660146 
1456	 0.146643422363845 
1457	 0.146652017827621 
1458	 0.146631353176488 
1459	 0.146565598258606 
1460	 0.146527562058554 
1461	 0.146472273502582 
1462	 0.146434473730172 
1463	 0.146437822917598 
1464	 0.146421192899869 
1465	 0.146384534620103 
1466	 0.14637424248139 
1467	 0.14635728684523 
1468	 0.146330703323844 
1469	 0.146297495687482 
1470	 0.146246986292033 
1471	 0.146211151040146 
1472	 0.146166192759972 
1473	 0.146121040190789 
1474	 0.146085509161215 
1475	 0.14604713433054 
1476	 0.145999840440682 
1477	 0.145947733160735 
1478	 0.145912474214366 
1479	 0.145845136705819 
1480	 0.145745367402305 
1481	 0.145662676407565 
1482	 0.145566417462031 
1483	 0.14549534828938 
1484	 0.145452203826962 
1485	 0.145373173140614 
1486	 0.145277010045448 
1487	 0.145210335772601 
1488	 0.145148221161792 
1489	 0.145064000768133 
1490	 0.144967959638009 
1491	 0.144922948289673 
1492	 0.144880338365693 
1493	 0.144838270420387 
1494	 0.144853386049674 
1495	 0.144844112937997 
1496	 0.144780320040806 
1497	 0.144771315236294 
1498	 0.144817945198722 
1499	 0.144835643849887 
1500	 0.144860835763259 
1501	 0.144875296322642 
1502	 0.144870526305522 
1503	 0.144877277819228 
1504	 0.144880973206752 
1505	 0.144895728110386 
1506	 0.144924337651894 
1507	 0.144947849337693 
1508	 0.144962664228417 
1509	 0.144997756067695 
1510	 0.145052946516402 
1511	 0.145091575948803 
1512	 0.145156537991325 
1513	 0.145188119107594 
1514	 0.145179902047346 
1515	 0.145180928674504 
1516	 0.145135480238002 
1517	 0.145144493621239 
1518	 0.145220120314013 
1519	 0.145250335045615 
1520	 0.145259378956061 
1521	 0.145324164741851 
1522	 0.145337336395787 
1523	 0.145319106292422 
1524	 0.14532720990739 
1525	 0.145356310904474 
1526	 0.145365708364084 
1527	 0.145362357157554 
1528	 0.145368315626781 
1529	 0.145370041909768 
1530	 0.14539720669567 
1531	 0.145434960557678 
1532	 0.145473476489501 
1533	 0.145542422308916 
1534	 0.145567283933193 
1535	 0.14555636550934 
1536	 0.14559388115622 
1537	 0.145617124897423 
1538	 0.145696312811511 
1539	 0.145835272888342 
1540	 0.145944796790086 
1541	 0.146070412079509 
1542	 0.146184064767466 
1543	 0.146290368576051 
1544	 0.146398976721097 
1545	 0.146496476501196 
1546	 0.146624397880171 
1547	 0.146771028171662 
1548	 0.146901095995758 
1549	 0.147021260342229 
1550	 0.147194383520355 
1551	 0.147389697139203 
1552	 0.14756798106657 
1553	 0.147784111201366 
1554	 0.147986305740824 
1555	 0.148166048906235 
1556	 0.148340833603427 
1557	 0.148525247742995 
1558	 0.148713309434758 
1559	 0.14887284783555 
1560	 0.149056281361051 
1561	 0.149274817106998 
1562	 0.149476135914697 
1563	 0.149663555290635 
1564	 0.149862624409204 
1565	 0.150076945384644 
1566	 0.150276536841343 
1567	 0.150457593057943 
1568	 0.150666474308752 
1569	 0.150887660089828 
1570	 0.151102717454798 
1571	 0.151323947922411 
1572	 0.151560245243289 
1573	 0.151816644452341 
1574	 0.152036015615902 
1575	 0.152254001337811 
1576	 0.152468420125744 
1577	 0.152625008385822 
1578	 0.152838401485859 
1579	 0.153107250778029 
1580	 0.153341939892469 
1581	 0.153578604950127 
1582	 0.153812243370932 
1583	 0.154035427815678 
1584	 0.154251769910167 
1585	 0.154464513227006 
1586	 0.154684263344346 
1587	 0.154893251085227 
1588	 0.155107771018609 
1589	 0.155328616873036 
1590	 0.155557163322494 
1591	 0.155785781966744 
1592	 0.156020842999806 
1593	 0.156282707610986 
1594	 0.156522811861459 
1595	 0.156713054699411 
1596	 0.1569707228273 
1597	 0.157275485965018 
1598	 0.157551009868455 
1599	 0.157870579756167 
1600	 0.158161292732849 
1601	 0.158409408707151 
1602	 0.158663692082212 
1603	 0.158924187477383 
1604	 0.159172142306161 
1605	 0.15940759181693 
1606	 0.159631386191667 
1607	 0.15985162034086 
1608	 0.160056776667706 
1609	 0.160229388189935 
1610	 0.160426165493586 
1611	 0.160603352735731 
1612	 0.160823709966168 
1613	 0.161087167143755 
1614	 0.161336935056798 
1615	 0.161666550410303 
1616	 0.161889475727699 
1617	 0.162004335236807 
1618	 0.162188078045711 
1619	 0.162340611379995 
1620	 0.162508063005923 
1621	 0.162734172457912 
1622	 0.162946902344725 
1623	 0.163155759420679 
1624	 0.163333979760358 
1625	 0.163519212049905 
1626	 0.16368654380633 
1627	 0.163790169347664 
1628	 0.16392401805679 
1629	 0.164085874910877 
1630	 0.164226035447399 
1631	 0.164342265069236 
1632	 0.164495333418662 
1633	 0.164639831331774 
1634	 0.164819317963828 
1635	 0.165090069791087 
1636	 0.165273078181071 
1637	 0.165435712353788 
1638	 0.165570389700536 
1639	 0.165605149938427 
1640	 0.165709431328306 
1641	 0.165849651293318 
1642	 0.165983169129061 
1643	 0.166157554430602 
1644	 0.166283260856141 
1645	 0.1663771159027 
1646	 0.166470531851809 
1647	 0.166541264119377 
1648	 0.16661112469809 
1649	 0.166665281949935 
1650	 0.166738630165163 
1651	 0.16684458942109 
1652	 0.166912221837632 
1653	 0.16697385043791 
1654	 0.16701630370744 
1655	 0.167009876106228 
1656	 0.167001842425988 
1657	 0.16700043162592 
1658	 0.166997285701245 
1659	 0.166980044459462 
1660	 0.166948304261723 
1661	 0.166926911526586 
1662	 0.166859468133521 
1663	 0.166739165849409 
1664	 0.166658028376252 
1665	 0.166586983791508 
1666	 0.16647897529609 
1667	 0.166394664665933 
1668	 0.166244299338946 
1669	 0.166027385891185 
1670	 0.16581391736031 
1671	 0.165586659977198 
1672	 0.165321057867423 
1673	 0.165026909512806 
1674	 0.164718790877277 
1675	 0.16436628456053 
1676	 0.164010055785123 
1677	 0.163681426796204 
1678	 0.163266343597327 
1679	 0.162764003641624 
1680	 0.162317702291684 
1681	 0.161871408000394 
1682	 0.161366509465542 
1683	 0.160868326543112 
1684	 0.160353850618143 
1685	 0.159751258947498 
1686	 0.15920642753415 
1687	 0.158725843085563 
1688	 0.158170336682397 
1689	 0.157607771275523 
1690	 0.156972955247871 
1691	 0.156256080049969 
1692	 0.155588018165196 
1693	 0.154913367379277 
1694	 0.154193477035308 
1695	 0.153482710913458 
1696	 0.152730231411367 
1697	 0.151870996310713 
1698	 0.151110489761347 
1699	 0.150419364969935 
1700	 0.149665022631252 
1701	 0.148925156048373 
1702	 0.148151881351346 
1703	 0.147282421886818 
1704	 0.146524376065104 
1705	 0.145797430301013 
1706	 0.145117332416907 
1707	 0.144519450482237 
1708	 0.143924717206388 
1709	 0.143382138336137 
1710	 0.142896437834142 
1711	 0.14244537661347 
1712	 0.142066227325792 
1713	 0.141655185369359 
1714	 0.141238159699268 
1715	 0.140862886424984 
1716	 0.140446635536055 
1717	 0.140061094119809 
1718	 0.139732803490803 
1719	 0.139414245904817 
1720	 0.139158287966867 
1721	 0.138927002246617 
1722	 0.138664175801983 
1723	 0.138405679313826 
1724	 0.138191903461121 
1725	 0.137987594723063 
1726	 0.137839405063851 
1727	 0.137836393770124 
1728	 0.13783763337929 
1729	 0.137961637101979 
1730	 0.138219380741664 
1731	 0.138396513826271 
1732	 0.138646250751578 
1733	 0.138903284385051 
1734	 0.139128601715235 
1735	 0.139478171163676 
1736	 0.139860894602264 
1737	 0.140165379648651 
1738	 0.140393945316453 
1739	 0.140586105852832 
1740	 0.140675435098991 
1741	 0.140763887865465 
1742	 0.140868423088845 
1743	 0.14089850610593 
1744	 0.140874378879577 
1745	 0.140835194922925 
1746	 0.140715903636353 
1747	 0.140656377841115 
1748	 0.140574153121299 
1749	 0.140504286346963 
1750	 0.140507300905249 
1751	 0.140468181592571 
1752	 0.140362802577466 
1753	 0.14037567461516 
1754	 0.140405607435001 
1755	 0.140451142122274 
1756	 0.140579798859732 
1757	 0.14066451598555 
1758	 0.140844584470253 
1759	 0.141177611089747 
1760	 0.141516990581951 
1761	 0.141848850612966 
1762	 0.142154559328203 
1763	 0.142421396344599 
1764	 0.142785234920272 
1765	 0.14321654426057 
1766	 0.143730725585954 
1767	 0.144286434544366 
1768	 0.144720387133351 
1769	 0.14515562387022 
1770	 0.145681704278211 
1771	 0.146213792108385 
1772	 0.146697125568311 
1773	 0.147229935434411 
1774	 0.147747968373054 
1775	 0.148122832460655 
1776	 0.148588121022202 
1777	 0.149022693146602 
1778	 0.149325068315312 
1779	 0.149707733309161 
1780	 0.150027987746033 
1781	 0.150328421667594 
1782	 0.150620117846102 
1783	 0.150874393753337 
1784	 0.151175343920371 
1785	 0.151395941692652 
1786	 0.151650851352424 
1787	 0.151927810765458 
1788	 0.152196048786341 
1789	 0.152490896181887 
1790	 0.152716695673367 
1791	 0.152870453654258 
1792	 0.153066300639203 
1793	 0.153229623566823 
1794	 0.15347750787948 
1795	 0.153739987167932 
1796	 0.153912162896403 
1797	 0.154182584611889 
1798	 0.154482426358386 
1799	 0.154659677963689 
1800	 0.154880146155442 
1801	 0.157983615988644 
1802	 0.158263396555237 
1803	 0.158521097627921 
1804	 0.158777479482688 
1805	 0.159026320358215 
1806	 0.159267941871611 
1807	 0.159468230532392 
1808	 0.159707278973654 
1809	 0.159955796859055 
1810	 0.160226468575709 
1811	 0.160520267336106 
1812	 0.160804075625828 
1813	 0.161060834138207 
1814	 0.161409243562418 
1815	 0.161722106394771 
1816	 0.162080644718533 
1817	 0.162428425072779 
1818	 0.162816068844381 
1819	 0.163139184445035 
1820	 0.16338268918134 
1821	 0.16372196532281 
1822	 0.164067672505604 
1823	 0.164486048213904 
1824	 0.164895547668273 
1825	 0.16530654961602 
1826	 0.165669515771329 
1827	 0.16597218339253 
1828	 0.166295096718946 
1829	 0.166566632886817 
1830	 0.166934549360331 
1831	 0.167341806055189 
1832	 0.167749315202289 
1833	 0.168207676178124 
1834	 0.168694806094237 
1835	 0.169131880406941 
1836	 0.169477387741329 
1837	 0.169860048014409 
1838	 0.170230609851066 
1839	 0.170610764806863 
1840	 0.171012286937274 
1841	 0.171390929503941 
1842	 0.17174964275775 
1843	 0.172104876618644 
1844	 0.172499208281913 
1845	 0.172884569263852 
1846	 0.173333722495599 
1847	 0.173768494970359 
1848	 0.174183683968337 
1849	 0.174599238677329 
1850	 0.174990128970739 
1851	 0.175379779467674 
1852	 0.175710325226958 
1853	 0.176005931256171 
1854	 0.176354876821661 
1855	 0.17668947150058 
1856	 0.176972121027259 
1857	 0.177333020359621 
1858	 0.177663136765289 
1859	 0.177960294860555 
1860	 0.178239345716241 
1861	 0.178553303018363 
1862	 0.178891859995658 
1863	 0.179116227308865 
1864	 0.179366149969591 
1865	 0.179648511320801 
1866	 0.179891604241204 
1867	 0.180121540341415 
1868	 0.180349436029086 
1869	 0.180576420240432 
1870	 0.180754270601991 
1871	 0.180887032207731 
1872	 0.18098798778553 
1873	 0.181071190427873 
1874	 0.181104992771284 
1875	 0.181083492898361 
1876	 0.181003624989385 
1877	 0.18092472841357 
1878	 0.180848175456458 
1879	 0.180728401773729 
1880	 0.180586991422228 
1881	 0.180404793150641 
1882	 0.180199249872609 
1883	 0.179933630074828 
1884	 0.179623990153957 
1885	 0.179275916158014 
1886	 0.178901842113392 
1887	 0.178414538382538 
1888	 0.177786874474458 
1889	 0.177189731869595 
1890	 0.176573924566736 
1891	 0.17588796399751 
1892	 0.175156151823302 
1893	 0.174400409967511 
1894	 0.173576392342931 
1895	 0.172772896486947 
1896	 0.172009457386729 
1897	 0.171241359762567 
1898	 0.170519476730214 
1899	 0.169788915696508 
1900	 0.169005459939195 
1901	 0.168262762757367 
1902	 0.167578050505855 
1903	 0.16694726042961 
1904	 0.166384291925461 
1905	 0.165872188391699 
1906	 0.16546067135982 
1907	 0.165105796987131 
1908	 0.164775036966839 
1909	 0.164464150327372 
1910	 0.164184693452949 
1911	 0.16401803218601 
1912	 0.16390290974241 
1913	 0.163804588086906 
1914	 0.163761447719698 
1915	 0.163712932126103 
1916	 0.163662917699367 
1917	 0.163617318032097 
1918	 0.163623862732228 
1919	 0.163644355561513 
1920	 0.16367392119155 
1921	 0.163725074089404 
1922	 0.16381624992178 
1923	 0.163912175427166 
1924	 0.163955290654627 
1925	 0.16404455292688 
1926	 0.164142057579354 
1927	 0.164207111943166 
1928	 0.164301586423784 
1929	 0.164453498237815 
1930	 0.164565771197555 
1931	 0.164672242117587 
1932	 0.164827804073258 
1933	 0.164995081761428 
1934	 0.165221328780952 
1935	 0.165505174158584 
1936	 0.165811451375171 
1937	 0.166144977026979 
1938	 0.166540327793646 
1939	 0.166926764239677 
1940	 0.167305823257909 
1941	 0.167747003168839 
1942	 0.168220578993419 
1943	 0.168692997495351 
1944	 0.169134142268008 
1945	 0.169612147738488 
1946	 0.170182691907937 
1947	 0.17077702576564 
1948	 0.171397645747631 
1949	 0.172042779439623 
1950	 0.17269329953758 
1951	 0.17328497154779 
1952	 0.173945869582557 
1953	 0.174620309950762 
1954	 0.17542843747925 
1955	 0.176310035793477 
1956	 0.177150549795938 
1957	 0.178036997554151 
1958	 0.178903582091406 
1959	 0.179558451530114 
1960	 0.180252184229395 
1961	 0.180973826540571 
1962	 0.181680403851421 
1963	 0.182383523774728 
1964	 0.183154431569589 
1965	 0.183835971762053 
1966	 0.184487770537474 
1967	 0.185098173664883 
1968	 0.185626656007846 
1969	 0.1862001290516 
1970	 0.186735941791623 
1971	 0.187246558842384 
1972	 0.187896843921153 
1973	 0.188570162854378 
1974	 0.189203682475645 
1975	 0.189887824795495 
1976	 0.190545475499686 
1977	 0.191124701027631 
1978	 0.191746569040368 
1979	 0.192404769536815 
1980	 0.193067742141812 
1981	 0.193677230347809 
1982	 0.194260525357743 
1983	 0.194912216343307 
1984	 0.19556615223763 
1985	 0.196194950708552 
1986	 0.196923053338245 
1987	 0.197624172743292 
1988	 0.198239614388264 
1989	 0.198992583740184 
1990	 0.199880959289798 
1991	 0.20068373017301 
1992	 0.201469387613724 
1993	 0.202382575115135 
1994	 0.203175348684433 
1995	 0.203895728504616 
1996	 0.204717257665188 
1997	 0.205494227449594 
1998	 0.206304646639779 
1999	 0.207134802774607 
2000	 0.207975249979561 
2001	 0.208871479575953 
2002	 0.209674568488483 
2003	 0.210479021344505 
2004	 0.211234712748619 
2005	 0.211868319023432 
2006	 0.21255408022447 
2007	 0.213291683030069 
2008	 0.213916956777138 
2009	 0.214543024069879 
2010	 0.215243240032407 
2011	 0.215764415339313 
2012	 0.216227499597848 
2013	 0.216716711036001 
2014	 0.21714057449496 
2015	 0.217596715447441 
2016	 0.218094591190105 
2017	 0.218550044726487 
2018	 0.219011180778599 
2019	 0.219412782674965 
2020	 0.219769546508865 
2021	 0.220141777004938 
2022	 0.220425476754468 
2023	 0.22060822466851 
2024	 0.220848586832349 
2025	 0.221064854100545 
2026	 0.221263563480418 
2027	 0.22146352934025 
2028	 0.221660780330912 
2029	 0.221822596720313 
2030	 0.221997352739485 
2031	 0.222215373968972 
2032	 0.222365748668384 
2033	 0.222452247196927 
2034	 0.22256379437417 
2035	 0.222620354716086 
2036	 0.222759203753544 
2037	 0.222908812337433 
2038	 0.223076801152841 
2039	 0.223178730250204 
2040	 0.223225193126157 
2041	 0.223322460065877 
2042	 0.223410561176688 
2043	 0.223499045013201 
2044	 0.223641409055376 
2045	 0.223745271055134 
2046	 0.223778777063571 
2047	 0.223861416696254 
2048	 0.223974097011376 
2049	 0.224089287512522 
2050	 0.224245080149315 
2051	 0.224358344971477 
2052	 0.224476228675363 
2053	 0.224498254057166 
2054	 0.224560476385053 
2055	 0.224579325003603 
2056	 0.224679356144075 
2057	 0.224803059068868 
2058	 0.224948742001423 
2059	 0.225160732420567 
2060	 0.225325781442262 
2061	 0.225498646060443 
2062	 0.225671515377466 
2063	 0.225839730700034 
2064	 0.225972185225462 
2065	 0.226088826333569 
2066	 0.226192977086578 
2067	 0.226269700604561 
2068	 0.226398323649918 
2069	 0.226530367609378 
2070	 0.226693644223533 
2071	 0.226846967884579 
2072	 0.227016634094757 
2073	 0.227156730983776 
2074	 0.22729470240774 
2075	 0.227418003311008 
2076	 0.227503281622722 
2077	 0.22761303487 
2078	 0.227726681691514 
2079	 0.227845866099809 
2080	 0.228006044224367 
2081	 0.22811798965204 
2082	 0.228190115161651 
2083	 0.228285204181143 
2084	 0.22836908325118 
2085	 0.228399609878561 
2086	 0.228506407814136 
2087	 0.228696011435046 
2088	 0.228779372235225 
2089	 0.22887120123338 
2090	 0.228912320599398 
2091	 0.228800112281828 
2092	 0.228828184593415 
2093	 0.228906600522292 
2094	 0.22898679386287 
2095	 0.229172954798972 
2096	 0.22929219583964 
2097	 0.229400486668135 
2098	 0.229448816889903 
2099	 0.229525673943739 
2100	 0.229541439615697 
2101	 0.22956027782065 
2102	 0.229565610623914 
2103	 0.22957721042215 
2104	 0.229603753067292 
2105	 0.229541912633474 
2106	 0.229414988148501 
2107	 0.229346993025514 
2108	 0.229236698464583 
2109	 0.229148713391607 
2110	 0.229152737330085 
2111	 0.229073479380768 
2112	 0.228878147549794 
2113	 0.228772051160896 
2114	 0.228755990792109 
2115	 0.228639504935625 
2116	 0.228509671400929 
2117	 0.228364392495655 
2118	 0.228181393426612 
2119	 0.227883902241809 
2120	 0.227704838616531 
2121	 0.227574750857094 
2122	 0.22742858680743 
2123	 0.227306928894121 
2124	 0.227166585158232 
2125	 0.227034862528422 
2126	 0.226876661586617 
2127	 0.226657394245032 
2128	 0.226533958791608 
2129	 0.226420320709728 
2130	 0.226347018910007 
2131	 0.226375051156232 
2132	 0.226374284177389 
2133	 0.226396043529716 
2134	 0.226384505737464 
2135	 0.22635701530262 
2136	 0.226357070497418 
2137	 0.226362928511838 
2138	 0.226347412258998 
2139	 0.226391219904244 
2140	 0.22647736289069 
2141	 0.226549919865108 
2142	 0.226640684621101 
2143	 0.2267445949592 
2144	 0.226871384564419 
2145	 0.226986869215254 
2146	 0.227124411128873 
2147	 0.227228827823409 
2148	 0.227275944665563 
2149	 0.227375793672502 
2150	 0.227451541034787 
2151	 0.227603907287083 
2152	 0.227786533757448 
2153	 0.228072941761556 
2154	 0.22839094628565 
2155	 0.228666371944155 
2156	 0.228893768466146 
2157	 0.229087174853116 
2158	 0.229309358979542 
2159	 0.229512921653675 
2160	 0.229684436927309 
2161	 0.229849185580618 
2162	 0.230019692055119 
2163	 0.230175628474975 
2164	 0.230294723818209 
2165	 0.230451986637398 
2166	 0.230536653644725 
2167	 0.230468995914489 
2168	 0.230510715628923 
2169	 0.230583897500337 
2170	 0.230663811868398 
2171	 0.230827809617982 
2172	 0.230927076871998 
2173	 0.230993179728168 
2174	 0.231039499800288 
2175	 0.231097302959788 
2176	 0.231227212709361 
2177	 0.231330845257448 
2178	 0.231484577987067 
2179	 0.231580699535614 
2180	 0.231633762082633 
2181	 0.23171906863304 
2182	 0.231821847226704 
2183	 0.231887638649795 
2184	 0.231971032674474 
2185	 0.231982219269379 
2186	 0.23190366934044 
2187	 0.231900044963613 
2188	 0.231913495845912 
2189	 0.231879967407031 
2190	 0.231842798348996 
2191	 0.231822895291521 
2192	 0.231736300341005 
2193	 0.231714522018045 
2194	 0.231809989141138 
2195	 0.231821751096931 
2196	 0.231817956515626 
2197	 0.231794599009172 
2198	 0.231685674815713 
2199	 0.231541970708917 
2200	 0.23142090873483 
2201	 0.231284478586329 
2202	 0.231136937207294 
2203	 0.230981230198534 
2204	 0.230841407239507 
2205	 0.230677225851053 
2206	 0.230542686681184 
2207	 0.230503544681461 
2208	 0.230301323851702 
2209	 0.229980775020915 
2210	 0.22975253298897 
2211	 0.229437744868632 
2212	 0.229237094752786 
2213	 0.229179397697676 
2214	 0.229062413155491 
2215	 0.228927429017945 
2216	 0.228827047808167 
2217	 0.228797755239587 
2218	 0.228674278016259 
2219	 0.228517529842902 
2220	 0.228356718584395 
2221	 0.22813430614049 
2222	 0.227926752426689 
2223	 0.227677838341518 
2224	 0.227413844704517 
2225	 0.227061526875599 
2226	 0.226654497219377 
2227	 0.22626848785998 
2228	 0.225898211147526 
2229	 0.225443356136442 
2230	 0.224941080440359 
2231	 0.224433896119702 
2232	 0.223870281688112 
2233	 0.223289597675299 
2234	 0.222778112159607 
2235	 0.222065992603758 
2236	 0.221298308001002 
2237	 0.220345292172485 
2238	 0.219164875395964 
2239	 0.218007249115915 
2240	 0.216737051502104 
2241	 0.215428191943263 
2242	 0.214123361586664 
2243	 0.212691045138631 
2244	 0.211175319756326 
2245	 0.209534672531648 
2246	 0.207704198831573 
2247	 0.20592277407156 
2248	 0.204103042164635 
2249	 0.202186923677419 
2250	 0.200273267623334 
2251	 0.198240637960584 
2252	 0.196105218010189 
2253	 0.194049248684467 
2254	 0.191908947228759 
2255	 0.189862457021944 
2256	 0.187879990929959 
2257	 0.185765660337039 
2258	 0.183810820496237 
2259	 0.181984330208456 
2260	 0.180120070672575 
2261	 0.178259610255297 
2262	 0.176499420908041 
2263	 0.174793914831112 
2264	 0.173121570568408 
2265	 0.171544948153386 
2266	 0.16991386987911 
2267	 0.168331837241592 
2268	 0.166665995428684 
2269	 0.164932162888078 
2270	 0.163286401398952 
2271	 0.161518673034248 
2272	 0.159980218138597 
2273	 0.158653902736849 
2274	 0.157264809450259 
2275	 0.156022051830879 
2276	 0.154673628273028 
2277	 0.153355037602143 
2278	 0.151860828854973 
2279	 0.150180050567705 
2280	 0.148599319791439 
2281	 0.146894320665704 
2282	 0.145240615452569 
2283	 0.143705756423458 
2284	 0.142135490050598 
2285	 0.140443268424573 
2286	 0.138791663442726 
2287	 0.137103503048601 
2288	 0.135404352603309 
2289	 0.133613747246512 
2290	 0.131906911194399 
2291	 0.130208122888854 
2292	 0.128407385068599 
2293	 0.126655990785653 
2294	 0.124869006861429 
2295	 0.123108507405085 
2296	 0.121488749806161 
2297	 0.120155268686635 
2298	 0.119020936053269 
2299	 0.118156280520556 
2300	 0.117652135829362 
2301	 0.117160095812762 
2302	 0.116778457720158 
2303	 0.116715113452121 
2304	 0.116836921439499 
2305	 0.117138333965932 
2306	 0.117850700288564 
2307	 0.11851719328932 
2308	 0.11912597043757 
2309	 0.120165117303108 
2310	 0.121523205482479 
2311	 0.122863798881316 
2312	 0.124532813109279 
2313	 0.126079809248224 
2314	 0.127575263551316 
2315	 0.129197766407638 
2316	 0.131054683475117 
2317	 0.132654602698519 
2318	 0.134239406565654 
2319	 0.135572209511909 
2320	 0.13674081802213 
2321	 0.137718805947709 
2322	 0.138475128445246 
2323	 0.139185309970477 
2324	 0.139709191922173 
2325	 0.140115409323606 
2326	 0.14048228388055 
2327	 0.140625863456863 
2328	 0.140549159724981 
2329	 0.140374612892873 
2330	 0.14010609628928 
2331	 0.139519497693845 
2332	 0.138763881201337 
2333	 0.138047925737916 
2334	 0.137098443121535 
2335	 0.136178040106614 
2336	 0.135347751906085 
2337	 0.134178019422899 
2338	 0.133097346888788 
2339	 0.132004067129256 
2340	 0.13074733545075 
2341	 0.129548359561889 
2342	 0.128243039089318 
2343	 0.127181806921018 
2344	 0.126456361246059 
2345	 0.125973778543134 
2346	 0.125927907825958 
2347	 0.12592833300075 
2348	 0.125965621789465 
2349	 0.12656836638307 
2350	 0.127314496564077 
2351	 0.128269453082151 
2352	 0.129564025567535 
2353	 0.130798785424515 
2354	 0.131998383752515 
2355	 0.133120264840304 
2356	 0.134109183549432 
2357	 0.135005949049356 
2358	 0.135804607059003 
2359	 0.136516372291454 
2360	 0.136993815602271 
2361	 0.137239408493792 
2362	 0.137576038442403 
2363	 0.137817397094497 
2364	 0.137747280939775 
2365	 0.137676248579395 
2366	 0.137638265008674 
2367	 0.137312858702833 
2368	 0.137169969322531 
2369	 0.13750474468859 
2370	 0.137601147674103 
2371	 0.137591044105653 
2372	 0.137688299176541 
2373	 0.137433828826065 
2374	 0.137197737924146 
2375	 0.137254114329071 
2376	 0.137238981016687 
2377	 0.137311194869467 
2378	 0.137536696853978 
2379	 0.137569068882454 
2380	 0.137626001478769 
2381	 0.137630679578304 
2382	 0.137636068341748 
2383	 0.137523521568585 
2384	 0.137541626622922 
2385	 0.137666403801502 
2386	 0.137820748897987 
2387	 0.137947992341547 
2388	 0.138167146421313 
2389	 0.13856471935054 
2390	 0.138860314115632 
2391	 0.139160581568718 
2392	 0.139230400979378 
2393	 0.13910177781398 
2394	 0.138959461150681 
2395	 0.138610568880876 
2396	 0.138661656524131 
2397	 0.139056014866722 
2398	 0.139142085174866 
2399	 0.13921832323285 
2400	 0.139292286085902 
2401	 0.139105296854392 
2402	 0.139129365575318 
2403	 0.139341834446172 
2404	 0.139335690851343 
2405	 0.139439905724746 
2406	 0.139675811976418 
2407	 0.139658629596464 
2408	 0.139513064955896 
2409	 0.139517494157471 
2410	 0.139727842116002 
2411	 0.140001931274836 
2412	 0.140405286626121 
2413	 0.140273459012243 
2414	 0.139980042274348 
2415	 0.139969718477078 
2416	 0.139704108411 
2417	 0.139955272472014 
2418	 0.140529103244778 
2419	 0.140624953035472 
2420	 0.140680376109977 
2421	 0.140598427451084 
2422	 0.140598334990755 
2423	 0.140407313738528 
2424	 0.139704874487712 
2425	 0.139765630212262 
2426	 0.139838628655926 
2427	 0.139600310635349 
2428	 0.140068300623439 
2429	 0.140098620666996 
2430	 0.139572228066789 
2431	 0.139554800482759 
2432	 0.139438375591196 
2433	 0.139542356042207 
2434	 0.13995714479494 
2435	 0.139758833330179 
2436	 0.140133762734218 
2437	 0.140366296367474 
2438	 0.139537306711371 
2439	 0.139440928507917 
2440	 0.139210101520998 
2441	 0.138431695935958 
2442	 0.138749515911248 
2443	 0.138749571096007 
2444	 0.138144373004003 
2445	 0.137985258123266 
2446	 0.137406834062435 
2447	 0.136669593132074 
2448	 0.136245870921426 
2449	 0.135971470758874 
2450	 0.135695608023172 
2451	 0.135604837111069 
2452	 0.135762020021065 
2453	 0.135938904102468 
2454	 0.135906878549816 
2455	 0.135081822374755 
2456	 0.134305024045775 
2457	 0.133369883808284 
2458	 0.132697813897309 
2459	 0.133423381334255 
2460	 0.133754204824192 
2461	 0.134103335282808 
2462	 0.134250009509228 
2463	 0.133335554178652 
2464	 0.133022457841529 
2465	 0.132952961810549 
2466	 0.132485857679374 
2467	 0.132268775504918 
2468	 0.131833603941487 
2469	 0.130539173890603 
2470	 0.130000361119517 
2471	 0.130120574221896 
2472	 0.13014381007649 
2473	 0.130515090183492 
2474	 0.130188385687127 
2475	 0.130638968954461 
2476	 0.131537828269348 
2477	 0.131530972913432 
2478	 0.132226323861341 
2479	 0.132425264768554 
2480	 0.131751758815277 
2481	 0.131592592766921 
2482	 0.131693311024582 
2483	 0.131091638026924 
2484	 0.131028481934808 
2485	 0.131890046098089 
2486	 0.131922661202792 
2487	 0.132306660165896 
2488	 0.13341385178733 
2489	 0.132901435721967 
2490	 0.132301291559556 
2491	 0.133046828462149 
2492	 0.133827194062057 
2493	 0.134288543689349 
2494	 0.13500405271021 
2495	 0.135172872743531 
2496	 0.133372343961668 
2497	 0.132303155687714 
2498	 0.13254666713931 
2499	 0.131658190387933 
2500	 0.132344710852865 
