Wavelength	Tablay400101.asd
350	 0.255536736896075 
351	 0.199115386518328 
352	 0.134004729888463 
353	 0.130725974457366 
354	 4.17373660565249E-02 
355	 6.89832400909968E-02 
356	 0.118730607437149 
357	 9.67824458065882E-02 
358	 0.115239679650576 
359	 0.13638312710285 
360	 0.148069431704627 
361	 0.149036027540735 
362	 0.11176087528385 
363	 8.65668436691116E-02 
364	 9.89015762286922E-02 
365	 0.1236389595341 
366	 0.108041659121179 
367	 7.91394797793774E-02 
368	 8.36775980090771E-02 
369	 0.173944818432365 
370	 0.15660380387828 
371	 0.070564864045144 
372	 8.82063564740743E-02 
373	 0.125591247789678 
374	 0.124493479541437 
375	 7.74617219337716E-02 
376	 5.08849413371082E-02 
377	 0.070191829756851 
378	 9.65632476051445E-02 
379	 0.089969929430751 
380	 5.69086994957757E-02 
381	 5.35019000043959E-02 
382	 7.54741620007324E-02 
383	 8.26948026757277E-02 
384	 6.28702176911619E-02 
385	 6.68306357506966E-02 
386	 0.101520349158618 
387	 0.10486385450329 
388	 8.78421055396402E-02 
389	 7.33750490862235E-02 
390	 7.71245436624599E-02 
391	 0.070560428908999 
392	 7.54009823507744E-02 
393	 7.84376595740935E-02 
394	 5.13114959529391E-02 
395	 4.41113972059243E-02 
396	 5.30199740665016E-02 
397	 6.44467409169886E-02 
398	 6.25433926346519E-02 
399	 7.33233318729254E-02 
400	 8.66893774039852E-02 
401	 8.61943896029274E-02 
402	 7.06724253839197E-02 
403	 6.41279873317905E-02 
404	 7.02883108673951E-02 
405	 7.62134699997011E-02 
406	 0.072840845555384 
407	 7.45730066112849E-02 
408	 0.083247360435445 
409	 7.04499320626196E-02 
410	 5.68556193988883E-02 
411	 0.055757346998841 
412	 6.82796013746183E-02 
413	 5.14375470428084E-02 
414	 4.51548803837735E-02 
415	 5.50564010630553E-02 
416	 5.45648158110753E-02 
417	 5.44288132369361E-02 
418	 5.47697886793339E-02 
419	 5.53858672599902E-02 
420	 6.04397414717945E-02 
421	 5.36278163658103E-02 
422	 4.34352751772832E-02 
423	 4.52994084781714E-02 
424	 4.78472311505643E-02 
425	 5.25651345465124E-02 
426	 5.64463756151912E-02 
427	 5.12469500675561E-02 
428	 5.44209443956713E-02 
429	 5.68689560293462E-02 
430	 5.08175325792911E-02 
431	 4.87351733145536E-02 
432	 4.91188035041745E-02 
433	 5.02062265289089E-02 
434	 5.02111248472415E-02 
435	 4.87290180011056E-02 
436	 4.86577812727764E-02 
437	 4.96049445077441E-02 
438	 4.56500441213792E-02 
439	 4.41575749822845E-02 
440	 4.70991719926301E-02 
441	 5.26843599173704E-02 
442	 5.18119825241385E-02 
443	 4.74485807982267E-02 
444	 4.48467705677886E-02 
445	 4.95139131705085E-02 
446	 0.05021436602557 
447	 4.72831071630207E-02 
448	 4.43003128634499E-02 
449	 0.048281159296245 
450	 4.73709887518837E-02 
451	 4.49816134156584E-02 
452	 4.80836028353145E-02 
453	 4.85048973869638E-02 
454	 4.77545035561916E-02 
455	 4.70151485823312E-02 
456	 4.64224762927992E-02 
457	 4.53270566882727E-02 
458	 4.52414877915717E-02 
459	 4.71109187917308E-02 
460	 4.93554982718825E-02 
461	 5.01916399555325E-02 
462	 4.99180179436856E-02 
463	 4.98003281640283E-02 
464	 4.80095249923092E-02 
465	 4.68718341516627E-02 
466	 4.73061489672135E-02 
467	 4.75901786215574E-02 
468	 4.76894563946737E-02 
469	 4.82162314815255E-02 
470	 4.93533919197168E-02 
471	 4.85782660682344E-02 
472	 4.85454055548024E-02 
473	 4.90139914754416E-02 
474	 0.04773395676459 
475	 4.86928437360916E-02 
476	 4.96246204091054E-02 
477	 4.89802388138927E-02 
478	 4.87335380193861E-02 
479	 4.84562384817696E-02 
480	 4.85171243697085E-02 
481	 4.92927378293155E-02 
482	 4.97939197363368E-02 
483	 4.97969927032407E-02 
484	 4.94120635318448E-02 
485	 4.90436433760527E-02 
486	 5.01353849868558E-02 
487	 5.06720199187565E-02 
488	 4.94253441645985E-02 
489	 4.99637994177848E-02 
490	 4.94433460279774E-02 
491	 4.88376256202908E-02 
492	 0.050684553832555 
493	 0.050413250103904 
494	 5.08286883997403E-02 
495	 5.26842068220295E-02 
496	 5.20766458726792E-02 
497	 5.18684684110858E-02 
498	 5.17351213632636E-02 
499	 5.10303890888056E-02 
500	 5.18946857092562E-02 
501	 5.34997117947477E-02 
502	 5.44728701110919E-02 
503	 5.33406863583574E-02 
504	 5.34160628400286E-02 
505	 5.36915963956348E-02 
506	 5.34313836400119E-02 
507	 5.45503263282922E-02 
508	 5.49228815127894E-02 
509	 5.47525684907946E-02 
510	 5.51415350623391E-02 
511	 5.58479810168492E-02 
512	 5.62953456934191E-02 
513	 5.64999435451315E-02 
514	 5.72667292956302E-02 
515	 5.66893951999318E-02 
516	 0.056250568022508 
517	 5.72691064515451E-02 
518	 5.74762421265361E-02 
519	 5.81537561611769E-02 
520	 5.89156216891075E-02 
521	 5.84413589947208E-02 
522	 5.86847314607008E-02 
523	 5.94000316295764E-02 
524	 6.01854401009066E-02 
525	 6.10972440638702E-02 
526	 6.09097178047957E-02 
527	 6.04919776891192E-02 
528	 0.061149078085904 
529	 6.22101352618159E-02 
530	 6.23665230745557E-02 
531	 6.19529880840207E-02 
532	 0.062951439351159 
533	 6.34455334509434E-02 
534	 0.06352337271473 
535	 6.37004870430773E-02 
536	 6.45051714497698E-02 
537	 6.49863172473197E-02 
538	 6.50038023399649E-02 
539	 0.064930568059908 
540	 6.52579391882829E-02 
541	 6.56973786379752E-02 
542	 6.59624797485251E-02 
543	 6.58953076623856E-02 
544	 6.61045936831997E-02 
545	 6.63704985653152E-02 
546	 6.63753925617993E-02 
547	 6.65878887978519E-02 
548	 6.67922095096818E-02 
549	 0.066845611561952 
550	 6.67228997373033E-02 
551	 6.70933223575337E-02 
552	 6.71714402559297E-02 
553	 6.66415803509476E-02 
554	 0.06707663533185 
555	 6.73184034147354E-02 
556	 6.72489007816065E-02 
557	 6.72121569310649E-02 
558	 6.71515684021094E-02 
559	 6.69722803267823E-02 
560	 6.67499121240491E-02 
561	 6.68046967064427E-02 
562	 6.65038948749362E-02 
563	 6.62805130566529E-02 
564	 6.64938345853045E-02 
565	 6.61037690530755E-02 
566	 6.57754927819535E-02 
567	 0.065642996271795 
568	 6.54328024676692E-02 
569	 6.52283213441939E-02 
570	 6.48913369448367E-02 
571	 6.44540792295599E-02 
572	 6.43936721099429E-02 
573	 6.41408959347761E-02 
574	 6.38803222286736E-02 
575	 6.39458350935323E-02 
576	 6.38031441717704E-02 
577	 6.33457200123656E-02 
578	 6.27838926095908E-02 
579	 6.26241417400203E-02 
580	 6.23816571680319E-02 
581	 6.19404569943261E-02 
582	 6.14120315089566E-02 
583	 6.13445741292299E-02 
584	 6.12417724513707E-02 
585	 6.09427615537247E-02 
586	 6.05166585129703E-02 
587	 6.01463476615909E-02 
588	 5.96930016764476E-02 
589	 0.059148903637726 
590	 0.058781718564143 
591	 5.84698520377811E-02 
592	 5.81501948932115E-02 
593	 5.78112553740074E-02 
594	 0.057626224367268 
595	 0.057281756069806 
596	 5.67394263333188E-02 
597	 5.62206457127459E-02 
598	 5.59566453832022E-02 
599	 0.055692670037262 
600	 5.52600721866232E-02 
601	 5.49220973942516E-02 
602	 0.054548885753705 
603	 5.40934455034768E-02 
604	 5.35981079804492E-02 
605	 5.34559565860784E-02 
606	 5.32449821532418E-02 
607	 5.27947187852383E-02 
608	 5.23283185753805E-02 
609	 5.20206156052832E-02 
610	 5.16905120263374E-02 
611	 5.12334158209305E-02 
612	 5.11727801993028E-02 
613	 5.08377158302526E-02 
614	 5.02897829830469E-02 
615	 0.050036004738469 
616	 0.049910420473192 
617	 4.96551329289698E-02 
618	 4.92171943822168E-02 
619	 4.89115102970166E-02 
620	 4.88037646893659E-02 
621	 4.86887953992158E-02 
622	 4.83586377351379E-02 
623	 4.81027052418847E-02 
624	 4.78709690494686E-02 
625	 4.76164159171326E-02 
626	 0.047313400177114 
627	 4.70674129112112E-02 
628	 4.67064930047344E-02 
629	 4.62295243897601E-02 
630	 4.61997444921345E-02 
631	 4.61693321703364E-02 
632	 4.59433834475589E-02 
633	 4.55178114931858E-02 
634	 4.53319124210004E-02 
635	 4.53105726501235E-02 
636	 4.52386326869307E-02 
637	 4.47995803531991E-02 
638	 4.46094693212108E-02 
639	 4.44819610123539E-02 
640	 4.41903550131563E-02 
641	 4.40673103250528E-02 
642	 4.38920567139567E-02 
643	 4.36838247805457E-02 
644	 4.35916324410811E-02 
645	 4.35180824351885E-02 
646	 4.33018527804368E-02 
647	 4.29851284955556E-02 
648	 4.29522432827562E-02 
649	 4.28395075410133E-02 
650	 4.25992602816361E-02 
651	 4.23512083639841E-02 
652	 4.25190449303801E-02 
653	 4.23653657198887E-02 
654	 4.19586285213034E-02 
655	 4.19823100581211E-02 
656	 4.17892989861174E-02 
657	 4.17117572617427E-02 
658	 0.041857351315832 
659	 4.15218250732196E-02 
660	 4.12945677245781E-02 
661	 4.11822743921485E-02 
662	 4.10219510754332E-02 
663	 4.09423675234675E-02 
664	 4.09347812772398E-02 
665	 4.09397348248104E-02 
666	 4.08596683639556E-02 
667	 4.06952603918579E-02 
668	 4.05859774918669E-02 
669	 4.05765877520391E-02 
670	 4.03794451660958E-02 
671	 4.03495091821282E-02 
672	 4.03796099973144E-02 
673	 4.02142476709743E-02 
674	 4.01439430923914E-02 
675	 4.00592101869154E-02 
676	 0.039979053289885 
677	 4.01060648172959E-02 
678	 3.98979860545539E-02 
679	 3.96632608062338E-02 
680	 3.97050065342129E-02 
681	 3.96972508150241E-02 
682	 3.95650982739169E-02 
683	 3.94598638456937E-02 
684	 3.95947145908745E-02 
685	 3.95715228538134E-02 
686	 3.95006710157799E-02 
687	 3.94275253124709E-02 
688	 3.92259654959987E-02 
689	 3.92812187579514E-02 
690	 3.93689051592479E-02 
691	 3.92394309993303E-02 
692	 3.91451939766453E-02 
693	 3.90450569521036E-02 
694	 0.039011344473066 
695	 3.91488050645824E-02 
696	 3.92029219344914E-02 
697	 3.91671319951784E-02 
698	 3.90841304718882E-02 
699	 3.90143782003909E-02 
700	 3.90470656300283E-02 
701	 3.90723327581433E-02 
702	 3.89895923496885E-02 
703	 3.89674352923492E-02 
704	 3.89583396799053E-02 
705	 3.89345562719819E-02 
706	 3.88926517673504E-02 
707	 3.89143985177935E-02 
708	 3.89091381287143E-02 
709	 3.88452050328101E-02 
710	 3.88205502983286E-02 
711	 3.88915343948774E-02 
712	 3.89699170861947E-02 
713	 3.89655953225172E-02 
714	 3.89833586226914E-02 
715	 3.89292273958098E-02 
716	 3.88703912577357E-02 
717	 0.038962494371461 
718	 3.89853045854952E-02 
719	 3.90207758290322E-02 
720	 3.90785334821903E-02 
721	 3.89661714669006E-02 
722	 3.90604723756535E-02 
723	 3.91708505427643E-02 
724	 3.90662852836488E-02 
725	 3.90705378798737E-02 
726	 3.91148599501732E-02 
727	 3.91616061644552E-02 
728	 3.91977062540026E-02 
729	 3.91802101022797E-02 
730	 3.91652287523546E-02 
731	 3.91930652766292E-02 
732	 3.92574218515326E-02 
733	 0.03931318584746 
734	 3.93843174653638E-02 
735	 3.94848402362907E-02 
736	 3.95129759486374E-02 
737	 3.95154809004439E-02 
738	 3.95406920883567E-02 
739	 0.039618971697091 
740	 3.96226599130117E-02 
741	 3.96523238925596E-02 
742	 3.97594730871936E-02 
743	 3.98833629921973E-02 
744	 3.99759682264502E-02 
745	 4.00145777906951E-02 
746	 4.00016331566242E-02 
747	 3.99709625815567E-02 
748	 3.99990067127214E-02 
749	 4.00809171992174E-02 
750	 0.04016728827826 
751	 4.02942524361833E-02 
752	 4.03697366852182E-02 
753	 4.03822878328378E-02 
754	 4.04361515805874E-02 
755	 0.040552865036942 
756	 4.06841680968875E-02 
757	 4.07781082016086E-02 
758	 4.08347461976075E-02 
759	 4.07973575710601E-02 
760	 4.07879560987087E-02 
761	 4.09510607388767E-02 
762	 4.10100078515284E-02 
763	 4.10386361682791E-02 
764	 4.11016676936684E-02 
765	 4.12197649853213E-02 
766	 4.13152230104849E-02 
767	 4.13891946464447E-02 
768	 4.14439570100685E-02 
769	 4.14290347551019E-02 
770	 4.15387904948488E-02 
771	 4.17102996520714E-02 
772	 4.18136343080294E-02 
773	 4.19280444877312E-02 
774	 4.19573341955757E-02 
775	 4.19482858965251E-02 
776	 4.20551374150367E-02 
777	 4.22213243077179E-02 
778	 4.23352675862089E-02 
779	 4.23636671135571E-02 
780	 4.24153294848195E-02 
781	 4.24503395460503E-02 
782	 4.25680953667095E-02 
783	 4.27996754217332E-02 
784	 0.042811347996079 
785	 4.28839076534069E-02 
786	 4.30320558382058E-02 
787	 4.31258067561704E-02 
788	 4.32114653576787E-02 
789	 0.043364303163348 
790	 4.35235742543019E-02 
791	 0.043485012294507 
792	 4.35982176367538E-02 
793	 4.37832654730172E-02 
794	 4.39163872690672E-02 
795	 4.39999890549685E-02 
796	 4.40177868841598E-02 
797	 4.40404401517472E-02 
798	 4.41496359503048E-02 
799	 4.43122295683886E-02 
800	 4.44698813297383E-02 
801	 4.46102922601824E-02 
802	 4.47542498274518E-02 
803	 4.48601179109237E-02 
804	 4.48962390006734E-02 
805	 0.044932221919927 
806	 4.51764279464725E-02 
807	 4.52876228506416E-02 
808	 4.53615497096811E-02 
809	 4.55207418080851E-02 
810	 4.56195779621301E-02 
811	 4.57435964459403E-02 
812	 4.58979202484945E-02 
813	 0.046050306974772 
814	 4.61873620700538E-02 
815	 4.62535145943513E-02 
816	 4.63156935063867E-02 
817	 4.65264226041893E-02 
818	 4.67211247799938E-02 
819	 4.68405400280171E-02 
820	 4.69378023928119E-02 
821	 4.72159474718222E-02 
822	 4.73732746806758E-02 
823	 4.74402654696949E-02 
824	 4.75315169372877E-02 
825	 4.77233167897102E-02 
826	 0.047892733703417 
827	 4.80279963570882E-02 
828	 4.81628285145048E-02 
829	 4.82378345844415E-02 
830	 4.84823695589442E-02 
831	 4.87946085154325E-02 
832	 4.88195315558551E-02 
833	 4.88821525261492E-02 
834	 4.89657403679269E-02 
835	 4.90812765848153E-02 
836	 0.049351846299793 
837	 4.96976996818387E-02 
838	 4.99157648790907E-02 
839	 4.99211449695509E-02 
840	 5.00037335885876E-02 
841	 5.02615338865437E-02 
842	 5.05691797353824E-02 
843	 5.07405038945392E-02 
844	 5.08332967758028E-02 
845	 0.05096436369909 
846	 5.11335045366616E-02 
847	 0.051273058193133 
848	 5.15842088942005E-02 
849	 5.17665001937009E-02 
850	 5.17675784754058E-02 
851	 5.19053398472755E-02 
852	 5.22358117651685E-02 
853	 5.24817983843794E-02 
854	 5.25324997809377E-02 
855	 5.27809329577371E-02 
856	 5.30049637144404E-02 
857	 5.31357470425308E-02 
858	 5.32275885419575E-02 
859	 5.36085122661753E-02 
860	 5.38833742639073E-02 
861	 5.40070591775302E-02 
862	 5.41214330121568E-02 
863	 5.42161640330372E-02 
864	 5.44927988738805E-02 
865	 5.48291440053069E-02 
866	 5.48814199689232E-02 
867	 5.50807981691544E-02 
868	 5.53676975518181E-02 
869	 5.56160453445168E-02 
870	 5.57186869969831E-02 
871	 5.59228310091671E-02 
872	 5.61397030104182E-02 
873	 5.62911845726528E-02 
874	 5.64881781722492E-02 
875	 5.67579991882803E-02 
876	 5.69859146484928E-02 
877	 5.71043695395762E-02 
878	 5.73602124485431E-02 
879	 5.77760212042751E-02 
880	 5.80770691423843E-02 
881	 5.80060165961105E-02 
882	 5.81746307016584E-02 
883	 5.84497578271635E-02 
884	 5.87285651372076E-02 
885	 5.89776699446897E-02 
886	 0.059294413391941 
887	 5.95376572619907E-02 
888	 5.96509647658743E-02 
889	 5.97190975249449E-02 
890	 6.00177615800714E-02 
891	 6.03439805288862E-02 
892	 6.05601849756413E-02 
893	 6.07989392695338E-02 
894	 6.09298192175937E-02 
895	 0.061136215155417 
896	 6.15078493460686E-02 
897	 6.16993645270884E-02 
898	 6.18802834243037E-02 
899	 6.21079429453672E-02 
900	 6.23816763952354E-02 
901	 6.26217577286294E-02 
902	 6.28837146280666E-02 
903	 6.31397964097621E-02 
904	 6.33503777722913E-02 
905	 6.36400724183217E-02 
906	 6.39859715379965E-02 
907	 6.42476098892984E-02 
908	 6.42866290218058E-02 
909	 0.064542995975352 
910	 6.48047138015125E-02 
911	 6.50718504295363E-02 
912	 6.55629878603091E-02 
913	 6.57029674185653E-02 
914	 6.58971976080377E-02 
915	 6.62892398092164E-02 
916	 6.64831721804838E-02 
917	 6.67384816740947E-02 
918	 0.06697175591687 
919	 6.71721972733067E-02 
920	 6.75768509924044E-02 
921	 6.78144488144152E-02 
922	 6.79494372079023E-02 
923	 6.81575744287581E-02 
924	 6.85885488615963E-02 
925	 0.068933256478441 
926	 6.91547757039625E-02 
927	 0.069358932751574 
928	 6.97830652220608E-02 
929	 7.01270211878388E-02 
930	 7.03076670273623E-02 
931	 7.04099308735206E-02 
932	 7.07552696438386E-02 
933	 7.10580972155502E-02 
934	 7.12883088780803E-02 
935	 7.15588175367854E-02 
936	 7.18788710647454E-02 
937	 7.20949005101588E-02 
938	 7.23436420637461E-02 
939	 7.28646983413893E-02 
940	 7.31681985885369E-02 
941	 7.33249126157856E-02 
942	 7.35162978528893E-02 
943	 7.39037944781432E-02 
944	 7.40360395847083E-02 
945	 7.42965549331292E-02 
946	 7.47423201032421E-02 
947	 7.50251525349213E-02 
948	 0.075416722984982 
949	 0.075701811710954 
950	 7.58829468614068E-02 
951	 7.62843109824399E-02 
952	 7.66797987227602E-02 
953	 7.69120867034617E-02 
954	 7.70715375681086E-02 
955	 7.75463998698251E-02 
956	 7.77049381852415E-02 
957	 7.78750356333929E-02 
958	 7.82559887328114E-02 
959	 7.84913293446236E-02 
960	 7.89616577136328E-02 
961	 7.94340285901197E-02 
962	 7.96586875394884E-02 
963	 7.96495864178839E-02 
964	 0.079771179147223 
965	 8.00145489734998E-02 
966	 8.02680122069923E-02 
967	 8.04451230735681E-02 
968	 8.08113697377879E-02 
969	 8.12269928073973E-02 
970	 8.15520882973337E-02 
971	 0.081972645574854 
972	 0.082090954863933 
973	 8.21651707103071E-02 
974	 8.25086977406359E-02 
975	 8.29976918912466E-02 
976	 8.35044274433287E-02 
977	 8.36417224737285E-02 
978	 8.34166210227057E-02 
979	 8.42121516608551E-02 
980	 8.44967979519248E-02 
981	 8.45661544290206E-02 
982	 8.50008594167941E-02 
983	 8.51729721335921E-02 
984	 8.55023382637916E-02 
985	 8.59471541387672E-02 
986	 8.63724771129222E-02 
987	 8.69758507737924E-02 
988	 8.68591325332106E-02 
989	 8.67329032023122E-02 
990	 8.73270691386799E-02 
991	 8.73374061773052E-02 
992	 8.76551099988424E-02 
993	 8.81478245651623E-02 
994	 8.83774589037059E-02 
995	 8.81845407337378E-02 
996	 0.088381903970017 
997	 8.87903647990092E-02 
998	 8.90230638337484E-02 
999	 8.93330640855796E-02 
1000	 8.99608835313966E-02 
1001	 9.06485475251528E-02 
1002	 0.090756580745529 
1003	 9.10286559022386E-02 
1004	 9.12020195036517E-02 
1005	 9.12660068899401E-02 
1006	 9.15307062634723E-02 
1007	 0.091885432340016 
1008	 9.21450281610666E-02 
1009	 9.24640465206656E-02 
1010	 0.092782623365372 
1011	 9.29835259400696E-02 
1012	 0.093338068496865 
1013	 0.093902382180438 
1014	 9.42454629198524E-02 
1015	 9.45301792270238E-02 
1016	 9.48634080038848E-02 
1017	 9.50080442582018E-02 
1018	 9.50942716155043E-02 
1019	 9.52962350910947E-02 
1020	 0.095405378006737 
1021	 9.55885812643571E-02 
1022	 9.57864808112806E-02 
1023	 9.60603739391611E-02 
1024	 9.64837565473599E-02 
1025	 0.096717575088839 
1026	 9.68335180833665E-02 
1027	 9.70960332057122E-02 
1028	 9.73880048335503E-02 
1029	 9.75274308333016E-02 
1030	 9.78414475535993E-02 
1031	 9.81346567234852E-02 
1032	 9.80942355145542E-02 
1033	 9.81944455335906E-02 
1034	 9.85899700085279E-02 
1035	 0.098846873026615 
1036	 9.91907350640437E-02 
1037	 9.98460359398542E-02 
1038	 0.100115749182662 
1039	 0.100105411236118 
1040	 0.100270571697121 
1041	 0.100338387952078 
1042	 0.100466851398439 
1043	 0.100611330350538 
1044	 0.10098681996993 
1045	 0.101285513844598 
1046	 0.10145926660069 
1047	 0.10178859837458 
1048	 0.102118127830029 
1049	 0.102438348975581 
1050	 0.102806252872976 
1051	 0.103156599292254 
1052	 0.103498880028664 
1053	 0.103738749591514 
1054	 0.103835708308018 
1055	 0.103989134651699 
1056	 0.104117298297069 
1057	 0.104291104098518 
1058	 0.104497318609877 
1059	 0.104692452643664 
1060	 0.104909749234935 
1061	 0.105074986365807 
1062	 0.105216858131046 
1063	 0.105575387444952 
1064	 0.105906042723967 
1065	 0.106133673220065 
1066	 0.106268532074743 
1067	 0.106435876138579 
1068	 0.106800966434617 
1069	 0.107066387685119 
1070	 0.107369161629352 
1071	 0.107779646244591 
1072	 0.108108964277963 
1073	 0.108305119913824 
1074	 0.108609986294921 
1075	 0.108830228193921 
1076	 0.109127894092492 
1077	 0.109259574420241 
1078	 0.109190670335066 
1079	 0.109333793605996 
1080	 0.109505317287851 
1081	 0.109805784207657 
1082	 0.110215929896343 
1083	 0.110426375679174 
1084	 0.110547181069403 
1085	 0.110688971608882 
1086	 0.110889346098859 
1087	 0.111133843961121 
1088	 0.111445907743353 
1089	 0.111669166022109 
1090	 0.111766484032792 
1091	 0.111876935522001 
1092	 0.11203965166401 
1093	 0.112213530738 
1094	 0.112494686390315 
1095	 0.112750376658748 
1096	 0.112854756312019 
1097	 0.113071575717961 
1098	 0.113383700478297 
1099	 0.113627877217596 
1100	 0.1139743202492 
1101	 0.114339188195316 
1102	 0.11453641994701 
1103	 0.114751591841728 
1104	 0.114936717002606 
1105	 0.115178712566724 
1106	 0.11538389080183 
1107	 0.115583651266835 
1108	 0.115789100087079 
1109	 0.115942555863901 
1110	 0.116049220235567 
1111	 0.116191846670422 
1112	 0.116374701096622 
1113	 0.116585990925941 
1114	 0.11683471070713 
1115	 0.117055582798555 
1116	 0.117329028988436 
1117	 0.117577804691804 
1118	 0.117772659650032 
1119	 0.117898648294899 
1120	 0.118112750898287 
1121	 0.118329055700157 
1122	 0.118534172419831 
1123	 0.118799089059898 
1124	 0.119122661987805 
1125	 0.119323470098136 
1126	 0.119481889161576 
1127	 0.119742246300866 
1128	 0.119894815369977 
1129	 0.12005441031379 
1130	 0.120212492953022 
1131	 0.120235220179839 
1132	 0.12033809365896 
1133	 0.120588901246777 
1134	 0.120886030745197 
1135	 0.121081589273222 
1136	 0.121267625459435 
1137	 0.121476350210131 
1138	 0.121572924309082 
1139	 0.121746159287626 
1140	 0.122029386489115 
1141	 0.122298326851583 
1142	 0.122406695714385 
1143	 0.122549682157803 
1144	 0.122682777310736 
1145	 0.122808511562508 
1146	 0.123046151518107 
1147	 0.123287249053188 
1148	 0.123487437053013 
1149	 0.123694223038208 
1150	 0.123833400525386 
1151	 0.123969803126576 
1152	 0.124135511896651 
1153	 0.124319590474359 
1154	 0.124483117270399 
1155	 0.124673879398403 
1156	 0.124841782376973 
1157	 0.124958918596613 
1158	 0.125132897277505 
1159	 0.125380042998592 
1160	 0.125499399470089 
1161	 0.125641306249477 
1162	 0.125855606399575 
1163	 0.125967120902765 
1164	 0.126098188126752 
1165	 0.126213563763187 
1166	 0.126229756974489 
1167	 0.126321628284351 
1168	 0.12647425708577 
1169	 0.126625730065572 
1170	 0.126826656883237 
1171	 0.127031726661921 
1172	 0.127262356200307 
1173	 0.127450118968116 
1174	 0.127666145123611 
1175	 0.127843114058282 
1176	 0.127953112004992 
1177	 0.12808009871623 
1178	 0.128208964219318 
1179	 0.128330365534667 
1180	 0.128432365658627 
1181	 0.128515298313467 
1182	 0.128633829658764 
1183	 0.128757092399963 
1184	 0.128921883838619 
1185	 0.129131936999012 
1186	 0.129301635020183 
1187	 0.12948883426139 
1188	 0.129624941237998 
1189	 0.129690121435786 
1190	 0.129835551902172 
1191	 0.13000882815579 
1192	 0.13013970481873 
1193	 0.130281740097191 
1194	 0.130433445526341 
1195	 0.130545650852677 
1196	 0.130698220215673 
1197	 0.130864719084936 
1198	 0.131091536153171 
1199	 0.131413832780067 
1200	 0.131586275541764 
1201	 0.131776955708278 
1202	 0.131966384591855 
1203	 0.132026305696941 
1204	 0.132201835224061 
1205	 0.132357799706675 
1206	 0.132546655991742 
1207	 0.132717884791766 
1208	 0.132872480594355 
1209	 0.133059516077758 
1210	 0.133267164952588 
1211	 0.133476982401949 
1212	 0.133718207881992 
1213	 0.133932245139946 
1214	 0.134116620706395 
1215	 0.134339653474473 
1216	 0.13456146260941 
1217	 0.134812432493682 
1218	 0.13509619856135 
1219	 0.135403335961432 
1220	 0.135688724998674 
1221	 0.135959590118211 
1222	 0.136253903478194 
1223	 0.136499373338414 
1224	 0.136727405284741 
1225	 0.136914477812017 
1226	 0.137185194908037 
1227	 0.137487179603254 
1228	 0.137724777320942 
1229	 0.137976949652765 
1230	 0.138249460044196 
1231	 0.138471791460547 
1232	 0.138703547198401 
1233	 0.138986501283698 
1234	 0.139261999151022 
1235	 0.139495595438504 
1236	 0.139743236922241 
1237	 0.140058660359226 
1238	 0.140324767390434 
1239	 0.140528787113825 
1240	 0.140755130002051 
1241	 0.140985395644478 
1242	 0.141197631902755 
1243	 0.141445520196957 
1244	 0.141740312494418 
1245	 0.141931231333311 
1246	 0.142081175561745 
1247	 0.142271482518384 
1248	 0.142404241034443 
1249	 0.142577757552968 
1250	 0.142828927771205 
1251	 0.143019608186655 
1252	 0.143157144431847 
1253	 0.143330746539369 
1254	 0.14348396750562 
1255	 0.143693612130793 
1256	 0.14396510900692 
1257	 0.144195433381745 
1258	 0.144466257210055 
1259	 0.144689366114449 
1260	 0.144803646820988 
1261	 0.145006904660435 
1262	 0.145229235294518 
1263	 0.145527123909241 
1264	 0.145729777963734 
1265	 0.145956442154742 
1266	 0.146142394702658 
1267	 0.146241830736612 
1268	 0.146391336936473 
1269	 0.146556070803844 
1270	 0.146745687663795 
1271	 0.146946145326623 
1272	 0.147126679634635 
1273	 0.147324651628788 
1274	 0.147533459386382 
1275	 0.147704404022735 
1276	 0.14791902798946 
1277	 0.148231825232137 
1278	 0.148446993898073 
1279	 0.148612346516186 
1280	 0.148789960233509 
1281	 0.148890666174783 
1282	 0.149055075804067 
1283	 0.149298093768591 
1284	 0.149486711469391 
1285	 0.149664164179222 
1286	 0.149839699963185 
1287	 0.150029990703849 
1288	 0.15019102982434 
1289	 0.150378385137564 
1290	 0.150618242965918 
1291	 0.150797537616727 
1292	 0.150947326259723 
1293	 0.15109552313882 
1294	 0.151196425877901 
1295	 0.151364056121647 
1296	 0.151546095780803 
1297	 0.151744688950626 
1298	 0.152010532303439 
1299	 0.152226091401154 
1300	 0.152452486354375 
1301	 0.152622617814643 
1302	 0.152711783236169 
1303	 0.152862754776348 
1304	 0.153010881403828 
1305	 0.153159422020067 
1306	 0.153364006479262 
1307	 0.153534935976047 
1308	 0.15366823091863 
1309	 0.153795816401382 
1310	 0.153955522621583 
1311	 0.154129635261636 
1312	 0.154291401776345 
1313	 0.154464001169323 
1314	 0.15463239893485 
1315	 0.154781803062701 
1316	 0.154958648599023 
1317	 0.155179982038357 
1318	 0.155335372569096 
1319	 0.155447104437754 
1320	 0.155606367549448 
1321	 0.155767779872701 
1322	 0.155906805696272 
1323	 0.15606379802035 
1324	 0.156217191204399 
1325	 0.156304480196804 
1326	 0.156461247831208 
1327	 0.156677810269463 
1328	 0.156884138487532 
1329	 0.157152194424682 
1330	 0.157345987676725 
1331	 0.157474839142978 
1332	 0.157645066070886 
1333	 0.157801898132123 
1334	 0.157953785447461 
1335	 0.158106672985816 
1336	 0.158304311744599 
1337	 0.15844000187077 
1338	 0.158516446184252 
1339	 0.158651281569136 
1340	 0.158792257507764 
1341	 0.158948403578326 
1342	 0.159157926206909 
1343	 0.159285916025117 
1344	 0.159372409096359 
1345	 0.159487728434615 
1346	 0.159571017490964 
1347	 0.159676541377923 
1348	 0.159818327206217 
1349	 0.15993722278736 
1350	 0.160050473994829 
1351	 0.160144399690753 
1352	 0.160215483088855 
1353	 0.160312916935466 
1354	 0.160388498593364 
1355	 0.160494297558378 
1356	 0.160688796023814 
1357	 0.160794857109072 
1358	 0.160832162788077 
1359	 0.160913519229131 
1360	 0.160981673700001 
1361	 0.161020210718351 
1362	 0.161147337207483 
1363	 0.161286775381779 
1364	 0.161393575466322 
1365	 0.16150089264394 
1366	 0.161572633405004 
1367	 0.161610182165472 
1368	 0.161670171383782 
1369	 0.161713021765314 
1370	 0.161773213264963 
1371	 0.161869923990381 
1372	 0.16191096539205 
1373	 0.161914507521 
1374	 0.161946086267129 
1375	 0.161960525913917 
1376	 0.161995161126896 
1377	 0.162072424963181 
1378	 0.162105690304268 
1379	 0.162117527577152 
1380	 0.162128216896238 
1381	 0.162117090693762 
1382	 0.162118189434728 
1383	 0.162129952141902 
1384	 0.162125155775901 
1385	 0.162085007818567 
1386	 0.16209477444945 
1387	 0.16212096083581 
1388	 0.162153320875551 
1389	 0.162250188832458 
1390	 0.162302825078637 
1391	 0.16234411144197 
1392	 0.162354407064943 
1393	 0.162311832933815 
1394	 0.162307217668061 
1395	 0.162306921216373 
1396	 0.162294173145699 
1397	 0.1623031135218 
1398	 0.162342313234836 
1399	 0.162372621366791 
1400	 0.162428488355627 
1401	 0.162416417290117 
1402	 0.162387446966172 
1403	 0.162335319804863 
1404	 0.162238344440323 
1405	 0.162126929405553 
1406	 0.161999441930719 
1407	 0.16187069886922 
1408	 0.161706153248999 
1409	 0.161550827794786 
1410	 0.161414127084709 
1411	 0.161255926028646 
1412	 0.161063743655804 
1413	 0.160890498458215 
1414	 0.160705679921195 
1415	 0.16055640758885 
1416	 0.160433651582129 
1417	 0.160307236012037 
1418	 0.160201251852764 
1419	 0.160092265116388 
1420	 0.159967133167387 
1421	 0.159866890820309 
1422	 0.15978739024413 
1423	 0.159714438665343 
1424	 0.159690701186781 
1425	 0.159612075046605 
1426	 0.159501353178604 
1427	 0.15938698722568 
1428	 0.159262383200585 
1429	 0.159166695074018 
1430	 0.159081250474536 
1431	 0.159057787617817 
1432	 0.158946203996347 
1433	 0.158799617398313 
1434	 0.158656870117127 
1435	 0.158467361555119 
1436	 0.15832025492905 
1437	 0.15820435453872 
1438	 0.158049828881134 
1439	 0.157880959725592 
1440	 0.157728391067522 
1441	 0.157544455362361 
1442	 0.157410887879659 
1443	 0.15730628947446 
1444	 0.157219354107702 
1445	 0.15712703343153 
1446	 0.157109732895532 
1447	 0.157104736850545 
1448	 0.157202362057028 
1449	 0.157417611508456 
1450	 0.15761215170563 
1451	 0.157837316967911 
1452	 0.158123718674347 
1453	 0.158446195722257 
1454	 0.158783701310501 
1455	 0.159229365361518 
1456	 0.159606598008522 
1457	 0.159935702528795 
1458	 0.160293195332418 
1459	 0.160652830011481 
1460	 0.161004066534427 
1461	 0.161363290340493 
1462	 0.161716196071564 
1463	 0.16206728084499 
1464	 0.162402041634522 
1465	 0.162706524842691 
1466	 0.163065196097784 
1467	 0.163353878080291 
1468	 0.163615979947944 
1469	 0.163968700911772 
1470	 0.164239046039319 
1471	 0.164567397815118 
1472	 0.16496207327874 
1473	 0.165260538713056 
1474	 0.165520877464927 
1475	 0.165783635601137 
1476	 0.165993038304643 
1477	 0.16624671313821 
1478	 0.166538604336323 
1479	 0.166771956083686 
1480	 0.167000150418623 
1481	 0.167188283274615 
1482	 0.167316220314364 
1483	 0.167472845412895 
1484	 0.167637596815001 
1485	 0.167767911497333 
1486	 0.167865347031642 
1487	 0.168001550561386 
1488	 0.168105161480211 
1489	 0.168276061649451 
1490	 0.168523332739938 
1491	 0.168725171787724 
1492	 0.168913454592991 
1493	 0.169144023403389 
1494	 0.169379447513084 
1495	 0.169633456792041 
1496	 0.169936009952803 
1497	 0.170224308149594 
1498	 0.170502188654325 
1499	 0.170795170299007 
1500	 0.171110556719295 
1501	 0.171417733015093 
1502	 0.171752272634625 
1503	 0.172033441085672 
1504	 0.172276315389608 
1505	 0.172534231742585 
1506	 0.172723256583247 
1507	 0.172988119023252 
1508	 0.173344766859768 
1509	 0.173636712085245 
1510	 0.173966718390604 
1511	 0.174228120945446 
1512	 0.174388546258248 
1513	 0.174585764169325 
1514	 0.174769295503992 
1515	 0.174952632085044 
1516	 0.175150974819994 
1517	 0.175339376872674 
1518	 0.175516846123073 
1519	 0.175688587629854 
1520	 0.175858181031774 
1521	 0.176027657478226 
1522	 0.176153698937923 
1523	 0.176305706168077 
1524	 0.176452605157048 
1525	 0.176600867983896 
1526	 0.176724522923148 
1527	 0.176851924373677 
1528	 0.176947725907394 
1529	 0.177008905023768 
1530	 0.177084357169607 
1531	 0.177140484225204 
1532	 0.177240236211943 
1533	 0.177361361742351 
1534	 0.177458118933534 
1535	 0.177562187190533 
1536	 0.177683299074501 
1537	 0.177784758300996 
1538	 0.177921465698749 
1539	 0.178104160069048 
1540	 0.178266405937598 
1541	 0.178409095899504 
1542	 0.178598663450556 
1543	 0.178818981413575 
1544	 0.179028718774189 
1545	 0.17926283021698 
1546	 0.179484155490475 
1547	 0.179685541662544 
1548	 0.179918297086845 
1549	 0.180166029482672 
1550	 0.180421791615505 
1551	 0.180698599665044 
1552	 0.180965462931557 
1553	 0.181245331960834 
1554	 0.181502535733402 
1555	 0.18174569321463 
1556	 0.181994698315198 
1557	 0.182247068000514 
1558	 0.18247143902131 
1559	 0.182660092716811 
1560	 0.182901939692192 
1561	 0.183158778600939 
1562	 0.183396073018833 
1563	 0.183678521721273 
1564	 0.183913604711863 
1565	 0.184068381885441 
1566	 0.184296949899355 
1567	 0.184569912644024 
1568	 0.184811074956227 
1569	 0.185082988585182 
1570	 0.185311638295998 
1571	 0.185490100532121 
1572	 0.18569030035232 
1573	 0.185865369872034 
1574	 0.1860833364189 
1575	 0.18635153682329 
1576	 0.186569567051804 
1577	 0.186779108830133 
1578	 0.18699736953062 
1579	 0.187201706126077 
1580	 0.187385742596582 
1581	 0.187545291944157 
1582	 0.187759348246051 
1583	 0.187997351039757 
1584	 0.188194427674843 
1585	 0.188437173336863 
1586	 0.188634139085024 
1587	 0.188742414991983 
1588	 0.188890185270296 
1589	 0.189052686735264 
1590	 0.189216889044092 
1591	 0.189375794232153 
1592	 0.189551996186068 
1593	 0.189752522813092 
1594	 0.189941050396794 
1595	 0.190120425748109 
1596	 0.190317176969183 
1597	 0.19052427467931 
1598	 0.190726432509196 
1599	 0.190955544036843 
1600	 0.191155152379858 
1601	 0.191321428156887 
1602	 0.191505017087292 
1603	 0.191675487306928 
1604	 0.191864438856599 
1605	 0.192066913029165 
1606	 0.192280004031312 
1607	 0.19254659832122 
1608	 0.192741995464412 
1609	 0.192897432906539 
1610	 0.193067543405239 
1611	 0.193173971449248 
1612	 0.193326333793521 
1613	 0.193536187099164 
1614	 0.193714962747926 
1615	 0.193907920265811 
1616	 0.194072367784413 
1617	 0.19418676624892 
1618	 0.194336433091358 
1619	 0.194485797549586 
1620	 0.194638087252702 
1621	 0.194840395362716 
1622	 0.194996998784035 
1623	 0.195123168517234 
1624	 0.195244846254065 
1625	 0.19532065560699 
1626	 0.195436454288314 
1627	 0.195589252085394 
1628	 0.195699235689431 
1629	 0.195807071963745 
1630	 0.195915367591584 
1631	 0.195959121675602 
1632	 0.196065314022931 
1633	 0.196225113452386 
1634	 0.196368030155005 
1635	 0.196537834207919 
1636	 0.196696656507984 
1637	 0.196860880894904 
1638	 0.196999931595129 
1639	 0.197116671275164 
1640	 0.197240921194654 
1641	 0.197331991594855 
1642	 0.19745662461134 
1643	 0.197624902746766 
1644	 0.197758392588507 
1645	 0.197889996720883 
1646	 0.198012511540027 
1647	 0.198103644671066 
1648	 0.198208362183966 
1649	 0.198351073422032 
1650	 0.198446024081126 
1651	 0.198519576000082 
1652	 0.198564536165329 
1653	 0.198556980865937 
1654	 0.198562393974183 
1655	 0.198538953233362 
1656	 0.19855175057179 
1657	 0.198599734430699 
1658	 0.198614230044929 
1659	 0.198637552585116 
1660	 0.198635612653406 
1661	 0.198632312954818 
1662	 0.19856616932849 
1663	 0.198433318577017 
1664	 0.198344700205449 
1665	 0.198249173548423 
1666	 0.198116431070249 
1667	 0.197995231292701 
1668	 0.197844060511246 
1669	 0.19764138546125 
1670	 0.197433989576157 
1671	 0.1972554282642 
1672	 0.197012719289025 
1673	 0.196726841931087 
1674	 0.196379172178202 
1675	 0.195960169621133 
1676	 0.195556108812874 
1677	 0.195101718530315 
1678	 0.194659178754001 
1679	 0.194209720671371 
1680	 0.193780488744532 
1681	 0.193381703598419 
1682	 0.192917456871341 
1683	 0.192495434905961 
1684	 0.191956543568145 
1685	 0.191291221861386 
1686	 0.190662608314796 
1687	 0.189947339763991 
1688	 0.189296525811551 
1689	 0.188693222161483 
1690	 0.188057009438604 
1691	 0.187457268448343 
1692	 0.18681862330779 
1693	 0.18615535899918 
1694	 0.185443537158696 
1695	 0.184656389217697 
1696	 0.183953126104877 
1697	 0.183270609929613 
1698	 0.182543406276559 
1699	 0.181876264862472 
1700	 0.181127758866185 
1701	 0.180254857011882 
1702	 0.179495285690868 
1703	 0.178767300600959 
1704	 0.178042378169997 
1705	 0.177339624404942 
1706	 0.176618314308558 
1707	 0.175960821512505 
1708	 0.175376833109345 
1709	 0.17490288185008 
1710	 0.174492673957582 
1711	 0.174065280495609 
1712	 0.173647157648085 
1713	 0.173228699866973 
1714	 0.172792620913785 
1715	 0.172353413046574 
1716	 0.171931527347274 
1717	 0.171577282024215 
1718	 0.171343799261536 
1719	 0.171106018358175 
1720	 0.170831200183042 
1721	 0.170575530340311 
1722	 0.17023476371273 
1723	 0.169958127214974 
1724	 0.169835671251609 
1725	 0.169697041187074 
1726	 0.169640244082762 
1727	 0.169733834304336 
1728	 0.169822273665634 
1729	 0.170029991150277 
1730	 0.170332849794912 
1731	 0.170566428926833 
1732	 0.170939669210309 
1733	 0.171356677837569 
1734	 0.171741732299072 
1735	 0.172264068844853 
1736	 0.172763768202523 
1737	 0.173197062614055 
1738	 0.173599423541834 
1739	 0.173950839193846 
1740	 0.17424667848525 
1741	 0.174479160918996 
1742	 0.174703913972342 
1743	 0.17484697978889 
1744	 0.174858999745091 
1745	 0.174879719211142 
1746	 0.174843576697568 
1747	 0.174823076602251 
1748	 0.174790936484436 
1749	 0.174809902247846 
1750	 0.174851941684798 
1751	 0.1748529667378 
1752	 0.174813723847042 
1753	 0.174854978621773 
1754	 0.174900198068058 
1755	 0.175043372818584 
1756	 0.175308556511675 
1757	 0.175557066805479 
1758	 0.175766060683901 
1759	 0.17600470808053 
1760	 0.176272179982546 
1761	 0.17659449326082 
1762	 0.177005946667546 
1763	 0.17744155936539 
1764	 0.17796412116214 
1765	 0.178529521787576 
1766	 0.179162243667881 
1767	 0.179862174486635 
1768	 0.180526500698328 
1769	 0.181203899390555 
1770	 0.181760460499958 
1771	 0.18231421371088 
1772	 0.182954484866211 
1773	 0.183480731088317 
1774	 0.184056744969503 
1775	 0.184666559907673 
1776	 0.185131305748204 
1777	 0.185594768249857 
1778	 0.186101590029311 
1779	 0.186537733433079 
1780	 0.186933111217169 
1781	 0.187383312447851 
1782	 0.187801763524883 
1783	 0.188162292666014 
1784	 0.188508239055208 
1785	 0.18878628878241 
1786	 0.189102954086655 
1787	 0.189392747530607 
1788	 0.189687458371648 
1789	 0.19000428625519 
1790	 0.190281629659354 
1791	 0.190529930421394 
1792	 0.190814388525288 
1793	 0.191143572350214 
1794	 0.191437771151096 
1795	 0.191617896839282 
1796	 0.191829540130475 
1797	 0.192109822367325 
1798	 0.19233705847928 
1799	 0.192675993894879 
1800	 0.193043037913013 
1801	 0.190596465912034 
1802	 0.190805600771613 
1803	 0.191001217685844 
1804	 0.191154923196953 
1805	 0.191291463096249 
1806	 0.191479271624796 
1807	 0.191693742001121 
1808	 0.191913323937808 
1809	 0.192173214423895 
1810	 0.192410058012277 
1811	 0.192645861712875 
1812	 0.192875831051577 
1813	 0.193124014228453 
1814	 0.193329997897702 
1815	 0.193511225423492 
1816	 0.193668202313942 
1817	 0.19384190012537 
1818	 0.193969698410508 
1819	 0.194156637263614 
1820	 0.19444635648188 
1821	 0.194627578150952 
1822	 0.19477725045087 
1823	 0.194890632293965 
1824	 0.195029580203838 
1825	 0.195163082905831 
1826	 0.195356009983655 
1827	 0.19565263940616 
1828	 0.195901944577412 
1829	 0.196154641911751 
1830	 0.196375472956919 
1831	 0.196624879947808 
1832	 0.196789741129389 
1833	 0.196899149266521 
1834	 0.197074782891414 
1835	 0.197240627480914 
1836	 0.197464060673838 
1837	 0.197652410033239 
1838	 0.19785562614291 
1839	 0.198020593943605 
1840	 0.198135155246368 
1841	 0.198291684390954 
1842	 0.198439536792787 
1843	 0.198635184558408 
1844	 0.198901191391892 
1845	 0.199066852077401 
1846	 0.199159321690476 
1847	 0.199303619060837 
1848	 0.199401761932335 
1849	 0.199407871384725 
1850	 0.199491203827493 
1851	 0.199626041916225 
1852	 0.199700323298932 
1853	 0.199801979014252 
1854	 0.199886263733347 
1855	 0.199879018533615 
1856	 0.199890903062976 
1857	 0.19992312711855 
1858	 0.199851727544192 
1859	 0.199777926091022 
1860	 0.19971195400929 
1861	 0.199636222597903 
1862	 0.199508283430824 
1863	 0.199382422325568 
1864	 0.199330407946903 
1865	 0.199182468300801 
1866	 0.198912973001557 
1867	 0.198702161586353 
1868	 0.198488844892781 
1869	 0.19820086814644 
1870	 0.19789887797111 
1871	 0.197621543432008 
1872	 0.19725492518587 
1873	 0.196793477765281 
1874	 0.196350588812724 
1875	 0.195987506120401 
1876	 0.195623953270346 
1877	 0.19521627222606 
1878	 0.19482755484391 
1879	 0.194323499847082 
1880	 0.193712583101565 
1881	 0.193114958722365 
1882	 0.192516101437072 
1883	 0.191837175385723 
1884	 0.191122116186653 
1885	 0.190372667615133 
1886	 0.189557628155837 
1887	 0.188774481166096 
1888	 0.187891509613401 
1889	 0.18701631403063 
1890	 0.186231550494656 
1891	 0.185327196282529 
1892	 0.184403420342714 
1893	 0.183447330405673 
1894	 0.182458666211666 
1895	 0.181355342560155 
1896	 0.180365721405727 
1897	 0.179398314468522 
1898	 0.178472972599143 
1899	 0.177663504216254 
1900	 0.176808954696458 
1901	 0.175979933571111 
1902	 0.175143626705634 
1903	 0.174288398733653 
1904	 0.173485120956795 
1905	 0.172704943711554 
1906	 0.171911652480938 
1907	 0.171157146894079 
1908	 0.170470878385935 
1909	 0.169757859824512 
1910	 0.16901584742732 
1911	 0.168324663057778 
1912	 0.167722039286523 
1913	 0.167081344329017 
1914	 0.166456894624753 
1915	 0.165913545712734 
1916	 0.165467269688702 
1917	 0.164939014092153 
1918	 0.16443845867716 
1919	 0.164020107267807 
1920	 0.16350558183144 
1921	 0.162986516255515 
1922	 0.162513650931023 
1923	 0.162015000339263 
1924	 0.16153500066707 
1925	 0.161063565948079 
1926	 0.160601382957764 
1927	 0.160147465345768 
1928	 0.159672032235116 
1929	 0.159183180909189 
1930	 0.158747401473713 
1931	 0.158264159101381 
1932	 0.157797423010912 
1933	 0.157465523370185 
1934	 0.157162649229143 
1935	 0.156917318915178 
1936	 0.156751927638441 
1937	 0.156603125738032 
1938	 0.156480222845779 
1939	 0.15638576152242 
1940	 0.156318367824523 
1941	 0.156329571395588 
1942	 0.156294957591827 
1943	 0.156346467483597 
1944	 0.156497231432237 
1945	 0.156617171096239 
1946	 0.156783361353378 
1947	 0.157018937300269 
1948	 0.157252702245514 
1949	 0.157523598932457 
1950	 0.157855357413876 
1951	 0.158286581281706 
1952	 0.158688031728192 
1953	 0.159090439244446 
1954	 0.159563115938987 
1955	 0.160045747801768 
1956	 0.160555597960182 
1957	 0.161141725165647 
1958	 0.161738060919759 
1959	 0.16227293156198 
1960	 0.162783303994484 
1961	 0.163266502445242 
1962	 0.163701190639236 
1963	 0.16410687460571 
1964	 0.164510250117238 
1965	 0.164855322282806 
1966	 0.165144444694601 
1967	 0.16540956677794 
1968	 0.165640326434063 
1969	 0.165895452939381 
1970	 0.166180010678066 
1971	 0.166446190059251 
1972	 0.166694984045208 
1973	 0.166923101864837 
1974	 0.167205194850406 
1975	 0.16749786343653 
1976	 0.167806085784429 
1977	 0.168201951042952 
1978	 0.168528626121983 
1979	 0.168804178936968 
1980	 0.169085124264929 
1981	 0.169459878607322 
1982	 0.169798695742754 
1983	 0.170148130024381 
1984	 0.170542764030967 
1985	 0.170924477545235 
1986	 0.171312146987495 
1987	 0.17175971379169 
1988	 0.172272878732969 
1989	 0.172815532320951 
1990	 0.173407433630592 
1991	 0.174002896788752 
1992	 0.174626961189797 
1993	 0.175292123810581 
1994	 0.175976099835953 
1995	 0.176673975600004 
1996	 0.177375883801957 
1997	 0.178141281051257 
1998	 0.178932147037232 
1999	 0.1797326087427 
2000	 0.180531183660801 
2001	 0.181454839997072 
2002	 0.182220178994615 
2003	 0.182906764034962 
2004	 0.183581912953728 
2005	 0.184184290383793 
2006	 0.184766402806991 
2007	 0.185311707765191 
2008	 0.185851938859165 
2009	 0.186363547216667 
2010	 0.186926925779439 
2011	 0.1874688504374 
2012	 0.187924755813825 
2013	 0.188332854243131 
2014	 0.188626457688351 
2015	 0.188993364421369 
2016	 0.189367606035046 
2017	 0.189696403292963 
2018	 0.190074687023754 
2019	 0.190355512048 
2020	 0.190500226466788 
2021	 0.190707349796644 
2022	 0.190971593047983 
2023	 0.19114493044984 
2024	 0.191336386361343 
2025	 0.191507158451074 
2026	 0.191629299632215 
2027	 0.191648786818088 
2028	 0.191754585489964 
2029	 0.191921377203526 
2030	 0.191988580452401 
2031	 0.192042888956516 
2032	 0.192063632311731 
2033	 0.191935534212369 
2034	 0.191921016039425 
2035	 0.191957141175883 
2036	 0.192016746496561 
2037	 0.192062923595642 
2038	 0.192067920693874 
2039	 0.19210978034623 
2040	 0.192126394225052 
2041	 0.19216387287381 
2042	 0.192276670219737 
2043	 0.192331608816026 
2044	 0.192301672266638 
2045	 0.192341158352556 
2046	 0.192419492784713 
2047	 0.192467059476392 
2048	 0.192551020568762 
2049	 0.192610877552783 
2050	 0.192643730247713 
2051	 0.192650458228352 
2052	 0.192706946899584 
2053	 0.192722045615022 
2054	 0.192742203999441 
2055	 0.192756892857919 
2056	 0.192788899679158 
2057	 0.192824428138176 
2058	 0.19284509900096 
2059	 0.192883204670051 
2060	 0.192902378607858 
2061	 0.192890677820091 
2062	 0.192888795517374 
2063	 0.19290438237556 
2064	 0.192886421099272 
2065	 0.192828067131367 
2066	 0.19278469088019 
2067	 0.192769012089673 
2068	 0.192780111252188 
2069	 0.192835872468521 
2070	 0.192959131065035 
2071	 0.193053896897746 
2072	 0.193193184088209 
2073	 0.193277113550824 
2074	 0.193336845173159 
2075	 0.193406838643665 
2076	 0.193467324909637 
2077	 0.193503102703438 
2078	 0.193536747332408 
2079	 0.193547574614727 
2080	 0.193506674972879 
2081	 0.193482264856689 
2082	 0.193408171990211 
2083	 0.193458118567104 
2084	 0.193437677838868 
2085	 0.193406814509282 
2086	 0.193436709331416 
2087	 0.193516271126962 
2088	 0.193517866915167 
2089	 0.193549960025555 
2090	 0.193536317912549 
2091	 0.19342056827493 
2092	 0.193374769215821 
2093	 0.193384742081088 
2094	 0.193336499052896 
2095	 0.193241411958332 
2096	 0.193194122817571 
2097	 0.193170872540083 
2098	 0.19309624938679 
2099	 0.193037205352555 
2100	 0.193037746210811 
2101	 0.193039892514144 
2102	 0.193076242750375 
2103	 0.193018055714795 
2104	 0.192955351397186 
2105	 0.192858740888213 
2106	 0.192636670518193 
2107	 0.192511430032159 
2108	 0.192498625213755 
2109	 0.192354636877738 
2110	 0.192144411982 
2111	 0.191954315493953 
2112	 0.191678743603192 
2113	 0.191460159288752 
2114	 0.191276781758118 
2115	 0.191102048203218 
2116	 0.190946447105097 
2117	 0.190814808885395 
2118	 0.190619382484686 
2119	 0.190391006896745 
2120	 0.190256438646546 
2121	 0.190110559958844 
2122	 0.189983717603477 
2123	 0.18995765329465 
2124	 0.189867959553334 
2125	 0.189688896747739 
2126	 0.189610673968694 
2127	 0.189631910236332 
2128	 0.189576171332992 
2129	 0.189526698180232 
2130	 0.189454713641662 
2131	 0.189284479508357 
2132	 0.189196715106376 
2133	 0.189158957576083 
2134	 0.189120867915572 
2135	 0.189112363663778 
2136	 0.18910218483416 
2137	 0.189052101568143 
2138	 0.188961475654967 
2139	 0.188916255107448 
2140	 0.18885235845221 
2141	 0.18883140141733 
2142	 0.18888461140961 
2143	 0.188845312360536 
2144	 0.188780190009572 
2145	 0.188716998728552 
2146	 0.188567633276168 
2147	 0.188503897562165 
2148	 0.188468291782422 
2149	 0.188477047368402 
2150	 0.188576578176638 
2151	 0.188623354851268 
2152	 0.188696269572134 
2153	 0.188744619951381 
2154	 0.188737424988506 
2155	 0.188674989788803 
2156	 0.188605798992801 
2157	 0.188481562741876 
2158	 0.188423900741386 
2159	 0.188360684794202 
2160	 0.18832715988474 
2161	 0.188377284911022 
2162	 0.188318350118934 
2163	 0.188192142190424 
2164	 0.188126489269306 
2165	 0.188057124317953 
2166	 0.187957486701594 
2167	 0.187917389720577 
2168	 0.187795133055016 
2169	 0.187529282660947 
2170	 0.187369277222719 
2171	 0.187199812139624 
2172	 0.187096517324067 
2173	 0.187073359725356 
2174	 0.187070248278495 
2175	 0.187107300834208 
2176	 0.187119854690703 
2177	 0.187046153050681 
2178	 0.186918706986502 
2179	 0.186812468098634 
2180	 0.186605022166403 
2181	 0.18654710912875 
2182	 0.186574133594909 
2183	 0.186573063909905 
2184	 0.186686936976816 
2185	 0.186631029909323 
2186	 0.186412838143494 
2187	 0.186359246465108 
2188	 0.186338751076791 
2189	 0.186270728720236 
2190	 0.186337380771496 
2191	 0.186279513413382 
2192	 0.186020217501819 
2193	 0.185872299262498 
2194	 0.185753996468907 
2195	 0.185636997881099 
2196	 0.185564206263615 
2197	 0.185487393031921 
2198	 0.1853363166118 
2199	 0.185279674902324 
2200	 0.185151895332245 
2201	 0.185027140305918 
2202	 0.184788378187103 
2203	 0.184464630873512 
2204	 0.184205995954432 
2205	 0.183861698844195 
2206	 0.18362843274237 
2207	 0.183498201295503 
2208	 0.183311340690853 
2209	 0.18314631011871 
2210	 0.182943803152534 
2211	 0.182706554050809 
2212	 0.182505142111757 
2213	 0.18228966490153 
2214	 0.182086358323798 
2215	 0.18194786442116 
2216	 0.181741824243765 
2217	 0.181432966256603 
2218	 0.181232209803024 
2219	 0.181066327229043 
2220	 0.180913050965337 
2221	 0.180831191449684 
2222	 0.180779100756326 
2223	 0.180598781373223 
2224	 0.180430417696903 
2225	 0.180263844492272 
2226	 0.180083685937176 
2227	 0.179901053021552 
2228	 0.179760295840954 
2229	 0.179483409162373 
2230	 0.179133492977692 
2231	 0.17880526222158 
2232	 0.178450161463008 
2233	 0.17802922529389 
2234	 0.177634325698118 
2235	 0.177075814943094 
2236	 0.176336769018673 
2237	 0.175656354425922 
2238	 0.174955625477298 
2239	 0.174163330339286 
2240	 0.173389022380616 
2241	 0.17247231572535 
2242	 0.171344752275965 
2243	 0.170302083705015 
2244	 0.169274739980596 
2245	 0.168144284248369 
2246	 0.16700874541486 
2247	 0.165785224691165 
2248	 0.164388284797928 
2249	 0.163022119264538 
2250	 0.161598676245352 
2251	 0.160249033515475 
2252	 0.15882507391483 
2253	 0.157465789393677 
2254	 0.156042802131493 
2255	 0.154566086328542 
2256	 0.153203331753719 
2257	 0.151782660405954 
2258	 0.150418994633546 
2259	 0.149120279908868 
2260	 0.147800006063185 
2261	 0.146477367550539 
2262	 0.145183972099326 
2263	 0.143822222923776 
2264	 0.142690312093264 
2265	 0.141733395338953 
2266	 0.140638511285555 
2267	 0.139686841216756 
2268	 0.138609284234923 
2269	 0.13726082626729 
2270	 0.136240028388325 
2271	 0.135390006289126 
2272	 0.134495499330317 
2273	 0.133754144959479 
2274	 0.132932598918676 
2275	 0.132090532040264 
2276	 0.13121325387977 
2277	 0.130319753203229 
2278	 0.129422410168011 
2279	 0.128438391923508 
2280	 0.127508220086516 
2281	 0.126710320176453 
2282	 0.125768486251532 
2283	 0.124786131190614 
2284	 0.123737679438171 
2285	 0.122571861827043 
2286	 0.12125159799476 
2287	 0.119849856180194 
2288	 0.118586262800717 
2289	 0.117314759411659 
2290	 0.115950159928574 
2291	 0.114783145283163 
2292	 0.11353306395691 
2293	 0.112275736013041 
2294	 0.111216865520494 
2295	 0.11008270173691 
2296	 0.108878581610378 
2297	 0.107720118323666 
2298	 0.1064967419944 
2299	 0.10549663495 
2300	 0.104520677447183 
2301	 0.10380603111289 
2302	 0.103303334442967 
2303	 0.102926183377515 
2304	 0.102749030747332 
2305	 0.102678306938898 
2306	 0.102701950802316 
2307	 0.102991296067103 
2308	 0.103466474498745 
2309	 0.10414300630259 
2310	 0.105096811926858 
2311	 0.106151963367598 
2312	 0.107534459556427 
2313	 0.108709180964115 
2314	 0.109957442670654 
2315	 0.111180068315826 
2316	 0.112305280757569 
2317	 0.113409388767758 
2318	 0.11465165481058 
2319	 0.115627449599849 
2320	 0.116413224404391 
2321	 0.117131216731955 
2322	 0.117598149687384 
2323	 0.118189145035901 
2324	 0.118882551180331 
2325	 0.119423337073034 
2326	 0.120101841849691 
2327	 0.120362934312386 
2328	 0.120233224039542 
2329	 0.120062642676992 
2330	 0.119568636009524 
2331	 0.119213145572058 
2332	 0.118686270173928 
2333	 0.118218255643964 
2334	 0.117833069978644 
2335	 0.117199768023771 
2336	 0.116697881712651 
2337	 0.116191740470512 
2338	 0.115580219916914 
2339	 0.114892040654711 
2340	 0.114096405886448 
2341	 0.113213683524028 
2342	 0.112201204015448 
2343	 0.111274231309786 
2344	 0.110480362272701 
2345	 0.109989537169957 
2346	 0.109851898165146 
2347	 0.109776247301093 
2348	 0.109804822097571 
2349	 0.110037446072943 
2350	 0.110346035396889 
2351	 0.111023145412304 
2352	 0.111965477861412 
2353	 0.112845576649474 
2354	 0.113688483966158 
2355	 0.11431392597778 
2356	 0.114929642931223 
2357	 0.115752753658976 
2358	 0.116472805286253 
2359	 0.11722002264237 
2360	 0.117722395867164 
2361	 0.117955028167892 
2362	 0.118211415042304 
2363	 0.118213899811705 
2364	 0.118405203613895 
2365	 0.118529567228955 
2366	 0.118484383748342 
2367	 0.118614260598111 
2368	 0.118313059614969 
2369	 0.117881901941657 
2370	 0.117685738616319 
2371	 0.117321859997204 
2372	 0.117220375759554 
2373	 0.117458472083306 
2374	 0.117620894876822 
2375	 0.117677695245261 
2376	 0.117604336189822 
2377	 0.117425206302681 
2378	 0.116943297165271 
2379	 0.116636007892629 
2380	 0.11656526759814 
2381	 0.116643508602327 
2382	 0.116716857142357 
2383	 0.116957800038271 
2384	 0.116952436055325 
2385	 0.116774819906469 
2386	 0.116820375680598 
2387	 0.117034394931675 
2388	 0.117129411841661 
2389	 0.117417383714227 
2390	 0.117287851097015 
2391	 0.11662972235099 
2392	 0.11630797288761 
2393	 0.11585369120528 
2394	 0.115795793828578 
2395	 0.116215344827805 
2396	 0.116541006322454 
2397	 0.117066110666281 
2398	 0.117189124602325 
2399	 0.117128398537219 
2400	 0.117040662912988 
2401	 0.116678619951429 
2402	 0.116722445244375 
2403	 0.116475777326835 
2404	 0.116423330657431 
2405	 0.116890337609673 
2406	 0.11702183742709 
2407	 0.116980160980842 
2408	 0.116565694161478 
2409	 0.115877185730484 
2410	 0.115541962442998 
2411	 0.115404897590101 
2412	 0.115819984575386 
2413	 0.116304042723149 
2414	 0.11587377486483 
2415	 0.115513183216792 
2416	 0.115291403238118 
2417	 0.114794905209178 
2418	 0.115017293978533 
2419	 0.115282180053113 
2420	 0.115298676300567 
2421	 0.115364705257824 
2422	 0.115222621574164 
2423	 0.115188730570087 
2424	 0.115175991291573 
2425	 0.115177386739918 
2426	 0.11505941604884 
2427	 0.11515228459483 
2428	 0.115171425278996 
2429	 0.114972838310069 
2430	 0.115044924851133 
2431	 0.114854517129892 
2432	 0.114506098113726 
2433	 0.114030107589863 
2434	 0.113889656436952 
2435	 0.113917581852366 
2436	 0.11399595397632 
2437	 0.114349241408332 
2438	 0.113754007073271 
2439	 0.113561063235221 
2440	 0.113761804811474 
2441	 0.113072600192763 
2442	 0.113355445648417 
2443	 0.113379227338078 
2444	 0.112684962070624 
2445	 0.1134988765291 
2446	 0.113810823134845 
2447	 0.113243272909644 
2448	 0.113262851567421 
2449	 0.113018164805982 
2450	 0.11280426490019 
2451	 0.11311753625065 
2452	 0.112994455725045 
2453	 0.112039112031489 
2454	 0.11138229471482 
2455	 0.111333876522107 
2456	 0.111667960952862 
2457	 0.112252211074206 
2458	 0.112501576322832 
2459	 0.112555954582957 
2460	 0.112802982136771 
2461	 0.112849254527377 
2462	 0.112422820092807 
2463	 0.111883735785363 
2464	 0.111066128765939 
2465	 0.110549173572254 
2466	 0.111354481230056 
2467	 0.112417093612707 
2468	 0.112752192950817 
2469	 0.113220178770289 
2470	 0.113239416159835 
2471	 0.112523323681996 
2472	 0.113119913796876 
2473	 0.113954704808704 
2474	 0.1141062439565 
2475	 0.114566199127087 
2476	 0.114529416934383 
2477	 0.113923440824388 
2478	 0.113379078220256 
2479	 0.113681904655653 
2480	 0.113750411863323 
2481	 0.113836768242263 
2482	 0.114255585143772 
2483	 0.114703882153631 
2484	 0.114736711994051 
2485	 0.115456873218779 
2486	 0.116453039154092 
2487	 0.117484644288827 
2488	 0.118946374164993 
2489	 0.119608513190304 
2490	 0.119731833772714 
2491	 0.118903374403211 
2492	 0.118361405915726 
2493	 0.119020938689248 
2494	 0.118742694360656 
2495	 0.118852142780976 
2496	 0.119500315809231 
2497	 0.118612779242784 
2498	 0.118514664416034 
2499	 0.119787567016035 
2500	 0.12040459567008 
