Wavelength	Tablay400048.asd
350	 5.39525593143708E-02 
351	 5.19025471225839E-02 
352	 5.32504416765569E-02 
353	 5.70047044363529E-02 
354	 8.43790953883173E-02 
355	 0.10911454824373 
356	 0.110602331098697 
357	 8.66377659325994E-02 
358	 8.07024909217755E-02 
359	 0.1146006758561 
360	 0.136398402211429 
361	 0.066811435194216 
362	 1.14677791976856E-02 
363	 1.52024617457561E-02 
364	 6.51285627645507E-02 
365	 7.65756640399031E-02 
366	 4.46861776435407E-02 
367	 3.94020993028692E-02 
368	 9.46731441193669E-02 
369	 7.02999690850288E-02 
370	 3.33609133265926E-02 
371	 2.06787649749141E-02 
372	 4.72328681461579E-02 
373	 6.06930370403143E-02 
374	 3.26190332650277E-02 
375	-1.46841951626489E-02 
376	 1.77602335274081E-02 
377	 3.76291108136578E-02 
378	 5.18332566645427E-02 
379	 7.20288699671165E-02 
380	 2.54746380914126E-02 
381	 9.85155314580553E-03 
382	 4.03894736071918E-02 
383	 7.12494263571472E-02 
384	 0.055126659593674 
385	 0.03899394512257 
386	 4.59797414178089E-02 
387	 5.03239966229013E-02 
388	 5.13495802881318E-02 
389	 4.59852716734013E-02 
390	 3.52334910995579E-02 
391	 3.04314958109262E-02 
392	 3.48783793789434E-02 
393	 3.88933880613271E-02 
394	 3.00120813226828E-02 
395	 6.27059469815392E-02 
396	 7.36448909072693E-02 
397	 4.70129110234538E-02 
398	 0.066425833601422 
399	 7.61798832414865E-02 
400	 7.00415205397639E-02 
401	 5.95036729429313E-02 
402	 7.16885356264117E-02 
403	 5.95923635764052E-02 
404	 0.036008931243377 
405	 5.23372060479595E-02 
406	 5.78564141014374E-02 
407	 5.31375225142326E-02 
408	 0.049157642044629 
409	 6.60197538268596E-02 
410	 6.32073619495357E-02 
411	 5.43115573702854E-02 
412	 6.16891042487121E-02 
413	 6.23757147671012E-02 
414	 4.94334470393876E-02 
415	 3.67723228936738E-02 
416	 5.33489028094875E-02 
417	 6.06178112367702E-02 
418	 5.67223977120272E-02 
419	 4.86178892316246E-02 
420	 0.04678758418146 
421	 4.74010724045063E-02 
422	 4.96446741883111E-02 
423	 5.28665141918121E-02 
424	 5.09564332383809E-02 
425	 5.14643118242165E-02 
426	 5.37909925645029E-02 
427	 4.77049233185361E-02 
428	 4.96932665860318E-02 
429	 5.27758834822127E-02 
430	 0.050059245003759 
431	 5.00659661472113E-02 
432	 4.83843796743233E-02 
433	 4.70944727613339E-02 
434	 5.06270261431354E-02 
435	 5.18469092437037E-02 
436	 5.21967359460529E-02 
437	 5.18750129542969E-02 
438	 0.047617552400635 
439	 4.30193682841041E-02 
440	 4.41600325816383E-02 
441	 5.26033751162839E-02 
442	 5.08661801320894E-02 
443	 4.67613495370537E-02 
444	 4.48292773230764E-02 
445	 4.59672561018955E-02 
446	 4.39288793585488E-02 
447	 4.35232074119683E-02 
448	 4.70694007199606E-02 
449	 4.85273814115009E-02 
450	 0.046026330697433 
451	 4.44129157567697E-02 
452	 4.88241528380719E-02 
453	 4.93742322140819E-02 
454	 4.75262350475595E-02 
455	 4.57707254542647E-02 
456	 4.66652969253592E-02 
457	 0.046446919724368 
458	 4.53035017563739E-02 
459	 4.45754105160086E-02 
460	 4.64614465208833E-02 
461	 4.72766888875317E-02 
462	 4.66298809570346E-02 
463	 4.59778247786334E-02 
464	 4.55399425027332E-02 
465	 4.50087436115531E-02 
466	 4.42155822874749E-02 
467	 4.32660551374883E-02 
468	 4.33655542302403E-02 
469	 4.38815605483692E-02 
470	 4.39928422230399E-02 
471	 4.44986826950873E-02 
472	 4.48608622281276E-02 
473	 4.50342212532661E-02 
474	 4.53265384977837E-02 
475	 4.50192749060826E-02 
476	 4.36629035035397E-02 
477	 0.042308965942802 
478	 0.045530805096541 
479	 4.65926937385439E-02 
480	 4.56071880180554E-02 
481	 4.51703779588464E-02 
482	 0.04544214061987 
483	 4.46650984617767E-02 
484	 4.36569722975027E-02 
485	 4.60590264598069E-02 
486	 4.52347752820575E-02 
487	 4.40471191245844E-02 
488	 4.51549222822613E-02 
489	 4.39219497287618E-02 
490	 4.32898387576621E-02 
491	 4.31381926259321E-02 
492	 0.041891362994147 
493	 4.16672059935377E-02 
494	 4.22247564906508E-02 
495	 4.29994565280681E-02 
496	 4.34403992164321E-02 
497	 4.33021448512631E-02 
498	 4.24968054819252E-02 
499	 0.04137976789539 
500	 0.041732855374872 
501	 4.26199306918285E-02 
502	 4.30793297367317E-02 
503	 4.23625985386309E-02 
504	 4.18045537452728E-02 
505	 4.17664921607319E-02 
506	 4.21928649760655E-02 
507	 4.26763085521591E-02 
508	 4.23161244321356E-02 
509	 4.17284453078331E-02 
510	 4.19860868868907E-02 
511	 4.22385393654037E-02 
512	 4.19987337111637E-02 
513	 4.15369435316883E-02 
514	 4.20089645473734E-02 
515	 4.22247273975074E-02 
516	 4.22571461798279E-02 
517	 4.22170359266571E-02 
518	 4.10615261770404E-02 
519	 4.05808005992104E-02 
520	 4.09790311573469E-02 
521	 4.13257315930629E-02 
522	 4.12194770415086E-02 
523	 4.13334858958119E-02 
524	 4.18267225673463E-02 
525	 4.15197966033866E-02 
526	 4.13977713618593E-02 
527	 4.14350706359473E-02 
528	 0.041327613312841 
529	 4.12384394479865E-02 
530	 4.13069261005775E-02 
531	 0.041419683683852 
532	 4.12226494942371E-02 
533	 4.11784016122364E-02 
534	 4.13460718958966E-02 
535	 4.15533079550595E-02 
536	 4.11971677104511E-02 
537	 4.10574856563308E-02 
538	 4.12883955062336E-02 
539	 4.16199072727319E-02 
540	 4.14246413269389E-02 
541	 4.12478087322799E-02 
542	 4.12885755777475E-02 
543	 4.09699234977369E-02 
544	 4.08728747210274E-02 
545	 0.040914669359794 
546	 4.08892416779051E-02 
547	 4.10119100896306E-02 
548	 4.09942434683629E-02 
549	 4.08933195622788E-02 
550	 4.10518342599469E-02 
551	 0.040987049645056 
552	 4.08893485519277E-02 
553	 0.040926213547608 
554	 4.08952765541167E-02 
555	 4.08731516328463E-02 
556	 4.08692163158062E-02 
557	 4.08651466683494E-02 
558	 4.08616519438145E-02 
559	 4.08681019180645E-02 
560	 4.08830628187495E-02 
561	 4.08909293493631E-02 
562	 4.07763743098649E-02 
563	 4.08578781552893E-02 
564	 4.12478777136675E-02 
565	 4.08191308056272E-02 
566	 4.06509012022356E-02 
567	 4.08163199035785E-02 
568	 0.040659326210215 
569	 4.06143654079535E-02 
570	 4.05842156472921E-02 
571	 4.04698866160175E-02 
572	 4.03013473913754E-02 
573	 4.02707085298501E-02 
574	 4.05615076927866E-02 
575	 4.11715763740319E-02 
576	 4.11643509030716E-02 
577	 0.04107352207658 
578	 0.041133104764353 
579	 4.11227659433801E-02 
580	 4.10098558648928E-02 
581	 4.08472276608012E-02 
582	 4.07031103098247E-02 
583	 4.05759224312135E-02 
584	 4.08055502465546E-02 
585	 4.10588944855498E-02 
586	 4.07379961859372E-02 
587	 0.040758565310672 
588	 0.040790678977283 
589	 4.07023793803113E-02 
590	 4.09424642612717E-02 
591	 0.040904066097976 
592	 4.08608728211036E-02 
593	 4.11289831456897E-02 
594	 4.09472903180015E-02 
595	 4.09351189273843E-02 
596	 4.11217633068565E-02 
597	 4.10157171444629E-02 
598	 4.08758954303019E-02 
599	 4.07876814852193E-02 
600	 4.07889538457248E-02 
601	 0.04090866814548 
602	 4.08096422827161E-02 
603	 4.06933067532412E-02 
604	 4.08976446678361E-02 
605	 0.040929916198375 
606	 4.08585791141241E-02 
607	 4.08547933354018E-02 
608	 4.11517908619488E-02 
609	 4.09088084173945E-02 
610	 4.05954489918484E-02 
611	 4.07489512130785E-02 
612	 4.10108335140636E-02 
613	 4.11685893599843E-02 
614	 4.11549940621523E-02 
615	 4.10335356484379E-02 
616	 4.10555364566828E-02 
617	 0.041079582462982 
618	 4.10446031035213E-02 
619	 4.11375362774009E-02 
620	 4.11188536767474E-02 
621	 4.11643121835328E-02 
622	 4.14311201006178E-02 
623	 4.13108844391662E-02 
624	 4.11805643267398E-02 
625	 4.12057707372579E-02 
626	 4.13058059618671E-02 
627	 4.13468680437237E-02 
628	 4.12104581527224E-02 
629	 4.09708110284898E-02 
630	 4.11637576104484E-02 
631	 4.13454999383331E-02 
632	 4.14251787579984E-02 
633	 4.14469357459437E-02 
634	 4.12142573864971E-02 
635	 4.12479530682975E-02 
636	 4.15750093261318E-02 
637	 4.15559194491505E-02 
638	 4.13972584382189E-02 
639	 4.13408855842758E-02 
640	 4.14934196645163E-02 
641	 4.14700286966921E-02 
642	 4.15178026059564E-02 
643	 4.15949194019983E-02 
644	 4.15148050675868E-02 
645	 4.15016658941061E-02 
646	 4.15896259239858E-02 
647	 4.16833500915935E-02 
648	 0.04150499679384 
649	 4.15705505722074E-02 
650	 4.17154909841096E-02 
651	 4.16834855437193E-02 
652	 4.17962645502777E-02 
653	 4.18214502053585E-02 
654	 4.17741563913494E-02 
655	 4.18610897180089E-02 
656	 4.18834437733529E-02 
657	 4.19104503577662E-02 
658	 0.041979896177573 
659	 4.19720917624836E-02 
660	 4.19673078062889E-02 
661	 4.20049174466504E-02 
662	 4.20931725694078E-02 
663	 4.21573555594937E-02 
664	 4.22295601093147E-02 
665	 4.23002005633588E-02 
666	 4.23149865550703E-02 
667	 4.23158055832971E-02 
668	 4.23344717012355E-02 
669	 0.042385578049287 
670	 4.24589031517183E-02 
671	 4.24486905256376E-02 
672	 4.24080732661541E-02 
673	 4.24452579752231E-02 
674	 4.24712439556092E-02 
675	 4.25829652217538E-02 
676	 0.042744168991482 
677	 4.27493486682484E-02 
678	 4.26966816288892E-02 
679	 4.26998531329983E-02 
680	 0.042796181044037 
681	 0.042769603235321 
682	 4.28617687909238E-02 
683	 4.30452769191906E-02 
684	 0.043149645108261 
685	 0.043168520258025 
686	 4.31243972710048E-02 
687	 4.30819649064382E-02 
688	 4.31542728584227E-02 
689	 4.31902319520737E-02 
690	 0.043240203600875 
691	 4.33578243026599E-02 
692	 4.34241188385975E-02 
693	 4.34564262504528E-02 
694	 4.34938731846556E-02 
695	 4.35863776820684E-02 
696	 4.37609455319798E-02 
697	 4.38746280961545E-02 
698	 4.38673299588272E-02 
699	 4.38333978126779E-02 
700	 4.38333029054569E-02 
701	 4.38793954559737E-02 
702	 4.39675156250546E-02 
703	 0.044131429355773 
704	 4.41597578954695E-02 
705	 4.41218380500092E-02 
706	 4.42547760151055E-02 
707	 4.43662706439441E-02 
708	 4.44172100855607E-02 
709	 4.44380315799749E-02 
710	 4.45394128163687E-02 
711	 4.46304787823948E-02 
712	 4.46819162016908E-02 
713	 4.47101924343346E-02 
714	 4.48293365197059E-02 
715	 4.49741995539708E-02 
716	 4.50888807234249E-02 
717	 4.51384360162577E-02 
718	 4.51881460581871E-02 
719	 4.52656340453854E-02 
720	 4.53445514914524E-02 
721	 4.53071809784527E-02 
722	 4.55069896996138E-02 
723	 4.57320885329304E-02 
724	 4.57231960346051E-02 
725	 4.57420987315898E-02 
726	 4.58844093319457E-02 
727	 4.60507706835464E-02 
728	 4.60428307187096E-02 
729	 4.61493146696239E-02 
730	 4.62163240470579E-02 
731	 4.62144936993001E-02 
732	 4.64115110369849E-02 
733	 4.65958381686575E-02 
734	 4.67168515686072E-02 
735	 4.67908341963611E-02 
736	 0.046894943378 
737	 4.69893153080127E-02 
738	 4.70885240056481E-02 
739	 4.72348221791699E-02 
740	 0.04737894277495 
741	 4.74790517448316E-02 
742	 4.75529951894871E-02 
743	 4.77038051047238E-02 
744	 4.77681603246946E-02 
745	 4.78814866280832E-02 
746	 4.81339087066647E-02 
747	 4.81966526522114E-02 
748	 4.82116861888798E-02 
749	 4.82730188747106E-02 
750	 4.84308726602405E-02 
751	 4.86533424858858E-02 
752	 4.87958007763176E-02 
753	 4.88301082198123E-02 
754	 4.88889725225576E-02 
755	 0.049138301577836 
756	 4.93782923866547E-02 
757	 4.94447346708901E-02 
758	 0.049529547748601 
759	 4.96334767638822E-02 
760	 4.97254205453358E-02 
761	 4.97935111369192E-02 
762	 5.00909713742009E-02 
763	 5.02725070253679E-02 
764	 5.02677209045038E-02 
765	 5.03402623529472E-02 
766	 5.04911648001475E-02 
767	 5.06795875789127E-02 
768	 5.08413638704182E-02 
769	 5.08780006378329E-02 
770	 5.09992479159628E-02 
771	 5.12074234191675E-02 
772	 5.14149565433548E-02 
773	 5.15283340041038E-02 
774	 5.16359077707463E-02 
775	 5.17764833348533E-02 
776	 5.19378306832049E-02 
777	 5.21058517358986E-02 
778	 5.22490562244388E-02 
779	 5.23673433563267E-02 
780	 5.25139309410812E-02 
781	 5.26782139409287E-02 
782	 0.052823720011916 
783	 5.29371562476391E-02 
784	 5.31182371817266E-02 
785	 5.32587476995867E-02 
786	 5.33545144918281E-02 
787	 5.34709859520605E-02 
788	 5.36950945885633E-02 
789	 5.38967124264738E-02 
790	 5.40185502915437E-02 
791	 5.41197095839715E-02 
792	 5.43584848108525E-02 
793	 5.45999297416927E-02 
794	 5.47367289128265E-02 
795	 5.48826547073251E-02 
796	 5.50087723112805E-02 
797	 5.51584273981432E-02 
798	 5.53675941825311E-02 
799	 5.55296781423586E-02 
800	 5.56488329222862E-02 
801	 5.57924649998936E-02 
802	 5.60487577670391E-02 
803	 5.62507642685928E-02 
804	 5.64093394361496E-02 
805	 5.65466579476027E-02 
806	 5.66633257488984E-02 
807	 5.67890807085367E-02 
808	 5.69422488471727E-02 
809	 5.71362752092747E-02 
810	 5.73988217180194E-02 
811	 0.057575795140489 
812	 5.77033602914795E-02 
813	 5.78902851935446E-02 
814	 5.81083806428535E-02 
815	 5.82443179011768E-02 
816	 5.83914919533987E-02 
817	 5.87770834318748E-02 
818	 0.058917540326214 
819	 0.058986519927328 
820	 5.91493358205934E-02 
821	 5.93852342694858E-02 
822	 5.95914287571852E-02 
823	 5.97780394790732E-02 
824	 5.99642935030654E-02 
825	 6.00796870308923E-02 
826	 6.02688080305677E-02 
827	 6.05251723663486E-02 
828	 6.07644845959662E-02 
829	 6.09182094073834E-02 
830	 6.11104529543962E-02 
831	 0.061367456298214 
832	 6.16119819421603E-02 
833	 6.17414530607369E-02 
834	 6.18899495987439E-02 
835	 0.062125331038915 
836	 6.23581599161385E-02 
837	 6.26784494506783E-02 
838	 6.28863626808641E-02 
839	 6.29000355115784E-02 
840	 6.31521815867408E-02 
841	 6.34210815550157E-02 
842	 6.36481374209167E-02 
843	 6.38426712540801E-02 
844	 6.40173195953492E-02 
845	 6.42241081153756E-02 
846	 6.44873532878934E-02 
847	 6.47890382234936E-02 
848	 6.49737533712293E-02 
849	 6.51048438537269E-02 
850	 6.52903008372049E-02 
851	 6.56388568900625E-02 
852	 6.58784175404514E-02 
853	 0.066024053092253 
854	 6.61704764834084E-02 
855	 6.64430626855797E-02 
856	 0.066676657108148 
857	 6.68855430358159E-02 
858	 6.71165205754004E-02 
859	 6.73161718169644E-02 
860	 6.74987897241407E-02 
861	 6.77151578214652E-02 
862	 6.79985216472229E-02 
863	 6.81708133795014E-02 
864	 6.84233985635304E-02 
865	 6.87367056593911E-02 
866	 6.89106336227703E-02 
867	 6.90484866622761E-02 
868	 6.92017989020417E-02 
869	 6.93995109980997E-02 
870	 6.96438899089596E-02 
871	 0.069824127330391 
872	 7.00632985639206E-02 
873	 7.04101282909235E-02 
874	 7.06453765245222E-02 
875	 7.07584366465326E-02 
876	 7.09747903753752E-02 
877	 7.14234713198961E-02 
878	 7.16282720812602E-02 
879	 7.18177409150241E-02 
880	 7.20597079635414E-02 
881	 0.072319348289055 
882	 7.24713364476461E-02 
883	 7.26952360569744E-02 
884	 7.29838357638745E-02 
885	 7.31932000996491E-02 
886	 7.34145101949978E-02 
887	 7.36877451584233E-02 
888	 0.073961454717942 
889	 7.41074288668579E-02 
890	 7.43825857301854E-02 
891	 7.46459519157338E-02 
892	 7.48090310377295E-02 
893	 7.49921285289971E-02 
894	 7.53409024294089E-02 
895	 7.56536626451672E-02 
896	 7.58073458141252E-02 
897	 7.61208762011804E-02 
898	 7.63594281195822E-02 
899	 7.65429979246919E-02 
900	 7.67600605081436E-02 
901	 7.70038147418772E-02 
902	 7.73347731339211E-02 
903	 7.75830810514918E-02 
904	 7.75780816375737E-02 
905	 7.77228112204746E-02 
906	 7.81603841530971E-02 
907	 7.85932470722435E-02 
908	 7.85633021652317E-02 
909	 7.87684948415883E-02 
910	 7.92066548693909E-02 
911	 0.079652133462644 
912	 7.97922880794371E-02 
913	 8.00509257064354E-02 
914	 8.02958501370822E-02 
915	 8.05140541346393E-02 
916	 8.09398120944441E-02 
917	 0.081086274385114 
918	 8.12113249672589E-02 
919	 8.15309976262397E-02 
920	 8.18973625022665E-02 
921	 8.19331551485944E-02 
922	 8.20377134222959E-02 
923	 8.25068246383396E-02 
924	 8.28486167878256E-02 
925	 8.31477645417302E-02 
926	 8.34273550660705E-02 
927	 8.36917962450558E-02 
928	 0.08389784071524 
929	 0.084168104624643 
930	 8.45236843464435E-02 
931	 0.084880381963602 
932	 8.49265303953944E-02 
933	 8.51372646469948E-02 
934	 8.55239823399755E-02 
935	 8.58363821123485E-02 
936	 8.60052083942476E-02 
937	 8.62709945146231E-02 
938	 8.66454594604038E-02 
939	 8.69749483222856E-02 
940	 8.72538391552861E-02 
941	 8.75997199822261E-02 
942	 8.79062541481113E-02 
943	 8.79514201285862E-02 
944	 8.82715136085813E-02 
945	 8.87042916658107E-02 
946	 8.90336945215171E-02 
947	 8.91337074175173E-02 
948	 0.089400633512823 
949	 0.089845414213995 
950	 0.090283979589609 
951	 9.04183169547729E-02 
952	 9.06007778763091E-02 
953	 9.09301602668117E-02 
954	 9.13650333656565E-02 
955	 9.17410614556806E-02 
956	 9.21537172226971E-02 
957	 9.24292722407118E-02 
958	 9.25495084901577E-02 
959	 9.28317210758939E-02 
960	 9.32414914798708E-02 
961	 9.35498256293784E-02 
962	 9.36804518668099E-02 
963	 9.39416038654893E-02 
964	 9.42972899216503E-02 
965	 9.45518077142418E-02 
966	 0.094647413168949 
967	 9.49242553802813E-02 
968	 9.52535419534339E-02 
969	 9.55688462232343E-02 
970	 9.58484347050146E-02 
971	 9.61449696904323E-02 
972	 0.096466370932188 
973	 9.67103945040261E-02 
974	 0.096879350186195 
975	 9.73440870870412E-02 
976	 9.78589051988721E-02 
977	 9.80925580762808E-02 
978	 9.79848939679682E-02 
979	 0.098306822004053 
980	 9.87040120675583E-02 
981	 9.90850841244157E-02 
982	 9.94502926749578E-02 
983	 9.98660765577571E-02 
984	 9.98562942922523E-02 
985	 9.99240926146756E-02 
986	 0.100540645775316 
987	 0.100903347845301 
988	 0.101121771663421 
989	 0.101337518369333 
990	 0.10165114966949 
991	 0.10193235168946 
992	 0.10217318928558 
993	 0.10247240543124 
994	 0.10285799511553 
995	 0.102991267359381 
996	 0.103181138233762 
997	 0.103462759926092 
998	 0.103790492321164 
999	 0.104219478597869 
1000	 0.10465649502856 
1001	 0.108532777493903 
1002	 0.109014300779813 
1003	 0.109471017656146 
1004	 0.109716997072953 
1005	 0.109783519096621 
1006	 0.110035426490157 
1007	 0.110202251113952 
1008	 0.110468798014086 
1009	 0.110951591402419 
1010	 0.11125125087736 
1011	 0.111421183159159 
1012	 0.11168246405038 
1013	 0.111921039035563 
1014	 0.112202633159906 
1015	 0.112539874157217 
1016	 0.11287071889085 
1017	 0.113320469211525 
1018	 0.113654408586486 
1019	 0.113869770589873 
1020	 0.114234415600776 
1021	 0.114602480925504 
1022	 0.114970578302689 
1023	 0.115324663187441 
1024	 0.11578580549 
1025	 0.116101699855589 
1026	 0.116197038974677 
1027	 0.116455649781843 
1028	 0.116703303959363 
1029	 0.117140366709831 
1030	 0.117516301839999 
1031	 0.117979300571064 
1032	 0.118337059478254 
1033	 0.118405436355752 
1034	 0.118593369666471 
1035	 0.118949961127283 
1036	 0.119160394940871 
1037	 0.119307316300376 
1038	 0.119557370084471 
1039	 0.119772858384313 
1040	 0.120021608334807 
1041	 0.120364268985283 
1042	 0.120728070446018 
1043	 0.121188412310061 
1044	 0.121412577294726 
1045	 0.121556168847457 
1046	 0.121965179189781 
1047	 0.122388945380571 
1048	 0.122681314758231 
1049	 0.123117282520528 
1050	 0.123524394286345 
1051	 0.123717637408491 
1052	 0.123895555211047 
1053	 0.124153747699658 
1054	 0.124486927916558 
1055	 0.124766488067092 
1056	 0.125044180541056 
1057	 0.125351152095316 
1058	 0.125686410091576 
1059	 0.125875827761578 
1060	 0.126189881531068 
1061	 0.126520946103888 
1062	 0.126894165471448 
1063	 0.127331347705972 
1064	 0.127779926390273 
1065	 0.128252492935469 
1066	 0.128613543470048 
1067	 0.128987677157071 
1068	 0.12941743386174 
1069	 0.129849866806958 
1070	 0.13019795038614 
1071	 0.130550676945185 
1072	 0.130830911204735 
1073	 0.13112839742088 
1074	 0.131373520405838 
1075	 0.131690080812291 
1076	 0.132174323860444 
1077	 0.132507775037931 
1078	 0.132780495980651 
1079	 0.133158190856319 
1080	 0.133491980975182 
1081	 0.133860774814162 
1082	 0.13433644634787 
1083	 0.1348117756163 
1084	 0.135244482999775 
1085	 0.135654339502378 
1086	 0.136065496943566 
1087	 0.136464206459477 
1088	 0.136870609523764 
1089	 0.137191177918859 
1090	 0.137419093345769 
1091	 0.13775363836982 
1092	 0.138126950815242 
1093	 0.13841128182151 
1094	 0.138796133598289 
1095	 0.139166483255727 
1096	 0.139481013697823 
1097	 0.139902205527989 
1098	 0.140290326389748 
1099	 0.140605458891553 
1100	 0.140828960023008 
1101	 0.141051674851794 
1102	 0.141486227063239 
1103	 0.141864744743514 
1104	 0.142285705150971 
1105	 0.142627990501717 
1106	 0.143060243051568 
1107	 0.143352950578391 
1108	 0.143541503679046 
1109	 0.14390507462121 
1110	 0.144202310596225 
1111	 0.144401042239257 
1112	 0.144742071784486 
1113	 0.145059594161586 
1114	 0.145290782104044 
1115	 0.145623793258742 
1116	 0.145980598558381 
1117	 0.146258633007829 
1118	 0.146549352376534 
1119	 0.146831899661389 
1120	 0.14716350791123 
1121	 0.147491752381242 
1122	 0.147855430600604 
1123	 0.148227361168419 
1124	 0.148526959200379 
1125	 0.148787203311035 
1126	 0.148986823428987 
1127	 0.149264174396687 
1128	 0.149602746040393 
1129	 0.149823732714221 
1130	 0.150100547415103 
1131	 0.150374859713841 
1132	 0.150638974557359 
1133	 0.15092562890747 
1134	 0.151154680131 
1135	 0.15145650237332 
1136	 0.151788156400318 
1137	 0.152104449162087 
1138	 0.152496538738376 
1139	 0.152813350658427 
1140	 0.153086803559026 
1141	 0.153315580051987 
1142	 0.153579416527323 
1143	 0.153858100486451 
1144	 0.15418977593383 
1145	 0.154509408495334 
1146	 0.154773308441799 
1147	 0.155071159888198 
1148	 0.155370711558907 
1149	 0.155667814242365 
1150	 0.155968177853952 
1151	 0.156293303755995 
1152	 0.156634829439189 
1153	 0.157046386790532 
1154	 0.157325859100557 
1155	 0.157510352174559 
1156	 0.157806376561623 
1157	 0.158106591040484 
1158	 0.158353572807795 
1159	 0.15863185223299 
1160	 0.158930203555683 
1161	 0.159214339187589 
1162	 0.159467041227169 
1163	 0.159747402115865 
1164	 0.160081499150063 
1165	 0.160338625936882 
1166	 0.16051539361725 
1167	 0.160739982106851 
1168	 0.161030873535959 
1169	 0.161327103474531 
1170	 0.161636936819313 
1171	 0.16194070009015 
1172	 0.162304207668185 
1173	 0.16259742183083 
1174	 0.162798420102189 
1175	 0.163072217673264 
1176	 0.163384091184179 
1177	 0.163650745089923 
1178	 0.163890930662079 
1179	 0.164216097142943 
1180	 0.164481086617385 
1181	 0.164762028131694 
1182	 0.165038258985788 
1183	 0.165246951451124 
1184	 0.16550788022293 
1185	 0.165798238026421 
1186	 0.166104678706824 
1187	 0.166503621693397 
1188	 0.166825271293824 
1189	 0.167122055270941 
1190	 0.167391205301285 
1191	 0.167599774560256 
1192	 0.167865324196448 
1193	 0.168117988743442 
1194	 0.168414039224861 
1195	 0.168792320530495 
1196	 0.169119262529534 
1197	 0.169471574980053 
1198	 0.169738457379959 
1199	 0.169982650128216 
1200	 0.170271506958871 
1201	 0.170546685617663 
1202	 0.170831184052795 
1203	 0.17116196219095 
1204	 0.171572291109409 
1205	 0.171998872251838 
1206	 0.172520915633246 
1207	 0.172946181034037 
1208	 0.17335894656543 
1209	 0.173759519802908 
1210	 0.174085471564898 
1211	 0.174467867079317 
1212	 0.174907024850776 
1213	 0.175303990250669 
1214	 0.175671052546165 
1215	 0.176085187029628 
1216	 0.176453917431807 
1217	 0.176901263932087 
1218	 0.177440766727975 
1219	 0.177973891766306 
1220	 0.178433108636613 
1221	 0.179012778507874 
1222	 0.17947642699447 
1223	 0.179883656777892 
1224	 0.180344833761459 
1225	 0.180793768865778 
1226	 0.181303128414385 
1227	 0.18186967768158 
1228	 0.182400144191084 
1229	 0.182962056301347 
1230	 0.183498344905469 
1231	 0.184044182450089 
1232	 0.184520003439101 
1233	 0.184956692328008 
1234	 0.185389972044276 
1235	 0.185722486482924 
1236	 0.186124026696043 
1237	 0.186554473779265 
1238	 0.187019489123001 
1239	 0.187537190022247 
1240	 0.188068586749121 
1241	 0.188525719117202 
1242	 0.188875369872071 
1243	 0.189265074608526 
1244	 0.189547977449249 
1245	 0.18995800130613 
1246	 0.190474949224517 
1247	 0.190896674555541 
1248	 0.191289072235057 
1249	 0.191709986863488 
1250	 0.192127686499336 
1251	 0.192519232717954 
1252	 0.192897149516262 
1253	 0.193319412704909 
1254	 0.193735501271053 
1255	 0.194154229481825 
1256	 0.194668415447851 
1257	 0.195087201913692 
1258	 0.19544517769057 
1259	 0.195778248189064 
1260	 0.196000680404777 
1261	 0.196315330852842 
1262	 0.196653024112979 
1263	 0.197003693489177 
1264	 0.197374169495465 
1265	 0.197819842267047 
1266	 0.1982145607947 
1267	 0.198570160861423 
1268	 0.198974927265196 
1269	 0.199431229415225 
1270	 0.199813766860913 
1271	 0.200153232610216 
1272	 0.200552544622247 
1273	 0.200920272118016 
1274	 0.201340286626659 
1275	 0.201895360829745 
1276	 0.202312520330978 
1277	 0.202608865145876 
1278	 0.203017533186706 
1279	 0.203420877971136 
1280	 0.203843447569028 
1281	 0.204374123693537 
1282	 0.204853066768807 
1283	 0.205257609853272 
1284	 0.205712208788775 
1285	 0.206186827477308 
1286	 0.206686221306254 
1287	 0.207173834418971 
1288	 0.20770399819564 
1289	 0.208154019469883 
1290	 0.208559885404212 
1291	 0.208986834927587 
1292	 0.209379385254632 
1293	 0.209790963164824 
1294	 0.210186677833951 
1295	 0.210651421957355 
1296	 0.211178532841467 
1297	 0.211635291527868 
1298	 0.212126256880882 
1299	 0.212572768208336 
1300	 0.212885430815035 
1301	 0.213318666279577 
1302	 0.213832942485181 
1303	 0.214313612952868 
1304	 0.21486031367473 
1305	 0.215340702912246 
1306	 0.215724726477731 
1307	 0.216175548998256 
1308	 0.216648731791017 
1309	 0.217121421503947 
1310	 0.217543061078815 
1311	 0.21798100935026 
1312	 0.218390509762302 
1313	 0.218726475261556 
1314	 0.21911053000316 
1315	 0.219541303656934 
1316	 0.219912884910304 
1317	 0.220221160936198 
1318	 0.220606210908908 
1319	 0.220980262487609 
1320	 0.22142054986765 
1321	 0.221973185229951 
1322	 0.222424683915307 
1323	 0.22288888720835 
1324	 0.22328907736027 
1325	 0.223626689852682 
1326	 0.223940555299946 
1327	 0.224160029626916 
1328	 0.224467608042686 
1329	 0.22476967993482 
1330	 0.22510383725969 
1331	 0.225548016145687 
1332	 0.225926947491767 
1333	 0.226263067238567 
1334	 0.22664671868469 
1335	 0.226912529163571 
1336	 0.227099458549058 
1337	 0.227358294792081 
1338	 0.227577673526779 
1339	 0.227834569317976 
1340	 0.228136625322554 
1341	 0.22843880365263 
1342	 0.228745986177494 
1343	 0.22902612750474 
1344	 0.229343049101056 
1345	 0.229601817253206 
1346	 0.229789705532884 
1347	 0.230016025570741 
1348	 0.230250819602328 
1349	 0.230474018540744 
1350	 0.230709114591156 
1351	 0.230913205983757 
1352	 0.231065360889163 
1353	 0.231270449075263 
1354	 0.231485155181838 
1355	 0.23170492769284 
1356	 0.231985291020474 
1357	 0.232220209828269 
1358	 0.232439665080463 
1359	 0.23263513619865 
1360	 0.232780363097532 
1361	 0.232936026205148 
1362	 0.23318490903375 
1363	 0.233410446349996 
1364	 0.233618490169479 
1365	 0.233885717149089 
1366	 0.23406045731185 
1367	 0.234138804925206 
1368	 0.234288572907108 
1369	 0.234465411803598 
1370	 0.234591843459598 
1371	 0.234708484406376 
1372	 0.234823663250426 
1373	 0.234917309014262 
1374	 0.23499647867558 
1375	 0.235051728728558 
1376	 0.235153387565398 
1377	 0.235258193564266 
1378	 0.23535603118456 
1379	 0.235492043481222 
1380	 0.235611304143255 
1381	 0.235703886580974 
1382	 0.235805139565615 
1383	 0.235949853175589 
1384	 0.236040679271877 
1385	 0.23605903756765 
1386	 0.236127235576318 
1387	 0.236205837947677 
1388	 0.236276116336136 
1389	 0.23637192803391 
1390	 0.23646502736694 
1391	 0.236532999848844 
1392	 0.236593479602127 
1393	 0.236753143392221 
1394	 0.236921614293891 
1395	 0.23714530511396 
1396	 0.237461063084058 
1397	 0.237690103969431 
1398	 0.237925919147212 
1399	 0.238121251730612 
1400	 0.238282742536162 
1401	 0.238422265575887 
1402	 0.238551984634334 
1403	 0.238638232472785 
1404	 0.238683027328591 
1405	 0.238705490904496 
1406	 0.238683818869181 
1407	 0.238680205078012 
1408	 0.23866153771184 
1409	 0.23863527881915 
1410	 0.238617993064174 
1411	 0.238576375897127 
1412	 0.238491577689591 
1413	 0.238443092454 
1414	 0.238385097961827 
1415	 0.238360709108925 
1416	 0.238343065457369 
1417	 0.238374838473478 
1418	 0.2384605758961 
1419	 0.238540481679437 
1420	 0.238664963729678 
1421	 0.238771659109932 
1422	 0.238870464767284 
1423	 0.238968718442204 
1424	 0.23907074523878 
1425	 0.23917539540827 
1426	 0.239242519286865 
1427	 0.239292994145195 
1428	 0.239314319478895 
1429	 0.23935259151 
1430	 0.23941923122461 
1431	 0.239507741360787 
1432	 0.239582956953943 
1433	 0.239683290401829 
1434	 0.239755653054795 
1435	 0.239805379293329 
1436	 0.239872756713659 
1437	 0.239942182031445 
1438	 0.240005939571507 
1439	 0.240061379093939 
1440	 0.240140889383095 
1441	 0.240234864818256 
1442	 0.240317667298468 
1443	 0.240396107760768 
1444	 0.240508526727509 
1445	 0.240582547981056 
1446	 0.240757903852374 
1447	 0.240995001194531 
1448	 0.241271651838157 
1449	 0.241593615390785 
1450	 0.241983315487882 
1451	 0.242448968344912 
1452	 0.242927031477535 
1453	 0.243470389966123 
1454	 0.244012809473652 
1455	 0.244561562291222 
1456	 0.245136892420733 
1457	 0.245761042810185 
1458	 0.246373698061487 
1459	 0.247007746982922 
1460	 0.247624321528497 
1461	 0.248250866839133 
1462	 0.248838799467773 
1463	 0.249413617057358 
1464	 0.249952131069169 
1465	 0.250407874078324 
1466	 0.250922072582136 
1467	 0.251402336307224 
1468	 0.251883923387976 
1469	 0.252496568179573 
1470	 0.253042691699119 
1471	 0.253568068813061 
1472	 0.254107160448259 
1473	 0.254618829320321 
1474	 0.255072579956133 
1475	 0.2555481365422 
1476	 0.256038666847219 
1477	 0.256521109070067 
1478	 0.256981447935174 
1479	 0.25744344635987 
1480	 0.257931414755964 
1481	 0.258371605299212 
1482	 0.258781929133375 
1483	 0.259182932558685 
1484	 0.25955822396685 
1485	 0.259942576370522 
1486	 0.260317986127687 
1487	 0.26068239382412 
1488	 0.261015502821046 
1489	 0.261408264664932 
1490	 0.261840015156738 
1491	 0.262230584637164 
1492	 0.262622126830345 
1493	 0.263042670297467 
1494	 0.263423178215309 
1495	 0.263857985746243 
1496	 0.26435671404392 
1497	 0.264859413110171 
1498	 0.265399313171371 
1499	 0.265901225814025 
1500	 0.26640878507618 
1501	 0.266912081973491 
1502	 0.267400549088714 
1503	 0.267861621526781 
1504	 0.268313051727049 
1505	 0.268768380683499 
1506	 0.269216024132827 
1507	 0.269624689119862 
1508	 0.270001600423297 
1509	 0.270408942491386 
1510	 0.270776750533084 
1511	 0.271172077526504 
1512	 0.271644950677407 
1513	 0.272067464143316 
1514	 0.272470993182156 
1515	 0.272856668524039 
1516	 0.273188373641395 
1517	 0.273550737550096 
1518	 0.2739556102777 
1519	 0.274298523899683 
1520	 0.274597767901421 
1521	 0.274933839411298 
1522	 0.275224813880753 
1523	 0.275503997546995 
1524	 0.275774211234488 
1525	 0.276056658026698 
1526	 0.276340596573502 
1527	 0.276594638573725 
1528	 0.276870835509743 
1529	 0.277174710587416 
1530	 0.277472050693162 
1531	 0.277770569435457 
1532	 0.278037166955761 
1533	 0.278306354380056 
1534	 0.278566658229036 
1535	 0.278788330867331 
1536	 0.279025033571195 
1537	 0.279260605407576 
1538	 0.279539549691896 
1539	 0.27981728998173 
1540	 0.280123968691351 
1541	 0.280493962985124 
1542	 0.280825197094421 
1543	 0.281142221212358 
1544	 0.281466795904904 
1545	 0.281763581677829 
1546	 0.282143723961333 
1547	 0.282589563881146 
1548	 0.282965187824185 
1549	 0.283377491476569 
1550	 0.283741496307974 
1551	 0.283998806938099 
1552	 0.284358487361487 
1553	 0.284790351798963 
1554	 0.285160242258939 
1555	 0.285533008015476 
1556	 0.285897315699464 
1557	 0.286211683697378 
1558	 0.286572725908247 
1559	 0.286970459247045 
1560	 0.287348450421663 
1561	 0.287752049314297 
1562	 0.288102679269251 
1563	 0.288405329661437 
1564	 0.28874552133014 
1565	 0.289068418825739 
1566	 0.289407644728802 
1567	 0.289790702078487 
1568	 0.290140505917997 
1569	 0.29046567757024 
1570	 0.290801687441943 
1571	 0.291114191555255 
1572	 0.291472945777483 
1573	 0.29185021955557 
1574	 0.292243179156931 
1575	 0.292729308155437 
1576	 0.293101344751402 
1577	 0.293404147991255 
1578	 0.293739381601148 
1579	 0.294030647738273 
1580	 0.294325597953949 
1581	 0.294626130721772 
1582	 0.294958799424828 
1583	 0.295286077011621 
1584	 0.295617228270461 
1585	 0.296024535632095 
1586	 0.296359323863424 
1587	 0.296632819801839 
1588	 0.296921010567725 
1589	 0.297172794594796 
1590	 0.297457936834769 
1591	 0.297737054944373 
1592	 0.298061105621357 
1593	 0.298451868831009 
1594	 0.298796002306689 
1595	 0.299157110796253 
1596	 0.299491099852617 
1597	 0.299776844935479 
1598	 0.30007660431731 
1599	 0.300360848661425 
1600	 0.300673793986621 
1601	 0.301017823487352 
1602	 0.301332074462431 
1603	 0.301670507382783 
1604	 0.301964206606413 
1605	 0.302189704627954 
1606	 0.3024527666795 
1607	 0.302708265954985 
1608	 0.302983218908262 
1609	 0.303286706716305 
1610	 0.303579611191016 
1611	 0.303883090230227 
1612	 0.304171511426771 
1613	 0.304484255478195 
1614	 0.304736739501834 
1615	 0.304932989890069 
1616	 0.30514837005814 
1617	 0.305314359491107 
1618	 0.30551807650992 
1619	 0.305762028309597 
1620	 0.305986753042165 
1621	 0.306192599201968 
1622	 0.306433163246057 
1623	 0.306726960501401 
1624	 0.306960327344842 
1625	 0.307198118990006 
1626	 0.307398941231432 
1627	 0.307496514797477 
1628	 0.307660162639919 
1629	 0.30787620437316 
1630	 0.308050590355759 
1631	 0.308220615715272 
1632	 0.308393070770515 
1633	 0.308518913851591 
1634	 0.308680925432465 
1635	 0.308862585563609 
1636	 0.309072227631983 
1637	 0.30933589499943 
1638	 0.309554780097722 
1639	 0.309800963992964 
1640	 0.309991967135689 
1641	 0.310122312581641 
1642	 0.310249738292218 
1643	 0.310351529260499 
1644	 0.310445685119369 
1645	 0.310474984110456 
1646	 0.310587472695798 
1647	 0.310775161668204 
1648	 0.310893991389719 
1649	 0.311045954293552 
1650	 0.311161945653628 
1651	 0.311203640578785 
1652	 0.311244995518758 
1653	 0.311292764094627 
1654	 0.311312413657591 
1655	 0.311306406702486 
1656	 0.311281904689664 
1657	 0.311237779861629 
1658	 0.311190205136579 
1659	 0.31113638181566 
1660	 0.311021830803785 
1661	 0.310888450284621 
1662	 0.310717015856371 
1663	 0.310485205469328 
1664	 0.310246481277958 
1665	 0.310005792652236 
1666	 0.309705931123087 
1667	 0.309331050965294 
1668	 0.308977722056227 
1669	 0.308654262061159 
1670	 0.308224126293641 
1671	 0.307752372964053 
1672	 0.307233905001837 
1673	 0.30662863517006 
1674	 0.305983762624635 
1675	 0.305322122400343 
1676	 0.304602766010965 
1677	 0.303808011317505 
1678	 0.302973380934648 
1679	 0.302103770454244 
1680	 0.301174788328482 
1681	 0.300188107722722 
1682	 0.29912799517274 
1683	 0.298032286318464 
1684	 0.296862062258016 
1685	 0.295571443105924 
1686	 0.294319798387865 
1687	 0.293079212745197 
1688	 0.291677784660381 
1689	 0.290212998486282 
1690	 0.288691460087089 
1691	 0.286964639278145 
1692	 0.285428773560827 
1693	 0.283994802505304 
1694	 0.28246401243218 
1695	 0.280941780667711 
1696	 0.279395537659552 
1697	 0.277790962375488 
1698	 0.276193868375205 
1699	 0.274637458318675 
1700	 0.273048419242422 
1701	 0.271414903949287 
1702	 0.26977306320555 
1703	 0.268032965653196 
1704	 0.266501630841681 
1705	 0.264992757855215 
1706	 0.263634989055323 
1707	 0.262552272971144 
1708	 0.261573188060061 
1709	 0.260600068529839 
1710	 0.259697040193171 
1711	 0.258798936985733 
1712	 0.257923808978576 
1713	 0.25709707357422 
1714	 0.25637740544328 
1715	 0.255741100278243 
1716	 0.25501811077813 
1717	 0.254342502207415 
1718	 0.253723926941289 
1719	 0.253092927238662 
1720	 0.252571418040793 
1721	 0.252054418682901 
1722	 0.251545345364223 
1723	 0.251194676141582 
1724	 0.250908658184216 
1725	 0.250760571018261 
1726	 0.250842671141382 
1727	 0.250950428835075 
1728	 0.251150199260951 
1729	 0.251616247420051 
1730	 0.252175203137711 
1731	 0.252829174897473 
1732	 0.253731814047653 
1733	 0.254686161562729 
1734	 0.255712181145538 
1735	 0.256855712565883 
1736	 0.257958987075653 
1737	 0.259025894198669 
1738	 0.260045501844475 
1739	 0.260921066944591 
1740	 0.261756437657176 
1741	 0.262452007219468 
1742	 0.263027466456795 
1743	 0.263428137174432 
1744	 0.26365791582979 
1745	 0.263826519334913 
1746	 0.263763140674868 
1747	 0.263792893667534 
1748	 0.263825754171442 
1749	 0.263830198246477 
1750	 0.26381171817298 
1751	 0.263810791063517 
1752	 0.263753868295707 
1753	 0.263821991123818 
1754	 0.263958636104229 
1755	 0.264132212239866 
1756	 0.264348637589792 
1757	 0.264675381665315 
1758	 0.265029299979845 
1759	 0.265427335040773 
1760	 0.265999554445485 
1761	 0.266647226463499 
1762	 0.267291867378782 
1763	 0.268082879743786 
1764	 0.268982176092839 
1765	 0.269999744885762 
1766	 0.27115260520405 
1767	 0.27231373156641 
1768	 0.273556991638291 
1769	 0.274833336020001 
1770	 0.276004528959594 
1771	 0.277190040436382 
1772	 0.27834644536874 
1773	 0.279404490949742 
1774	 0.280543644773266 
1775	 0.281741735790206 
1776	 0.282929067747332 
1777	 0.284031871768166 
1778	 0.285026227454257 
1779	 0.286000107655795 
1780	 0.286834803115576 
1781	 0.287654316517396 
1782	 0.288490379546977 
1783	 0.289170713713862 
1784	 0.289858146491012 
1785	 0.290575015409211 
1786	 0.291169062482797 
1787	 0.291715578785285 
1788	 0.292270102432597 
1789	 0.292723706668877 
1790	 0.293168233865506 
1791	 0.293658674052457 
1792	 0.294055984183517 
1793	 0.294318002085852 
1794	 0.294631851033669 
1795	 0.29496478890385 
1796	 0.295354675467245 
1797	 0.295778016331793 
1798	 0.296058906926412 
1799	 0.296393274461592 
1800	 0.296748391493642 
1801	 0.292704240269539 
1802	 0.292946458059014 
1803	 0.293266475558157 
1804	 0.293565170342374 
1805	 0.293858527368933 
1806	 0.294209628488207 
1807	 0.294663051573222 
1808	 0.295030518892672 
1809	 0.295410707515034 
1810	 0.295712021552603 
1811	 0.295917745122253 
1812	 0.296198906634777 
1813	 0.296441011287424 
1814	 0.29676327038244 
1815	 0.297080663654464 
1816	 0.297388686608009 
1817	 0.297749330790578 
1818	 0.298126412184486 
1819	 0.298473605361495 
1820	 0.298841169061934 
1821	 0.29925305456217 
1822	 0.299632182350936 
1823	 0.300071792556223 
1824	 0.300607184437319 
1825	 0.301007122568157 
1826	 0.301415738989976 
1827	 0.301774741774916 
1828	 0.302140365484873 
1829	 0.302497829421702 
1830	 0.302880735340589 
1831	 0.303254217498292 
1832	 0.303635867424102 
1833	 0.304017480564993 
1834	 0.304359051606754 
1835	 0.304770175742936 
1836	 0.305181445144983 
1837	 0.305579125642941 
1838	 0.306021416129348 
1839	 0.306426656213852 
1840	 0.306769560227076 
1841	 0.307153836518514 
1842	 0.30756583831877 
1843	 0.307969147260197 
1844	 0.30836329730992 
1845	 0.308747894003754 
1846	 0.309068671743001 
1847	 0.309419985904671 
1848	 0.309751072981539 
1849	 0.310051960280449 
1850	 0.310354628581015 
1851	 0.31066524160644 
1852	 0.310949363340334 
1853	 0.311255696887766 
1854	 0.311534053238388 
1855	 0.311744493415161 
1856	 0.311968508593873 
1857	 0.312134390909228 
1858	 0.312280434839598 
1859	 0.312415306619999 
1860	 0.312557189493648 
1861	 0.312647344615532 
1862	 0.312722370288343 
1863	 0.312741431563127 
1864	 0.312650431224579 
1865	 0.31259130435902 
1866	 0.312472225443691 
1867	 0.312295281333962 
1868	 0.312229776865792 
1869	 0.312096949839985 
1870	 0.311865906298373 
1871	 0.311557280438384 
1872	 0.311231328842915 
1873	 0.310822577484689 
1874	 0.310424684164065 
1875	 0.30998317591657 
1876	 0.309488460141272 
1877	 0.308980494007954 
1878	 0.308375900386172 
1879	 0.307708197332184 
1880	 0.307019151498359 
1881	 0.306261063302117 
1882	 0.305420735791165 
1883	 0.304552002296427 
1884	 0.303642770633494 
1885	 0.302624289175098 
1886	 0.301596803639702 
1887	 0.300404303879003 
1888	 0.299041317155192 
1889	 0.2977590557612 
1890	 0.296409277512044 
1891	 0.295047331425213 
1892	 0.293699287413269 
1893	 0.292290118153031 
1894	 0.290821038805077 
1895	 0.289365131759218 
1896	 0.287818921363402 
1897	 0.286317130455745 
1898	 0.284966302420808 
1899	 0.283541347528716 
1900	 0.282176352405993 
1901	 0.280859888899855 
1902	 0.279474595674123 
1903	 0.278191724262121 
1904	 0.27693366671674 
1905	 0.275712907104709 
1906	 0.274520162220913 
1907	 0.273465376367673 
1908	 0.272413045457959 
1909	 0.271423966245904 
1910	 0.270601830589222 
1911	 0.269750810826833 
1912	 0.268943638803301 
1913	 0.268194707787498 
1914	 0.267409328431541 
1915	 0.26668303935527 
1916	 0.265989777577765 
1917	 0.265315658725437 
1918	 0.264716070959879 
1919	 0.264216948782097 
1920	 0.263706697055161 
1921	 0.263232129971719 
1922	 0.26275885900752 
1923	 0.262268094972047 
1924	 0.261832879331463 
1925	 0.26139049195913 
1926	 0.260962751043531 
1927	 0.260538584253368 
1928	 0.260142135884116 
1929	 0.259754273810344 
1930	 0.259406637564833 
1931	 0.25905460736428 
1932	 0.258752226246398 
1933	 0.25848372160244 
1934	 0.258246866156648 
1935	 0.258078261390219 
1936	 0.257951752197836 
1937	 0.257898096753311 
1938	 0.257916240469418 
1939	 0.257969822205487 
1940	 0.258069434690882 
1941	 0.258247627833578 
1942	 0.258505245570761 
1943	 0.258741563378054 
1944	 0.259041394354546 
1945	 0.259371966875497 
1946	 0.25966091120237 
1947	 0.26001707132874 
1948	 0.260460304944649 
1949	 0.2609196762646 
1950	 0.261434906794776 
1951	 0.262025637495263 
1952	 0.26263356267798 
1953	 0.263249572601753 
1954	 0.263963079145739 
1955	 0.264731476946608 
1956	 0.265463430110917 
1957	 0.266270562853056 
1958	 0.267075362178436 
1959	 0.267825163233519 
1960	 0.26855809687562 
1961	 0.269221949354935 
1962	 0.269803967560468 
1963	 0.270398472598259 
1964	 0.27095313516471 
1965	 0.27149012564544 
1966	 0.272038442228904 
1967	 0.272523022228227 
1968	 0.272906077284993 
1969	 0.273332981669982 
1970	 0.273730301874224 
1971	 0.274135740288005 
1972	 0.274673644575961 
1973	 0.275164083975445 
1974	 0.275620122238993 
1975	 0.276077160857744 
1976	 0.276508038016652 
1977	 0.276844268163308 
1978	 0.277283613636484 
1979	 0.277745152045823 
1980	 0.278251091527113 
1981	 0.278825628946138 
1982	 0.279366383407447 
1983	 0.27995591282744 
1984	 0.280535233246391 
1985	 0.281039811564795 
1986	 0.281528773041638 
1987	 0.28207155711734 
1988	 0.282562143229842 
1989	 0.283185622546047 
1990	 0.283933935897974 
1991	 0.28464976476589 
1992	 0.285440302724343 
1993	 0.286175087010933 
1994	 0.286832034040459 
1995	 0.287603766439879 
1996	 0.288379179012778 
1997	 0.289226406301457 
1998	 0.290097800823672 
1999	 0.2910942003318 
2000	 0.291919263748391 
2001	 0.292719425251994 
2002	 0.293455481089687 
2003	 0.294092292438463 
2004	 0.294739731857064 
2005	 0.295384516745426 
2006	 0.295950264118656 
2007	 0.296442192657481 
2008	 0.296932504491798 
2009	 0.297363635342307 
2010	 0.297874462194175 
2011	 0.298374411966418 
2012	 0.2987704299479 
2013	 0.299127752189822 
2014	 0.299388587256268 
2015	 0.299686347656975 
2016	 0.299978930843527 
2017	 0.30022824495659 
2018	 0.300484927555331 
2019	 0.300683178460327 
2020	 0.300851550787977 
2021	 0.300913036422158 
2022	 0.300974901181959 
2023	 0.300983184450858 
2024	 0.300896478306119 
2025	 0.300856425588687 
2026	 0.300813258963093 
2027	 0.300776484916032 
2028	 0.300700171901049 
2029	 0.300612595051181 
2030	 0.300513623440847 
2031	 0.300387112624325 
2032	 0.30025385336979 
2033	 0.300114307665436 
2034	 0.29997787822214 
2035	 0.299834789658458 
2036	 0.299643736265252 
2037	 0.299507363242462 
2038	 0.299415634193164 
2039	 0.299275518929624 
2040	 0.299126839331359 
2041	 0.298969155878441 
2042	 0.298794015688868 
2043	 0.298607626242663 
2044	 0.29837335825841 
2045	 0.29823567129221 
2046	 0.298145525395542 
2047	 0.298023117911093 
2048	 0.297939243801996 
2049	 0.297861453401221 
2050	 0.29778338258028 
2051	 0.297653718308574 
2052	 0.297551783696278 
2053	 0.297545048031218 
2054	 0.297467232548081 
2055	 0.297338653699559 
2056	 0.297258285562532 
2057	 0.29719217116499 
2058	 0.2971021100333 
2059	 0.297028503270446 
2060	 0.296947709518902 
2061	 0.2968478433767 
2062	 0.296760238357571 
2063	 0.296653536694916 
2064	 0.296578261303177 
2065	 0.29653001957758 
2066	 0.296485330603137 
2067	 0.296379273612176 
2068	 0.2963113043552 
2069	 0.296259009614707 
2070	 0.296171198255776 
2071	 0.296129679211677 
2072	 0.296211721709318 
2073	 0.29612456428259 
2074	 0.295910832442881 
2075	 0.295814646912926 
2076	 0.295688274192352 
2077	 0.295603044586531 
2078	 0.295657724848515 
2079	 0.295597192679872 
2080	 0.295425573277445 
2081	 0.295324275362913 
2082	 0.295210313861062 
2083	 0.295138131825575 
2084	 0.295136011967073 
2085	 0.295047254840135 
2086	 0.294928562923894 
2087	 0.29471706754619 
2088	 0.294629696751604 
2089	 0.294558945196951 
2090	 0.294505540714527 
2091	 0.294579936881514 
2092	 0.29452230435675 
2093	 0.294333122402652 
2094	 0.294256102741557 
2095	 0.294252492289578 
2096	 0.294151724059927 
2097	 0.294076388706806 
2098	 0.293951687999752 
2099	 0.293735712571128 
2100	 0.293459860653226 
2101	 0.293232943103209 
2102	 0.293007567581693 
2103	 0.2928366555012 
2104	 0.292669720393052 
2105	 0.292533198596793 
2106	 0.292544761509925 
2107	 0.292344264017089 
2108	 0.292049783372827 
2109	 0.291764708698023 
2110	 0.291340982793495 
2111	 0.290983269101152 
2112	 0.290696856505914 
2113	 0.29034243784464 
2114	 0.289897079430643 
2115	 0.289529739768905 
2116	 0.289197507291808 
2117	 0.288856399630172 
2118	 0.288472044796041 
2119	 0.288108472081804 
2120	 0.287746840331232 
2121	 0.287300074338158 
2122	 0.286938022572566 
2123	 0.286634270763105 
2124	 0.286365351658268 
2125	 0.286145762883645 
2126	 0.285898739863161 
2127	 0.285711854543543 
2128	 0.285465970995616 
2129	 0.285114409266388 
2130	 0.284857998842864 
2131	 0.284647169981228 
2132	 0.28445285445938 
2133	 0.284342625177853 
2134	 0.284167142742141 
2135	 0.284036061093794 
2136	 0.283800711250424 
2137	 0.283640831201758 
2138	 0.283477160576875 
2139	 0.28335910809749 
2140	 0.283305600614859 
2141	 0.283196744552245 
2142	 0.283078620516816 
2143	 0.282969010624337 
2144	 0.28280416686953 
2145	 0.282716846200087 
2146	 0.282671451517945 
2147	 0.282652364396951 
2148	 0.282696538303323 
2149	 0.282727848567009 
2150	 0.282758795331812 
2151	 0.282808062741374 
2152	 0.28286754390249 
2153	 0.28294211640304 
2154	 0.283015122235281 
2155	 0.283170261624814 
2156	 0.283270805627879 
2157	 0.283389091911819 
2158	 0.283433622671618 
2159	 0.283445059204603 
2160	 0.283444991393841 
2161	 0.283389603572068 
2162	 0.283350290927409 
2163	 0.283303672815272 
2164	 0.283259146932402 
2165	 0.28319499999439 
2166	 0.283147048678459 
2167	 0.283143863387026 
2168	 0.28308708227025 
2169	 0.283007421650257 
2170	 0.28291666051453 
2171	 0.282706578566633 
2172	 0.282629230205979 
2173	 0.28260322153584 
2174	 0.282655838011272 
2175	 0.282698688857488 
2176	 0.282664186455132 
2177	 0.282624817994385 
2178	 0.28246896860338 
2179	 0.282457068133889 
2180	 0.282528030343355 
2181	 0.282563002456975 
2182	 0.282636306351451 
2183	 0.282651686110847 
2184	 0.282635320054267 
2185	 0.282627281215522 
2186	 0.282635005489411 
2187	 0.282580645598361 
2188	 0.282473555933566 
2189	 0.282398027929859 
2190	 0.282302085437951 
2191	 0.28218893867264 
2192	 0.282117657766492 
2193	 0.281987275523833 
2194	 0.281733430276022 
2195	 0.281573825092609 
2196	 0.281486362860223 
2197	 0.281344466023369 
2198	 0.281221619765067 
2199	 0.281020580403058 
2200	 0.280768409336418 
2201	 0.28041038790532 
2202	 0.280104270897279 
2203	 0.279761548673564 
2204	 0.27949138849619 
2205	 0.279226324961241 
2206	 0.27897754127528 
2207	 0.278801355684348 
2208	 0.278578946300998 
2209	 0.278435502938125 
2210	 0.27809847623354 
2211	 0.277562240036883 
2212	 0.277196665444335 
2213	 0.276781117698141 
2214	 0.276399669802078 
2215	 0.276198102730545 
2216	 0.27590004068875 
2217	 0.275493165225288 
2218	 0.275122312764818 
2219	 0.274789920958578 
2220	 0.274422888482575 
2221	 0.274024731787913 
2222	 0.273634372005669 
2223	 0.273245546990468 
2224	 0.272800638330615 
2225	 0.272289917083358 
2226	 0.27173520767555 
2227	 0.271111363544399 
2228	 0.270411748963952 
2229	 0.269668926215594 
2230	 0.268859519533586 
2231	 0.268025783558715 
2232	 0.267173132078398 
2233	 0.266185443485009 
2234	 0.265184911209153 
2235	 0.263974725029269 
2236	 0.262588408850838 
2237	 0.261135351572802 
2238	 0.259492417422017 
2239	 0.257882567885292 
2240	 0.256261278598153 
2241	 0.254473216076999 
2242	 0.252635705075299 
2243	 0.250665956411723 
2244	 0.248494235280351 
2245	 0.246306347871512 
2246	 0.244016164877736 
2247	 0.241700728315724 
2248	 0.239397702277182 
2249	 0.236931237307727 
2250	 0.234436507805774 
2251	 0.231718737530539 
2252	 0.228762438103232 
2253	 0.225887860615422 
2254	 0.223051626121256 
2255	 0.220223955775545 
2256	 0.217633022346068 
2257	 0.215022396702422 
2258	 0.212479694337159 
2259	 0.210077129502736 
2260	 0.207514133511635 
2261	 0.204905410677102 
2262	 0.202363755252606 
2263	 0.199689818459973 
2264	 0.197230120046831 
2265	 0.194922304885942 
2266	 0.192605055463837 
2267	 0.190327906318563 
2268	 0.188173896815883 
2269	 0.186147509186787 
2270	 0.184134045916558 
2271	 0.18217279449163 
2272	 0.180314690871262 
2273	 0.17847856073661 
2274	 0.176712957451917 
2275	 0.175181956726537 
2276	 0.173533239303388 
2277	 0.171810650802064 
2278	 0.170212886083361 
2279	 0.168580066171358 
2280	 0.167036309953781 
2281	 0.165762788681234 
2282	 0.164272250116558 
2283	 0.162681420651549 
2284	 0.161153183900116 
2285	 0.159478711101791 
2286	 0.157727193315727 
2287	 0.155995162537497 
2288	 0.154129682005371 
2289	 0.15230355908823 
2290	 0.150310075874527 
2291	 0.14837166198966 
2292	 0.146616622916239 
2293	 0.144636968536785 
2294	 0.142741025266415 
2295	 0.140856560905391 
2296	 0.138833636802987 
2297	 0.13702192606191 
2298	 0.135247369071225 
2299	 0.133718083507888 
2300	 0.132373683206953 
2301	 0.131163277880553 
2302	 0.130111031874444 
2303	 0.129247423946206 
2304	 0.128447450984779 
2305	 0.1280598545281 
2306	 0.128035500942108 
2307	 0.128140395473435 
2308	 0.128492478866289 
2309	 0.129095112243429 
2310	 0.129873053015162 
2311	 0.13095030778976 
2312	 0.13254649258723 
2313	 0.133990778641376 
2314	 0.135676775593547 
2315	 0.137194984254499 
2316	 0.138552609339344 
2317	 0.140106522458143 
2318	 0.141744608868587 
2319	 0.143261197682616 
2320	 0.144994621596881 
2321	 0.146392926278711 
2322	 0.14754805232074 
2323	 0.148648910525126 
2324	 0.149666467810957 
2325	 0.150445005567554 
2326	 0.151001653972333 
2327	 0.151507202179246 
2328	 0.1519735165163 
2329	 0.152092179328412 
2330	 0.15201286667055 
2331	 0.151713635072515 
2332	 0.151155427980919 
2333	 0.15039386672051 
2334	 0.14965332395462 
2335	 0.149048366127327 
2336	 0.148342869902797 
2337	 0.14736947524813 
2338	 0.146546064593324 
2339	 0.145526768904543 
2340	 0.144208377258184 
2341	 0.143028660189466 
2342	 0.141695100881461 
2343	 0.140333568516367 
2344	 0.139388113800872 
2345	 0.138588291382668 
2346	 0.137829304011755 
2347	 0.137326541207526 
2348	 0.137082782270461 
2349	 0.137245719929508 
2350	 0.137616029454997 
2351	 0.138314636689143 
2352	 0.139430379537999 
2353	 0.140507465205304 
2354	 0.141698902439322 
2355	 0.143165931668114 
2356	 0.144314314023898 
2357	 0.145219501026572 
2358	 0.146284386084338 
2359	 0.147214511982906 
2360	 0.14813054503337 
2361	 0.149075646003917 
2362	 0.149581595188856 
2363	 0.149955352733205 
2364	 0.150388885270024 
2365	 0.150421126042125 
2366	 0.15047810516799 
2367	 0.150740845346494 
2368	 0.150688122414718 
2369	 0.150538848629835 
2370	 0.150574961840433 
2371	 0.150462943058012 
2372	 0.150511317447009 
2373	 0.150889147779651 
2374	 0.150955760437832 
2375	 0.151074162372117 
2376	 0.151101537028598 
2377	 0.150676937625083 
2378	 0.150517652017414 
2379	 0.150459401488278 
2380	 0.150476332585809 
2381	 0.150866059661525 
2382	 0.151194287608086 
2383	 0.151788069773618 
2384	 0.152054652587781 
2385	 0.152155003208451 
2386	 0.152260051650668 
2387	 0.152232034832277 
2388	 0.152250719083477 
2389	 0.152201800393451 
2390	 0.152359907210907 
2391	 0.152627391455689 
2392	 0.152814404435543 
2393	 0.153217299782684 
2394	 0.153357383221926 
2395	 0.153185867874104 
2396	 0.153244890412161 
2397	 0.153355394343991 
2398	 0.153411443763959 
2399	 0.153713202357277 
2400	 0.153567075926183 
2401	 0.152942988593688 
2402	 0.152974062348267 
2403	 0.152807990991062 
2404	 0.152929546678744 
2405	 0.153092254619074 
2406	 0.153189040752094 
2407	 0.153324400207914 
2408	 0.153569043451623 
2409	 0.153994899128558 
2410	 0.154022939989644 
2411	 0.154029362614064 
2412	 0.154022282505954 
2413	 0.153903201405753 
2414	 0.153767911858031 
2415	 0.153279113467239 
2416	 0.153061440285822 
2417	 0.153310530607408 
2418	 0.153372116634481 
2419	 0.153694575903858 
2420	 0.153935571581901 
2421	 0.153526151224598 
2422	 0.153540760354796 
2423	 0.153670617787149 
2424	 0.153882450311734 
2425	 0.153830541353386 
2426	 0.153374763793997 
2427	 0.153395706115394 
2428	 0.153009714102052 
2429	 0.153387104245478 
2430	 0.154039817549021 
2431	 0.153876071550845 
2432	 0.154057969441567 
2433	 0.154027895506751 
2434	 0.153697662683414 
2435	 0.153360849045748 
2436	 0.153255693570464 
2437	 0.153156383633992 
2438	 0.153372135165071 
2439	 0.154052116151064 
2440	 0.15433202627078 
2441	 0.154504375411676 
2442	 0.154379051213755 
2443	 0.153891807058824 
2444	 0.153565833409507 
2445	 0.153449372023143 
2446	 0.153774327031199 
2447	 0.154108720182054 
2448	 0.154105681297955 
2449	 0.153817560385093 
2450	 0.153168377838741 
2451	 0.152125390553347 
2452	 0.151179922125608 
2453	 0.151186079179187 
2454	 0.15095172354671 
2455	 0.150910832682298 
2456	 0.151385742145479 
2457	 0.150317269758779 
2458	 0.148996791306736 
2459	 0.148757601515302 
2460	 0.148885963108428 
2461	 0.14873099755246 
2462	 0.148664497146987 
2463	 0.148446242774194 
2464	 0.147239501077233 
2465	 0.147275433197667 
2466	 0.148321918376075 
2467	 0.148201332838992 
2468	 0.1484489444855 
2469	 0.14863825998653 
2470	 0.148255528815578 
2471	 0.1488461510242 
2472	 0.149357848520158 
2473	 0.149744221371931 
2474	 0.149862707536647 
2475	 0.149536950529372 
2476	 0.149415172266049 
2477	 0.148935119508177 
2478	 0.149371154239217 
2479	 0.15056429670395 
2480	 0.151410599963156 
2481	 0.152092999185725 
2482	 0.152069638861008 
2483	 0.15218396255666 
2484	 0.15300164384448 
2485	 0.154012631442944 
2486	 0.154587600806747 
2487	 0.155290153942001 
2488	 0.156331575358635 
2489	 0.156217715415445 
2490	 0.15652253129961 
2491	 0.1572894240945 
2492	 0.15745061193829 
2493	 0.157728888993834 
2494	 0.158197132930475 
2495	 0.158219057440153 
2496	 0.157517999849912 
2497	 0.157555660187624 
2498	 0.158071359310225 
2499	 0.15831891528361 
2500	 0.158523655825643 
