Wavelength	Tablay400095.asd
350	 8.89393369154474E-02 
351	 0.137946709599773 
352	 0.154653250178487 
353	 0.118947371535817 
354	 0.195942341004577 
355	 0.198626569151644 
356	 0.161780687789595 
357	 0.14717223008135 
358	 0.126331546614945 
359	 0.12335590049469 
360	 0.162874097570032 
361	 0.250670880702604 
362	 0.210485515813822 
363	 0.148790122187081 
364	 0.133965333016969 
365	 0.124374462538376 
366	 0.117066964961628 
367	 0.123662873075722 
368	 0.149975734825452 
369	 0.180797976547813 
370	 0.185006696862944 
371	 0.155436967051026 
372	 0.115817169455457 
373	 0.154528782470543 
374	 0.18368974380123 
375	 0.156326425731564 
376	 0.117667934327918 
377	 0.136404383048673 
378	 0.150767132082179 
379	 0.10857532377111 
380	 9.04117846917093E-02 
381	 8.92362554790024E-02 
382	 9.55524996737599E-02 
383	 9.76142130103463E-02 
384	 0.101470362243823 
385	 0.106033294917879 
386	 0.104903627432571 
387	 0.085132564045436 
388	 9.73156322054485E-02 
389	 0.114475461753786 
390	 0.101205226973495 
391	 6.34054866060651E-02 
392	 9.80407506494789E-02 
393	 0.144723229975965 
394	 6.68492020035986E-02 
395	 8.09421861885999E-02 
396	 0.103326160100618 
397	 8.44976412619283E-02 
398	 8.56378640785455E-02 
399	 0.113817442616703 
400	 0.121531591672573 
401	 8.13481651286462E-02 
402	 9.18886691448513E-02 
403	 0.101297620904045 
404	 9.75797555785768E-02 
405	 0.101867941728866 
406	 0.108151578503526 
407	 0.114607288529854 
408	 0.116907297192928 
409	 0.102335903550577 
410	 9.61253999763994E-02 
411	 9.91400688694929E-02 
412	 0.103978404026848 
413	 0.108635176849557 
414	 0.103987782617835 
415	 9.57492867364246E-02 
416	 0.100984688699967 
417	 0.107920358039275 
418	 0.102928718542389 
419	 8.82091642467599E-02 
420	 0.104502080802285 
421	 0.101988197291745 
422	 9.23420473682098E-02 
423	 0.104122819104852 
424	 0.105186250319286 
425	 0.108157349219535 
426	 0.115247347359655 
427	 0.114293308267301 
428	 0.106392413900583 
429	 0.101753259754964 
430	 0.106798906383992 
431	 0.113384696065954 
432	 0.114320540817035 
433	 0.111220392678715 
434	 0.110274133583131 
435	 0.10973627673222 
436	 0.112691107180949 
437	 0.11806116169948 
438	 0.118151190637821 
439	 0.119220727086556 
440	 0.120448671976705 
441	 0.119886864894795 
442	 0.118886143966323 
443	 0.118567403142484 
444	 0.11931154711476 
445	 0.120818782207524 
446	 0.121733062481286 
447	 0.123458641377952 
448	 0.126374312524488 
449	 0.128043650282925 
450	 0.128372776887601 
451	 0.128934877207436 
452	 0.131120722424029 
453	 0.130850397224364 
454	 0.131539042511403 
455	 0.133798215194665 
456	 0.134784411049271 
457	 0.135293217250527 
458	 0.135779216232873 
459	 0.136520476649836 
460	 0.137423534085407 
461	 0.138296387303938 
462	 0.139292443620641 
463	 0.14050860592311 
464	 0.139788617376444 
465	 0.139123995894513 
466	 0.139574484470273 
467	 0.140142167995095 
468	 0.141811901709475 
469	 0.142397957048179 
470	 0.140679493995035 
471	 0.142825787007733 
472	 0.143663038449019 
473	 0.14299307782396 
474	 0.144355913118229 
475	 0.144082039151356 
476	 0.143722504122051 
477	 0.144247486913617 
478	 0.143622131951201 
479	 0.143237536540834 
480	 0.143820165868558 
481	 0.145364044387486 
482	 0.1452821348175 
483	 0.145162646424172 
484	 0.145230856671984 
485	 0.143933676663285 
486	 0.143301349210593 
487	 0.1431650497189 
488	 0.14304668863922 
489	 0.143287224683666 
490	 0.142566713621226 
491	 0.141047637939828 
492	 0.139799461767029 
493	 0.139499625039868 
494	 0.13919716784384 
495	 0.138268808547271 
496	 0.1368291342715 
497	 0.136745518972727 
498	 0.136062970960279 
499	 0.133023723090522 
500	 0.13212506974939 
501	 0.131034310407874 
502	 0.129479972273541 
503	 0.129021423349344 
504	 0.127158021021404 
505	 0.125764916983012 
506	 0.125788135275359 
507	 0.124210644707411 
508	 0.122790855441734 
509	 0.121223789999632 
510	 0.118772505503652 
511	 0.117877674152317 
512	 0.117356169849245 
513	 0.116249091105438 
514	 0.114283328540527 
515	 0.112563521320247 
516	 0.110950032635487 
517	 0.109211667637127 
518	 0.108054177059872 
519	 0.106398236993708 
520	 0.104438760849474 
521	 0.103173717333275 
522	 0.102269356636917 
523	 0.100738624718259 
524	 9.85956078863859E-02 
525	 9.80491450841704E-02 
526	 9.66721338264215E-02 
527	 9.48223097151492E-02 
528	 9.35952240155447E-02 
529	 9.24398284084603E-02 
530	 9.10825100541076E-02 
531	 8.96203402562303E-02 
532	 8.85097291684547E-02 
533	 8.72380490808309E-02 
534	 8.58390195060633E-02 
535	 8.45085179710585E-02 
536	 8.35791326645735E-02 
537	 8.26725788278332E-02 
538	 8.15699538623155E-02 
539	 8.02145943938914E-02 
540	 7.90639702144851E-02 
541	 7.81424213866954E-02 
542	 0.077238374623249 
543	 7.58207707886866E-02 
544	 7.49358523469936E-02 
545	 7.43935106943041E-02 
546	 7.36492864796301E-02 
547	 7.23847104849452E-02 
548	 7.14220375153669E-02 
549	 0.070904787463346 
550	 7.03463868479884E-02 
551	 6.97570081255154E-02 
552	 6.90454587814875E-02 
553	 6.82292284605569E-02 
554	 6.76154613764867E-02 
555	 6.69461178330108E-02 
556	 6.64068554092396E-02 
557	 6.62272171019627E-02 
558	 6.53307222664746E-02 
559	 6.45038166805337E-02 
560	 6.41444542235733E-02 
561	 0.063871142759597 
562	 0.063561840939528 
563	 6.32235939618337E-02 
564	 6.28744017441492E-02 
565	 6.23666454577194E-02 
566	 6.18321162263554E-02 
567	 6.13879242123547E-02 
568	 6.11070206984125E-02 
569	 6.07058806432571E-02 
570	 6.03013915379549E-02 
571	 5.99590465261507E-02 
572	 5.94664663679713E-02 
573	 5.93136390679081E-02 
574	 5.93988414593589E-02 
575	 5.93749919326742E-02 
576	 5.89878953413829E-02 
577	 5.86179239056313E-02 
578	 0.058439707690024 
579	 5.83404431464418E-02 
580	 5.83248337652918E-02 
581	 5.81614654034093E-02 
582	 5.77347009902291E-02 
583	 5.73819237688041E-02 
584	 5.72771056826867E-02 
585	 0.057285653943259 
586	 5.71343576606605E-02 
587	 5.71838152008925E-02 
588	 5.72595695759254E-02 
589	 5.71820899587943E-02 
590	 5.68471723052135E-02 
591	 0.05668111720269 
592	 5.67531236134859E-02 
593	 5.69235059608065E-02 
594	 5.67224608472355E-02 
595	 5.66053147591391E-02 
596	 0.056645262171703 
597	 5.65749120059128E-02 
598	 5.66482416211541E-02 
599	 5.66970347140315E-02 
600	 5.66258578128975E-02 
601	 5.66945661392486E-02 
602	 5.66671500030134E-02 
603	 5.66254645812175E-02 
604	 0.056736198553667 
605	 5.67404862619419E-02 
606	 5.67940890545918E-02 
607	 5.69730871178723E-02 
608	 5.72143392934395E-02 
609	 5.72321628583291E-02 
610	 5.72764261345774E-02 
611	 5.75594138141722E-02 
612	 5.76973169443398E-02 
613	 5.78211881532298E-02 
614	 5.80033969177271E-02 
615	 5.82476432774252E-02 
616	 5.82569453375312E-02 
617	 5.83117156352918E-02 
618	 5.85603346138283E-02 
619	 5.87890169300876E-02 
620	 5.90310272335646E-02 
621	 5.93055345702032E-02 
622	 5.95985509728213E-02 
623	 5.97097973933985E-02 
624	 6.00115672119597E-02 
625	 6.04801583730679E-02 
626	 6.07303893650975E-02 
627	 6.11655712076468E-02 
628	 6.14124657783289E-02 
629	 6.13907537280411E-02 
630	 6.21453319205041E-02 
631	 0.062590668197178 
632	 6.27231010646935E-02 
633	 0.063002176328495 
634	 6.34526980262619E-02 
635	 6.39387616473968E-02 
636	 6.44033638392338E-02 
637	 6.49091569474339E-02 
638	 6.54340839460703E-02 
639	 6.60042217241349E-02 
640	 6.66207584995593E-02 
641	 6.71790859574303E-02 
642	 6.76510591819697E-02 
643	 6.81800375151968E-02 
644	 6.89516466188182E-02 
645	 6.94900656661337E-02 
646	 6.99393441955565E-02 
647	 0.070549144594119 
648	 7.16352314868234E-02 
649	 7.24093620625299E-02 
650	 7.30405874453909E-02 
651	 7.38833690798235E-02 
652	 7.47030894259561E-02 
653	 7.54902338912794E-02 
654	 7.63083397050839E-02 
655	 0.077268134038352 
656	 7.83619573159295E-02 
657	 7.93966776642746E-02 
658	 8.02960724505822E-02 
659	 8.12665722116611E-02 
660	 8.24527658723582E-02 
661	 8.36578023176209E-02 
662	 8.46657368704359E-02 
663	 8.59465538621539E-02 
664	 8.72627493614492E-02 
665	 8.85389707283502E-02 
666	 8.98972138194762E-02 
667	 9.12045836660974E-02 
668	 9.25668086606598E-02 
669	 9.40547292263034E-02 
670	 9.55363126987146E-02 
671	 9.70271073542119E-02 
672	 0.098595923199515 
673	 0.100297634235899 
674	 0.101873099380903 
675	 0.103517592695746 
676	 0.105292304226503 
677	 0.107054626402091 
678	 0.108851716007237 
679	 0.110647665770621 
680	 0.112422816057511 
681	 0.114219964503985 
682	 0.116234749118064 
683	 0.118317599752964 
684	 0.120188390079877 
685	 0.122146580885189 
686	 0.124280958814408 
687	 0.126479449201016 
688	 0.128392750096739 
689	 0.13054730529794 
690	 0.132827706304265 
691	 0.135021635618418 
692	 0.13718505461438 
693	 0.139446738484763 
694	 0.141786474355726 
695	 0.144087962456995 
696	 0.146363447864239 
697	 0.148589529216964 
698	 0.150781366838949 
699	 0.153015310972262 
700	 0.155326510781729 
701	 0.15763761823818 
702	 0.159867621408902 
703	 0.162034560048042 
704	 0.164197490002874 
705	 0.166435597820431 
706	 0.168810536678196 
707	 0.171112567399096 
708	 0.17326978401959 
709	 0.175336789126796 
710	 0.177530635720251 
711	 0.179636409735632 
712	 0.181694150630887 
713	 0.183780571176501 
714	 0.185788781736678 
715	 0.18779250245779 
716	 0.189811157242944 
717	 0.191818424541911 
718	 0.193746710945355 
719	 0.195577838772517 
720	 0.197335373268186 
721	 0.199084631053294 
722	 0.200875950222853 
723	 0.202618314834261 
724	 0.204246348309834 
725	 0.205983395858152 
726	 0.207595892427423 
727	 0.209070614951684 
728	 0.210549515568969 
729	 0.211971566957778 
730	 0.213431539650951 
731	 0.214904906308839 
732	 0.216141879365315 
733	 0.217455266900056 
734	 0.218792638035769 
735	 0.220030945306314 
736	 0.221199035077382 
737	 0.22239413479206 
738	 0.22356247700398 
739	 0.224571580299198 
740	 0.225592898642885 
741	 0.2266884933634 
742	 0.227795560688489 
743	 0.228696235550354 
744	 0.229622066630386 
745	 0.230545362989314 
746	 0.231404908505492 
747	 0.232273816620565 
748	 0.233093324213513 
749	 0.23390335496664 
750	 0.234773194290109 
751	 0.235535089160198 
752	 0.236200226903721 
753	 0.236853646685461 
754	 0.237640289135912 
755	 0.238335439015896 
756	 0.238928481152474 
757	 0.239502733516074 
758	 0.240257177413206 
759	 0.240936185104768 
760	 0.241491884162432 
761	 0.241996865933966 
762	 0.24258441019625 
763	 0.243194480832661 
764	 0.24378587343151 
765	 0.244355560414146 
766	 0.24483554406023 
767	 0.245334214041516 
768	 0.24591336294454 
769	 0.246458246961673 
770	 0.24693330822431 
771	 0.247400961533698 
772	 0.247936345372146 
773	 0.248483952202681 
774	 0.248878745019924 
775	 0.249227629799242 
776	 0.249817636332223 
777	 0.25031803954926 
778	 0.250705862145812 
779	 0.251051160916681 
780	 0.251493642437621 
781	 0.251983158144481 
782	 0.252447303160591 
783	 0.252848452731357 
784	 0.253303170818604 
785	 0.253697253291649 
786	 0.254065022845075 
787	 0.254507542266592 
788	 0.254941682644971 
789	 0.255353670844827 
790	 0.255730969992283 
791	 0.256061597402439 
792	 0.256483909704931 
793	 0.256906858876109 
794	 0.257274185925203 
795	 0.257755118491219 
796	 0.258061255641226 
797	 0.258285302927213 
798	 0.258633023009403 
799	 0.259095178193679 
800	 0.259564274655567 
801	 0.259959495866598 
802	 0.260251862574482 
803	 0.260626913985923 
804	 0.260964107273224 
805	 0.261241418766482 
806	 0.261642090454601 
807	 0.261954932931217 
808	 0.262301418572428 
809	 0.262760571472914 
810	 0.263047924569378 
811	 0.263234424997545 
812	 0.263481018159298 
813	 0.263921538898401 
814	 0.264290628261697 
815	 0.26462174755168 
816	 0.264940205807906 
817	 0.265245882603847 
818	 0.265509265942583 
819	 0.265801189949262 
820	 0.266122843807159 
821	 0.266339932011539 
822	 0.266644472750825 
823	 0.266939617704164 
824	 0.26713358499255 
825	 0.267380263372832 
826	 0.267769242441563 
827	 0.268190063796025 
828	 0.268458850963036 
829	 0.268579364858059 
830	 0.268759399715104 
831	 0.269041241592465 
832	 0.269304955935333 
833	 0.269470732217115 
834	 0.269640162144237 
835	 0.26990215898482 
836	 0.270278104961441 
837	 0.270470835093977 
838	 0.270618907869881 
839	 0.270880314817556 
840	 0.271142319448473 
841	 0.271365598839873 
842	 0.271514241656338 
843	 0.271599779264201 
844	 0.271811353647378 
845	 0.272026430352182 
846	 0.272173684304127 
847	 0.272265296435258 
848	 0.272586053718551 
849	 0.272782613742422 
850	 0.272837361787644 
851	 0.273208051958997 
852	 0.273366147293128 
853	 0.27344826620763 
854	 0.273608810661013 
855	 0.273739062249519 
856	 0.273937519300371 
857	 0.274141972171766 
858	 0.274287464907601 
859	 0.274512249714584 
860	 0.274520153283389 
861	 0.274485102736873 
862	 0.274723533560371 
863	 0.274830903169622 
864	 0.274933552755837 
865	 0.275068749933009 
866	 0.275175638278553 
867	 0.275316493305018 
868	 0.275383719143202 
869	 0.275419990191044 
870	 0.275682053582388 
871	 0.275816191082726 
872	 0.275862107993719 
873	 0.27597377441502 
874	 0.276379899068239 
875	 0.276393867606248 
876	 0.276243949456777 
877	 0.276342450008665 
878	 0.276632508081905 
879	 0.276804480462116 
880	 0.276830264667594 
881	 0.276832509920166 
882	 0.276840671764685 
883	 0.27693978121729 
884	 0.277073942284714 
885	 0.277113632543741 
886	 0.277284875323338 
887	 0.277381404829716 
888	 0.277358537476955 
889	 0.27741200142625 
890	 0.277709909608898 
891	 0.277881947926358 
892	 0.277830874321702 
893	 0.278076970624162 
894	 0.278124415061169 
895	 0.278072385259332 
896	 0.278115895187499 
897	 0.278310554775724 
898	 0.278340785810862 
899	 0.278390259053055 
900	 0.27867073493763 
901	 0.278830634965047 
902	 0.278763527472006 
903	 0.278668951063356 
904	 0.278809208039086 
905	 0.278893348619262 
906	 0.278955003258941 
907	 0.279018198508676 
908	 0.279094494652831 
909	 0.279242062331502 
910	 0.279306108876768 
911	 0.27929581410727 
912	 0.279393915633218 
913	 0.279586550359996 
914	 0.279770691550519 
915	 0.279883658113208 
916	 0.279945866070865 
917	 0.280032811945758 
918	 0.280145636289655 
919	 0.280245036936174 
920	 0.280255708978846 
921	 0.280245683237707 
922	 0.28028655622901 
923	 0.280424520807502 
924	 0.280662923472939 
925	 0.280696764576538 
926	 0.280784525765147 
927	 0.281123379154904 
928	 0.281034079771891 
929	 0.281164422332848 
930	 0.28141318616066 
931	 0.281449258114243 
932	 0.28142587177491 
933	 0.281521916470147 
934	 0.281782628442711 
935	 0.282095952647971 
936	 0.281986727240732 
937	 0.282224540711412 
938	 0.282668637346529 
939	 0.282640817442213 
940	 0.282690400375768 
941	 0.283006922705684 
942	 0.283277351388836 
943	 0.282959682598289 
944	 0.283068128361331 
945	 0.283383716659294 
946	 0.283621685792871 
947	 0.283627222906046 
948	 0.283568299733175 
949	 0.283691832157359 
950	 0.284006409299055 
951	 0.284223793492725 
952	 0.28434417768108 
953	 0.284275609383687 
954	 0.284221857221553 
955	 0.284752234698983 
956	 0.284891087189478 
957	 0.284816156977498 
958	 0.284862140443421 
959	 0.285170697759244 
960	 0.285407638510763 
961	 0.28544024956215 
962	 0.285300494509713 
963	 0.285212002903326 
964	 0.285460126658451 
965	 0.285698210153307 
966	 0.285672162329931 
967	 0.285723277484661 
968	 0.286055111989766 
969	 0.286279413612158 
970	 0.286139756297017 
971	 0.286149160386978 
972	 0.286203259880262 
973	 0.286255426660071 
974	 0.286381709913832 
975	 0.28703249289181 
976	 0.28688057771499 
977	 0.286477282840204 
978	 0.286665376864157 
979	 0.287208391263417 
980	 0.287202441997912 
981	 0.287126734014801 
982	 0.28749154909078 
983	 0.287221431460545 
984	 0.287291761580799 
985	 0.287723441461277 
986	 0.288085314716843 
987	 0.287681155726599 
988	 0.287695612626531 
989	 0.28792762377222 
990	 0.287893760634244 
991	 0.288003264564916 
992	 0.288428733020059 
993	 0.28852961973553 
994	 0.287948662895047 
995	 0.288258204255482 
996	 0.288364325180329 
997	 0.288317148926675 
998	 0.288493903026497 
999	 0.288902995944684 
1000	 0.289306624633543 
1001	 0.289290898210341 
1002	 0.289658744728494 
1003	 0.289628339074756 
1004	 0.289819002488801 
1005	 0.290346006543208 
1006	 0.290487750663188 
1007	 0.290387674473301 
1008	 0.29044524899473 
1009	 0.290413101810929 
1010	 0.290393402782019 
1011	 0.290439166029009 
1012	 0.290480177991383 
1013	 0.290449433461406 
1014	 0.29052015436302 
1015	 0.290650378876334 
1016	 0.290800521712601 
1017	 0.291010831416386 
1018	 0.291228808524216 
1019	 0.291235702264019 
1020	 0.291235479366368 
1021	 0.291371092209038 
1022	 0.291488045944621 
1023	 0.291672083150554 
1024	 0.292092061505033 
1025	 0.292255005902029 
1026	 0.292233565427369 
1027	 0.292322234151246 
1028	 0.292331966467939 
1029	 0.2925244331537 
1030	 0.292723144368605 
1031	 0.292772220050397 
1032	 0.292623274237809 
1033	 0.292433983639479 
1034	 0.292545322136835 
1035	 0.292716340365606 
1036	 0.292756642755116 
1037	 0.292924376385807 
1038	 0.293005736327876 
1039	 0.29284897732316 
1040	 0.292882914618378 
1041	 0.293116360563038 
1042	 0.293173102156265 
1043	 0.293208776326995 
1044	 0.293137500870885 
1045	 0.29290580886062 
1046	 0.292921110598034 
1047	 0.293053932536217 
1048	 0.293073960589496 
1049	 0.29315892557232 
1050	 0.293219612148443 
1051	 0.293131182866777 
1052	 0.293009956457215 
1053	 0.292962951759585 
1054	 0.292982127660966 
1055	 0.2929862572677 
1056	 0.292978189866321 
1057	 0.293015055261428 
1058	 0.293075038568941 
1059	 0.293142738337007 
1060	 0.293284494826885 
1061	 0.293318699428591 
1062	 0.293391911219039 
1063	 0.293483072537591 
1064	 0.293429708977865 
1065	 0.293506895533645 
1066	 0.293637074671028 
1067	 0.293791753852816 
1068	 0.294039909722046 
1069	 0.294264582713378 
1070	 0.294422142433775 
1071	 0.29458218409617 
1072	 0.294595827571151 
1073	 0.294547982976447 
1074	 0.294644694560958 
1075	 0.294878774561317 
1076	 0.2951426868318 
1077	 0.295388747022331 
1078	 0.295600374825635 
1079	 0.29567541537647 
1080	 0.295663886279031 
1081	 0.295832961975454 
1082	 0.296105143488518 
1083	 0.296247784031545 
1084	 0.296353422344196 
1085	 0.296454523089105 
1086	 0.296520683687278 
1087	 0.296436284772302 
1088	 0.296565785956596 
1089	 0.29684466400366 
1090	 0.29697848088792 
1091	 0.297220485062238 
1092	 0.297312165814923 
1093	 0.297242810290528 
1094	 0.297327597571393 
1095	 0.297433227451006 
1096	 0.297582473722786 
1097	 0.297788128022528 
1098	 0.297994731326448 
1099	 0.298089714009957 
1100	 0.298157602962244 
1101	 0.298353520730901 
1102	 0.298483953275647 
1103	 0.298564588092854 
1104	 0.298596960356466 
1105	 0.298707328499979 
1106	 0.298820683394907 
1107	 0.298992983752255 
1108	 0.299233742021666 
1109	 0.299374126530869 
1110	 0.299425355454832 
1111	 0.299430242861124 
1112	 0.299474350347739 
1113	 0.299647176671505 
1114	 0.299718129003908 
1115	 0.299722090486683 
1116	 0.299869422106345 
1117	 0.299951282364406 
1118	 0.300031185551216 
1119	 0.300236874677362 
1120	 0.300343644717892 
1121	 0.300349303877276 
1122	 0.300340605881505 
1123	 0.300505363102753 
1124	 0.300614204143262 
1125	 0.300636639196645 
1126	 0.300756916513006 
1127	 0.300860430551411 
1128	 0.300781952201491 
1129	 0.300766594594567 
1130	 0.300778708089764 
1131	 0.300697949348969 
1132	 0.300863646560609 
1133	 0.301005676923768 
1134	 0.301000136415367 
1135	 0.301119517765279 
1136	 0.301281392184828 
1137	 0.301343234464472 
1138	 0.301513947089856 
1139	 0.301549146513726 
1140	 0.30139763889576 
1141	 0.301334252409421 
1142	 0.301431840051019 
1143	 0.301405428728968 
1144	 0.301501440106607 
1145	 0.301622967966838 
1146	 0.301610401342756 
1147	 0.30175464716596 
1148	 0.30187735506854 
1149	 0.30191385362841 
1150	 0.301970726588261 
1151	 0.301937964925039 
1152	 0.30196229652314 
1153	 0.302049516030273 
1154	 0.30207742107511 
1155	 0.302042643838747 
1156	 0.302097598746351 
1157	 0.302172286088722 
1158	 0.302234462454178 
1159	 0.302350678684508 
1160	 0.302479843857654 
1161	 0.302413528201813 
1162	 0.302398710255895 
1163	 0.302497685784 
1164	 0.302460203357979 
1165	 0.302494466722031 
1166	 0.302646004103021 
1167	 0.302680017186009 
1168	 0.302690081475951 
1169	 0.302746575958698 
1170	 0.302879963657201 
1171	 0.302925739980027 
1172	 0.302897934906072 
1173	 0.302959408380791 
1174	 0.303050782562625 
1175	 0.303085614712765 
1176	 0.303139986723518 
1177	 0.303206527993789 
1178	 0.3032401538613 
1179	 0.303263406007752 
1180	 0.303355822282903 
1181	 0.303464846346219 
1182	 0.303499518480948 
1183	 0.303542449473401 
1184	 0.303648498625215 
1185	 0.303719519833887 
1186	 0.303779605014752 
1187	 0.303857373366231 
1188	 0.30392327379906 
1189	 0.303943880946176 
1190	 0.303999731401942 
1191	 0.304087946578215 
1192	 0.304180694144353 
1193	 0.304259959369223 
1194	 0.304362234097165 
1195	 0.304488560940538 
1196	 0.304615688249114 
1197	 0.304751155231864 
1198	 0.304893277817367 
1199	 0.305044355879758 
1200	 0.305213542657762 
1201	 0.305313849010761 
1202	 0.305383075970304 
1203	 0.305549259943669 
1204	 0.305700503423788 
1205	 0.305884566065853 
1206	 0.306144761621097 
1207	 0.306404121632543 
1208	 0.306639788685008 
1209	 0.306912946377135 
1210	 0.30722908057578 
1211	 0.30755756721752 
1212	 0.307885334215359 
1213	 0.30826629339074 
1214	 0.308705453853334 
1215	 0.309141626668098 
1216	 0.309597654487103 
1217	 0.310066731906613 
1218	 0.310580537879488 
1219	 0.311034477590365 
1220	 0.31155832423601 
1221	 0.312111172378642 
1222	 0.312569835964899 
1223	 0.313131176333243 
1224	 0.313618377297531 
1225	 0.31403900016107 
1226	 0.314503380045528 
1227	 0.314988975723169 
1228	 0.315456108342961 
1229	 0.315945256047183 
1230	 0.316390791334112 
1231	 0.316791343517515 
1232	 0.31721154299072 
1233	 0.317633840029961 
1234	 0.318032095616332 
1235	 0.318420241782138 
1236	 0.318811693033699 
1237	 0.319181352915647 
1238	 0.319547803097522 
1239	 0.319932544286834 
1240	 0.320313844218402 
1241	 0.320614618747304 
1242	 0.320880461693186 
1243	 0.321182680994801 
1244	 0.321441409824473 
1245	 0.321785404025699 
1246	 0.322184518041675 
1247	 0.322578867430593 
1248	 0.323009294377504 
1249	 0.323416735618678 
1250	 0.32387658352862 
1251	 0.324233415899373 
1252	 0.324527243836301 
1253	 0.324834294277128 
1254	 0.325086326259019 
1255	 0.325345389706867 
1256	 0.325600864388244 
1257	 0.325875062102746 
1258	 0.326112552789297 
1259	 0.326396976710655 
1260	 0.326771919933003 
1261	 0.327084036092844 
1262	 0.327404126817507 
1263	 0.327675895768712 
1264	 0.327926986699943 
1265	 0.328131710614226 
1266	 0.328343449726025 
1267	 0.328490885953871 
1268	 0.328765317916347 
1269	 0.329124508737805 
1270	 0.329373392858391 
1271	 0.329653317759207 
1272	 0.329906253631581 
1273	 0.330074083752117 
1274	 0.330249885348985 
1275	 0.330434555018025 
1276	 0.33064044847688 
1277	 0.330780504028466 
1278	 0.330991913781141 
1279	 0.331331480909274 
1280	 0.331580412526622 
1281	 0.33174693506169 
1282	 0.331994631047311 
1283	 0.332230577046224 
1284	 0.332512304260327 
1285	 0.332839506359717 
1286	 0.333288033699804 
1287	 0.333572055429009 
1288	 0.333797352121055 
1289	 0.33407189237093 
1290	 0.334280429454975 
1291	 0.33456368523451 
1292	 0.334941996511594 
1293	 0.335235178584051 
1294	 0.335457020328439 
1295	 0.335777828192193 
1296	 0.336125982798399 
1297	 0.336472674310412 
1298	 0.336897520736579 
1299	 0.337266894314508 
1300	 0.337582079114122 
1301	 0.337930095195514 
1302	 0.338342112333541 
1303	 0.338656342688153 
1304	 0.338874233268675 
1305	 0.339170003989001 
1306	 0.339444239575707 
1307	 0.339728076710272 
1308	 0.34010733009891 
1309	 0.340421463594106 
1310	 0.340759029744486 
1311	 0.341066508781961 
1312	 0.341387378034828 
1313	 0.341743695605883 
1314	 0.34204721722917 
1315	 0.342321925512356 
1316	 0.3425794680337 
1317	 0.342797917736643 
1318	 0.343053413211174 
1319	 0.343310292499472 
1320	 0.34355438683663 
1321	 0.343845512466186 
1322	 0.344057101457878 
1323	 0.344184538560338 
1324	 0.344366088458821 
1325	 0.344519869984992 
1326	 0.344713659116787 
1327	 0.344965335878333 
1328	 0.34518791203102 
1329	 0.345408892444915 
1330	 0.345626137871978 
1331	 0.34589707079445 
1332	 0.34606512873105 
1333	 0.346137247645462 
1334	 0.346251749235873 
1335	 0.346373291348762 
1336	 0.346432198882401 
1337	 0.346558110013415 
1338	 0.346775732076424 
1339	 0.346892228088092 
1340	 0.346943367373768 
1341	 0.347062101072954 
1342	 0.347204165834597 
1343	 0.347297927387061 
1344	 0.34744379577416 
1345	 0.347475211069733 
1346	 0.347380395789066 
1347	 0.347371876659259 
1348	 0.347319731685816 
1349	 0.347336536783034 
1350	 0.347452996285415 
1351	 0.347498857947563 
1352	 0.34757399810457 
1353	 0.347574314154068 
1354	 0.347475203113422 
1355	 0.347434831059121 
1356	 0.347381325420512 
1357	 0.347336481680852 
1358	 0.347325940488105 
1359	 0.34730467484704 
1360	 0.347229864143732 
1361	 0.3472325966218 
1362	 0.347269477516345 
1363	 0.347291453210357 
1364	 0.347248845255419 
1365	 0.347186854243596 
1366	 0.347125268608492 
1367	 0.347004450977083 
1368	 0.346921672475689 
1369	 0.346866704060734 
1370	 0.346800825765133 
1371	 0.346754920831424 
1372	 0.346631522897394 
1373	 0.346472874524851 
1374	 0.346335447744803 
1375	 0.34613606155947 
1376	 0.345974568548182 
1377	 0.345865207853573 
1378	 0.345725983075162 
1379	 0.345568639353966 
1380	 0.345401626371795 
1381	 0.345241877226971 
1382	 0.345061438881569 
1383	 0.34485385525207 
1384	 0.344645255982965 
1385	 0.344403625006688 
1386	 0.34420524047138 
1387	 0.344016519849804 
1388	 0.343842293676188 
1389	 0.343723366702433 
1390	 0.343575307818209 
1391	 0.343410418270193 
1392	 0.343233998424869 
1393	 0.343107035632325 
1394	 0.343012557371586 
1395	 0.342940601388338 
1396	 0.342946911710993 
1397	 0.342862957145293 
1398	 0.342770722553685 
1399	 0.342625246433151 
1400	 0.342451752061778 
1401	 0.342215261473469 
1402	 0.341944960315459 
1403	 0.341612907329795 
1404	 0.341206815105214 
1405	 0.340779467413646 
1406	 0.340289110134067 
1407	 0.339814680858877 
1408	 0.339336076869766 
1409	 0.338807955172704 
1410	 0.338246019335064 
1411	 0.337687639404246 
1412	 0.337074868544679 
1413	 0.33649772977686 
1414	 0.335927376171829 
1415	 0.335388995060238 
1416	 0.334848419966587 
1417	 0.334344089497777 
1418	 0.333891196739835 
1419	 0.333433248322174 
1420	 0.333004784547198 
1421	 0.332568643390215 
1422	 0.332097738390722 
1423	 0.331688247779467 
1424	 0.331331636331193 
1425	 0.33094279553714 
1426	 0.330615302078195 
1427	 0.33026798476917 
1428	 0.329883593403965 
1429	 0.329504103070855 
1430	 0.329127001761266 
1431	 0.32875429714304 
1432	 0.3283704254224 
1433	 0.327988498561297 
1434	 0.327578235666109 
1435	 0.327158235113508 
1436	 0.326712781079507 
1437	 0.326250452087704 
1438	 0.32576584469658 
1439	 0.325244184879565 
1440	 0.324736331481949 
1441	 0.324166540619609 
1442	 0.323712189200863 
1443	 0.323253256689629 
1444	 0.322938081738499 
1445	 0.322699414765507 
1446	 0.322592390990381 
1447	 0.322555032705717 
1448	 0.322703709501563 
1449	 0.323020120585422 
1450	 0.323427588141318 
1451	 0.324006071217872 
1452	 0.324648311052161 
1453	 0.325445236483081 
1454	 0.326197675819789 
1455	 0.327042966088922 
1456	 0.327841642419378 
1457	 0.32862521118239 
1458	 0.329384783133977 
1459	 0.330162573383793 
1460	 0.330876329884972 
1461	 0.331529125625271 
1462	 0.332163044515023 
1463	 0.332726743124336 
1464	 0.333321144501123 
1465	 0.333908597125295 
1466	 0.334519828892847 
1467	 0.335098149636394 
1468	 0.335636216983501 
1469	 0.336173249345174 
1470	 0.336682092903758 
1471	 0.337184258263513 
1472	 0.337706019844278 
1473	 0.338165098571048 
1474	 0.338559182803996 
1475	 0.339011597928591 
1476	 0.33948799434614 
1477	 0.339888486305727 
1478	 0.340302868637231 
1479	 0.340623622167516 
1480	 0.340819663828658 
1481	 0.341100828685846 
1482	 0.341410732389278 
1483	 0.341645716929714 
1484	 0.341887795936511 
1485	 0.342066840720939 
1486	 0.342096595221255 
1487	 0.342277361640688 
1488	 0.34251320238435 
1489	 0.342736646813852 
1490	 0.343001535559481 
1491	 0.34329738230494 
1492	 0.343537130517392 
1493	 0.343919738417391 
1494	 0.34445331861153 
1495	 0.344925095758188 
1496	 0.345437479750698 
1497	 0.345955139387341 
1498	 0.346427604576257 
1499	 0.346978888226772 
1500	 0.347599988425052 
1501	 0.348218847915717 
1502	 0.348906565428736 
1503	 0.349531867052652 
1504	 0.350189252444944 
1505	 0.350752755418031 
1506	 0.351206914889246 
1507	 0.351697507860522 
1508	 0.352165564074875 
1509	 0.352603435959092 
1510	 0.353066270876271 
1511	 0.353472034672578 
1512	 0.353796459006654 
1513	 0.354130370016129 
1514	 0.354458334509838 
1515	 0.35476038570956 
1516	 0.355034291703099 
1517	 0.355306500677485 
1518	 0.355556880107006 
1519	 0.355799525982837 
1520	 0.356052357216848 
1521	 0.356281285452258 
1522	 0.356475893564618 
1523	 0.356653086594536 
1524	 0.356823843769499 
1525	 0.356961722220321 
1526	 0.35714151626078 
1527	 0.357357363248399 
1528	 0.357478352060591 
1529	 0.357574299423231 
1530	 0.357663784098408 
1531	 0.357683716242747 
1532	 0.357751401822279 
1533	 0.357861841513912 
1534	 0.357917743007778 
1535	 0.357895849753878 
1536	 0.358023267944832 
1537	 0.358197567981054 
1538	 0.358380025798765 
1539	 0.358645942753936 
1540	 0.358905297929562 
1541	 0.359141213065506 
1542	 0.359436393014916 
1543	 0.359810033963323 
1544	 0.36014674557863 
1545	 0.360468139434261 
1546	 0.360831226425048 
1547	 0.361209293935357 
1548	 0.361614739975558 
1549	 0.362049371705619 
1550	 0.362500887102484 
1551	 0.36299759447961 
1552	 0.363451045048316 
1553	 0.36391111207201 
1554	 0.364352637917526 
1555	 0.364767325075197 
1556	 0.365177887806858 
1557	 0.365553438548932 
1558	 0.365995887750286 
1559	 0.366503003735027 
1560	 0.366907344088948 
1561	 0.367311529894872 
1562	 0.367691332122606 
1563	 0.367947377019738 
1564	 0.368297997319007 
1565	 0.368731867670103 
1566	 0.369105212561895 
1567	 0.369462622216479 
1568	 0.36982360621985 
1569	 0.370160089613954 
1570	 0.370513814067455 
1571	 0.370885365505073 
1572	 0.371244883156697 
1573	 0.371616508578228 
1574	 0.371953328668653 
1575	 0.372255168473286 
1576	 0.372583746082893 
1577	 0.372919636881631 
1578	 0.373226696650615 
1579	 0.373538840233033 
1580	 0.373835038322755 
1581	 0.374059268383438 
1582	 0.374356025687793 
1583	 0.374719068292647 
1584	 0.37503244858341 
1585	 0.37537397589955 
1586	 0.375666417748228 
1587	 0.375876676215274 
1588	 0.376137773479635 
1589	 0.376393138268888 
1590	 0.3766782448508 
1591	 0.377035055880326 
1592	 0.377323917907529 
1593	 0.377562795558701 
1594	 0.377848563824615 
1595	 0.378115854170406 
1596	 0.378402671970135 
1597	 0.378751945423841 
1598	 0.379070757509612 
1599	 0.379385677589714 
1600	 0.379670922185165 
1601	 0.379942200674459 
1602	 0.380201188435763 
1603	 0.380407670755074 
1604	 0.380647311232701 
1605	 0.380881011097714 
1606	 0.381150319840954 
1607	 0.381504555300542 
1608	 0.381765080149534 
1609	 0.381974934494948 
1610	 0.382222712232526 
1611	 0.382417010928475 
1612	 0.382635788239746 
1613	 0.382916031156923 
1614	 0.383171965881444 
1615	 0.383419760906714 
1616	 0.383648114479904 
1617	 0.38387139901216 
1618	 0.384083161919505 
1619	 0.384263364361577 
1620	 0.384444545911852 
1621	 0.384634985003919 
1622	 0.384809280036241 
1623	 0.384986698789476 
1624	 0.385118353309979 
1625	 0.385199127127998 
1626	 0.385305294936579 
1627	 0.385377737682798 
1628	 0.38547868999014 
1629	 0.38560348389293 
1630	 0.385743661576212 
1631	 0.385935852506499 
1632	 0.386061481348922 
1633	 0.38618760795872 
1634	 0.386278412070339 
1635	 0.386244217702156 
1636	 0.386313668417154 
1637	 0.386415311406084 
1638	 0.38654008192973 
1639	 0.38677278773837 
1640	 0.386925690730947 
1641	 0.387043712494273 
1642	 0.387173667470269 
1643	 0.387275181852242 
1644	 0.3873741407271 
1645	 0.387522213213498 
1646	 0.387587913739558 
1647	 0.387589310421888 
1648	 0.387591625821523 
1649	 0.387546855126422 
1650	 0.387497844305857 
1651	 0.38740204452397 
1652	 0.387373149707754 
1653	 0.387401362437406 
1654	 0.387379318548547 
1655	 0.387423133881483 
1656	 0.387345375914322 
1657	 0.38713278380925 
1658	 0.386959685935699 
1659	 0.386767346339011 
1660	 0.386571989139255 
1661	 0.386419804424281 
1662	 0.386160865978824 
1663	 0.385838708735693 
1664	 0.385468900694148 
1665	 0.384998890360274 
1666	 0.384565823842205 
1667	 0.384151095919369 
1668	 0.383652274337894 
1669	 0.383146096860171 
1670	 0.382558825723495 
1671	 0.381886131136172 
1672	 0.381155941481171 
1673	 0.380389732048355 
1674	 0.379513897020373 
1675	 0.378506082517887 
1676	 0.377542164330669 
1677	 0.376555392845495 
1678	 0.375500650119549 
1679	 0.374418256604166 
1680	 0.373297522885638 
1681	 0.372098985250601 
1682	 0.370861432926191 
1683	 0.369620485216427 
1684	 0.368326785239575 
1685	 0.366943639498292 
1686	 0.365572341682625 
1687	 0.364216702503953 
1688	 0.362750553037646 
1689	 0.361222224128004 
1690	 0.359649939003876 
1691	 0.358014276359906 
1692	 0.356355397719411 
1693	 0.354670935140941 
1694	 0.352915961725347 
1695	 0.351043543343405 
1696	 0.349245935211707 
1697	 0.347442168375391 
1698	 0.345584991544576 
1699	 0.343788612775155 
1700	 0.341902093881601 
1701	 0.339883019249996 
1702	 0.338002908624072 
1703	 0.336096427374627 
1704	 0.334311312468616 
1705	 0.332600363239863 
1706	 0.33092663693972 
1707	 0.329399149132756 
1708	 0.328006292377246 
1709	 0.32675993617241 
1710	 0.325564716909202 
1711	 0.324442095850852 
1712	 0.323440672496576 
1713	 0.322333900483085 
1714	 0.32125610178941 
1715	 0.320372328481722 
1716	 0.319489994684239 
1717	 0.318696267590526 
1718	 0.317947545207185 
1719	 0.31712674228055 
1720	 0.31632876463576 
1721	 0.315489659332217 
1722	 0.314762108327521 
1723	 0.314238346645672 
1724	 0.313671943249403 
1725	 0.313252740858989 
1726	 0.313024103376735 
1727	 0.31280366772908 
1728	 0.312731641558517 
1729	 0.312823059000157 
1730	 0.313065660314258 
1731	 0.313457148719892 
1732	 0.314001138111366 
1733	 0.314627780730613 
1734	 0.315304101922724 
1735	 0.316035303912439 
1736	 0.3167059463748 
1737	 0.317393453993343 
1738	 0.318052872532347 
1739	 0.318521150470476 
1740	 0.318941383029658 
1741	 0.319222725851787 
1742	 0.319301059749788 
1743	 0.319371588765568 
1744	 0.319338479494856 
1745	 0.319305513768436 
1746	 0.319166457166732 
1747	 0.319088595455512 
1748	 0.319060154754129 
1749	 0.319004873606967 
1750	 0.318898175002426 
1751	 0.318907497018333 
1752	 0.318930008255569 
1753	 0.319040197233477 
1754	 0.319240158385555 
1755	 0.319512729784032 
1756	 0.319831685373798 
1757	 0.32036153815115 
1758	 0.320927894407333 
1759	 0.321586070831245 
1760	 0.322285756234452 
1761	 0.322975321302243 
1762	 0.323779116396087 
1763	 0.324792928719779 
1764	 0.32581471367479 
1765	 0.326862546793494 
1766	 0.328097093726112 
1767	 0.329277476349331 
1768	 0.330466753759992 
1769	 0.331786361931419 
1770	 0.33306218593732 
1771	 0.334357318928811 
1772	 0.335584020314606 
1773	 0.336689834895337 
1774	 0.337800747998403 
1775	 0.338755358890953 
1776	 0.339701266798274 
1777	 0.340599450110052 
1778	 0.341196591534395 
1779	 0.341922270841357 
1780	 0.342657836194112 
1781	 0.343231431897793 
1782	 0.343988265068424 
1783	 0.344645666907141 
1784	 0.345159420438167 
1785	 0.345740282861245 
1786	 0.346241721994827 
1787	 0.346600559303517 
1788	 0.347035396790513 
1789	 0.347503827888063 
1790	 0.347916899214761 
1791	 0.348301403099369 
1792	 0.348740061113987 
1793	 0.349173699771177 
1794	 0.349536147049191 
1795	 0.3500118408243 
1796	 0.350323360744655 
1797	 0.350680982828053 
1798	 0.351154466366941 
1799	 0.351496348123798 
1800	 0.351880529026927 
1801	 0.35172385242698 
1802	 0.352140069616106 
1803	 0.352530506685059 
1804	 0.352890443472668 
1805	 0.353292064761656 
1806	 0.35362952594422 
1807	 0.353928392755001 
1808	 0.354241499228348 
1809	 0.354533570295523 
1810	 0.354820989607757 
1811	 0.355130438374311 
1812	 0.355413929025034 
1813	 0.355667969228995 
1814	 0.35590708323569 
1815	 0.356174871815001 
1816	 0.356463747261548 
1817	 0.35674687541431 
1818	 0.357015177563551 
1819	 0.357348340748344 
1820	 0.357720766589965 
1821	 0.358063602215709 
1822	 0.358429613337453 
1823	 0.358808065514196 
1824	 0.359172161764652 
1825	 0.359570255247862 
1826	 0.359895500396263 
1827	 0.360200278500761 
1828	 0.360519867550314 
1829	 0.36077150334923 
1830	 0.361071394554842 
1831	 0.361408280415798 
1832	 0.361792452190359 
1833	 0.362057951197929 
1834	 0.362301974832198 
1835	 0.362610508621364 
1836	 0.362829854577372 
1837	 0.363102304301789 
1838	 0.363484476615749 
1839	 0.363728173808635 
1840	 0.363849318124029 
1841	 0.364084233906755 
1842	 0.364345756590724 
1843	 0.364516012706665 
1844	 0.364816013925679 
1845	 0.365082158506771 
1846	 0.365197152382461 
1847	 0.365345195541027 
1848	 0.36546449825079 
1849	 0.365525018866282 
1850	 0.365611276602068 
1851	 0.365739758926975 
1852	 0.365773433053726 
1853	 0.3657613464413 
1854	 0.365764211160555 
1855	 0.36576314054538 
1856	 0.365734889841978 
1857	 0.365631682143539 
1858	 0.365460865034368 
1859	 0.365231966915974 
1860	 0.364866032218107 
1861	 0.364544478564354 
1862	 0.364208533033781 
1863	 0.36387426411006 
1864	 0.363488154357159 
1865	 0.363023478315088 
1866	 0.362529872442013 
1867	 0.361934144891161 
1868	 0.36131082200004 
1869	 0.360707649178535 
1870	 0.360003098370246 
1871	 0.359240666654324 
1872	 0.35843652629059 
1873	 0.357580585976088 
1874	 0.356652624483737 
1875	 0.35570978678915 
1876	 0.354596516063731 
1877	 0.353499145294076 
1878	 0.352363017586039 
1879	 0.351075282185763 
1880	 0.349850345892614 
1881	 0.348483957275811 
1882	 0.347032363066868 
1883	 0.345410409487867 
1884	 0.343740649194492 
1885	 0.341877455420141 
1886	 0.339972878887566 
1887	 0.338047040935877 
1888	 0.336002156167859 
1889	 0.334026794431539 
1890	 0.33194497620886 
1891	 0.329842027380322 
1892	 0.327756430208522 
1893	 0.325573535917054 
1894	 0.323312757382544 
1895	 0.321094501578206 
1896	 0.318722862259293 
1897	 0.316356224662936 
1898	 0.314126956479345 
1899	 0.311845456771332 
1900	 0.309747118558835 
1901	 0.307626623762483 
1902	 0.305410956097163 
1903	 0.303431336155334 
1904	 0.301462001406313 
1905	 0.299493181538179 
1906	 0.297608037117878 
1907	 0.29595419079266 
1908	 0.294285066428589 
1909	 0.292725891114744 
1910	 0.291387927422101 
1911	 0.290082682624306 
1912	 0.288775261783561 
1913	 0.287414785393671 
1914	 0.286043347284104 
1915	 0.284791035839628 
1916	 0.283583605961787 
1917	 0.282410201108626 
1918	 0.281357775187478 
1919	 0.280346207879428 
1920	 0.279227290032965 
1921	 0.278186265830824 
1922	 0.27713547609492 
1923	 0.276053261374708 
1924	 0.275083764153396 
1925	 0.274115646813878 
1926	 0.273166649427821 
1927	 0.272249095071199 
1928	 0.271366890590508 
1929	 0.270496631601441 
1930	 0.269674238705259 
1931	 0.26884460371663 
1932	 0.268114864223746 
1933	 0.267449617441608 
1934	 0.266790742341624 
1935	 0.26631694611174 
1936	 0.265953140405518 
1937	 0.265652463415997 
1938	 0.265476966293298 
1939	 0.26533400165594 
1940	 0.265231136578937 
1941	 0.265232586946738 
1942	 0.265337453363406 
1943	 0.265460552193565 
1944	 0.265630557624152 
1945	 0.265868759103769 
1946	 0.266154982172461 
1947	 0.266470295092863 
1948	 0.26690846061519 
1949	 0.267466386954567 
1950	 0.268066980058782 
1951	 0.268721106199662 
1952	 0.269470374618212 
1953	 0.270301761434479 
1954	 0.271194150867037 
1955	 0.272208795954944 
1956	 0.273299779201579 
1957	 0.274404756339523 
1958	 0.275580265877601 
1959	 0.276692766395407 
1960	 0.277742328302756 
1961	 0.278704691371237 
1962	 0.279628015437365 
1963	 0.280409497198094 
1964	 0.281020708808325 
1965	 0.281674258027365 
1966	 0.282288508322676 
1967	 0.282853345325285 
1968	 0.283358058505069 
1969	 0.283845987022132 
1970	 0.284177095736098 
1971	 0.284519398759989 
1972	 0.285038244905334 
1973	 0.285534867268183 
1974	 0.286076342823543 
1975	 0.286780629454333 
1976	 0.287356280135027 
1977	 0.287812748541712 
1978	 0.288391663756678 
1979	 0.288983793503329 
1980	 0.289599919409609 
1981	 0.290355779592542 
1982	 0.291094091819602 
1983	 0.291856246422067 
1984	 0.292616439066569 
1985	 0.293307516083477 
1986	 0.294124661228021 
1987	 0.29495633960413 
1988	 0.295773929830122 
1989	 0.296707833234955 
1990	 0.297687906003158 
1991	 0.298762750697021 
1992	 0.299930917257614 
1993	 0.301231579755112 
1994	 0.302441151447045 
1995	 0.303776911767879 
1996	 0.305115150471591 
1997	 0.306466379221105 
1998	 0.307900018463285 
1999	 0.309491194747613 
2000	 0.310902415934687 
2001	 0.312330019211681 
2002	 0.313644424996982 
2003	 0.314854781428043 
2004	 0.316040915200867 
2005	 0.317163069206058 
2006	 0.318259329057051 
2007	 0.319342309978739 
2008	 0.320306660655345 
2009	 0.321243858434937 
2010	 0.322122010008942 
2011	 0.322874324410542 
2012	 0.323614162495164 
2013	 0.324262317469348 
2014	 0.324804630356479 
2015	 0.325371933977729 
2016	 0.325892691636167 
2017	 0.326365117647961 
2018	 0.326843490483569 
2019	 0.327256677555689 
2020	 0.327591557282046 
2021	 0.327891973200056 
2022	 0.328197401855307 
2023	 0.328430300158774 
2024	 0.328611123694509 
2025	 0.328809621913347 
2026	 0.328951924425618 
2027	 0.329083402248588 
2028	 0.329122082709258 
2029	 0.32906729609348 
2030	 0.329038404499001 
2031	 0.328939093954118 
2032	 0.328860219214483 
2033	 0.328794096645924 
2034	 0.328718744495916 
2035	 0.328608162147867 
2036	 0.328559501015703 
2037	 0.328419659501556 
2038	 0.328330385513945 
2039	 0.328226187721902 
2040	 0.328069414250919 
2041	 0.327982323523158 
2042	 0.327949948811711 
2043	 0.327875958528301 
2044	 0.327824881856093 
2045	 0.327739228928493 
2046	 0.327572465646444 
2047	 0.327517943559305 
2048	 0.327519170723683 
2049	 0.327497300297507 
2050	 0.327501639617586 
2051	 0.327582223607238 
2052	 0.327589865677234 
2053	 0.327517982365497 
2054	 0.327447903378468 
2055	 0.327343012333504 
2056	 0.327262310166978 
2057	 0.327138200591037 
2058	 0.327082854298451 
2059	 0.327102559690077 
2060	 0.327065624255941 
2061	 0.327061493156274 
2062	 0.326982466798509 
2063	 0.326771482320067 
2064	 0.326679611113347 
2065	 0.326600004977013 
2066	 0.326567072965448 
2067	 0.326562079281455 
2068	 0.326537396203165 
2069	 0.326517019538611 
2070	 0.326459319504713 
2071	 0.326409024530565 
2072	 0.326382749627916 
2073	 0.326361079454494 
2074	 0.326311147195893 
2075	 0.326280863836737 
2076	 0.326321738191084 
2077	 0.32628331132979 
2078	 0.326185639870866 
2079	 0.326102872485163 
2080	 0.326000746028843 
2081	 0.325888518474159 
2082	 0.32575785298464 
2083	 0.325647290231654 
2084	 0.325546644898762 
2085	 0.325465070492812 
2086	 0.325335874998708 
2087	 0.325227493572029 
2088	 0.325065461439684 
2089	 0.324824987172232 
2090	 0.324620399571643 
2091	 0.32441846124686 
2092	 0.324201537118747 
2093	 0.323970566131526 
2094	 0.323747728128983 
2095	 0.323536403571502 
2096	 0.323309173614406 
2097	 0.323080845668887 
2098	 0.322835737794493 
2099	 0.322614090293423 
2100	 0.322305801032754 
2101	 0.322009541569604 
2102	 0.321691596269406 
2103	 0.321393849165739 
2104	 0.321080743404875 
2105	 0.320775630546137 
2106	 0.320499530905644 
2107	 0.320181027655318 
2108	 0.319849100501757 
2109	 0.319499972186403 
2110	 0.319117757871167 
2111	 0.318752869386022 
2112	 0.318394436280971 
2113	 0.317998873643891 
2114	 0.317608280490214 
2115	 0.317174665103347 
2116	 0.316695052615748 
2117	 0.316186489835378 
2118	 0.315707896789705 
2119	 0.315215303340956 
2120	 0.314768731104725 
2121	 0.314329229936801 
2122	 0.313942313847101 
2123	 0.313634052732598 
2124	 0.313223042887652 
2125	 0.312775889962873 
2126	 0.312394970441881 
2127	 0.311976189448094 
2128	 0.311603080386927 
2129	 0.311341597266849 
2130	 0.311017891750592 
2131	 0.310606922124097 
2132	 0.310280570404215 
2133	 0.310010478160554 
2134	 0.309737669528258 
2135	 0.309391361982565 
2136	 0.309161488814413 
2137	 0.308935945724144 
2138	 0.308697118509061 
2139	 0.308477249959409 
2140	 0.308346097465008 
2141	 0.308142399965426 
2142	 0.307856014601982 
2143	 0.307672287349221 
2144	 0.30757184523295 
2145	 0.307397692723326 
2146	 0.307176136700219 
2147	 0.307048193354975 
2148	 0.306913910505569 
2149	 0.306818001298864 
2150	 0.306875120780394 
2151	 0.306835939754534 
2152	 0.306772249222849 
2153	 0.306659640422745 
2154	 0.306481491883952 
2155	 0.306326877193531 
2156	 0.306194613657688 
2157	 0.306025715618834 
2158	 0.305938953736354 
2159	 0.305938819290878 
2160	 0.30587482440096 
2161	 0.305850201683201 
2162	 0.305738322270685 
2163	 0.305519643740912 
2164	 0.305399632824851 
2165	 0.305341095339946 
2166	 0.305187814118346 
2167	 0.305017502892317 
2168	 0.304860854827396 
2169	 0.304616643668491 
2170	 0.304401130879434 
2171	 0.304236440389182 
2172	 0.304084356719669 
2173	 0.303929023219635 
2174	 0.303748848525603 
2175	 0.303656776606002 
2176	 0.303509122217173 
2177	 0.303380976359906 
2178	 0.303203034762468 
2179	 0.303146025074519 
2180	 0.30317646755936 
2181	 0.303140817837417 
2182	 0.303146368826659 
2183	 0.30314182146677 
2184	 0.303121352018538 
2185	 0.303035237607637 
2186	 0.30299065344429 
2187	 0.302827451176512 
2188	 0.302454439286339 
2189	 0.302257094948499 
2190	 0.30205215079069 
2191	 0.301937457216217 
2192	 0.302040622568586 
2193	 0.301967842194026 
2194	 0.301870603119212 
2195	 0.301728337481195 
2196	 0.301449854430561 
2197	 0.301191439546608 
2198	 0.301059757086487 
2199	 0.300834111104226 
2200	 0.300572389848886 
2201	 0.300329423866721 
2202	 0.30000073812187 
2203	 0.299527297157143 
2204	 0.299189903438805 
2205	 0.298836447546046 
2206	 0.298570945563135 
2207	 0.298480130807443 
2208	 0.298179901994919 
2209	 0.297850961225029 
2210	 0.297473879666742 
2211	 0.296898338816854 
2212	 0.2964604268574 
2213	 0.296068869608592 
2214	 0.295702380667036 
2215	 0.295378683441568 
2216	 0.295068439624424 
2217	 0.294789300973795 
2218	 0.294518959537013 
2219	 0.294263374187234 
2220	 0.294019408102346 
2221	 0.293808867684985 
2222	 0.293603284655446 
2223	 0.293356489044696 
2224	 0.293024086453502 
2225	 0.29264631053143 
2226	 0.292366179166492 
2227	 0.292109398800316 
2228	 0.291994129991187 
2229	 0.291601381945784 
2230	 0.291144009041775 
2231	 0.290612215919396 
2232	 0.289881360144285 
2233	 0.28919082031408 
2234	 0.288574856076199 
2235	 0.287724046930012 
2236	 0.28676787515807 
2237	 0.285655483778848 
2238	 0.28429974398169 
2239	 0.28299763858202 
2240	 0.28165104990421 
2241	 0.280169873686038 
2242	 0.278663071844774 
2243	 0.277029225548162 
2244	 0.275229119861019 
2245	 0.273369158419056 
2246	 0.271328698669543 
2247	 0.269362777502351 
2248	 0.267326899631398 
2249	 0.265288351291509 
2250	 0.263262796364195 
2251	 0.261383705240203 
2252	 0.259134790809846 
2253	 0.256949988554868 
2254	 0.254685871071574 
2255	 0.252287807696326 
2256	 0.250107872344381 
2257	 0.247967637272884 
2258	 0.245883404877993 
2259	 0.243879487011956 
2260	 0.241887032956267 
2261	 0.239945581429668 
2262	 0.2380018306392 
2263	 0.236031592691097 
2264	 0.234188549844964 
2265	 0.232490186392139 
2266	 0.230647290433185 
2267	 0.228804138138895 
2268	 0.227024146100942 
2269	 0.225125076004231 
2270	 0.223379516905039 
2271	 0.22179041086056 
2272	 0.220190215817595 
2273	 0.218601760983549 
2274	 0.217088622328175 
2275	 0.215775596829377 
2276	 0.214253160534453 
2277	 0.212644244634169 
2278	 0.211066048757233 
2279	 0.209400837983813 
2280	 0.207723994621756 
2281	 0.206078254725522 
2282	 0.204374920392868 
2283	 0.202655714535526 
2284	 0.200800895073618 
2285	 0.198849588614433 
2286	 0.19705275907676 
2287	 0.19494323172343 
2288	 0.192884169607725 
2289	 0.191157227863798 
2290	 0.189312105119831 
2291	 0.18752969113234 
2292	 0.185753297648898 
2293	 0.183785485575481 
2294	 0.181886517241516 
2295	 0.180130855875106 
2296	 0.178487519898271 
2297	 0.177039010467592 
2298	 0.175721242627123 
2299	 0.17454811269724 
2300	 0.173535405002365 
2301	 0.172812462814505 
2302	 0.172247246709242 
2303	 0.171951314613848 
2304	 0.172022717773063 
2305	 0.172148406601844 
2306	 0.172388339199002 
2307	 0.172911834642941 
2308	 0.173678321193303 
2309	 0.174596306486264 
2310	 0.175854898456761 
2311	 0.177086611806124 
2312	 0.178350132111775 
2313	 0.179882708005521 
2314	 0.181747189087796 
2315	 0.183337824534224 
2316	 0.18499137040173 
2317	 0.186665697128906 
2318	 0.188189018604088 
2319	 0.189717237103468 
2320	 0.19167432158529 
2321	 0.192955017935906 
2322	 0.193712159919758 
2323	 0.194582432682843 
2324	 0.195199795299661 
2325	 0.195663515860528 
2326	 0.196206724308338 
2327	 0.196396027642936 
2328	 0.196118895601331 
2329	 0.195894655639903 
2330	 0.1955208225626 
2331	 0.195112701929877 
2332	 0.194764332238408 
2333	 0.194160190357057 
2334	 0.193172882597991 
2335	 0.192118812978637 
2336	 0.190883570459075 
2337	 0.189604529203313 
2338	 0.188540781371965 
2339	 0.187491331387339 
2340	 0.186444126420359 
2341	 0.185444554367599 
2342	 0.184430459880446 
2343	 0.18350865567189 
2344	 0.182695547459354 
2345	 0.182066607097966 
2346	 0.181761577826742 
2347	 0.181496562603746 
2348	 0.181453678480005 
2349	 0.181785118980215 
2350	 0.182249327043621 
2351	 0.183163430982609 
2352	 0.184346424643773 
2353	 0.185554903034225 
2354	 0.186766661053728 
2355	 0.188006933983271 
2356	 0.189030950721132 
2357	 0.189947674131595 
2358	 0.190930271160612 
2359	 0.191646008828694 
2360	 0.192274186708474 
2361	 0.192511363293203 
2362	 0.192467631954491 
2363	 0.192387503394459 
2364	 0.19225353022136 
2365	 0.192153757348132 
2366	 0.191976562760529 
2367	 0.192040143190847 
2368	 0.191794474908316 
2369	 0.191344778745846 
2370	 0.191383401104972 
2371	 0.191322456668267 
2372	 0.191368983101773 
2373	 0.191577090218719 
2374	 0.191470657750378 
2375	 0.191389193153219 
2376	 0.19154284353069 
2377	 0.191827779808373 
2378	 0.191871634395616 
2379	 0.191630970400627 
2380	 0.191317475313266 
2381	 0.190913368770309 
2382	 0.190840648146758 
2383	 0.191271360660956 
2384	 0.191175635332153 
2385	 0.190937279253999 
2386	 0.190889868089507 
2387	 0.190568732786553 
2388	 0.190514635841931 
2389	 0.19090383349119 
2390	 0.190934113434515 
2391	 0.190796086783178 
2392	 0.190783099231037 
2393	 0.190663884422993 
2394	 0.190650966512512 
2395	 0.190828406253452 
2396	 0.190814802965941 
2397	 0.190583763774927 
2398	 0.190632020906806 
2399	 0.190693310388494 
2400	 0.190837264088559 
2401	 0.191472067664312 
2402	 0.19187056308776 
2403	 0.19170723423754 
2404	 0.191528602604757 
2405	 0.191240581638244 
2406	 0.190619632942624 
2407	 0.190374250746055 
2408	 0.190257523467146 
2409	 0.189867169835318 
2410	 0.189774552755828 
2411	 0.189525848522127 
2412	 0.188966077110703 
2413	 0.188620337595825 
2414	 0.188619302273895 
2415	 0.188869574766854 
2416	 0.189162303540591 
2417	 0.189506024279451 
2418	 0.189927760856539 
2419	 0.189941151165912 
2420	 0.189675536163976 
2421	 0.189815172493755 
2422	 0.189696194099946 
2423	 0.189192189468835 
2424	 0.188915208948567 
2425	 0.188873915657201 
2426	 0.188954345435639 
2427	 0.188811237262474 
2428	 0.188945382088752 
2429	 0.189151485019048 
2430	 0.189143386781673 
2431	 0.189467493428191 
2432	 0.189682502959215 
2433	 0.189730924549675 
2434	 0.189434144627661 
2435	 0.189179842653059 
2436	 0.189291792153738 
2437	 0.189028134353316 
2438	 0.189555088652217 
2439	 0.190107037926921 
2440	 0.189477146848733 
2441	 0.189280371357745 
2442	 0.18916094468225 
2443	 0.188566149643172 
2444	 0.188499527425118 
2445	 0.188574996709015 
2446	 0.18781996969641 
2447	 0.18733809353524 
2448	 0.187175294854953 
2449	 0.18706111718104 
2450	 0.187297356931664 
2451	 0.187159239590301 
2452	 0.187476141059994 
2453	 0.18748572193502 
2454	 0.186877311814192 
2455	 0.186301901891596 
2456	 0.185594596504004 
2457	 0.184858568555603 
2458	 0.183911513986114 
2459	 0.183664514071763 
2460	 0.183255584888535 
2461	 0.18314737931487 
2462	 0.183850267526494 
2463	 0.184151365223967 
2464	 0.184176600623841 
2465	 0.18378809299222 
2466	 0.183504860720232 
2467	 0.182734325402255 
2468	 0.181794103130734 
2469	 0.181325463300462 
2470	 0.180643777610824 
2471	 0.180124899402082 
2472	 0.179408878275567 
2473	 0.178922026978086 
2474	 0.179095215258343 
2475	 0.179006490236929 
2476	 0.179552538101621 
2477	 0.180451074978449 
2478	 0.18051559231165 
2479	 0.181101691796287 
2480	 0.181866857790215 
2481	 0.181785050581955 
2482	 0.180786056385117 
2483	 0.17974622585693 
2484	 0.179221943804301 
2485	 0.179529382164268 
2486	 0.179929023499976 
2487	 0.180361990090239 
2488	 0.181446816483423 
2489	 0.18206626631242 
2490	 0.182305261374384 
2491	 0.182684462801819 
2492	 0.183139589108363 
2493	 0.183834526256879 
2494	 0.185671383874381 
2495	 0.188478603482544 
2496	 0.189367354495281 
2497	 0.188950925993512 
2498	 0.188085238625286 
2499	 0.186589137744002 
2500	 0.186714194888701 
