Wavelength	Tablay400089.asd
350	 0.213535986698025 
351	 0.213072913405351 
352	 0.202582756674566 
353	 0.171772338066316 
354	 0.263055886831644 
355	 0.248307001416698 
356	 0.226938304039164 
357	 0.267562578681906 
358	 0.121269452093004 
359	 5.53640162664594E-02 
360	 0.117504472386398 
361	 0.217148912025026 
362	 0.173551912939105 
363	 0.160021168737267 
364	 0.211404675479702 
365	 0.141806233113127 
366	 0.100835091837771 
367	 0.114693084083397 
368	 0.150660110487642 
369	 0.169321254759322 
370	 0.118624117062567 
371	 0.081643620893002 
372	 0.172647662216017 
373	 0.156394015801686 
374	 9.33169175016247E-02 
375	 0.063486722589136 
376	 0.109167118890956 
377	 0.104322063898165 
378	 0.101456793918556 
379	 0.146256653084881 
380	 9.78486564688368E-02 
381	 8.13978778672077E-02 
382	 9.06059415323122E-02 
383	 4.96182133097014E-02 
384	 8.94674025933783E-02 
385	 0.110167855483803 
386	 8.31028443732431E-02 
387	 0.114067138509922 
388	 0.126543087858756 
389	 0.119850511380306 
390	 0.112720576929112 
391	 0.115038061573783 
392	 0.108750755758949 
393	 0.094358315833634 
394	 8.43174648526984E-02 
395	 8.01721989311111E-02 
396	 0.083662858971141 
397	 8.92362470312713E-02 
398	 7.98266557747604E-02 
399	 7.31421946642328E-02 
400	 8.11599511083595E-02 
401	 0.102013626178037 
402	 8.89636902839359E-02 
403	 7.38066308563138E-02 
404	 7.37883671685176E-02 
405	 8.98476632906509E-02 
406	 8.69311601887862E-02 
407	 7.27218973116192E-02 
408	 6.28500120639515E-02 
409	 8.06595381289326E-02 
410	 0.084934869035374 
411	 8.10227927751028E-02 
412	 8.40205313619715E-02 
413	 0.077991414554111 
414	 7.53444706188297E-02 
415	 7.99160131635374E-02 
416	 8.61960929651519E-02 
417	 8.21259760123449E-02 
418	 0.081275623542481 
419	 8.91317687148613E-02 
420	 8.31179888630611E-02 
421	 7.33900535058446E-02 
422	 7.15827699692683E-02 
423	 0.084607866270184 
424	 8.53778350362891E-02 
425	 8.02775708325735E-02 
426	 7.63504106553599E-02 
427	 7.79219313407928E-02 
428	 7.97877492593214E-02 
429	 7.98720132878226E-02 
430	 7.81624240818565E-02 
431	 7.77572885493797E-02 
432	 8.08694141163487E-02 
433	 8.40689219020923E-02 
434	 8.21909796981566E-02 
435	 8.36190528776005E-02 
436	 8.41822214006149E-02 
437	 8.29473711477102E-02 
438	 8.59269243459938E-02 
439	 8.59522164660594E-02 
440	 0.085632181725883 
441	 8.87112192299197E-02 
442	 9.28905737941339E-02 
443	 9.09621998843432E-02 
444	 8.49718745935252E-02 
445	 8.37532403898642E-02 
446	 8.62100052784996E-02 
447	 9.02666240303833E-02 
448	 9.36716949603036E-02 
449	 9.46454315010579E-02 
450	 9.10310702857327E-02 
451	 8.87885399827587E-02 
452	 9.39866709030226E-02 
453	 9.46944392018119E-02 
454	 9.36734898104713E-02 
455	 0.093251162986184 
456	 9.41186247140614E-02 
457	 0.092640403713439 
458	 9.21521871246683E-02 
459	 9.49044336058547E-02 
460	 9.58322421678046E-02 
461	 9.64443527331731E-02 
462	 0.097025780661921 
463	 9.74447997703885E-02 
464	 9.97803669961801E-02 
465	 9.91904077459958E-02 
466	 9.60679138584597E-02 
467	 9.96807323944487E-02 
468	 0.100488932850794 
469	 9.95118197297586E-02 
470	 9.94372121507761E-02 
471	 9.66765089572466E-02 
472	 9.60333260464034E-02 
473	 9.72878698474891E-02 
474	 9.63980763169358E-02 
475	 9.43216879433795E-02 
476	 9.37422145196563E-02 
477	 9.54186655151475E-02 
478	 9.58132530435094E-02 
479	 0.094039748236113 
480	 0.092533799146575 
481	 9.39287421909911E-02 
482	 9.33300189834066E-02 
483	 9.14436973365938E-02 
484	 8.98390582918263E-02 
485	 9.04811763281666E-02 
486	 8.97245170413862E-02 
487	 8.78132098575737E-02 
488	 0.086054733564931 
489	 8.61033101980953E-02 
490	 8.60681270949543E-02 
491	 8.51623697174141E-02 
492	 8.35077506014072E-02 
493	 8.29382489929115E-02 
494	 8.28515094111691E-02 
495	 8.26313444974998E-02 
496	 8.21407844552487E-02 
497	 8.16455593335073E-02 
498	 8.09686264662073E-02 
499	 7.99729340405279E-02 
500	 7.92067801632123E-02 
501	 7.90896430944811E-02 
502	 0.07883619041469 
503	 7.68397168293041E-02 
504	 7.52637706928219E-02 
505	 7.52706470696321E-02 
506	 7.63912441012438E-02 
507	 7.48785172365205E-02 
508	 7.34295699255981E-02 
509	 0.072332159986493 
510	 7.10474148669429E-02 
511	 7.08871574566704E-02 
512	 7.00726231695299E-02 
513	 6.84326653067364E-02 
514	 6.80922068696207E-02 
515	 6.77647475870258E-02 
516	 6.71651860905083E-02 
517	 6.62511482137129E-02 
518	 6.48652005186694E-02 
519	 6.37749147475264E-02 
520	 6.31790694497353E-02 
521	 6.28205177155091E-02 
522	 6.21802548584869E-02 
523	 6.15271631693219E-02 
524	 6.11123658060825E-02 
525	 6.10229910269268E-02 
526	 6.01273703281895E-02 
527	 0.058925739170745 
528	 5.83474876393968E-02 
529	 5.82009842801232E-02 
530	 5.75998722306632E-02 
531	 5.66580477292997E-02 
532	 5.65265887072798E-02 
533	 5.62709015447032E-02 
534	 5.57226352329785E-02 
535	 5.51296472884769E-02 
536	 0.055515570600871 
537	 5.54727325349247E-02 
538	 0.055115580951224 
539	 5.52773234068042E-02 
540	 5.50720004800809E-02 
541	 5.47015629885297E-02 
542	 5.43891852085227E-02 
543	 5.41787265648248E-02 
544	 5.42998169577453E-02 
545	 5.46642886578704E-02 
546	 5.50187113253233E-02 
547	 5.48365192039857E-02 
548	 0.055113598850101 
549	 5.58157765774007E-02 
550	 5.60127518133678E-02 
551	 5.64421363707198E-02 
552	 5.69129403124123E-02 
553	 5.72487719637676E-02 
554	 5.77355177738152E-02 
555	 5.81190094374552E-02 
556	 5.83883889870762E-02 
557	 5.86739280782318E-02 
558	 5.92302110452071E-02 
559	 0.05969914899493 
560	 5.98532820502979E-02 
561	 5.97200287322712E-02 
562	 5.98210388376359E-02 
563	 5.99832575043126E-02 
564	 5.99031445875194E-02 
565	 5.95759663949093E-02 
566	 5.93418513693307E-02 
567	 5.91818537964674E-02 
568	 5.88294866638494E-02 
569	 5.85898617227212E-02 
570	 0.058065176817815 
571	 5.71649137019908E-02 
572	 5.66358666789326E-02 
573	 5.61685681126048E-02 
574	 5.54609108707673E-02 
575	 5.43812312858094E-02 
576	 5.38931424640504E-02 
577	 5.32381145096811E-02 
578	 5.22893834562122E-02 
579	 5.17433601348876E-02 
580	 5.11008581124383E-02 
581	 5.03905762536781E-02 
582	 4.97337237571123E-02 
583	 4.91698475176427E-02 
584	 4.86167518156269E-02 
585	 4.80392810691569E-02 
586	 4.74590101176149E-02 
587	 4.71469413367598E-02 
588	 4.67459343477894E-02 
589	 4.62132442913002E-02 
590	 4.61392762463845E-02 
591	 4.61202284066854E-02 
592	 4.59912984561104E-02 
593	 4.57362568334061E-02 
594	 4.56141449617431E-02 
595	 4.57594222741523E-02 
596	 4.60120924119203E-02 
597	 4.59905191963952E-02 
598	 4.58998387721833E-02 
599	 4.58828959216845E-02 
600	 4.59532411470961E-02 
601	 4.58204696639998E-02 
602	 4.58309248816252E-02 
603	 4.59897437044278E-02 
604	 4.61370226896045E-02 
605	 4.61069392537812E-02 
606	 4.61773528495801E-02 
607	 4.63367976072617E-02 
608	 4.61780661993502E-02 
609	 4.61527881706449E-02 
610	 4.62568000528972E-02 
611	 4.63587813689579E-02 
612	 4.62911383380536E-02 
613	 4.63610995228528E-02 
614	 4.65353543093777E-02 
615	 0.046578035609331 
616	 4.66582026650629E-02 
617	 4.65842664775579E-02 
618	 4.63448752698584E-02 
619	 4.63071558762177E-02 
620	 0.046491435015385 
621	 4.66375935187455E-02 
622	 4.65019763825951E-02 
623	 4.64504890432671E-02 
624	 4.63488919673894E-02 
625	 4.62076131226442E-02 
626	 4.61769749734842E-02 
627	 4.61313891902965E-02 
628	 4.59437894374533E-02 
629	 0.045646689161471 
630	 4.56918354393029E-02 
631	 4.54901842182422E-02 
632	 4.52528771317437E-02 
633	 4.54151107920069E-02 
634	 4.53127719095684E-02 
635	 4.51584658558448E-02 
636	 4.50695724144996E-02 
637	 0.04495478441088 
638	 4.47513704126032E-02 
639	 4.46338899358276E-02 
640	 4.46966052705767E-02 
641	 4.45736295284022E-02 
642	 4.45534453015803E-02 
643	 4.45962674586635E-02 
644	 4.44874930548241E-02 
645	 4.43912641593154E-02 
646	 0.044466164042426 
647	 4.46908589253474E-02 
648	 4.47598763030907E-02 
649	 0.044831516251789 
650	 4.49558554993823E-02 
651	 4.51436662917545E-02 
652	 4.53763094801664E-02 
653	 4.55721537562484E-02 
654	 4.57202891045583E-02 
655	 4.58824639298403E-02 
656	 4.62834584466771E-02 
657	 4.67097643011199E-02 
658	 4.70133114778566E-02 
659	 4.73172092596139E-02 
660	 4.77753618174841E-02 
661	 0.048312464651653 
662	 0.048807216878929 
663	 4.94188655183826E-02 
664	 5.02263170650038E-02 
665	 5.11652153881768E-02 
666	 5.20396344280278E-02 
667	 5.27830171007778E-02 
668	 5.37118613375194E-02 
669	 5.49775089847575E-02 
670	 5.61143970966929E-02 
671	 5.73655092127975E-02 
672	 5.87963243678702E-02 
673	 6.04046238467449E-02 
674	 6.22516783399497E-02 
675	 6.42136249422721E-02 
676	 6.63308180526136E-02 
677	 6.88535038010702E-02 
678	 7.12170479828746E-02 
679	 7.36710028685843E-02 
680	 7.65321866561257E-02 
681	 7.97132946643646E-02 
682	 8.30830836150723E-02 
683	 8.66379547556127E-02 
684	 9.04430667780963E-02 
685	 9.44370977481529E-02 
686	 9.86032782956661E-02 
687	 0.102925251032119 
688	 0.10739347751755 
689	 0.112137943784471 
690	 0.117059239574332 
691	 0.12205684273049 
692	 0.127213216304805 
693	 0.132465351470919 
694	 0.137793591628811 
695	 0.143202309354683 
696	 0.148682268789406 
697	 0.154172847953648 
698	 0.159603692761448 
699	 0.164920562409219 
700	 0.170290250371356 
701	 0.175590831271937 
702	 0.180691629628598 
703	 0.185706028451613 
704	 0.190590273129241 
705	 0.1953667287107 
706	 0.200095118305251 
707	 0.204648462140721 
708	 0.209020573954849 
709	 0.213194963646462 
710	 0.217099117746454 
711	 0.220869497372254 
712	 0.224523638753464 
713	 0.228032364157337 
714	 0.231332388604935 
715	 0.234458013394609 
716	 0.237469587223309 
717	 0.240411311927608 
718	 0.243003906189468 
719	 0.245443263493417 
720	 0.247838670812126 
721	 0.250039531628977 
722	 0.252097474709608 
723	 0.254051572554778 
724	 0.255921241757523 
725	 0.257665000158774 
726	 0.259265134962088 
727	 0.260734482235648 
728	 0.262109072632502 
729	 0.2634126050638 
730	 0.264638386828682 
731	 0.265772420327029 
732	 0.266794253968248 
733	 0.26780498731646 
734	 0.268740249832868 
735	 0.269557973723402 
736	 0.270499171837747 
737	 0.271276638972881 
738	 0.271903996531121 
739	 0.272583685846381 
740	 0.273239345029825 
741	 0.273861584327436 
742	 0.274459148288443 
743	 0.275060010896437 
744	 0.275562335841371 
745	 0.276082927696834 
746	 0.276681337928269 
747	 0.277021736661943 
748	 0.2773498065683 
749	 0.277736876779476 
750	 0.278141815847605 
751	 0.278551483687159 
752	 0.278784099517753 
753	 0.278924764169991 
754	 0.279401028747245 
755	 0.279821815709106 
756	 0.280141513023601 
757	 0.280408906248782 
758	 0.28070422170124 
759	 0.280887185381502 
760	 0.281092136424785 
761	 0.281517245729563 
762	 0.28190862571016 
763	 0.282171107311709 
764	 0.282337248358422 
765	 0.282559060210374 
766	 0.282913419332572 
767	 0.283225502881285 
768	 0.283419052290726 
769	 0.283776018880652 
770	 0.283987300833609 
771	 0.28417039133793 
772	 0.284519360078057 
773	 0.284785739858452 
774	 0.2851227058635 
775	 0.285456881745454 
776	 0.285559653226664 
777	 0.285748338986715 
778	 0.286031750880273 
779	 0.286330624334366 
780	 0.286500029578612 
781	 0.286725083780548 
782	 0.287013250921911 
783	 0.287310833177047 
784	 0.287548653777478 
785	 0.287770944307443 
786	 0.288004368138969 
787	 0.288259316220758 
788	 0.288513561836539 
789	 0.28880054131097 
790	 0.289079117605784 
791	 0.289226303991388 
792	 0.289381128403367 
793	 0.289621581373716 
794	 0.289955664085955 
795	 0.290284901915988 
796	 0.290429472168604 
797	 0.290516229113169 
798	 0.290745718893172 
799	 0.291029898130937 
800	 0.291313581682778 
801	 0.291529614811516 
802	 0.291634845255283 
803	 0.29189107127732 
804	 0.292093574698361 
805	 0.292202512235676 
806	 0.292511503804069 
807	 0.292662293246816 
808	 0.29279743313196 
809	 0.293089859570409 
810	 0.293441016813494 
811	 0.293637090865223 
812	 0.293693666737024 
813	 0.29375999671873 
814	 0.294026291642622 
815	 0.294214101116198 
816	 0.294290835519485 
817	 0.294457855031478 
818	 0.294664663115131 
819	 0.294823278131895 
820	 0.294932902333862 
821	 0.295144593327374 
822	 0.29523128195518 
823	 0.295360716914981 
824	 0.295646643129506 
825	 0.295708431398005 
826	 0.295752424985379 
827	 0.29582092539349 
828	 0.29589930631785 
829	 0.296094265889009 
830	 0.296358163166922 
831	 0.296507413249117 
832	 0.296322267315562 
833	 0.296362417650675 
834	 0.29656633023414 
835	 0.296763602088458 
836	 0.29677894437185 
837	 0.296916964046966 
838	 0.297045473804808 
839	 0.297033504134059 
840	 0.297048526461327 
841	 0.297246721453329 
842	 0.297416153939945 
843	 0.297305584290418 
844	 0.297266368812136 
845	 0.297367393941296 
846	 0.297485131591087 
847	 0.297407153715612 
848	 0.297363887884417 
849	 0.297447123642532 
850	 0.29760357554886 
851	 0.297632096024597 
852	 0.297573368333763 
853	 0.297536494250603 
854	 0.297593794682105 
855	 0.297721218930002 
856	 0.297608482743888 
857	 0.297492810374504 
858	 0.297615003929809 
859	 0.297559345464103 
860	 0.297447149348699 
861	 0.297426772476624 
862	 0.297575545620104 
863	 0.297492301894227 
864	 0.297475226412937 
865	 0.297579034873764 
866	 0.29760993163647 
867	 0.297518992535255 
868	 0.297398528222633 
869	 0.297305731946118 
870	 0.297219168396008 
871	 0.297320198530345 
872	 0.297391487243353 
873	 0.297300850731338 
874	 0.297297833311013 
875	 0.297271683005428 
876	 0.297166285558481 
877	 0.297012582980021 
878	 0.297081202637814 
879	 0.297170949954624 
880	 0.297125281008326 
881	 0.296910452550693 
882	 0.296955348617826 
883	 0.296998136951639 
884	 0.296968891046654 
885	 0.296966760038877 
886	 0.296927642250396 
887	 0.296930566751244 
888	 0.296949285139225 
889	 0.296838507802632 
890	 0.296782804306925 
891	 0.296697253595847 
892	 0.296520208694887 
893	 0.296309065403076 
894	 0.296347191991472 
895	 0.296332785062339 
896	 0.296088648562882 
897	 0.296166748927127 
898	 0.296100686078327 
899	 0.296024795398273 
900	 0.296106745641521 
901	 0.295819435743131 
902	 0.295788751130122 
903	 0.295900968737412 
904	 0.295762045331287 
905	 0.295673723673738 
906	 0.295699762012603 
907	 0.295684370610056 
908	 0.295417209372512 
909	 0.295441003743311 
910	 0.295473247576215 
911	 0.295383274544115 
912	 0.295283747979655 
913	 0.295244589179206 
914	 0.295200712907255 
915	 0.295123630309104 
916	 0.295068893993308 
917	 0.295199388665399 
918	 0.295205869906085 
919	 0.294960970500832 
920	 0.294836100946627 
921	 0.294867178053834 
922	 0.294953214657701 
923	 0.294993471399441 
924	 0.295021193967522 
925	 0.294909394417397 
926	 0.294821171857056 
927	 0.29491302774863 
928	 0.295025219175778 
929	 0.294805301744316 
930	 0.294551695673212 
931	 0.294665117889531 
932	 0.2946825784932 
933	 0.294783330476244 
934	 0.294919086658894 
935	 0.294939803052995 
936	 0.294886897578815 
937	 0.294863393613822 
938	 0.294848362325755 
939	 0.294777126325565 
940	 0.294939340672395 
941	 0.295033168955998 
942	 0.294941590510323 
943	 0.294794000095262 
944	 0.294946612607909 
945	 0.2950361986779 
946	 0.294998645929542 
947	 0.29512973444413 
948	 0.295058527288516 
949	 0.294973281732575 
950	 0.294964378403144 
951	 0.294905495266429 
952	 0.294919566084927 
953	 0.294856911762408 
954	 0.294785898943337 
955	 0.295107263179546 
956	 0.294943924015314 
957	 0.294586683466278 
958	 0.294445525826733 
959	 0.294659720787715 
960	 0.294662947383772 
961	 0.294447522055285 
962	 0.294262822722202 
963	 0.294547397438031 
964	 0.294183644500142 
965	 0.293950907053287 
966	 0.294340783823433 
967	 0.294079692076032 
968	 0.294055076323282 
969	 0.294179337088063 
970	 0.294158522059912 
971	 0.293888990449616 
972	 0.293702579396509 
973	 0.293640317374277 
974	 0.293644581347242 
975	 0.293697961237805 
976	 0.293522338152576 
977	 0.293186729337204 
978	 0.292881943616821 
979	 0.292717838561254 
980	 0.293063765723941 
981	 0.29312290238202 
982	 0.292421934795833 
983	 0.292830849689828 
984	 0.292484956216161 
985	 0.291937235926578 
986	 0.292178157011521 
987	 0.292732383928584 
988	 0.292540767153968 
989	 0.292084117454779 
990	 0.292051271131379 
991	 0.291664596040137 
992	 0.291535600804923 
993	 0.29171146491715 
994	 0.29182938004882 
995	 0.290873571301353 
996	 0.29100834851426 
997	 0.291317453763868 
998	 0.290597575555569 
999	 0.290679614122224 
1000	 0.290617275971255 
1001	 0.29112462237341 
1002	 0.291271617169478 
1003	 0.291198063297886 
1004	 0.290953620104182 
1005	 0.290646377729904 
1006	 0.290469804933721 
1007	 0.290049242343156 
1008	 0.28980173988967 
1009	 0.289871740086177 
1010	 0.289749551514414 
1011	 0.289404726866082 
1012	 0.289243798086663 
1013	 0.289205193606652 
1014	 0.289090913479939 
1015	 0.288920252301671 
1016	 0.288937074936221 
1017	 0.288759378765025 
1018	 0.288624468957469 
1019	 0.288535738140472 
1020	 0.288247177911986 
1021	 0.288022418874857 
1022	 0.287908108204136 
1023	 0.2875857122204 
1024	 0.287082683200417 
1025	 0.286701243763076 
1026	 0.286171254328068 
1027	 0.28584317659689 
1028	 0.285627323756557 
1029	 0.285534866884241 
1030	 0.285483092447499 
1031	 0.285164949896172 
1032	 0.284820944152468 
1033	 0.284587424318934 
1034	 0.284170584239126 
1035	 0.283918491999333 
1036	 0.283645289499089 
1037	 0.283408000876484 
1038	 0.283009365471065 
1039	 0.282565269842107 
1040	 0.282093055615926 
1041	 0.281428233185893 
1042	 0.280960552416399 
1043	 0.280552091333854 
1044	 0.280283702157189 
1045	 0.279907357112184 
1046	 0.279571794679129 
1047	 0.279232794996484 
1048	 0.278814872515366 
1049	 0.278557774422865 
1050	 0.27841753203087 
1051	 0.2781160608615 
1052	 0.277732311897121 
1053	 0.277343972088332 
1054	 0.27684439199012 
1055	 0.276325434804232 
1056	 0.275795968767692 
1057	 0.27528699971217 
1058	 0.274705052989679 
1059	 0.274263374607056 
1060	 0.27372379762457 
1061	 0.273414689970019 
1062	 0.273279952836948 
1063	 0.272896938963457 
1064	 0.272601191550495 
1065	 0.272304819437754 
1066	 0.271815747050366 
1067	 0.27132844866401 
1068	 0.270951053940415 
1069	 0.27051315173357 
1070	 0.270036086262994 
1071	 0.269505004648825 
1072	 0.269038969480072 
1073	 0.268544121795708 
1074	 0.268053821592673 
1075	 0.267696979924363 
1076	 0.267470532752438 
1077	 0.267142320011663 
1078	 0.266747055360591 
1079	 0.266295216171478 
1080	 0.265721805253398 
1081	 0.265302113184494 
1082	 0.264913232463328 
1083	 0.264467676003635 
1084	 0.263972215745669 
1085	 0.263384767412993 
1086	 0.262895961075912 
1087	 0.262429341964856 
1088	 0.261997676464562 
1089	 0.26157947980676 
1090	 0.261083649606938 
1091	 0.260504692179474 
1092	 0.259960355879766 
1093	 0.259382332467251 
1094	 0.258834005803261 
1095	 0.258435059068738 
1096	 0.257997238362381 
1097	 0.257411569927012 
1098	 0.256899346972258 
1099	 0.256407655941493 
1100	 0.255726739700481 
1101	 0.255057254825126 
1102	 0.254491835808387 
1103	 0.253850524961361 
1104	 0.253066764025363 
1105	 0.252419392850736 
1106	 0.251941234860782 
1107	 0.251308716690447 
1108	 0.250769668603484 
1109	 0.250252875167191 
1110	 0.249546286115833 
1111	 0.248867411857368 
1112	 0.248132985742353 
1113	 0.247304414270229 
1114	 0.246610660787342 
1115	 0.245979781706517 
1116	 0.245370657926156 
1117	 0.244795312818077 
1118	 0.244082123238477 
1119	 0.243176116517014 
1120	 0.242417472959421 
1121	 0.241672044669058 
1122	 0.240909287146216 
1123	 0.240160859585918 
1124	 0.239551013811593 
1125	 0.238814513175808 
1126	 0.238063536229339 
1127	 0.237388059900076 
1128	 0.236518843925269 
1129	 0.235722224712208 
1130	 0.234929757506167 
1131	 0.234042147298081 
1132	 0.233365134080894 
1133	 0.232669529356323 
1134	 0.231891327750083 
1135	 0.231116635694378 
1136	 0.230352812310621 
1137	 0.229553341550337 
1138	 0.228721463228139 
1139	 0.227868568042942 
1140	 0.226950439279002 
1141	 0.226154176689459 
1142	 0.225385347870693 
1143	 0.224644108748998 
1144	 0.22401790390045 
1145	 0.223244756725809 
1146	 0.222335551248911 
1147	 0.221504648611558 
1148	 0.220704777138871 
1149	 0.219894226684482 
1150	 0.219130382488677 
1151	 0.2183435147892 
1152	 0.21749548629588 
1153	 0.216514204994338 
1154	 0.215669836373232 
1155	 0.214845266036315 
1156	 0.214036098745569 
1157	 0.213355600028059 
1158	 0.212595298230866 
1159	 0.211781041591426 
1160	 0.210978249446927 
1161	 0.210206685805913 
1162	 0.209351526973094 
1163	 0.208606488064717 
1164	 0.207822067567152 
1165	 0.207021410529106 
1166	 0.206319840754594 
1167	 0.20554667034405 
1168	 0.204797129600178 
1169	 0.204041453632793 
1170	 0.203269391778664 
1171	 0.202500142238458 
1172	 0.201749458534331 
1173	 0.200958526704217 
1174	 0.200157747809466 
1175	 0.199349525578972 
1176	 0.198494876189946 
1177	 0.197696972753501 
1178	 0.196970354034013 
1179	 0.196102021663224 
1180	 0.195324288782299 
1181	 0.194588711133002 
1182	 0.193764530230615 
1183	 0.193064116370032 
1184	 0.192410475998118 
1185	 0.191657849869381 
1186	 0.190921189686758 
1187	 0.190214854325073 
1188	 0.189464663709741 
1189	 0.188635574155742 
1190	 0.187874350550878 
1191	 0.187108385651841 
1192	 0.18640460190694 
1193	 0.185787146516214 
1194	 0.185115182114686 
1195	 0.184470628434547 
1196	 0.183788870598886 
1197	 0.183068796367703 
1198	 0.182303716017081 
1199	 0.181597906158066 
1200	 0.180945911363149 
1201	 0.180310908534403 
1202	 0.17975033684345 
1203	 0.179242209678081 
1204	 0.178657521747945 
1205	 0.178046864416072 
1206	 0.177385403486445 
1207	 0.176793243455773 
1208	 0.176159760309439 
1209	 0.175612578381247 
1210	 0.1751774627611 
1211	 0.17467051184988 
1212	 0.174106883697284 
1213	 0.173650765840667 
1214	 0.173244563388924 
1215	 0.17282339960563 
1216	 0.172467932955654 
1217	 0.172105568971214 
1218	 0.171706684421488 
1219	 0.171363830079158 
1220	 0.171010646167778 
1221	 0.170575683705141 
1222	 0.17011370162006 
1223	 0.169632810200707 
1224	 0.169208801521131 
1225	 0.16881124476766 
1226	 0.168441182545964 
1227	 0.168134480444346 
1228	 0.16775903723468 
1229	 0.167373604477376 
1230	 0.166991179917705 
1231	 0.166576527491339 
1232	 0.166158596695229 
1233	 0.165727174811546 
1234	 0.165336317157366 
1235	 0.164966295038498 
1236	 0.164575534695318 
1237	 0.164218265402841 
1238	 0.163843654666498 
1239	 0.163464616107992 
1240	 0.162998789463679 
1241	 0.162610795441256 
1242	 0.162265636718597 
1243	 0.161922001258421 
1244	 0.161621099974887 
1245	 0.161260026290261 
1246	 0.160886987693392 
1247	 0.160505737366596 
1248	 0.160085808059592 
1249	 0.159697141819099 
1250	 0.159278236712722 
1251	 0.1589538249591 
1252	 0.158702272630666 
1253	 0.158390591321462 
1254	 0.158154309110409 
1255	 0.157842297048864 
1256	 0.157401173738259 
1257	 0.157055486440811 
1258	 0.156761413747318 
1259	 0.156434662444918 
1260	 0.156111597820021 
1261	 0.155807836630063 
1262	 0.155502302061323 
1263	 0.155192911814281 
1264	 0.154869133113995 
1265	 0.154542790271092 
1266	 0.154279626377434 
1267	 0.154005524551321 
1268	 0.153776220862825 
1269	 0.153661631455311 
1270	 0.153443555054147 
1271	 0.15316048324464 
1272	 0.152930468314756 
1273	 0.152700170223784 
1274	 0.152475730475181 
1275	 0.15228370542826 
1276	 0.152075374474154 
1277	 0.151822619848218 
1278	 0.151630148232102 
1279	 0.151486310284841 
1280	 0.151320921216081 
1281	 0.15115972134902 
1282	 0.151024987135515 
1283	 0.150878017490008 
1284	 0.150761671328061 
1285	 0.15067271826209 
1286	 0.150651299711478 
1287	 0.150544650742639 
1288	 0.150390382318024 
1289	 0.150326487660668 
1290	 0.150252631162347 
1291	 0.150231219441117 
1292	 0.150303083936329 
1293	 0.15033198871446 
1294	 0.150348984570156 
1295	 0.15038265031872 
1296	 0.150465759559881 
1297	 0.150479797501693 
1298	 0.150426644012828 
1299	 0.150444403359532 
1300	 0.150453649955462 
1301	 0.150486583650281 
1302	 0.150576461207909 
1303	 0.150662803517341 
1304	 0.150755299945711 
1305	 0.150837337964396 
1306	 0.150948508431168 
1307	 0.151033990064282 
1308	 0.1510474571937 
1309	 0.151129185117318 
1310	 0.151217520567707 
1311	 0.151310426556059 
1312	 0.151433808520485 
1313	 0.151598903016179 
1314	 0.151744883675988 
1315	 0.151931634075551 
1316	 0.15202769699121 
1317	 0.152076122367613 
1318	 0.15214696909401 
1319	 0.15214287876101 
1320	 0.152224414960162 
1321	 0.152391414122299 
1322	 0.152488654746166 
1323	 0.152539344384843 
1324	 0.15266451955263 
1325	 0.15277815830685 
1326	 0.152940979978507 
1327	 0.153247641870874 
1328	 0.153433777055685 
1329	 0.153583629559316 
1330	 0.153706138388897 
1331	 0.15375074460738 
1332	 0.153808426164797 
1333	 0.153822755411076 
1334	 0.153879902666816 
1335	 0.153993700102332 
1336	 0.154144999559577 
1337	 0.154260166353956 
1338	 0.154414716360478 
1339	 0.154555333195331 
1340	 0.154660389112244 
1341	 0.154778535607972 
1342	 0.154940220181123 
1343	 0.155058407521599 
1344	 0.155135297493524 
1345	 0.155223482288966 
1346	 0.155276562264711 
1347	 0.155407393580084 
1348	 0.155605247500565 
1349	 0.15572638593903 
1350	 0.155884001752269 
1351	 0.155985401828848 
1352	 0.155971068733953 
1353	 0.156023497190033 
1354	 0.156089208484183 
1355	 0.156180808431879 
1356	 0.156312264227175 
1357	 0.156419795814858 
1358	 0.156537750846783 
1359	 0.156651068389562 
1360	 0.156715926409867 
1361	 0.156842824758009 
1362	 0.157015412721585 
1363	 0.157110376446667 
1364	 0.157207771616969 
1365	 0.157304824920966 
1366	 0.157377560367087 
1367	 0.157413550420966 
1368	 0.157464557671619 
1369	 0.15751449163088 
1370	 0.157556883734159 
1371	 0.15758901720523 
1372	 0.157623264900829 
1373	 0.157644665126774 
1374	 0.157697098761547 
1375	 0.157779697236095 
1376	 0.157821010232158 
1377	 0.157873758080018 
1378	 0.157894827089128 
1379	 0.15787375964665 
1380	 0.15785726351796 
1381	 0.157838855726662 
1382	 0.157807234694147 
1383	 0.157728787259436 
1384	 0.157696897707917 
1385	 0.15770253314752 
1386	 0.157680967720612 
1387	 0.157665963398191 
1388	 0.157653291134226 
1389	 0.15763687765575 
1390	 0.157592403101781 
1391	 0.15751489500072 
1392	 0.15748633676825 
1393	 0.157420211978526 
1394	 0.15739611669174 
1395	 0.157368385133392 
1396	 0.157380776498424 
1397	 0.157357767715513 
1398	 0.157335890248987 
1399	 0.157265199529277 
1400	 0.157183786818853 
1401	 0.157064362091075 
1402	 0.156879105773481 
1403	 0.156726994248718 
1404	 0.156573011195729 
1405	 0.156416438833722 
1406	 0.156287636349143 
1407	 0.156093962503785 
1408	 0.155853420286257 
1409	 0.155627918847884 
1410	 0.155358681151195 
1411	 0.155122198330707 
1412	 0.154924915921538 
1413	 0.154697050494084 
1414	 0.154424925947851 
1415	 0.154214585028809 
1416	 0.154024289516571 
1417	 0.153837781724873 
1418	 0.153740469203054 
1419	 0.153557148423481 
1420	 0.153295861306703 
1421	 0.153078462600859 
1422	 0.15281770274383 
1423	 0.15260439888955 
1424	 0.152439523678821 
1425	 0.152293918889832 
1426	 0.152141826684159 
1427	 0.151986747516694 
1428	 0.151803054323701 
1429	 0.151612700409635 
1430	 0.151424923314466 
1431	 0.151220941553165 
1432	 0.151037007417621 
1433	 0.150878209103089 
1434	 0.150672775572998 
1435	 0.150445170805374 
1436	 0.150239968623208 
1437	 0.150018689463403 
1438	 0.149805187748373 
1439	 0.149613061950521 
1440	 0.149409162229026 
1441	 0.149193283678009 
1442	 0.148971813312567 
1443	 0.148747964667493 
1444	 0.148538037344176 
1445	 0.148285605594766 
1446	 0.14811399787519 
1447	 0.148002892891342 
1448	 0.147884136861442 
1449	 0.14779762534091 
1450	 0.147723240065984 
1451	 0.147655320928497 
1452	 0.147593973577771 
1453	 0.147580616283745 
1454	 0.147528472037538 
1455	 0.147428557915579 
1456	 0.147382208242216 
1457	 0.147344858180156 
1458	 0.147319617224509 
1459	 0.147354709070684 
1460	 0.147351521057368 
1461	 0.14732866774764 
1462	 0.147307341090357 
1463	 0.147264620830532 
1464	 0.147237928675893 
1465	 0.147234206020944 
1466	 0.147207080836466 
1467	 0.14716181427242 
1468	 0.147129946561315 
1469	 0.147080026536189 
1470	 0.147007883493401 
1471	 0.146981334960813 
1472	 0.14698556472719 
1473	 0.146956901996394 
1474	 0.146928650218758 
1475	 0.146917479434419 
1476	 0.146907011780512 
1477	 0.146870754507847 
1478	 0.146854903823567 
1479	 0.14680221400106 
1480	 0.146695618009445 
1481	 0.146618930896525 
1482	 0.146541666437634 
1483	 0.146481838853227 
1484	 0.146414158092058 
1485	 0.146380408921859 
1486	 0.146404264685692 
1487	 0.146365708397542 
1488	 0.14631011752576 
1489	 0.146265518748521 
1490	 0.14618240179683 
1491	 0.146131664613859 
1492	 0.146109495753434 
1493	 0.146082479544587 
1494	 0.146061188359976 
1495	 0.14603659750925 
1496	 0.146018109261017 
1497	 0.145999368882856 
1498	 0.145963443398082 
1499	 0.145952285094283 
1500	 0.145953564717086 
1501	 0.145968011995199 
1502	 0.146010074667765 
1503	 0.146036881495583 
1504	 0.146081888009822 
1505	 0.146098031497963 
1506	 0.146082795075997 
1507	 0.146084693006122 
1508	 0.146074890049582 
1509	 0.146074044007159 
1510	 0.146072476797277 
1511	 0.146094190653775 
1512	 0.14615134161366 
1513	 0.146178341760221 
1514	 0.146222685155762 
1515	 0.146239904631364 
1516	 0.146196107149238 
1517	 0.146183724809801 
1518	 0.146188113418663 
1519	 0.146182854717846 
1520	 0.146167213629825 
1521	 0.146182250479137 
1522	 0.146203383870342 
1523	 0.146204745049064 
1524	 0.146235238152305 
1525	 0.14629347279558 
1526	 0.146335421537518 
1527	 0.1463904464179 
1528	 0.146398890174731 
1529	 0.146370674573092 
1530	 0.146406918018157 
1531	 0.146434393514589 
1532	 0.146490418043703 
1533	 0.146622779606379 
1534	 0.146673884850532 
1535	 0.146668046882358 
1536	 0.14672917859745 
1537	 0.146793513057233 
1538	 0.146876584909593 
1539	 0.147013288760397 
1540	 0.147101662316164 
1541	 0.14716099650649 
1542	 0.14725390037589 
1543	 0.147356644923583 
1544	 0.147444056403977 
1545	 0.14753151548646 
1546	 0.147637713025007 
1547	 0.147742042260019 
1548	 0.147844959314837 
1549	 0.147946294272849 
1550	 0.148098949959656 
1551	 0.148273292057565 
1552	 0.148430819887495 
1553	 0.148631948219624 
1554	 0.148812078172017 
1555	 0.148949998055769 
1556	 0.14911901023129 
1557	 0.149343199007835 
1558	 0.149502308577425 
1559	 0.149603038760631 
1560	 0.149761364805196 
1561	 0.149912849967123 
1562	 0.150088610355253 
1563	 0.150332083657552 
1564	 0.150517133619609 
1565	 0.150651768680018 
1566	 0.15084200046258 
1567	 0.151060770474604 
1568	 0.151242427828254 
1569	 0.151428321913165 
1570	 0.151624908053675 
1571	 0.151783081125817 
1572	 0.151974895582237 
1573	 0.152211762996013 
1574	 0.152437447548242 
1575	 0.152663269343262 
1576	 0.152882672105032 
1577	 0.153113469471957 
1578	 0.153332504138112 
1579	 0.153551136939441 
1580	 0.153739958485763 
1581	 0.153873146718073 
1582	 0.15407902931175 
1583	 0.154302550433965 
1584	 0.154527437164786 
1585	 0.154843004361252 
1586	 0.155071396411669 
1587	 0.155213656738239 
1588	 0.155407993389574 
1589	 0.155578855116332 
1590	 0.155791870203619 
1591	 0.156050890645422 
1592	 0.15630975534967 
1593	 0.156614492162482 
1594	 0.156868074186774 
1595	 0.157100539085888 
1596	 0.157336093518062 
1597	 0.157524324649338 
1598	 0.157748952003431 
1599	 0.158019322013729 
1600	 0.158255237874567 
1601	 0.158494633315714 
1602	 0.158706750246997 
1603	 0.158858177956026 
1604	 0.159064057770071 
1605	 0.159296910630767 
1606	 0.159511984438904 
1607	 0.159754167280083 
1608	 0.159977356979165 
1609	 0.160165913905579 
1610	 0.160368730284217 
1611	 0.160583048977932 
1612	 0.160791820115894 
1613	 0.160992051264152 
1614	 0.161202313496357 
1615	 0.161426258003265 
1616	 0.161637554164263 
1617	 0.161851127847091 
1618	 0.162053443539364 
1619	 0.162236182027521 
1620	 0.162426353142253 
1621	 0.162627862713012 
1622	 0.162805180666254 
1623	 0.162993454479914 
1624	 0.163135413567245 
1625	 0.163176291061913 
1626	 0.16332074807795 
1627	 0.163511901468651 
1628	 0.163680711305926 
1629	 0.163939718854136 
1630	 0.164123894838728 
1631	 0.164219671155444 
1632	 0.164345657242489 
1633	 0.164444720786137 
1634	 0.164580781502591 
1635	 0.164779203679453 
1636	 0.164918221792254 
1637	 0.165035545198207 
1638	 0.165157837887034 
1639	 0.16520717252676 
1640	 0.165326887982348 
1641	 0.165559492491144 
1642	 0.165687599190758 
1643	 0.165779674899127 
1644	 0.165871927466228 
1645	 0.165874795975449 
1646	 0.165930363439749 
1647	 0.166058520705017 
1648	 0.166132983154266 
1649	 0.166169255748753 
1650	 0.166230068820075 
1651	 0.16629564332695 
1652	 0.166333975862631 
1653	 0.166368159203746 
1654	 0.16641047097026 
1655	 0.16644172943725 
1656	 0.166455590274035 
1657	 0.166503911273409 
1658	 0.166480294263026 
1659	 0.166369662333207 
1660	 0.166298319539347 
1661	 0.166233910497382 
1662	 0.166135301475035 
1663	 0.166000067298132 
1664	 0.165920651604037 
1665	 0.165867688875144 
1666	 0.165759451330242 
1667	 0.165700162440477 
1668	 0.165561952995414 
1669	 0.165326952118075 
1670	 0.165097422786514 
1671	 0.164842048454895 
1672	 0.164594785996593 
1673	 0.164327496245405 
1674	 0.164032440829068 
1675	 0.163773097023527 
1676	 0.163431518329134 
1677	 0.163008491698943 
1678	 0.162599677273188 
1679	 0.162157628922127 
1680	 0.161705291974746 
1681	 0.161249563910679 
1682	 0.160772406347132 
1683	 0.160261991204398 
1684	 0.159748570903169 
1685	 0.159247158955319 
1686	 0.158703349057415 
1687	 0.158143201951855 
1688	 0.157522099700926 
1689	 0.156816777657444 
1690	 0.156150378691342 
1691	 0.155498001699943 
1692	 0.154816582161576 
1693	 0.154132251759099 
1694	 0.153417771095518 
1695	 0.152636359477885 
1696	 0.151882687616261 
1697	 0.151147145962602 
1698	 0.150395651516586 
1699	 0.149642577504206 
1700	 0.148904746848535 
1701	 0.148158402828355 
1702	 0.14740438062282 
1703	 0.146641992901114 
1704	 0.145900062296679 
1705	 0.145146711032674 
1706	 0.144448134643536 
1707	 0.143792061726967 
1708	 0.143174837895145 
1709	 0.14260194554934 
1710	 0.142124425929091 
1711	 0.141645483216284 
1712	 0.141222208162038 
1713	 0.140872482063849 
1714	 0.140468534476252 
1715	 0.140166572911828 
1716	 0.139857465593065 
1717	 0.139457695845409 
1718	 0.139166755899772 
1719	 0.138895655415669 
1720	 0.138550767574696 
1721	 0.138280908889272 
1722	 0.138060532405584 
1723	 0.137769419789453 
1724	 0.137607079225739 
1725	 0.137590806768814 
1726	 0.137562748040132 
1727	 0.137567763647956 
1728	 0.137689670520582 
1729	 0.137801837988782 
1730	 0.137830417409723 
1731	 0.137994834023453 
1732	 0.138246557550502 
1733	 0.138511415576293 
1734	 0.138896001941728 
1735	 0.139324651948986 
1736	 0.139681954033059 
1737	 0.139951566472448 
1738	 0.140205888774927 
1739	 0.140457476282039 
1740	 0.140736506795448 
1741	 0.140894555575487 
1742	 0.140990288754082 
1743	 0.14105029885734 
1744	 0.140986282590604 
1745	 0.140935063771764 
1746	 0.140870711629565 
1747	 0.140833677123511 
1748	 0.140781725450201 
1749	 0.140701885633799 
1750	 0.140620833717962 
1751	 0.140550496254113 
1752	 0.140413653964467 
1753	 0.140405633436716 
1754	 0.140492056314905 
1755	 0.140548339254366 
1756	 0.140657989761273 
1757	 0.140631715811666 
1758	 0.140724312667146 
1759	 0.141005276329185 
1760	 0.141291211044398 
1761	 0.14168952078868 
1762	 0.142126320348973 
1763	 0.142494175016254 
1764	 0.142864231065637 
1765	 0.143304454450602 
1766	 0.143798660061832 
1767	 0.144236110709878 
1768	 0.144770139346599 
1769	 0.145362082939324 
1770	 0.145851490025537 
1771	 0.146357801535531 
1772	 0.146820967394888 
1773	 0.147250935178008 
1774	 0.147736236132412 
1775	 0.14821433884016 
1776	 0.148680706801135 
1777	 0.149092378525243 
1778	 0.149409641245582 
1779	 0.149712952702724 
1780	 0.150049642628291 
1781	 0.150347336803412 
1782	 0.150653893514829 
1783	 0.150984958920945 
1784	 0.151276477242762 
1785	 0.151549128587652 
1786	 0.151805852863915 
1787	 0.152073014411533 
1788	 0.152252552181359 
1789	 0.152334236554997 
1790	 0.152531148708433 
1791	 0.152742235189148 
1792	 0.152948703322817 
1793	 0.153221297121814 
1794	 0.153420079659197 
1795	 0.153577601716407 
1796	 0.15376192243119 
1797	 0.154008990862841 
1798	 0.154271384388223 
1799	 0.154521947707187 
1800	 0.154816068764077 
1801	 0.157422118731791 
1802	 0.157700275501606 
1803	 0.157966664789121 
1804	 0.158316648899716 
1805	 0.158605519151567 
1806	 0.158840274456883 
1807	 0.158996206097297 
1808	 0.159229082596122 
1809	 0.15940629546736 
1810	 0.159677630585363 
1811	 0.160054637320091 
1812	 0.160373957989441 
1813	 0.160697386706765 
1814	 0.161057554083721 
1815	 0.161323847922111 
1816	 0.161642532715651 
1817	 0.161962024703057 
1818	 0.162299824846708 
1819	 0.162591888533842 
1820	 0.162857033807859 
1821	 0.163158930353917 
1822	 0.163415588549564 
1823	 0.163767722802993 
1824	 0.164138699019574 
1825	 0.164476967305448 
1826	 0.16484838979517 
1827	 0.165230393525866 
1828	 0.165605599939444 
1829	 0.166019957639814 
1830	 0.166407092840202 
1831	 0.166785782277444 
1832	 0.167113457008125 
1833	 0.1675243717274 
1834	 0.167967534949602 
1835	 0.168324314510467 
1836	 0.168682266482508 
1837	 0.16905327678999 
1838	 0.169353360442476 
1839	 0.169711953084086 
1840	 0.170148320673241 
1841	 0.170549122080652 
1842	 0.17093984269639 
1843	 0.171316236188972 
1844	 0.171716441206993 
1845	 0.172105692532701 
1846	 0.172531030961037 
1847	 0.172958672240593 
1848	 0.173363543128551 
1849	 0.173778512315173 
1850	 0.174168115192587 
1851	 0.174509073949542 
1852	 0.174903736395688 
1853	 0.175315199623206 
1854	 0.175673983029225 
1855	 0.176117715799076 
1856	 0.176501357726341 
1857	 0.176787174981439 
1858	 0.177149757230349 
1859	 0.177491849294783 
1860	 0.177812487818738 
1861	 0.17810421201734 
1862	 0.178413764599471 
1863	 0.178667968250514 
1864	 0.178897722440666 
1865	 0.179133989324115 
1866	 0.179421365259876 
1867	 0.179704890029123 
1868	 0.179959294847028 
1869	 0.180245621072622 
1870	 0.180455433234262 
1871	 0.180626901681742 
1872	 0.180764343132441 
1873	 0.180856605169332 
1874	 0.180899412181404 
1875	 0.180917577505545 
1876	 0.180919968624878 
1877	 0.180991282619366 
1878	 0.180963743102251 
1879	 0.180902993564747 
1880	 0.18088585039426 
1881	 0.180789734149506 
1882	 0.180626682542061 
1883	 0.180437874016232 
1884	 0.180198994086627 
1885	 0.179837756861756 
1886	 0.179409118489267 
1887	 0.178958265068782 
1888	 0.178489350214213 
1889	 0.17798735400576 
1890	 0.177340169970814 
1891	 0.176673031610418 
1892	 0.176005847632818 
1893	 0.175305988062722 
1894	 0.174564364574537 
1895	 0.173901628882583 
1896	 0.173133583719984 
1897	 0.172292161092417 
1898	 0.171593383226504 
1899	 0.170908497045403 
1900	 0.170299809791938 
1901	 0.169813993369774 
1902	 0.169211135480358 
1903	 0.168631797009768 
1904	 0.168104983991875 
1905	 0.167594626577991 
1906	 0.167077812181056 
1907	 0.166790402082841 
1908	 0.166594176762898 
1909	 0.166418723065553 
1910	 0.166336745389685 
1911	 0.166239329616403 
1912	 0.166165742849468 
1913	 0.16609263716985 
1914	 0.166105038467973 
1915	 0.166121794004888 
1916	 0.166163246643701 
1917	 0.166136581459387 
1918	 0.16622558166735 
1919	 0.166319553667977 
1920	 0.166408907956819 
1921	 0.166563039748285 
1922	 0.166734167324107 
1923	 0.166902278124905 
1924	 0.167054432910717 
1925	 0.167248351675653 
1926	 0.167433989601352 
1927	 0.16757765125728 
1928	 0.167792440419753 
1929	 0.168049740551457 
1930	 0.168303226090992 
1931	 0.168631725255961 
1932	 0.168972152152138 
1933	 0.169262703477575 
1934	 0.169598302705222 
1935	 0.169917325105729 
1936	 0.170210989742474 
1937	 0.170572309161643 
1938	 0.170981872381729 
1939	 0.171421236035201 
1940	 0.171879386459473 
1941	 0.172412895841099 
1942	 0.172952448812363 
1943	 0.173493884907386 
1944	 0.174020430082946 
1945	 0.174483847490339 
1946	 0.175058303226991 
1947	 0.175610184313173 
1948	 0.176147196203434 
1949	 0.176823113571229 
1950	 0.177468688382416 
1951	 0.178121655650371 
1952	 0.178762755220809 
1953	 0.179404279499536 
1954	 0.180064575764364 
1955	 0.180795545009512 
1956	 0.181481196785791 
1957	 0.182196205825028 
1958	 0.182965695224317 
1959	 0.183659597832623 
1960	 0.184379778197271 
1961	 0.185067016054295 
1962	 0.185760466139517 
1963	 0.186419118678084 
1964	 0.187020542499857 
1965	 0.187644811356355 
1966	 0.188298851552238 
1967	 0.188910486168601 
1968	 0.189462416694143 
1969	 0.190006534413964 
1970	 0.19052661330059 
1971	 0.191076753338798 
1972	 0.191740522759886 
1973	 0.192419569178544 
1974	 0.193048813177698 
1975	 0.193707769848043 
1976	 0.194319654795367 
1977	 0.194846625073166 
1978	 0.195430143197091 
1979	 0.196030201978962 
1980	 0.196618946783089 
1981	 0.197259060618195 
1982	 0.197820723002214 
1983	 0.198411767238503 
1984	 0.199066789852486 
1985	 0.199677526547576 
1986	 0.200342854618317 
1987	 0.201009637630822 
1988	 0.201710139254352 
1989	 0.202358744568783 
1990	 0.202970869963303 
1991	 0.203631131880889 
1992	 0.204299139879262 
1993	 0.204954045380877 
1994	 0.205627307847507 
1995	 0.206373581602359 
1996	 0.207033480173787 
1997	 0.207677865002786 
1998	 0.208331961108437 
1999	 0.208959080973514 
2000	 0.209625891550602 
2001	 0.210352169157441 
2002	 0.210991116994624 
2003	 0.211654620789722 
2004	 0.212241971376395 
2005	 0.212675500003507 
2006	 0.213204269643224 
2007	 0.213793564775977 
2008	 0.21428728353946 
2009	 0.214803162443079 
2010	 0.215356486355362 
2011	 0.21574043645509 
2012	 0.216107659220226 
2013	 0.216495629428249 
2014	 0.216852303572559 
2015	 0.217214080698126 
2016	 0.217615168885752 
2017	 0.21796053027693 
2018	 0.218295278673887 
2019	 0.218573532460909 
2020	 0.218776083048996 
2021	 0.219021554173821 
2022	 0.219206778810096 
2023	 0.219395125383715 
2024	 0.219670277947729 
2025	 0.219842152974062 
2026	 0.220027709308481 
2027	 0.220232493258848 
2028	 0.220372554860066 
2029	 0.220462916951716 
2030	 0.22055727218958 
2031	 0.220599942148336 
2032	 0.220662707812397 
2033	 0.220717695692875 
2034	 0.220782726540398 
2035	 0.220857921714448 
2036	 0.220947385193912 
2037	 0.220984535567054 
2038	 0.221016531142728 
2039	 0.221044510549923 
2040	 0.221040430392498 
2041	 0.221049197006243 
2042	 0.221028889227431 
2043	 0.221099712736158 
2044	 0.22123732645356 
2045	 0.221312147951856 
2046	 0.221412354845393 
2047	 0.221507741647266 
2048	 0.221543982447907 
2049	 0.221618086892183 
2050	 0.221729260390503 
2051	 0.221861895737278 
2052	 0.222006731853849 
2053	 0.222119136797091 
2054	 0.222205671264096 
2055	 0.222279107066588 
2056	 0.222380469133713 
2057	 0.222435966542048 
2058	 0.222538211029675 
2059	 0.222736109639338 
2060	 0.222840718950974 
2061	 0.222864102443642 
2062	 0.222964744577255 
2063	 0.223075859435438 
2064	 0.223172427457195 
2065	 0.223293726689372 
2066	 0.223440896727453 
2067	 0.223577129315193 
2068	 0.22370306123211 
2069	 0.22377225277853 
2070	 0.223834077180368 
2071	 0.223894471641001 
2072	 0.223861994897353 
2073	 0.223917136230036 
2074	 0.224051755003129 
2075	 0.224134617145309 
2076	 0.224185391550032 
2077	 0.224280473567437 
2078	 0.224406709792339 
2079	 0.224503558958387 
2080	 0.224606383517551 
2081	 0.22472026497878 
2082	 0.224818603157981 
2083	 0.224920930031122 
2084	 0.22502889099482 
2085	 0.225135613027434 
2086	 0.225240635111952 
2087	 0.225321370941636 
2088	 0.225429269303196 
2089	 0.225599684407482 
2090	 0.225665212469505 
2091	 0.225644216165724 
2092	 0.225691130025019 
2093	 0.225715000575614 
2094	 0.225756370098478 
2095	 0.225852947466698 
2096	 0.225948037685916 
2097	 0.226051173996123 
2098	 0.226111118705036 
2099	 0.22621495871784 
2100	 0.226249826260926 
2101	 0.226238895967796 
2102	 0.226144619579324 
2103	 0.226102486035987 
2104	 0.226009630500763 
2105	 0.225992495331662 
2106	 0.226044806263559 
2107	 0.226031660526909 
2108	 0.226057333596173 
2109	 0.226017058936835 
2110	 0.225906398064233 
2111	 0.225801175949032 
2112	 0.225657526436598 
2113	 0.225527958203584 
2114	 0.22540900440261 
2115	 0.225258523111949 
2116	 0.225064114916348 
2117	 0.224919662504783 
2118	 0.224768852711593 
2119	 0.224583217218294 
2120	 0.224464689356547 
2121	 0.224437618481413 
2122	 0.224290273700562 
2123	 0.224084023162462 
2124	 0.223951638863101 
2125	 0.223764838018012 
2126	 0.223649544581846 
2127	 0.223639330613366 
2128	 0.223584271067874 
2129	 0.223549260640978 
2130	 0.223481393441467 
2131	 0.223338476917062 
2132	 0.22329592280977 
2133	 0.223276066507474 
2134	 0.223250614516303 
2135	 0.223430327032042 
2136	 0.22362033580159 
2137	 0.223743630127088 
2138	 0.223902439022835 
2139	 0.223989335055411 
2140	 0.223974072227603 
2141	 0.224042285164729 
2142	 0.224114517305389 
2143	 0.224221093919689 
2144	 0.224372794213698 
2145	 0.224497338828274 
2146	 0.224586015523797 
2147	 0.224756079406255 
2148	 0.224936681299848 
2149	 0.225179169410016 
2150	 0.225550026918459 
2151	 0.225869124824376 
2152	 0.226201501778972 
2153	 0.226527313273256 
2154	 0.226815958190513 
2155	 0.226997300832836 
2156	 0.227240291764668 
2157	 0.22743261188138 
2158	 0.227709091947137 
2159	 0.228061837291677 
2160	 0.228359279325691 
2161	 0.228673572803227 
2162	 0.228950421447796 
2163	 0.229241712775756 
2164	 0.229421842366338 
2165	 0.229507897530841 
2166	 0.229647727126959 
2167	 0.22973346382226 
2168	 0.229818477993379 
2169	 0.22995309414087 
2170	 0.230048271005314 
2171	 0.230058697319528 
2172	 0.230104803442967 
2173	 0.230159578649392 
2174	 0.230252356527531 
2175	 0.230263925696599 
2176	 0.230356557952065 
2177	 0.230448164418871 
2178	 0.230514541608961 
2179	 0.230680242158055 
2180	 0.23097560380397 
2181	 0.231116615027194 
2182	 0.231259814075762 
2183	 0.231363256941612 
2184	 0.231351917509824 
2185	 0.231380389131678 
2186	 0.231426418259511 
2187	 0.231465320737085 
2188	 0.231504384637787 
2189	 0.231493009212856 
2190	 0.231472284687554 
2191	 0.231437431064086 
2192	 0.231277749701676 
2193	 0.231240060763995 
2194	 0.231332581483698 
2195	 0.231333819355018 
2196	 0.231327939090657 
2197	 0.231345363612128 
2198	 0.231295678923368 
2199	 0.231151656362267 
2200	 0.231112444273973 
2201	 0.231157324245694 
2202	 0.231054367140263 
2203	 0.230942911186498 
2204	 0.230753699652528 
2205	 0.230379453419277 
2206	 0.230192578049673 
2207	 0.23007468490773 
2208	 0.229905310129581 
2209	 0.229789022406831 
2210	 0.229652079647277 
2211	 0.229508499051363 
2212	 0.229316635664569 
2213	 0.22908860617061 
2214	 0.228899103069458 
2215	 0.228631658276543 
2216	 0.228429721021213 
2217	 0.228342388803146 
2218	 0.228207965673867 
2219	 0.228129037913335 
2220	 0.227945609638299 
2221	 0.227696973809657 
2222	 0.227419170691299 
2223	 0.227156829065522 
2224	 0.226751010302205 
2225	 0.226353857186927 
2226	 0.226050269635215 
2227	 0.225642912256581 
2228	 0.225167260845413 
2229	 0.224685316538225 
2230	 0.22420241349959 
2231	 0.223615324955749 
2232	 0.222979129171591 
2233	 0.222271006049544 
2234	 0.221515375182809 
2235	 0.220639600453075 
2236	 0.219720736940073 
2237	 0.218621564742608 
2238	 0.217290586616328 
2239	 0.216013440511286 
2240	 0.214639715798902 
2241	 0.21323652658346 
2242	 0.211956248643588 
2243	 0.21040221885928 
2244	 0.208593422036836 
2245	 0.206829311196192 
2246	 0.204874079675347 
2247	 0.202983787165435 
2248	 0.201214825057578 
2249	 0.199302240138118 
2250	 0.197345959366851 
2251	 0.195256628422572 
2252	 0.193091702907012 
2253	 0.190978093209013 
2254	 0.188822668924244 
2255	 0.186737315556236 
2256	 0.184866401172154 
2257	 0.182893066297558 
2258	 0.181004363685412 
2259	 0.179279211665634 
2260	 0.177410315403903 
2261	 0.175438446693332 
2262	 0.173610961981448 
2263	 0.171742753800548 
2264	 0.170039681606248 
2265	 0.168535408384243 
2266	 0.166914843046435 
2267	 0.165365645614394 
2268	 0.16374168937426 
2269	 0.161969441661924 
2270	 0.160392272349863 
2271	 0.158864205620443 
2272	 0.157416510269437 
2273	 0.1561453391389 
2274	 0.154794490112401 
2275	 0.153513137882647 
2276	 0.152125846209733 
2277	 0.150690707393963 
2278	 0.149223815304963 
2279	 0.1476154393028 
2280	 0.146098948279935 
2281	 0.144660033337043 
2282	 0.143142827249296 
2283	 0.141611857909353 
2284	 0.14008666487669 
2285	 0.138530904289196 
2286	 0.136821897825048 
2287	 0.135090309559212 
2288	 0.133382862135949 
2289	 0.131765761193053 
2290	 0.130183395939498 
2291	 0.128625909500455 
2292	 0.127104605784118 
2293	 0.125382562528898 
2294	 0.123579924517328 
2295	 0.121934693215384 
2296	 0.120418871942673 
2297	 0.119153249742314 
2298	 0.118149466288611 
2299	 0.117208624431704 
2300	 0.116399276164945 
2301	 0.11585808713202 
2302	 0.115440073783922 
2303	 0.115351232925827 
2304	 0.115613027824268 
2305	 0.116000575655935 
2306	 0.116644390823376 
2307	 0.117397437374217 
2308	 0.118357761410563 
2309	 0.119426564132992 
2310	 0.120672163556497 
2311	 0.122009740783201 
2312	 0.123607916305059 
2313	 0.125031834472457 
2314	 0.12640136753368 
2315	 0.12790471769065 
2316	 0.129531486348925 
2317	 0.130947268863961 
2318	 0.132473648033494 
2319	 0.133713616518526 
2320	 0.134672712252053 
2321	 0.135554056529692 
2322	 0.136358404674019 
2323	 0.136933179416076 
2324	 0.137260384365228 
2325	 0.137499722234176 
2326	 0.137547343028305 
2327	 0.137545840982788 
2328	 0.137475199773843 
2329	 0.137259892000982 
2330	 0.136904238957866 
2331	 0.136422086637295 
2332	 0.135925835427903 
2333	 0.135272548989581 
2334	 0.134401125257036 
2335	 0.133680626084986 
2336	 0.132718158235885 
2337	 0.131521346674238 
2338	 0.130379102917987 
2339	 0.129089841643274 
2340	 0.128084598702386 
2341	 0.127074493229242 
2342	 0.126217109453642 
2343	 0.12557864367157 
2344	 0.124867922595313 
2345	 0.124515433077616 
2346	 0.124339255336161 
2347	 0.124335256499611 
2348	 0.124553775187758 
2349	 0.125076650510651 
2350	 0.125841656601818 
2351	 0.126641744013913 
2352	 0.127661597233389 
2353	 0.128742756067873 
2354	 0.12969135577044 
2355	 0.13099328779469 
2356	 0.132132024739312 
2357	 0.133042806249427 
2358	 0.134050894059673 
2359	 0.134584331436201 
2360	 0.134917604663542 
2361	 0.135184885471104 
2362	 0.135390048872968 
2363	 0.135402169745565 
2364	 0.135400547650795 
2365	 0.135660622630173 
2366	 0.135673850691344 
2367	 0.135585537948619 
2368	 0.135580682778428 
2369	 0.135292348350802 
2370	 0.13491721135468 
2371	 0.134916792264841 
2372	 0.135187798284537 
2373	 0.135360527875003 
2374	 0.135567033850902 
2375	 0.135887223690914 
2376	 0.135835485491161 
2377	 0.135493676918897 
2378	 0.135243309571926 
2379	 0.135162574139471 
2380	 0.135245265624482 
2381	 0.135400016220658 
2382	 0.135588992039993 
2383	 0.135960908427295 
2384	 0.136071299479692 
2385	 0.136129069776726 
2386	 0.136160317945184 
2387	 0.135928792264584 
2388	 0.135949911134379 
2389	 0.136069880222261 
2390	 0.136316302096847 
2391	 0.136796091868518 
2392	 0.13703792745894 
2393	 0.137260189663747 
2394	 0.137322997052301 
2395	 0.137278935444564 
2396	 0.137247216478084 
2397	 0.137061413964434 
2398	 0.137151773888858 
2399	 0.13722343647072 
2400	 0.137415141769724 
2401	 0.137918866567043 
2402	 0.137780928168968 
2403	 0.138004517169936 
2404	 0.138309023175729 
2405	 0.138474322749976 
2406	 0.138615421558253 
2407	 0.138601382694128 
2408	 0.138477780805557 
2409	 0.138533512955715 
2410	 0.138513813952487 
2411	 0.138883492886898 
2412	 0.13938076225397 
2413	 0.139242450920099 
2414	 0.139405452042085 
2415	 0.139479138655866 
2416	 0.139278679015858 
2417	 0.139435402354903 
2418	 0.139503693931576 
2419	 0.13931312191339 
2420	 0.139320118309241 
2421	 0.139483321774974 
2422	 0.139158933644647 
2423	 0.139465149706906 
2424	 0.139861368761928 
2425	 0.139810398029645 
2426	 0.140482927435257 
2427	 0.140515114025828 
2428	 0.140057638601566 
2429	 0.139916526100736 
2430	 0.139552915808601 
2431	 0.139479242660898 
2432	 0.139519519377807 
2433	 0.139434376604555 
2434	 0.139442346503103 
2435	 0.139155090103432 
2436	 0.138678603790794 
2437	 0.138430666550879 
2438	 0.138345059941045 
2439	 0.138278194724226 
2440	 0.138391128341655 
2441	 0.138587693731666 
2442	 0.138518400430174 
2443	 0.137733035291657 
2444	 0.136843921197848 
2445	 0.136500894234026 
2446	 0.136163824309848 
2447	 0.136657965015241 
2448	 0.13733685301402 
2449	 0.13681538160567 
2450	 0.136087491746937 
2451	 0.135285560580753 
2452	 0.134536488513523 
2453	 0.134490086782557 
2454	 0.134581380549571 
2455	 0.134097876237301 
2456	 0.133363402211318 
2457	 0.132801465143678 
2458	 0.132167697560844 
2459	 0.132110922138547 
2460	 0.132787939385738 
2461	 0.132886109110161 
2462	 0.132469973463821 
2463	 0.132259680972672 
2464	 0.13214223731805 
2465	 0.132035955464026 
2466	 0.132351337205081 
2467	 0.132649422602325 
2468	 0.131964539881445 
2469	 0.13123016872528 
2470	 0.131178399613025 
2471	 0.130732697057761 
2472	 0.13035393233976 
2473	 0.131059653251467 
2474	 0.131222022993323 
2475	 0.130886714165213 
2476	 0.131613670699634 
2477	 0.131812470778428 
2478	 0.131552319055352 
2479	 0.132437403526864 
2480	 0.131906241930745 
2481	 0.132082713480005 
2482	 0.132861187170959 
2483	 0.133344611696203 
2484	 0.13406089179243 
2485	 0.133950007655763 
2486	 0.133409751883185 
2487	 0.132285653079273 
2488	 0.131415975445704 
2489	 0.13241117865923 
2490	 0.132675186663519 
2491	 0.133011024139615 
2492	 0.134287665329943 
2493	 0.133953114124432 
2494	 0.13438290841869 
2495	 0.13542026582813 
2496	 0.135563560285654 
2497	 0.136130651759723 
2498	 0.136074546998324 
2499	 0.135776986141896 
2500	 0.136291343412518 
