Wavelength	Tablay400007.asd
350	 0.231923611656486 
351	 0.23695156147795 
352	 0.238206648526904 
353	 0.228983090660809 
354	 0.244009935310815 
355	 0.242231546743239 
356	 0.235504862219903 
357	 0.236154377403365 
358	 0.213984841199548 
359	 0.195944942838354 
360	 0.193304888432168 
361	 0.20457769286792 
362	 0.197552055057938 
363	 0.199378197803295 
364	 0.209358937002448 
365	 0.182188826417107 
366	 0.157156193386303 
367	 0.152981854692499 
368	 0.169629044740385 
369	 0.174011614149362 
370	 0.162009700285664 
371	 0.152926600560535 
372	 0.171671974030217 
373	 0.171478680421521 
374	 0.157938963831627 
375	 0.145191365288093 
376	 0.152793904234004 
377	 0.143262452276505 
378	 0.137394828721133 
379	 0.150878415789725 
380	 0.133818327472161 
381	 0.118912195538085 
382	 0.119540002170589 
383	 0.13079552828257 
384	 0.124434072315362 
385	 0.119849615678381 
386	 0.126474081985785 
387	 0.131287950429567 
388	 0.121992414890362 
389	 0.115916162040711 
390	 0.125746011134398 
391	 0.11620633365891 
392	 0.112600102295694 
393	 0.115764782623675 
394	 0.111237869488568 
395	 0.105972865382446 
396	 0.10577082062363 
397	 0.109359904015431 
398	 0.104243348154447 
399	 0.103842796251427 
400	 0.106973191035433 
401	 0.107211399845643 
402	 9.37939982872083E-02 
403	 8.49633651505486E-02 
404	 8.56360240008833E-02 
405	 8.95511887269393E-02 
406	 0.094237284844138 
407	 9.19532973442916E-02 
408	 8.28653969952002E-02 
409	 8.19226074548593E-02 
410	 8.44495010522478E-02 
411	 0.085170535233457 
412	 8.10320203850501E-02 
413	 8.12699090844138E-02 
414	 8.08355783756942E-02 
415	 7.96925184153619E-02 
416	 8.23204542259581E-02 
417	 8.19268606548284E-02 
418	 7.85676080961486E-02 
419	 7.43539470392522E-02 
420	 7.29901409688238E-02 
421	 7.30133744892273E-02 
422	 7.33362148097708E-02 
423	 7.32290836909944E-02 
424	 0.073497860352196 
425	 7.37579698314291E-02 
426	 7.35764927712178E-02 
427	 7.25754296761903E-02 
428	 7.25028341598417E-02 
429	 7.19065337337592E-02 
430	 7.00223229816802E-02 
431	 7.01448624664151E-02 
432	 7.00987662283341E-02 
433	 7.02899266038526E-02 
434	 7.19176104828917E-02 
435	 6.98390569702511E-02 
436	 6.88189907643248E-02 
437	 7.03937298155311E-02 
438	 6.97235088720051E-02 
439	 7.12889142725627E-02 
440	 7.24489598655224E-02 
441	 7.06008297826805E-02 
442	 7.13595384726278E-02 
443	 7.17257772738802E-02 
444	 7.15572638525875E-02 
445	 7.28251944809129E-02 
446	 7.23094370860451E-02 
447	 7.19137943450546E-02 
448	 0.073010046787046 
449	 7.43511319078855E-02 
450	 7.49682128057638E-02 
451	 7.52374690096905E-02 
452	 7.59407422029734E-02 
453	 7.66258614492486E-02 
454	 7.70151291221125E-02 
455	 7.71744097900647E-02 
456	 7.75231070753109E-02 
457	 0.078829020431415 
458	 8.03117750157545E-02 
459	 8.12526764113388E-02 
460	 8.21422090818193E-02 
461	 8.26600804958492E-02 
462	 8.34999985424099E-02 
463	 8.55137835750435E-02 
464	 8.60912775056305E-02 
465	 8.68935702214423E-02 
466	 8.86757538746005E-02 
467	 9.01910706247597E-02 
468	 9.13963090131279E-02 
469	 0.092656429030902 
470	 9.42830509124679E-02 
471	 9.57402053610194E-02 
472	 9.73550868908875E-02 
473	 9.91673934925396E-02 
474	 0.100975171186113 
475	 0.102601863760623 
476	 0.104412215114833 
477	 0.106571483760026 
478	 0.108601905107272 
479	 0.111205108567535 
480	 0.113761987300249 
481	 0.115511389890638 
482	 0.118071896326647 
483	 0.120180555664546 
484	 0.121876034331404 
485	 0.124777475359433 
486	 0.127420742247893 
487	 0.129559695474708 
488	 0.13145397700929 
489	 0.133988090524091 
490	 0.13669214888551 
491	 0.139320582548188 
492	 0.141757033821687 
493	 0.143817224530101 
494	 0.146024095867658 
495	 0.148550723620905 
496	 0.150904962291407 
497	 0.153254513984127 
498	 0.155411355304028 
499	 0.157247499858361 
500	 0.159256957574561 
501	 0.161317723722535 
502	 0.163349416212328 
503	 0.165339290001199 
504	 0.167513655366867 
505	 0.16958475277813 
506	 0.171383803700979 
507	 0.173187270785048 
508	 0.175226983051248 
509	 0.177283855548721 
510	 0.179006409542263 
511	 0.180702048146009 
512	 0.182286032364396 
513	 0.183870130238039 
514	 0.185853199153609 
515	 0.187542771804608 
516	 0.18923239606755 
517	 0.191169796264886 
518	 0.192531233928676 
519	 0.193928004651333 
520	 0.195481386154063 
521	 0.196976282720643 
522	 0.198574534773932 
523	 0.200206157526283 
524	 0.201836966676009 
525	 0.20360603297161 
526	 0.205094992491664 
527	 0.206415007348579 
528	 0.207840185430416 
529	 0.20938573761077 
530	 0.210817112332122 
531	 0.212127362466432 
532	 0.213549034744201 
533	 0.21503712152323 
534	 0.216390499983508 
535	 0.217550820271023 
536	 0.218955926641925 
537	 0.220361981776531 
538	 0.221746901187544 
539	 0.223187388661772 
540	 0.224490401211009 
541	 0.225737281469586 
542	 0.226985369316729 
543	 0.228195163800489 
544	 0.229478849032947 
545	 0.230754597039915 
546	 0.231938864355637 
547	 0.233207934617626 
548	 0.234575655859919 
549	 0.235955719001581 
550	 0.237196913172382 
551	 0.238574812424268 
552	 0.240000338084651 
553	 0.24137397698309 
554	 0.242747659909451 
555	 0.244058149239298 
556	 0.245302293171578 
557	 0.246498582264253 
558	 0.247598198614608 
559	 0.248631043536803 
560	 0.249668143192179 
561	 0.250830224652039 
562	 0.251734747031547 
563	 0.252538005056922 
564	 0.253460473643718 
565	 0.254363570198294 
566	 0.255215964509302 
567	 0.256035539269201 
568	 0.25688205928621 
569	 0.257847631442513 
570	 0.258872575811136 
571	 0.259896960303953 
572	 0.260917355041302 
573	 0.26191771403469 
574	 0.262853793767376 
575	 0.263677034597525 
576	 0.264355463627014 
577	 0.265014963219165 
578	 0.265648621592775 
579	 0.26609607399604 
580	 0.266652618220472 
581	 0.267217128285671 
582	 0.267702490474454 
583	 0.268352802703451 
584	 0.269061602514586 
585	 0.269714713647303 
586	 0.270233449562094 
587	 0.270908970511832 
588	 0.271521959818277 
589	 0.272030428245982 
590	 0.272775906394285 
591	 0.27351696671416 
592	 0.274274244616585 
593	 0.275120355513256 
594	 0.276014509953325 
595	 0.276877767690891 
596	 0.277650670953068 
597	 0.27830466647887 
598	 0.278985190312181 
599	 0.279591741851025 
600	 0.280083896506614 
601	 0.280684001492609 
602	 0.281148792432822 
603	 0.281510568469736 
604	 0.28191827675027 
605	 0.282428815482419 
606	 0.28289897355855 
607	 0.2832943742487 
608	 0.283734193646081 
609	 0.284089689369323 
610	 0.28443334120579 
611	 0.284847096487215 
612	 0.285281230109591 
613	 0.285672816270053 
614	 0.286039267893838 
615	 0.286442772163912 
616	 0.286807091456903 
617	 0.287183530407241 
618	 0.287579328224695 
619	 0.287893197028719 
620	 0.288223128402806 
621	 0.288588781806043 
622	 0.288974228621383 
623	 0.289339475220063 
624	 0.289617372343273 
625	 0.2898824628767 
626	 0.290319423429912 
627	 0.290630417548359 
628	 0.29085218135688 
629	 0.291085721477861 
630	 0.291437999319018 
631	 0.291701565748443 
632	 0.291907406328364 
633	 0.292173604784282 
634	 0.292403271672417 
635	 0.29263960751064 
636	 0.292885485677197 
637	 0.293081479163344 
638	 0.293265670352105 
639	 0.293496373244662 
640	 0.293779021083283 
641	 0.293927427383896 
642	 0.294145256773752 
643	 0.294430960165362 
644	 0.294649408267398 
645	 0.294707211518269 
646	 0.294799462566732 
647	 0.295014240675334 
648	 0.295211283209904 
649	 0.295371370219591 
650	 0.295506435525784 
651	 0.295651127778582 
652	 0.295874349246364 
653	 0.296042894487916 
654	 0.296147715501523 
655	 0.296279889970577 
656	 0.296385533071552 
657	 0.296480187917268 
658	 0.296585307185799 
659	 0.29671791456511 
660	 0.296816173065185 
661	 0.296921806416598 
662	 0.297082207684917 
663	 0.297149534351923 
664	 0.297223571755508 
665	 0.297331724538468 
666	 0.297416790374073 
667	 0.297547632820852 
668	 0.297620188432576 
669	 0.297592279413054 
670	 0.297652985040402 
671	 0.297814788304506 
672	 0.29792717007265 
673	 0.297827508807428 
674	 0.29782495992457 
675	 0.29791442423869 
676	 0.298036289784372 
677	 0.298102871091684 
678	 0.298140018536559 
679	 0.298148835078287 
680	 0.298125458243845 
681	 0.298039769305791 
682	 0.298096937765507 
683	 0.298247806743169 
684	 0.298302343966485 
685	 0.298194866791707 
686	 0.298121311696477 
687	 0.298182029398584 
688	 0.298305506216751 
689	 0.298429906145294 
690	 0.29840985178739 
691	 0.298226340429195 
692	 0.29833554413199 
693	 0.298435534963891 
694	 0.298435193232919 
695	 0.298392210723519 
696	 0.298357486885203 
697	 0.298347883428345 
698	 0.298377610574281 
699	 0.29847140517423 
700	 0.298478445250059 
701	 0.298420391168528 
702	 0.298366159421236 
703	 0.298337828484565 
704	 0.298350327221177 
705	 0.298403678026845 
706	 0.298475006931068 
707	 0.298433488038571 
708	 0.298344168958341 
709	 0.298285990948552 
710	 0.298314600673794 
711	 0.298355228018471 
712	 0.2983709396643 
713	 0.298345787049625 
714	 0.298285403936256 
715	 0.298270475227588 
716	 0.298307286350059 
717	 0.298344423932232 
718	 0.298355270218742 
719	 0.298333523515798 
720	 0.298294972538156 
721	 0.298278965351471 
722	 0.298381255226922 
723	 0.298458405466257 
724	 0.298387580363596 
725	 0.298431290388682 
726	 0.298479754130122 
727	 0.298515670408826 
728	 0.298588859088381 
729	 0.29869345523414 
730	 0.298698436640511 
731	 0.298604400900762 
732	 0.298643277245992 
733	 0.298780172763891 
734	 0.298938935721651 
735	 0.299050080539063 
736	 0.299150668580227 
737	 0.299168810244729 
738	 0.299141781408274 
739	 0.299170157823132 
740	 0.299214427894008 
741	 0.299248141017763 
742	 0.299259995417202 
743	 0.299258786157883 
744	 0.299301886571996 
745	 0.299375210212587 
746	 0.299448074585866 
747	 0.299510626447991 
748	 0.299574083479142 
749	 0.299644715065597 
750	 0.299723709629297 
751	 0.299795952653487 
752	 0.299891699708247 
753	 0.300011614032625 
754	 0.300114053571889 
755	 0.300234041577999 
756	 0.300360237943539 
757	 0.300480222467379 
758	 0.30060910796901 
759	 0.300739182326827 
760	 0.300866420122496 
761	 0.300997275854781 
762	 0.301195264655052 
763	 0.301369130111632 
764	 0.301480699803919 
765	 0.301567502610548 
766	 0.301769185260724 
767	 0.301982033989871 
768	 0.302119032455954 
769	 0.302242112655835 
770	 0.302378970061591 
771	 0.302561375529567 
772	 0.302790258753508 
773	 0.302937003097863 
774	 0.303082880057031 
775	 0.303251291072979 
776	 0.30341287912712 
777	 0.303592925340552 
778	 0.303779643352396 
779	 0.303960576024859 
780	 0.30413044930427 
781	 0.304311402992818 
782	 0.304495016719923 
783	 0.304668324226655 
784	 0.304835550308993 
785	 0.305003800010472 
786	 0.305151550649408 
787	 0.305255801915517 
788	 0.305404805806253 
789	 0.305575824226064 
790	 0.305742939135193 
791	 0.305891715470643 
792	 0.306027088165742 
793	 0.306204298957909 
794	 0.306435780341892 
795	 0.306611605845116 
796	 0.30674824712895 
797	 0.30691529944662 
798	 0.307153970208972 
799	 0.307254344214366 
800	 0.307406778791127 
801	 0.307647383452916 
802	 0.307876789776616 
803	 0.308048154652469 
804	 0.308237710281634 
805	 0.308471306810418 
806	 0.308674284796488 
807	 0.308848338640986 
808	 0.3090132437394 
809	 0.309193269929862 
810	 0.309407638790106 
811	 0.309617608104355 
812	 0.309801675371835 
813	 0.309959183354108 
814	 0.310158070074387 
815	 0.310265648638543 
816	 0.310338139128504 
817	 0.310575237544191 
818	 0.310687185513729 
819	 0.310783025597301 
820	 0.310943033774938 
821	 0.311100045706206 
822	 0.311254023031075 
823	 0.311377915344428 
824	 0.311463460795971 
825	 0.311572536780093 
826	 0.311681426226637 
827	 0.311762083784338 
828	 0.311800535101819 
829	 0.311864562391702 
830	 0.311978828285396 
831	 0.312087957849744 
832	 0.312089917438407 
833	 0.312129865198881 
834	 0.312196750409881 
835	 0.312259730682448 
836	 0.312295461824486 
837	 0.312424913426023 
838	 0.312507915159806 
839	 0.312458584574787 
840	 0.312529460057256 
841	 0.312562969069741 
842	 0.312586358802601 
843	 0.312670090463121 
844	 0.31272040520617 
845	 0.312757232128588 
846	 0.312788660424271 
847	 0.312817147175174 
848	 0.312905720785209 
849	 0.312948816305248 
850	 0.312964129108219 
851	 0.313132205248251 
852	 0.313251752198478 
853	 0.31331368016082 
854	 0.31336333843744 
855	 0.313471490424905 
856	 0.313572241866864 
857	 0.313645917404335 
858	 0.313695652731794 
859	 0.313753172884747 
860	 0.313758745659569 
861	 0.313755415933818 
862	 0.313814215468384 
863	 0.31383091953499 
864	 0.313845615266681 
865	 0.313912823682001 
866	 0.314059434640503 
867	 0.313999787288675 
868	 0.313918398470115 
869	 0.31392504859069 
870	 0.313933550925338 
871	 0.313965275316018 
872	 0.31396251887779 
873	 0.313905895998918 
874	 0.313888569203266 
875	 0.313905006743484 
876	 0.313916752918622 
877	 0.313888934664982 
878	 0.313846914179839 
879	 0.313789496476682 
880	 0.313714710368859 
881	 0.313632835307144 
882	 0.313620739289309 
883	 0.313594944122617 
884	 0.313519291729722 
885	 0.3134168722547 
886	 0.313403986010171 
887	 0.313405807687867 
888	 0.313397026224906 
889	 0.313427737676928 
890	 0.313366523564255 
891	 0.313327757090457 
892	 0.313335491292253 
893	 0.313189699741102 
894	 0.31320568217313 
895	 0.313240931359694 
896	 0.313158024614364 
897	 0.31314534066662 
898	 0.313092795933933 
899	 0.313107469847221 
900	 0.313274687708896 
901	 0.313336185776543 
902	 0.313372293087232 
903	 0.313389540785279 
904	 0.313369811152793 
905	 0.31335168388204 
906	 0.313444025150201 
907	 0.313607718908016 
908	 0.313703090721709 
909	 0.31372089549447 
910	 0.313748521370036 
911	 0.313806421004648 
912	 0.313841422604842 
913	 0.313903218472428 
914	 0.313995314337159 
915	 0.314097861517136 
916	 0.314172085417248 
917	 0.314220980892668 
918	 0.314212087236786 
919	 0.314188208403285 
920	 0.314332454743916 
921	 0.314361300088379 
922	 0.314413932643677 
923	 0.31458352153271 
924	 0.314557108818609 
925	 0.314603935129908 
926	 0.314746573364686 
927	 0.31488584149119 
928	 0.31480500378831 
929	 0.314807883785052 
930	 0.314857559714312 
931	 0.314839143382927 
932	 0.314993667777078 
933	 0.315062200562774 
934	 0.315077432023033 
935	 0.315187785564989 
936	 0.315180459819727 
937	 0.315279225556093 
938	 0.315413379643196 
939	 0.315365854994864 
940	 0.315495656947154 
941	 0.315604034334618 
942	 0.315645808289293 
943	 0.315732554449226 
944	 0.31575987271189 
945	 0.315741279808647 
946	 0.315770598772404 
947	 0.315966668122294 
948	 0.31597964879796 
949	 0.315958177864736 
950	 0.31601381058992 
951	 0.316108222664876 
952	 0.316199544720807 
953	 0.316215644087737 
954	 0.316193546214922 
955	 0.316311738009587 
956	 0.316224534246156 
957	 0.316162576138954 
958	 0.316310515043801 
959	 0.316557919281862 
960	 0.316746035857768 
961	 0.316885900629672 
962	 0.316998010699961 
963	 0.317027311679231 
964	 0.317070260566016 
965	 0.317172328737652 
966	 0.317319944449332 
967	 0.317406346160682 
968	 0.31761903259404 
969	 0.317891265089866 
970	 0.318090394042908 
971	 0.318113407520759 
972	 0.318280923305301 
973	 0.318399848600715 
974	 0.318351028956062 
975	 0.318689277024048 
976	 0.318809565876349 
977	 0.318829151691733 
978	 0.318997861653849 
979	 0.319208055512022 
980	 0.319438155685047 
981	 0.319595703474221 
982	 0.319630661489122 
983	 0.319677509039241 
984	 0.319718860736321 
985	 0.319872512465947 
986	 0.320181821517198 
987	 0.320334320653783 
988	 0.320387029146678 
989	 0.320435579317594 
990	 0.320510090971301 
991	 0.320326169642773 
992	 0.320497265791714 
993	 0.320818329054448 
994	 0.320913558733794 
995	 0.320948188977396 
996	 0.321068802743645 
997	 0.321227567502035 
998	 0.32130930437412 
999	 0.321254750105379 
1000	 0.321234721454957 
1001	 0.304277696862867 
1002	 0.304285615189958 
1003	 0.304338306292307 
1004	 0.304366646374728 
1005	 0.304324679016937 
1006	 0.304311496713923 
1007	 0.304370258028351 
1008	 0.304342584687647 
1009	 0.304238514651548 
1010	 0.304195881536734 
1011	 0.304134481271121 
1012	 0.304096960668766 
1013	 0.304116084211413 
1014	 0.304082836562825 
1015	 0.303982113035955 
1016	 0.303987315156897 
1017	 0.303990246944968 
1018	 0.303999001938912 
1019	 0.304041501606217 
1020	 0.304016859745006 
1021	 0.304000747011282 
1022	 0.303911620429184 
1023	 0.30392590444306 
1024	 0.303982723648667 
1025	 0.304050250520119 
1026	 0.304178203422635 
1027	 0.304273294833466 
1028	 0.304367039037231 
1029	 0.304471061671434 
1030	 0.304501336514167 
1031	 0.304556338915571 
1032	 0.304635573403687 
1033	 0.304696561527373 
1034	 0.304858776501774 
1035	 0.305037804986005 
1036	 0.305203863282049 
1037	 0.305418283030256 
1038	 0.305557294576417 
1039	 0.305640668664325 
1040	 0.305746447323168 
1041	 0.305834357452933 
1042	 0.305898998347779 
1043	 0.305931764878202 
1044	 0.306063404792036 
1045	 0.306134348279149 
1046	 0.306152434168747 
1047	 0.306228400822839 
1048	 0.306216489500171 
1049	 0.306187150816091 
1050	 0.306238749809384 
1051	 0.306286261242989 
1052	 0.306365636083902 
1053	 0.306392421337369 
1054	 0.306381419074854 
1055	 0.306368967476462 
1056	 0.306336326134197 
1057	 0.306298576395779 
1058	 0.306257384103811 
1059	 0.306230635996961 
1060	 0.306181062913109 
1061	 0.30605079066318 
1062	 0.305923574169602 
1063	 0.305870591376687 
1064	 0.30577060777713 
1065	 0.305690680747283 
1066	 0.305651373744126 
1067	 0.305553817943522 
1068	 0.30549256401817 
1069	 0.305386630842969 
1070	 0.305258877047128 
1071	 0.305089538644026 
1072	 0.304974424762435 
1073	 0.304832253856594 
1074	 0.304707140620032 
1075	 0.30466982514406 
1076	 0.304634376501762 
1077	 0.304522945238207 
1078	 0.304425376213531 
1079	 0.304328712051785 
1080	 0.304132040586449 
1081	 0.304038069746298 
1082	 0.304029171881111 
1083	 0.303931876179364 
1084	 0.303848299261592 
1085	 0.303752176746564 
1086	 0.303669997398312 
1087	 0.30356284684349 
1088	 0.303514442088773 
1089	 0.303464924464568 
1090	 0.303434648708762 
1091	 0.303381191693114 
1092	 0.303293866261756 
1093	 0.303229636415343 
1094	 0.30316557019254 
1095	 0.303105086399458 
1096	 0.303062951166797 
1097	 0.303056548619812 
1098	 0.303054271474399 
1099	 0.303035493668405 
1100	 0.303094375728196 
1101	 0.303188901602329 
1102	 0.303247246901054 
1103	 0.303286324710108 
1104	 0.303320527355931 
1105	 0.303326194168656 
1106	 0.30335043762445 
1107	 0.30341091724132 
1108	 0.30348153000555 
1109	 0.303550950567126 
1110	 0.303605818912324 
1111	 0.303683276383385 
1112	 0.303797630365694 
1113	 0.303892167565244 
1114	 0.303959991989864 
1115	 0.304027715515184 
1116	 0.304103851934219 
1117	 0.304214433421345 
1118	 0.304328876111014 
1119	 0.304457515195369 
1120	 0.30459942518639 
1121	 0.304754372559365 
1122	 0.304913551798931 
1123	 0.305058175266493 
1124	 0.305206946420688 
1125	 0.305338234074378 
1126	 0.30543877225854 
1127	 0.305577258155017 
1128	 0.305766953972768 
1129	 0.305919455804646 
1130	 0.306077184393825 
1131	 0.306243976513541 
1132	 0.306367791827457 
1133	 0.306493802263301 
1134	 0.306649658395364 
1135	 0.306801503629803 
1136	 0.306967224170056 
1137	 0.307114944900051 
1138	 0.307257817088441 
1139	 0.307386540030222 
1140	 0.307501664931344 
1141	 0.30761102385807 
1142	 0.307720950749191 
1143	 0.307854159288557 
1144	 0.307977136797297 
1145	 0.308080681914305 
1146	 0.308192626075078 
1147	 0.308303099879378 
1148	 0.3083879797362 
1149	 0.308487662102931 
1150	 0.308560877719438 
1151	 0.308620101376125 
1152	 0.308694159593304 
1153	 0.308761185814206 
1154	 0.308840308648301 
1155	 0.308954269142058 
1156	 0.309030322236996 
1157	 0.309095955595637 
1158	 0.309169624970446 
1159	 0.309248546690478 
1160	 0.309271650837158 
1161	 0.30929982763562 
1162	 0.309325814765075 
1163	 0.309332148944111 
1164	 0.309335859197608 
1165	 0.309373119886701 
1166	 0.309411159913004 
1167	 0.309431127537812 
1168	 0.309486908802433 
1169	 0.309490239949115 
1170	 0.309454758063393 
1171	 0.309436493519718 
1172	 0.309386668253886 
1173	 0.309361528427546 
1174	 0.309369634860233 
1175	 0.309364551095599 
1176	 0.309368628148584 
1177	 0.309347429408315 
1178	 0.309314421349919 
1179	 0.309269057649724 
1180	 0.309209459385764 
1181	 0.309146036932751 
1182	 0.309122180092184 
1183	 0.309072035330876 
1184	 0.309006655953432 
1185	 0.308964055147001 
1186	 0.308907513877222 
1187	 0.308823282837168 
1188	 0.308779791132657 
1189	 0.308762556604422 
1190	 0.308729322415259 
1191	 0.308702592883017 
1192	 0.308667582274671 
1193	 0.308619836966 
1194	 0.308581657457072 
1195	 0.30852358895282 
1196	 0.30851836777901 
1197	 0.308546121920713 
1198	 0.308570978518139 
1199	 0.308623950130512 
1200	 0.308696574802231 
1201	 0.30873621600603 
1202	 0.308773291084673 
1203	 0.308856604523774 
1204	 0.308947510093994 
1205	 0.309058052388607 
1206	 0.309203250096762 
1207	 0.309351374275828 
1208	 0.309491495596416 
1209	 0.309674854253397 
1210	 0.309876880195101 
1211	 0.310107302707178 
1212	 0.310376135611693 
1213	 0.31066364201033 
1214	 0.310973631275506 
1215	 0.311310642866307 
1216	 0.311686689633472 
1217	 0.312051023332141 
1218	 0.312413632425735 
1219	 0.312809068914768 
1220	 0.313240089000119 
1221	 0.31369245501846 
1222	 0.314123276664656 
1223	 0.314607762824883 
1224	 0.315056595266549 
1225	 0.315476548978235 
1226	 0.315891643830951 
1227	 0.316315453054722 
1228	 0.316716458032937 
1229	 0.317092376332871 
1230	 0.317472186817911 
1231	 0.317861493577317 
1232	 0.318223170587992 
1233	 0.318559261802769 
1234	 0.318890525664888 
1235	 0.319218269867847 
1236	 0.319520894754218 
1237	 0.319808908729493 
1238	 0.320079561527424 
1239	 0.320309440130445 
1240	 0.320555145079425 
1241	 0.320808210911367 
1242	 0.321043124835778 
1243	 0.321281158088613 
1244	 0.321515662611836 
1245	 0.321765903959887 
1246	 0.322017441618233 
1247	 0.322271596702918 
1248	 0.322542153228911 
1249	 0.322806355977597 
1250	 0.323054250994924 
1251	 0.32332453009264 
1252	 0.323612765670839 
1253	 0.323898999950096 
1254	 0.324183928659168 
1255	 0.324487999863256 
1256	 0.324799592723606 
1257	 0.325123961917055 
1258	 0.325490235169326 
1259	 0.325824920157859 
1260	 0.326139317630791 
1261	 0.32646936893453 
1262	 0.326804992336388 
1263	 0.32712762149702 
1264	 0.327431828052243 
1265	 0.327739695276209 
1266	 0.328036813322925 
1267	 0.328306100818778 
1268	 0.328576199551672 
1269	 0.328853617016634 
1270	 0.329120192317562 
1271	 0.329373657228477 
1272	 0.329609604204753 
1273	 0.32986205270623 
1274	 0.330059483362037 
1275	 0.33018475787869 
1276	 0.330354239377621 
1277	 0.330531012425156 
1278	 0.330682401631547 
1279	 0.330868003801058 
1280	 0.330992471557419 
1281	 0.331040868089773 
1282	 0.331111272012821 
1283	 0.331170392425815 
1284	 0.331218146274815 
1285	 0.331260470894415 
1286	 0.331301477910513 
1287	 0.331350743433741 
1288	 0.33139651949922 
1289	 0.331423909739967 
1290	 0.331464915486841 
1291	 0.331474000137057 
1292	 0.331433815774229 
1293	 0.331434116697605 
1294	 0.331445377817514 
1295	 0.331451352756223 
1296	 0.331463413347705 
1297	 0.331478332147911 
1298	 0.331497924604953 
1299	 0.331506662838442 
1300	 0.331514947061124 
1301	 0.331524118221575 
1302	 0.331503367463785 
1303	 0.331520967362719 
1304	 0.331557490799889 
1305	 0.331606836660747 
1306	 0.331687706239781 
1307	 0.331763026416674 
1308	 0.331854673665355 
1309	 0.331931557997053 
1310	 0.332010988959777 
1311	 0.33208851247207 
1312	 0.332167545322999 
1313	 0.332239959241154 
1314	 0.332327129309817 
1315	 0.332415021077013 
1316	 0.332519216167855 
1317	 0.332617304247986 
1318	 0.332766699082525 
1319	 0.332945529634381 
1320	 0.333135499529646 
1321	 0.333389450920862 
1322	 0.333586611695271 
1323	 0.33375529346234 
1324	 0.333944316083802 
1325	 0.334088621691435 
1326	 0.334301541264199 
1327	 0.33458881588588 
1328	 0.334832316443316 
1329	 0.335101834633368 
1330	 0.335340629612748 
1331	 0.335523473052798 
1332	 0.335733240079435 
1333	 0.335921659185641 
1334	 0.336167870039521 
1335	 0.336397781806041 
1336	 0.336634629435778 
1337	 0.33688741144751 
1338	 0.337157216482672 
1339	 0.337407100440049 
1340	 0.337666870631578 
1341	 0.337911883491588 
1342	 0.338145349766191 
1343	 0.338369647430841 
1344	 0.33858716349044 
1345	 0.338804228586803 
1346	 0.339014864365941 
1347	 0.33921119092567 
1348	 0.339422662818172 
1349	 0.339590598503071 
1350	 0.339724082528729 
1351	 0.339852466891817 
1352	 0.339949514033463 
1353	 0.340056410949245 
1354	 0.340162249997042 
1355	 0.340258688731197 
1356	 0.340351875960656 
1357	 0.340441423777236 
1358	 0.340506001335296 
1359	 0.340594206685784 
1360	 0.340695015281458 
1361	 0.340796317543093 
1362	 0.340898553544752 
1363	 0.341021151567975 
1364	 0.34115227541282 
1365	 0.341290548764624 
1366	 0.341426246137892 
1367	 0.341593961922423 
1368	 0.341705352186876 
1369	 0.341796189930506 
1370	 0.341867225277584 
1371	 0.341905793028432 
1372	 0.341945180560382 
1373	 0.341985213315246 
1374	 0.341987946276447 
1375	 0.341963979602734 
1376	 0.341936370365821 
1377	 0.341900484568805 
1378	 0.341822575383189 
1379	 0.341726861560994 
1380	 0.341610090934392 
1381	 0.341417118416418 
1382	 0.341278189878468 
1383	 0.341151858712712 
1384	 0.34103365425181 
1385	 0.340947359296162 
1386	 0.340846388481136 
1387	 0.340736492053826 
1388	 0.340639736197248 
1389	 0.340539774835921 
1390	 0.340454565157372 
1391	 0.340381256080121 
1392	 0.340316677239334 
1393	 0.340268745333186 
1394	 0.340226513706413 
1395	 0.340189315539746 
1396	 0.340171524294256 
1397	 0.34012891141779 
1398	 0.340097296027612 
1399	 0.340011658050039 
1400	 0.339915594636759 
1401	 0.339756436898193 
1402	 0.339568638060346 
1403	 0.339302871676392 
1404	 0.338970576684726 
1405	 0.338612916333757 
1406	 0.338178990228321 
1407	 0.337758387295894 
1408	 0.337303216349239 
1409	 0.336865744610672 
1410	 0.336420968262909 
1411	 0.335976784398444 
1412	 0.335533247957106 
1413	 0.335102492045118 
1414	 0.334652007982767 
1415	 0.334245290063425 
1416	 0.333869735458994 
1417	 0.333500067849531 
1418	 0.333157969462112 
1419	 0.332815759053977 
1420	 0.332480259157047 
1421	 0.332153673615527 
1422	 0.33183828473036 
1423	 0.33152828488244 
1424	 0.331239265215278 
1425	 0.330917448412316 
1426	 0.330646624072218 
1427	 0.330359290072742 
1428	 0.330081952710137 
1429	 0.329856311646711 
1430	 0.329613438051255 
1431	 0.329382681179764 
1432	 0.329134986755216 
1433	 0.328901252283768 
1434	 0.328614918265876 
1435	 0.328299812533001 
1436	 0.327977087897207 
1437	 0.327617901064774 
1438	 0.327277878750094 
1439	 0.326925239322957 
1440	 0.326598806936928 
1441	 0.326257456140826 
1442	 0.325978401136099 
1443	 0.325691176337456 
1444	 0.325528230719963 
1445	 0.325421807016545 
1446	 0.325410547840151 
1447	 0.325504664862012 
1448	 0.325657028724254 
1449	 0.325876960435173 
1450	 0.326180045249037 
1451	 0.326574649367759 
1452	 0.327018866768511 
1453	 0.327577016669784 
1454	 0.328113914237723 
1455	 0.328696410797114 
1456	 0.329275332702472 
1457	 0.329881777907776 
1458	 0.33045747503434 
1459	 0.331029905117576 
1460	 0.331596555204056 
1461	 0.332147972782431 
1462	 0.332679810609557 
1463	 0.333200514133073 
1464	 0.333718565931068 
1465	 0.334210261554116 
1466	 0.334709222202171 
1467	 0.335199843604645 
1468	 0.335699256106303 
1469	 0.336183323887396 
1470	 0.33661165686376 
1471	 0.337057684277123 
1472	 0.337497143619998 
1473	 0.337919714640714 
1474	 0.338327535883298 
1475	 0.338746988630617 
1476	 0.339163516386973 
1477	 0.339561170446853 
1478	 0.339969406331313 
1479	 0.340335195631364 
1480	 0.340674505955301 
1481	 0.340986110733831 
1482	 0.341274776839605 
1483	 0.341541972330558 
1484	 0.34177324845295 
1485	 0.341998911760262 
1486	 0.342179108901357 
1487	 0.342415500975376 
1488	 0.342655823798767 
1489	 0.34291673644592 
1490	 0.343213569120902 
1491	 0.343519709573229 
1492	 0.343821943343904 
1493	 0.344160205679949 
1494	 0.344525861564623 
1495	 0.344919801477676 
1496	 0.345344015356378 
1497	 0.345780624757916 
1498	 0.346255148979356 
1499	 0.346724919662184 
1500	 0.347203679204924 
1501	 0.347686864335539 
1502	 0.348186882297254 
1503	 0.348674039947365 
1504	 0.349183271497034 
1505	 0.349645634760928 
1506	 0.350100343913516 
1507	 0.350509027597743 
1508	 0.350853223977805 
1509	 0.351205698460199 
1510	 0.35153506984706 
1511	 0.351852420639745 
1512	 0.352157947140984 
1513	 0.352461840468359 
1514	 0.352766775914954 
1515	 0.353040934181457 
1516	 0.353300757408972 
1517	 0.353550082653482 
1518	 0.353768055815155 
1519	 0.353976644118639 
1520	 0.354186221298857 
1521	 0.354377217838684 
1522	 0.354529451307597 
1523	 0.354687811026595 
1524	 0.35483032171557 
1525	 0.354956833451903 
1526	 0.35508278329395 
1527	 0.35520675527936 
1528	 0.355308295108512 
1529	 0.355392468445691 
1530	 0.355482917309571 
1531	 0.355559445010304 
1532	 0.35564297815834 
1533	 0.35572430985087 
1534	 0.355826040149202 
1535	 0.35593232802653 
1536	 0.35604363323299 
1537	 0.356170929431614 
1538	 0.35630176946652 
1539	 0.356419217776956 
1540	 0.356580622180114 
1541	 0.356760684562726 
1542	 0.356976889817294 
1543	 0.357228036424028 
1544	 0.357487814306683 
1545	 0.357776597731346 
1546	 0.358075100557147 
1547	 0.358386514158062 
1548	 0.358713295198054 
1549	 0.359075423170507 
1550	 0.359409523892021 
1551	 0.359748228400804 
1552	 0.360069679787408 
1553	 0.360364188625869 
1554	 0.360682345383171 
1555	 0.361001876068858 
1556	 0.361328058107327 
1557	 0.36167342121529 
1558	 0.362002064721318 
1559	 0.362339035274669 
1560	 0.362643292983162 
1561	 0.362915786832405 
1562	 0.363209629406661 
1563	 0.363485836068927 
1564	 0.363780517740051 
1565	 0.364102148979872 
1566	 0.364408412314287 
1567	 0.364702792484548 
1568	 0.365012307163699 
1569	 0.365339609177023 
1570	 0.36564373933911 
1571	 0.365931753944351 
1572	 0.366242126168915 
1573	 0.366544987452031 
1574	 0.36686053963636 
1575	 0.367219389551842 
1576	 0.367538951118846 
1577	 0.367817043192267 
1578	 0.368136319821888 
1579	 0.368476281093722 
1580	 0.36879168239584 
1581	 0.369125741804978 
1582	 0.369439221675596 
1583	 0.369702297526232 
1584	 0.370002117517632 
1585	 0.370329156298931 
1586	 0.370640417867739 
1587	 0.370940514178656 
1588	 0.371265502152618 
1589	 0.371601232270729 
1590	 0.371931909209648 
1591	 0.372282229991419 
1592	 0.372627479180748 
1593	 0.372957744702144 
1594	 0.373298371845636 
1595	 0.373677651851926 
1596	 0.374003364614134 
1597	 0.374276519191766 
1598	 0.374590990165643 
1599	 0.374897683015698 
1600	 0.37520894535633 
1601	 0.375565914891584 
1602	 0.375891048416803 
1603	 0.376170149482513 
1604	 0.37648121643521 
1605	 0.376819875733397 
1606	 0.377129330977958 
1607	 0.377443296366151 
1608	 0.377743846772473 
1609	 0.378023605643609 
1610	 0.378289543099982 
1611	 0.378533487547941 
1612	 0.378790129945089 
1613	 0.379043995380153 
1614	 0.379287812354669 
1615	 0.379541249833293 
1616	 0.379781940661697 
1617	 0.380008430048492 
1618	 0.380220459285455 
1619	 0.380428216627283 
1620	 0.380623716008432 
1621	 0.380790317281173 
1622	 0.380961277037257 
1623	 0.381140740630516 
1624	 0.381297463911851 
1625	 0.381431483134163 
1626	 0.381578614902488 
1627	 0.381713396045278 
1628	 0.38185162174072 
1629	 0.381999088537433 
1630	 0.382146762597761 
1631	 0.38228729008504 
1632	 0.382441345126978 
1633	 0.382607800468182 
1634	 0.382771580647886 
1635	 0.38295238659623 
1636	 0.383107815155807 
1637	 0.383252633013628 
1638	 0.38339436437022 
1639	 0.383521791552301 
1640	 0.383643564996635 
1641	 0.383756917636198 
1642	 0.383874035375026 
1643	 0.383992665511219 
1644	 0.384090029067739 
1645	 0.384191697332436 
1646	 0.38426860423782 
1647	 0.384294612277256 
1648	 0.384356901640663 
1649	 0.384446376508265 
1650	 0.384498411412811 
1651	 0.38457043574407 
1652	 0.38459034185625 
1653	 0.384551446727941 
1654	 0.384512224728062 
1655	 0.384459788857243 
1656	 0.384378702812039 
1657	 0.384272795101819 
1658	 0.384150498577901 
1659	 0.384011828506615 
1660	 0.383840825356439 
1661	 0.383662820543589 
1662	 0.383434665852996 
1663	 0.38315521312256 
1664	 0.382846027874418 
1665	 0.382523799414941 
1666	 0.382117660236309 
1667	 0.381658467405407 
1668	 0.381155305123863 
1669	 0.3806035864852 
1670	 0.379960566150295 
1671	 0.379224148898869 
1672	 0.378487191853467 
1673	 0.377692950878603 
1674	 0.376843136994696 
1675	 0.375989561135334 
1676	 0.375070577542322 
1677	 0.374071545413512 
1678	 0.373028393391571 
1679	 0.37194263596975 
1680	 0.370799646593115 
1681	 0.36959164401341 
1682	 0.368314827541128 
1683	 0.366994216919257 
1684	 0.365627241255452 
1685	 0.364198457537204 
1686	 0.362694719375603 
1687	 0.361101953613491 
1688	 0.359503258530915 
1689	 0.35783820481395 
1690	 0.356144812797901 
1691	 0.354454731371361 
1692	 0.352733566180195 
1693	 0.350969067545918 
1694	 0.349155692398793 
1695	 0.347305502710816 
1696	 0.345413666435655 
1697	 0.343458702669437 
1698	 0.341461069919228 
1699	 0.339428735579969 
1700	 0.337442812123673 
1701	 0.335398255521901 
1702	 0.333426624590528 
1703	 0.331463714876556 
1704	 0.329590957140839 
1705	 0.327726045749213 
1706	 0.326004775277733 
1707	 0.324512913733463 
1708	 0.323093248830878 
1709	 0.321748068964175 
1710	 0.320533115625927 
1711	 0.319353899931449 
1712	 0.31830298196377 
1713	 0.317315899858947 
1714	 0.316371539949124 
1715	 0.315515325774216 
1716	 0.314638524125566 
1717	 0.313810592579494 
1718	 0.313028770732987 
1719	 0.312239540543151 
1720	 0.311559365336987 
1721	 0.310946625336248 
1722	 0.310350223855331 
1723	 0.309887849413053 
1724	 0.309525982986373 
1725	 0.309273431918198 
1726	 0.309171343446214 
1727	 0.309211401869618 
1728	 0.309415320234994 
1729	 0.309771500230257 
1730	 0.310335715331119 
1731	 0.311059322882461 
1732	 0.31188827052681 
1733	 0.312774245334148 
1734	 0.31376673458591 
1735	 0.314826280726302 
1736	 0.315842304878787 
1737	 0.31684669817011 
1738	 0.317691703828166 
1739	 0.318396778218588 
1740	 0.319010751073895 
1741	 0.319462780980926 
1742	 0.31975065443253 
1743	 0.31996177469617 
1744	 0.320006329070634 
1745	 0.320023043587067 
1746	 0.319946024014892 
1747	 0.319858537327568 
1748	 0.319670733818226 
1749	 0.319565805105313 
1750	 0.319436209149877 
1751	 0.319415846986653 
1752	 0.319461719846514 
1753	 0.319583092036131 
1754	 0.319784110403613 
1755	 0.320029219853108 
1756	 0.320287519696405 
1757	 0.320703338107211 
1758	 0.321267248784395 
1759	 0.321900671984365 
1760	 0.322693847084457 
1761	 0.323557965423507 
1762	 0.324418502673013 
1763	 0.325440930158382 
1764	 0.326564850599895 
1765	 0.327770776506378 
1766	 0.329108635032488 
1767	 0.330451381301069 
1768	 0.331867014150547 
1769	 0.333339325403903 
1770	 0.334743015915465 
1771	 0.336173382828818 
1772	 0.337516422203177 
1773	 0.338731951547296 
1774	 0.339939042873846 
1775	 0.341020768100217 
1776	 0.342097280250118 
1777	 0.343146709529623 
1778	 0.344033875113155 
1779	 0.344926617250388 
1780	 0.345743651679883 
1781	 0.346461206235529 
1782	 0.347223365513558 
1783	 0.347898253802758 
1784	 0.348517409763969 
1785	 0.34909724363171 
1786	 0.349628655285125 
1787	 0.350120622272577 
1788	 0.350587432996919 
1789	 0.351004466991432 
1790	 0.351435323932401 
1791	 0.351864421638857 
1792	 0.352283122349042 
1793	 0.352675363468307 
1794	 0.35306856297541 
1795	 0.353429901662056 
1796	 0.353740355725235 
1797	 0.354088084953363 
1798	 0.354434801270519 
1799	 0.354766462731038 
1800	 0.355131797643852 
1801	 0.363447566053106 
1802	 0.364000380184345 
1803	 0.364487142046465 
1804	 0.364929844078094 
1805	 0.365433020560048 
1806	 0.365848903484719 
1807	 0.366226238260189 
1808	 0.366591620463971 
1809	 0.366910476139891 
1810	 0.367229523446495 
1811	 0.367515517555495 
1812	 0.367831892390371 
1813	 0.368149081876724 
1814	 0.368481758387631 
1815	 0.368803892380386 
1816	 0.369111467334162 
1817	 0.369434362362497 
1818	 0.369740691666882 
1819	 0.370063521228624 
1820	 0.370407612037253 
1821	 0.370749944950729 
1822	 0.371092889819948 
1823	 0.371433448929873 
1824	 0.371772202583942 
1825	 0.372152020781105 
1826	 0.372520441986771 
1827	 0.372909196840971 
1828	 0.373244896627611 
1829	 0.373570343522444 
1830	 0.373885476705066 
1831	 0.374165669574393 
1832	 0.374449996418922 
1833	 0.374732959236742 
1834	 0.374977214721357 
1835	 0.375234540708805 
1836	 0.375530043049386 
1837	 0.375827763587193 
1838	 0.37614465903585 
1839	 0.37648175883673 
1840	 0.376838801999712 
1841	 0.377189580601239 
1842	 0.37756869340427 
1843	 0.377927676914499 
1844	 0.378283149432192 
1845	 0.378622310088187 
1846	 0.378951836421215 
1847	 0.379264964003271 
1848	 0.379544664206393 
1849	 0.379808020331018 
1850	 0.380026552500049 
1851	 0.380187548721549 
1852	 0.380378518063602 
1853	 0.380558875097141 
1854	 0.380657966637611 
1855	 0.380777757899243 
1856	 0.380871030783455 
1857	 0.380859888677004 
1858	 0.380864385503809 
1859	 0.380835131804313 
1860	 0.380769680664199 
1861	 0.380645430624665 
1862	 0.380516431742735 
1863	 0.380313001222854 
1864	 0.379999477317401 
1865	 0.379678851582965 
1866	 0.379219873304726 
1867	 0.378662598310296 
1868	 0.378120080720898 
1869	 0.377499871322506 
1870	 0.376880065337109 
1871	 0.376256877606379 
1872	 0.375645245949872 
1873	 0.375016909276365 
1874	 0.374373507432795 
1875	 0.373761913468709 
1876	 0.373109726127127 
1877	 0.372431606028748 
1878	 0.371649506878092 
1879	 0.37073852189513 
1880	 0.369798080264636 
1881	 0.36875721848297 
1882	 0.367590148696945 
1883	 0.366404162230237 
1884	 0.365133084218536 
1885	 0.363663390946804 
1886	 0.36216610164299 
1887	 0.360500541979182 
1888	 0.35869850969643 
1889	 0.356993924519928 
1890	 0.355137486399673 
1891	 0.353237695119272 
1892	 0.35137695346333 
1893	 0.349442413262049 
1894	 0.347412502221665 
1895	 0.345456222948335 
1896	 0.343423370119405 
1897	 0.34133753102763 
1898	 0.33935813066248 
1899	 0.337279222306016 
1900	 0.33531662386481 
1901	 0.333452596129332 
1902	 0.331509391056096 
1903	 0.329742326074727 
1904	 0.328006591353 
1905	 0.326289520882345 
1906	 0.32463525509045 
1907	 0.323228322308926 
1908	 0.321813637518448 
1909	 0.320468411822103 
1910	 0.319257657032054 
1911	 0.317976112588522 
1912	 0.316734426686699 
1913	 0.315567076385254 
1914	 0.314415905073379 
1915	 0.313346079793288 
1916	 0.312360485253767 
1917	 0.311383345615316 
1918	 0.310465080702364 
1919	 0.309598654065756 
1920	 0.308649639562461 
1921	 0.307776342290784 
1922	 0.306927785283138 
1923	 0.306078413901482 
1924	 0.305363690364887 
1925	 0.304648472610925 
1926	 0.30393362720141 
1927	 0.303245356456512 
1928	 0.302562265543084 
1929	 0.301843793863253 
1930	 0.301210535501374 
1931	 0.300658176683205 
1932	 0.300118118682359 
1933	 0.299678161222992 
1934	 0.299265061450092 
1935	 0.298885966200646 
1936	 0.298616650199174 
1937	 0.298385913165607 
1938	 0.298220781529904 
1939	 0.2981087123481 
1940	 0.298052505699654 
1941	 0.298036097737172 
1942	 0.298084645556818 
1943	 0.298210352078123 
1944	 0.298396559019605 
1945	 0.298624014775887 
1946	 0.298943636238466 
1947	 0.29928645341846 
1948	 0.299668030047952 
1949	 0.300118274477234 
1950	 0.300597966304929 
1951	 0.30110922813006 
1952	 0.301677420635507 
1953	 0.302291474543963 
1954	 0.302937900971604 
1955	 0.303701866709219 
1956	 0.304504249117306 
1957	 0.305322313616946 
1958	 0.306213984186603 
1959	 0.307022789867383 
1960	 0.307773311261526 
1961	 0.308464711215295 
1962	 0.309093271230338 
1963	 0.309684557122912 
1964	 0.310215999299972 
1965	 0.310708263488911 
1966	 0.311166255168947 
1967	 0.311594757468746 
1968	 0.311943128213951 
1969	 0.31226244943182 
1970	 0.312552406982451 
1971	 0.312858221468023 
1972	 0.313181639789731 
1973	 0.313504369712714 
1974	 0.313842774044775 
1975	 0.314199255973776 
1976	 0.314552912617503 
1977	 0.314920271341033 
1978	 0.315284710947488 
1979	 0.315639549884159 
1980	 0.316013554461632 
1981	 0.316435682994942 
1982	 0.316836603186391 
1983	 0.317245280234884 
1984	 0.317680283078106 
1985	 0.318087964662279 
1986	 0.318519496080357 
1987	 0.318989108309482 
1988	 0.319499561068117 
1989	 0.320019480776328 
1990	 0.32054653830826 
1991	 0.321124222391759 
1992	 0.321729209322313 
1993	 0.322374239247505 
1994	 0.323081985301122 
1995	 0.323835118729629 
1996	 0.324555816713361 
1997	 0.325327909339397 
1998	 0.326106849889854 
1999	 0.326902809218583 
2000	 0.327667425305191 
2001	 0.3285063866773 
2002	 0.329208722150058 
2003	 0.329845750686504 
2004	 0.330441173522093 
2005	 0.330935107300539 
2006	 0.331435773913313 
2007	 0.331938796066377 
2008	 0.332350309589882 
2009	 0.332740785854418 
2010	 0.333125444856238 
2011	 0.333404499754088 
2012	 0.333664925142936 
2013	 0.333888190852945 
2014	 0.334057049047218 
2015	 0.334214316314454 
2016	 0.3343616420321 
2017	 0.334444883906605 
2018	 0.334480690629207 
2019	 0.334499445575049 
2020	 0.33446475482279 
2021	 0.334412034124725 
2022	 0.334368979394013 
2023	 0.334293462637422 
2024	 0.334199637945678 
2025	 0.33408663121681 
2026	 0.333937097756267 
2027	 0.333746743717918 
2028	 0.333557977321212 
2029	 0.333331630280578 
2030	 0.333124068911835 
2031	 0.332927627227642 
2032	 0.332712045992996 
2033	 0.332485744906218 
2034	 0.332252195254342 
2035	 0.332002095758832 
2036	 0.331747932861913 
2037	 0.331511525455376 
2038	 0.331286505465651 
2039	 0.331053135068739 
2040	 0.330823517833695 
2041	 0.330597925399149 
2042	 0.330355022394802 
2043	 0.330149827303884 
2044	 0.329952217121671 
2045	 0.329795513929408 
2046	 0.329675327517596 
2047	 0.329558498532666 
2048	 0.329489876902512 
2049	 0.329401461917399 
2050	 0.329309693748817 
2051	 0.329218995053041 
2052	 0.32915104017686 
2053	 0.329046495323917 
2054	 0.328954787311449 
2055	 0.328864063353021 
2056	 0.328784153775501 
2057	 0.328714425389547 
2058	 0.32862903990912 
2059	 0.328552082659564 
2060	 0.328459620660404 
2061	 0.328346322187469 
2062	 0.328231565852511 
2063	 0.328110523394919 
2064	 0.327985673741175 
2065	 0.327846194910382 
2066	 0.327709799402446 
2067	 0.327571561504753 
2068	 0.327514905734734 
2069	 0.32741482012623 
2070	 0.32732831083992 
2071	 0.327221246922801 
2072	 0.327104888841142 
2073	 0.326964910462747 
2074	 0.326825118502654 
2075	 0.326656123813267 
2076	 0.32643164565338 
2077	 0.326240444716744 
2078	 0.326070088600216 
2079	 0.325864725051411 
2080	 0.325653475486785 
2081	 0.325438980766331 
2082	 0.325226583883375 
2083	 0.324951339699776 
2084	 0.324668021292309 
2085	 0.324374532689493 
2086	 0.324085771153452 
2087	 0.323767789115193 
2088	 0.323458647214706 
2089	 0.32318284935129 
2090	 0.322857469101494 
2091	 0.322499788454843 
2092	 0.322130292528249 
2093	 0.32173013083454 
2094	 0.321341724075904 
2095	 0.320937606845458 
2096	 0.32053746367705 
2097	 0.320150144390979 
2098	 0.319755375242775 
2099	 0.319348701348921 
2100	 0.318889193244289 
2101	 0.318413276667714 
2102	 0.317909675718636 
2103	 0.317391641035628 
2104	 0.316830492479725 
2105	 0.316295385466179 
2106	 0.31574929648637 
2107	 0.315203771600983 
2108	 0.314699666098809 
2109	 0.31412662630141 
2110	 0.313531937807139 
2111	 0.31290280490601 
2112	 0.312168115045501 
2113	 0.311506229840397 
2114	 0.310867714947047 
2115	 0.310214719722834 
2116	 0.309580238802258 
2117	 0.308976602603458 
2118	 0.308321584115187 
2119	 0.307631945224774 
2120	 0.306952682565162 
2121	 0.306215460730703 
2122	 0.305599077558334 
2123	 0.305015229322049 
2124	 0.304466312591343 
2125	 0.304036691856994 
2126	 0.303539802386554 
2127	 0.303020647366996 
2128	 0.30252761667891 
2129	 0.302003766796479 
2130	 0.301549652136342 
2131	 0.30111421868279 
2132	 0.300732118329819 
2133	 0.300428053743134 
2134	 0.300135480185913 
2135	 0.299833403829106 
2136	 0.299591059878002 
2137	 0.299339261130318 
2138	 0.299081603187011 
2139	 0.298866007123049 
2140	 0.298683162739991 
2141	 0.298506683657923 
2142	 0.298334080889238 
2143	 0.298212762239158 
2144	 0.298135401315195 
2145	 0.298055600216541 
2146	 0.298007538681227 
2147	 0.297969437891094 
2148	 0.297915481645282 
2149	 0.297910974632435 
2150	 0.297966766936565 
2151	 0.298012348470604 
2152	 0.298083439600289 
2153	 0.298145008204149 
2154	 0.298205382229748 
2155	 0.298283590946839 
2156	 0.298424483409961 
2157	 0.298630957716268 
2158	 0.298771361869155 
2159	 0.298926859718345 
2160	 0.299081920520321 
2161	 0.299203118920868 
2162	 0.299334165524339 
2163	 0.299512996444614 
2164	 0.299639223500047 
2165	 0.299699694612948 
2166	 0.299805196659378 
2167	 0.299924892435268 
2168	 0.300038986846332 
2169	 0.300153161755275 
2170	 0.300277510587626 
2171	 0.300399723539027 
2172	 0.30053710123926 
2173	 0.300688404788495 
2174	 0.300845461391312 
2175	 0.301031479679881 
2176	 0.301209514158039 
2177	 0.301453736701018 
2178	 0.301764330731969 
2179	 0.302024641637826 
2180	 0.302317208508296 
2181	 0.302565772392706 
2182	 0.302768308637894 
2183	 0.302984595835794 
2184	 0.303191200563751 
2185	 0.303417062994131 
2186	 0.303662496198584 
2187	 0.303872750075395 
2188	 0.304079982941384 
2189	 0.30428022373979 
2190	 0.304461707794753 
2191	 0.304619677333106 
2192	 0.304766780677488 
2193	 0.304914173841979 
2194	 0.305025288448951 
2195	 0.30514813596757 
2196	 0.30531137886649 
2197	 0.305432921934195 
2198	 0.305498791674388 
2199	 0.305561254218362 
2200	 0.305593537186305 
2201	 0.305583383631092 
2202	 0.305567575282382 
2203	 0.305538091469266 
2204	 0.305496751955423 
2205	 0.305412952723417 
2206	 0.305364581661249 
2207	 0.305365244958768 
2208	 0.305265672368236 
2209	 0.305142264531673 
2210	 0.30498500240643 
2211	 0.30473843758963 
2212	 0.304517503428662 
2213	 0.304291882154127 
2214	 0.304057837705706 
2215	 0.303794791455844 
2216	 0.303550344955489 
2217	 0.303295346889031 
2218	 0.303079186019083 
2219	 0.302925556224637 
2220	 0.30271726195628 
2221	 0.302507987827419 
2222	 0.302279827479092 
2223	 0.302041789228951 
2224	 0.301763657752053 
2225	 0.301495488501815 
2226	 0.301230779126722 
2227	 0.300867178106025 
2228	 0.300442396041597 
2229	 0.29996489487734 
2230	 0.299427324295155 
2231	 0.298831235270031 
2232	 0.298215327994748 
2233	 0.29744860804348 
2234	 0.296583964023242 
2235	 0.295636228268048 
2236	 0.294553614902756 
2237	 0.293435214927734 
2238	 0.292279495006799 
2239	 0.290981384928054 
2240	 0.28956478795365 
2241	 0.288074017007233 
2242	 0.286513942748727 
2243	 0.284802254099655 
2244	 0.282924303711308 
2245	 0.281051859218197 
2246	 0.279005738533226 
2247	 0.277003766611312 
2248	 0.275115699896098 
2249	 0.273038932395633 
2250	 0.270843592935514 
2251	 0.268611768339382 
2252	 0.266220574585094 
2253	 0.263884993903628 
2254	 0.261564179236469 
2255	 0.25926211120487 
2256	 0.25709866729006 
2257	 0.254856087568465 
2258	 0.252736564962989 
2259	 0.250754348573862 
2260	 0.248671423125229 
2261	 0.246593998781371 
2262	 0.2445493672605 
2263	 0.242402988190027 
2264	 0.240457632368261 
2265	 0.238640270484664 
2266	 0.236825308815521 
2267	 0.235138479748618 
2268	 0.233414854418947 
2269	 0.231695792193089 
2270	 0.230019084608744 
2271	 0.228353203410303 
2272	 0.226738798091585 
2273	 0.225194933988702 
2274	 0.223611819717056 
2275	 0.222080033258846 
2276	 0.220504937261587 
2277	 0.218905374308901 
2278	 0.217285887774735 
2279	 0.215614208836319 
2280	 0.213951780561632 
2281	 0.212260081397015 
2282	 0.210584796609589 
2283	 0.208949136783003 
2284	 0.207308442134091 
2285	 0.205492575396513 
2286	 0.20365602069998 
2287	 0.201680061920274 
2288	 0.199636797614967 
2289	 0.197715787111587 
2290	 0.195770798712077 
2291	 0.193842386816478 
2292	 0.191905342774635 
2293	 0.189861394811519 
2294	 0.187861108355744 
2295	 0.185907734192525 
2296	 0.184088722199038 
2297	 0.182534568992345 
2298	 0.181208149164829 
2299	 0.180028537301074 
2300	 0.179051623986623 
2301	 0.178286315119253 
2302	 0.177660726181018 
2303	 0.177365658559787 
2304	 0.177356426537473 
2305	 0.177577474003264 
2306	 0.178147907652251 
2307	 0.178822633997147 
2308	 0.179686755940837 
2309	 0.180784942714925 
2310	 0.1821119504193 
2311	 0.183551637622187 
2312	 0.185339916158786 
2313	 0.187051844387819 
2314	 0.188890090883517 
2315	 0.190651730190178 
2316	 0.192478967442607 
2317	 0.194107451751287 
2318	 0.19564745616318 
2319	 0.19707802403672 
2320	 0.198440762638723 
2321	 0.19960153653447 
2322	 0.200664250823696 
2323	 0.201513674018783 
2324	 0.202156261312542 
2325	 0.202579971835119 
2326	 0.2027366824608 
2327	 0.202794000095398 
2328	 0.202641641627507 
2329	 0.202396734090317 
2330	 0.202015608908435 
2331	 0.201556486717893 
2332	 0.201003290789223 
2333	 0.2002189266851 
2334	 0.199245515484315 
2335	 0.198267703071237 
2336	 0.197182785558951 
2337	 0.19588272211833 
2338	 0.194689781932962 
2339	 0.193463383862355 
2340	 0.192177563715709 
2341	 0.191130814814639 
2342	 0.190109776647859 
2343	 0.18909567775954 
2344	 0.188273099063894 
2345	 0.187530758003701 
2346	 0.187005956545709 
2347	 0.186968788835761 
2348	 0.187197478792943 
2349	 0.187676775916963 
2350	 0.188528406074908 
2351	 0.189467297408364 
2352	 0.190647152663523 
2353	 0.192087665851169 
2354	 0.193332747990813 
2355	 0.194668095610132 
2356	 0.195858304790642 
2357	 0.196740413426202 
2358	 0.197645338533034 
2359	 0.198393409403388 
2360	 0.199046428002489 
2361	 0.1995513367287 
2362	 0.199882548123569 
2363	 0.200147246066043 
2364	 0.200169963395895 
2365	 0.200070740674739 
2366	 0.200070698380081 
2367	 0.199870811283553 
2368	 0.199763707251453 
2369	 0.199908606863963 
2370	 0.199881389491079 
2371	 0.200002245857251 
2372	 0.200135433685969 
2373	 0.199993529876241 
2374	 0.199956627897322 
2375	 0.19995754127955 
2376	 0.199904486418992 
2377	 0.200034485826807 
2378	 0.200150109985047 
2379	 0.200098010656521 
2380	 0.200201494743191 
2381	 0.2003581500045 
2382	 0.200440462181612 
2383	 0.200566397045913 
2384	 0.200635315816289 
2385	 0.20054884593498 
2386	 0.200609361475391 
2387	 0.200740377960133 
2388	 0.20091014606234 
2389	 0.201208071777742 
2390	 0.201339355931027 
2391	 0.201410966628375 
2392	 0.201477668656758 
2393	 0.20140267205745 
2394	 0.20155161949071 
2395	 0.201867869518941 
2396	 0.202017970205689 
2397	 0.20215348814678 
2398	 0.20230947509122 
2399	 0.202360307197457 
2400	 0.202497322969725 
2401	 0.202835958056118 
2402	 0.202981454230079 
2403	 0.203070255463037 
2404	 0.203038322991002 
2405	 0.202975037598275 
2406	 0.203140737838817 
2407	 0.203229469929152 
2408	 0.203373520676997 
2409	 0.203394739473559 
2410	 0.203281901822696 
2411	 0.203192813837743 
2412	 0.203037667147361 
2413	 0.203253792137827 
2414	 0.203722646079098 
2415	 0.203897945723359 
2416	 0.204108761734589 
2417	 0.204194974204327 
2418	 0.20388694534948 
2419	 0.203810820532621 
2420	 0.20389138200736 
2421	 0.203982985995254 
2422	 0.204231739291027 
2423	 0.204367720985568 
2424	 0.204378397179807 
2425	 0.204467854572519 
2426	 0.204605358873662 
2427	 0.204782112707141 
2428	 0.204989566007618 
2429	 0.20517281273952 
2430	 0.205188464777676 
2431	 0.204963385050637 
2432	 0.204766086814901 
2433	 0.20455115593122 
2434	 0.20430348636977 
2435	 0.2042213083044 
2436	 0.204107787548754 
2437	 0.204049033332182 
2438	 0.203890309349212 
2439	 0.203699843033614 
2440	 0.203782911684788 
2441	 0.203726267063595 
2442	 0.203935349110537 
2443	 0.204173544328369 
2444	 0.203768749885624 
2445	 0.203381269029918 
2446	 0.203058316964515 
2447	 0.20268993444185 
2448	 0.202837472365465 
2449	 0.203014627971156 
2450	 0.202725203252817 
2451	 0.202661726961173 
2452	 0.202516955262729 
2453	 0.202009056142453 
2454	 0.201819769069438 
2455	 0.201671607618674 
2456	 0.201364533796893 
2457	 0.201434128850744 
2458	 0.201500095726666 
2459	 0.201272641354175 
2460	 0.201136611614332 
2461	 0.200958162691209 
2462	 0.200826012078801 
2463	 0.200676976357217 
2464	 0.200336351051715 
2465	 0.200103321871655 
2466	 0.200161634593195 
2467	 0.200176034896798 
2468	 0.200013953073888 
2469	 0.200213209792253 
2470	 0.200210280488678 
2471	 0.199842958488662 
2472	 0.200076600470195 
2473	 0.199940403838025 
2474	 0.19951628278358 
2475	 0.199877308069662 
2476	 0.200008594165227 
2477	 0.200122015969227 
2478	 0.200378156587943 
2479	 0.200247581995762 
2480	 0.200154337533494 
2481	 0.200094552072089 
2482	 0.200147273375789 
2483	 0.200176703856008 
2484	 0.200568007405962 
2485	 0.201030659392681 
2486	 0.201097355163948 
2487	 0.201570060337136 
2488	 0.202129299588799 
2489	 0.202299662954739 
2490	 0.202545898812521 
2491	 0.202914157825905 
2492	 0.202757237547384 
2493	 0.202994469333762 
2494	 0.203741822747715 
2495	 0.204077947482171 
2496	 0.204676473588094 
2497	 0.20501758473589 
2498	 0.20512798874253 
2499	 0.205564569351806 
2500	 0.205942147166186 
