Wavelength	Tablay400120.asd
350	 0.144337595849611 
351	 9.29011443191813E-02 
352	 5.40809803389267E-02 
353	 0.100006565683984 
354	 8.67121869486387E-02 
355	 0.131301414610616 
356	 0.153613779817853 
357	 9.37907951489453E-02 
358	 7.99737429211745E-02 
359	 0.123162247246512 
360	 0.152910602896109 
361	 8.12223662273344E-02 
362	 6.43453293183501E-02 
363	 4.83283159284823E-02 
364	 1.49611063329952E-02 
365	 1.35431413787637E-02 
366	 2.44912695273023E-02 
367	 3.23522985800631E-02 
368	 3.70860967702429E-02 
369	 0.073859100160885 
370	 8.79651865456215E-02 
371	 8.52483487613275E-02 
372	 0.098591752145618 
373	 9.71118940708195E-02 
374	 6.99162417072591E-02 
375	 3.37854720838195E-02 
376	 3.35528918824004E-02 
377	 1.12969360648542E-02 
378	 2.04745705242782E-02 
379	 8.95505302445731E-02 
380	 9.48622728417091E-02 
381	 7.72896111313151E-02 
382	 6.95680432823038E-02 
383	 8.64517285606364E-02 
384	 7.48823517052138E-02 
385	 6.48270236064625E-02 
386	 7.02100555781688E-02 
387	 6.39456253013506E-02 
388	 6.27283621731099E-02 
389	 5.36876083141076E-02 
390	 3.47455594002892E-02 
391	 7.05777723203225E-02 
392	 9.59402225577334E-02 
393	 8.59860146146677E-02 
394	 5.09156641088047E-02 
395	 4.34214743505014E-02 
396	 5.64764250829696E-02 
397	 6.91972724050432E-02 
398	 5.24888132152684E-02 
399	 5.35513683251114E-02 
400	 6.39894055722851E-02 
401	 6.47116445473804E-02 
402	 6.35772318686506E-02 
403	 4.04232764950069E-02 
404	 1.81099543201887E-02 
405	 4.44136607014388E-02 
406	 5.95661558149652E-02 
407	 6.28462285637559E-02 
408	 5.92281012478548E-02 
409	 4.63515230078218E-02 
410	 5.49404870754335E-02 
411	 0.061128795981176 
412	 4.00570309747186E-02 
413	 5.28861033292113E-02 
414	 5.92836513898157E-02 
415	 5.35691588543624E-02 
416	 6.32111180560267E-02 
417	 6.10875878034314E-02 
418	 5.54123320318652E-02 
419	 5.56923269773602E-02 
420	 6.26752039507752E-02 
421	 5.72247054820116E-02 
422	 5.09624924555584E-02 
423	 6.09678359278104E-02 
424	 0.054199090678086 
425	 4.73204224698522E-02 
426	 4.81349380554405E-02 
427	 5.04261141195767E-02 
428	 5.09999884693909E-02 
429	 4.83436121495061E-02 
430	 4.44687264801921E-02 
431	 5.01552945264198E-02 
432	 0.053783082128562 
433	 5.37570174132388E-02 
434	 5.37144476681418E-02 
435	 5.06965177093526E-02 
436	 5.16792729123529E-02 
437	 5.62592832763683E-02 
438	 5.16992520845085E-02 
439	 4.85392011569531E-02 
440	 5.03403266416993E-02 
441	 5.56707494419957E-02 
442	 5.22385134362942E-02 
443	 4.88657596030148E-02 
444	 4.81146264933499E-02 
445	 4.72825757363335E-02 
446	 4.59927347949358E-02 
447	 4.71074889667665E-02 
448	 5.09373924071062E-02 
449	 5.15818842297461E-02 
450	 5.07274377905794E-02 
451	 0.049729170009517 
452	 4.96664688460496E-02 
453	 4.95909010478926E-02 
454	 4.91046282920796E-02 
455	 4.82754212063272E-02 
456	 4.76215986326612E-02 
457	 4.77003947352885E-02 
458	 4.79777826369203E-02 
459	 4.77558759476225E-02 
460	 4.62097124899616E-02 
461	 4.76221948980803E-02 
462	 5.01276266968362E-02 
463	 4.92496356806044E-02 
464	 4.87103084796912E-02 
465	 4.75698897988544E-02 
466	 4.61987040302151E-02 
467	 4.77585880176642E-02 
468	 4.67208676052016E-02 
469	 4.56239287563565E-02 
470	 4.73279216500551E-02 
471	 4.63499808792079E-02 
472	 4.57799909992412E-02 
473	 4.66695871483773E-02 
474	 4.80884861287074E-02 
475	 4.65591084430115E-02 
476	 4.56696196560864E-02 
477	 4.74067126550093E-02 
478	 4.82849676737802E-02 
479	 4.74062107648637E-02 
480	 4.63064538976475E-02 
481	 4.69227263815297E-02 
482	 4.66628581131951E-02 
483	 4.64762605194266E-02 
484	 4.65904842446519E-02 
485	 4.61982804171759E-02 
486	 4.63811430324566E-02 
487	 4.59210589271404E-02 
488	 4.42449277047053E-02 
489	 4.41713216371449E-02 
490	 4.40581819990853E-02 
491	 4.38085945615931E-02 
492	 4.41420105196135E-02 
493	 4.45715345101206E-02 
494	 4.55036140444897E-02 
495	 4.63193148395903E-02 
496	 4.44183288865434E-02 
497	 4.46976460194757E-02 
498	 4.55626368880517E-02 
499	 4.45144874322005E-02 
500	 4.43160608621337E-02 
501	 4.48810619223727E-02 
502	 4.54279906635385E-02 
503	 4.47810581512907E-02 
504	 4.35159067662735E-02 
505	 4.29734877941793E-02 
506	 4.36628602930586E-02 
507	 4.40115736926371E-02 
508	 4.41542583877446E-02 
509	 0.043622848172859 
510	 4.22427021112323E-02 
511	 4.33291292358882E-02 
512	 4.38282541320381E-02 
513	 4.28774329669015E-02 
514	 4.29974390138579E-02 
515	 4.29893609787525E-02 
516	 4.31598797328818E-02 
517	 4.36830946740827E-02 
518	 4.30751386186286E-02 
519	 0.042450043092522 
520	 4.23033300609652E-02 
521	 4.25971017460132E-02 
522	 4.26548055711103E-02 
523	 4.27609769388712E-02 
524	 4.30676931248447E-02 
525	 4.32284084881934E-02 
526	 0.043049542771521 
527	 4.28394164098572E-02 
528	 4.29738517321569E-02 
529	 4.31699840598919E-02 
530	 4.27145817894559E-02 
531	 4.20339194962712E-02 
532	 4.26781352086381E-02 
533	 4.28071375613209E-02 
534	 4.26948353865672E-02 
535	 4.27651745158346E-02 
536	 0.042464755109153 
537	 4.25397902851975E-02 
538	 4.27723693116593E-02 
539	 4.24894162327619E-02 
540	 4.19781570612168E-02 
541	 4.20547128052106E-02 
542	 4.26057523242957E-02 
543	 4.19467476983951E-02 
544	 4.18592622769796E-02 
545	 4.20184125524177E-02 
546	 4.17632049640317E-02 
547	 4.19204474838826E-02 
548	 4.20057513569792E-02 
549	 4.19314687190793E-02 
550	 4.19792787161922E-02 
551	 4.17976569654331E-02 
552	 4.16681706406766E-02 
553	 4.17492367773622E-02 
554	 4.15860828379522E-02 
555	 4.16460660580001E-02 
556	 4.16223854741586E-02 
557	 4.10577462454536E-02 
558	 4.12647775246666E-02 
559	 0.041399911413042 
560	 4.11697478082513E-02 
561	 4.13149574155514E-02 
562	 4.12916669205908E-02 
563	 4.13493161265843E-02 
564	 4.16811308532411E-02 
565	 4.14891251404058E-02 
566	 4.12197787848587E-02 
567	 4.10837355858381E-02 
568	 4.10869209440397E-02 
569	 4.12187209410319E-02 
570	 4.11798881107396E-02 
571	 4.09058890468113E-02 
572	 4.08861997918171E-02 
573	 4.10103003142339E-02 
574	 4.10893383039025E-02 
575	 4.09485479619397E-02 
576	 4.07621469260258E-02 
577	 4.06852938078458E-02 
578	 4.06835280400337E-02 
579	 4.05260912005787E-02 
580	 0.040877572009452 
581	 4.12322444664085E-02 
582	 0.041070803001153 
583	 4.06010245362768E-02 
584	 4.06285040812719E-02 
585	 4.10047224570013E-02 
586	 4.10212102264733E-02 
587	 4.06142643981414E-02 
588	 4.04651103654712E-02 
589	 4.07357754232998E-02 
590	 4.06062494324893E-02 
591	 4.06251384656893E-02 
592	 4.07972808402481E-02 
593	 4.09271630746038E-02 
594	 4.06614609460109E-02 
595	 4.05396941230595E-02 
596	 4.06347551417464E-02 
597	 4.05962146133593E-02 
598	 4.04228816869582E-02 
599	 4.01825125857537E-02 
600	 4.00309700262886E-02 
601	 4.03496883515241E-02 
602	 0.040382443381444 
603	 4.02666766757642E-02 
604	 4.04183004202164E-02 
605	 4.02126567659764E-02 
606	 4.01137611209785E-02 
607	 4.02922116955761E-02 
608	 4.04542011182076E-02 
609	 4.02872891915088E-02 
610	 4.00596919732043E-02 
611	 4.00483798747455E-02 
612	 4.00069057263758E-02 
613	 4.00975237345251E-02 
614	 4.02261398986542E-02 
615	 4.01726309294087E-02 
616	 4.02633085864302E-02 
617	 4.01259502100895E-02 
618	 3.97475016664107E-02 
619	 3.99114197403808E-02 
620	 3.99875986378588E-02 
621	 0.039915574504657 
622	 3.98213697666468E-02 
623	 3.97679171511068E-02 
624	 3.98119067469436E-02 
625	 3.99218704619856E-02 
626	 0.039985936402233 
627	 0.039933470068617 
628	 3.98128860468342E-02 
629	 3.97183291531674E-02 
630	 3.98051008665048E-02 
631	 0.039831380079244 
632	 3.98086422982601E-02 
633	 3.98269173031002E-02 
634	 3.96485100593742E-02 
635	 3.96187846457923E-02 
636	 3.97353346546109E-02 
637	 3.95197943869178E-02 
638	 3.94847398992921E-02 
639	 3.95868536233719E-02 
640	 0.03967895726823 
641	 3.97577791756374E-02 
642	 3.97992267089031E-02 
643	 3.97359824168318E-02 
644	 3.95099764956332E-02 
645	 0.039347115635177 
646	 0.039342172924791 
647	 3.94545453796254E-02 
648	 3.94617771639318E-02 
649	 3.94956779457456E-02 
650	 3.94774849870428E-02 
651	 3.93414545235101E-02 
652	 3.93271536292973E-02 
653	 3.93148854453525E-02 
654	 3.93445423794363E-02 
655	 3.95539313653658E-02 
656	 3.94826840578501E-02 
657	 3.93171966801346E-02 
658	 3.92268967252512E-02 
659	 3.91149031586183E-02 
660	 3.89912136216151E-02 
661	 3.89632955844108E-02 
662	 3.91014185974677E-02 
663	 3.90723385661084E-02 
664	 3.90851227881147E-02 
665	 3.91834312559168E-02 
666	 3.92161682498824E-02 
667	 3.91913698091449E-02 
668	 3.91253228918791E-02 
669	 3.90501083224041E-02 
670	 3.90250298434827E-02 
671	 3.90043466501147E-02 
672	 3.89839999508461E-02 
673	 3.89827370036878E-02 
674	 3.90478794856668E-02 
675	 3.90508796336219E-02 
676	 3.90137670062622E-02 
677	 3.91472428140983E-02 
678	 3.89922717088879E-02 
679	 3.88185597643026E-02 
680	 3.88629715773769E-02 
681	 3.87047040217084E-02 
682	 3.87299770657503E-02 
683	 3.88938435737764E-02 
684	 3.89307919415121E-02 
685	 3.88776289226962E-02 
686	 3.88476894858889E-02 
687	 3.88721663347547E-02 
688	 3.88550055480904E-02 
689	 3.88576671672845E-02 
690	 3.88018099036183E-02 
691	 3.86572077420577E-02 
692	 3.86754417424059E-02 
693	 0.038695950246369 
694	 3.87037403382955E-02 
695	 3.87668113156543E-02 
696	 3.88066179558873E-02 
697	 3.87691634393261E-02 
698	 3.86578773073893E-02 
699	 3.85504740588839E-02 
700	 3.85609747740864E-02 
701	 3.86752413605884E-02 
702	 3.87955134621416E-02 
703	 3.86878009809953E-02 
704	 3.85867256733409E-02 
705	 0.038593312113405 
706	 3.86832301211998E-02 
707	 0.038653347054645 
708	 3.86166882645372E-02 
709	 3.86117385021066E-02 
710	 3.84716018068194E-02 
711	 3.84889887442722E-02 
712	 3.85954907888534E-02 
713	 3.86391527510123E-02 
714	 3.86121578137024E-02 
715	 3.85642918591356E-02 
716	 3.85406393142342E-02 
717	 0.038576058939165 
718	 0.0386879519291 
719	 3.86883144718886E-02 
720	 3.85382865693637E-02 
721	 3.84810285532185E-02 
722	 0.038587772183832 
723	 3.86778492339444E-02 
724	 3.85896090493851E-02 
725	 3.85748413581607E-02 
726	 3.85948220085154E-02 
727	 3.86200790295465E-02 
728	 3.86296774947237E-02 
729	 0.038594313628254 
730	 3.85273232398476E-02 
731	 3.84686501948817E-02 
732	 3.84879885752391E-02 
733	 3.85766172519511E-02 
734	 3.86710726879155E-02 
735	 3.87018792259769E-02 
736	 3.86352422017599E-02 
737	 3.86206983579858E-02 
738	 3.86691169714281E-02 
739	 3.86943549022345E-02 
740	 3.86548652628612E-02 
741	 3.86903281775195E-02 
742	 3.88073619187485E-02 
743	 3.87863132881146E-02 
744	 3.87992885785692E-02 
745	 3.87948454624959E-02 
746	 3.87266405548298E-02 
747	 3.87700546890014E-02 
748	 3.87551867789604E-02 
749	 3.87123981932647E-02 
750	 3.87682791435367E-02 
751	 3.88183964619259E-02 
752	 3.88598718963507E-02 
753	 3.88599979575529E-02 
754	 3.87405724289172E-02 
755	 3.88694181021708E-02 
756	 3.89817197671293E-02 
757	 3.88546504079595E-02 
758	 3.88191745419742E-02 
759	 3.87993848027393E-02 
760	 0.03879625721824 
761	 3.88420653852173E-02 
762	 3.89841840232928E-02 
763	 0.038995337820563 
764	 3.88886980625182E-02 
765	 3.89362747055952E-02 
766	 3.89534044566671E-02 
767	 3.89456602519987E-02 
768	 3.89302348369365E-02 
769	 3.88572945259157E-02 
770	 3.88759891623125E-02 
771	 3.89591367633854E-02 
772	 3.90052540440461E-02 
773	 3.89055145782553E-02 
774	 3.89121278874685E-02 
775	 0.039022198051543 
776	 3.90239131399402E-02 
777	 3.89720686965766E-02 
778	 3.89791848107149E-02 
779	 3.90399574809149E-02 
780	 3.89355364102182E-02 
781	 3.89205674983377E-02 
782	 3.89682653264193E-02 
783	 3.89971153789401E-02 
784	 3.90426088434087E-02 
785	 3.90499065464842E-02 
786	 3.90357843940328E-02 
787	 3.90491354921777E-02 
788	 0.039038509527887 
789	 0.039039828987746 
790	 3.90577325876367E-02 
791	 3.90514595997822E-02 
792	 3.89817390634943E-02 
793	 3.89835220463192E-02 
794	 3.90957121446895E-02 
795	 3.90368660376916E-02 
796	 0.039007741069525 
797	 3.90498461828134E-02 
798	 3.91180469147167E-02 
799	 3.90476320931044E-02 
800	 3.90232294363672E-02 
801	 3.90820317330121E-02 
802	 3.91303592560974E-02 
803	 3.91040323056392E-02 
804	 3.90994412376528E-02 
805	 3.91414301640473E-02 
806	 3.91168584403729E-02 
807	 3.90766887009243E-02 
808	 3.90545112825215E-02 
809	 0.039066122461045 
810	 3.90935717203962E-02 
811	 3.90739534632261E-02 
812	 3.90055683006538E-02 
813	 0.038944010524463 
814	 3.90788417754422E-02 
815	 3.91113996185405E-02 
816	 3.90345928793268E-02 
817	 3.91016563763964E-02 
818	 3.91212906067699E-02 
819	 3.91243406938851E-02 
820	 3.91464884012913E-02 
821	 3.91779003963144E-02 
822	 3.92199236146672E-02 
823	 3.92158248938862E-02 
824	 3.91441253471863E-02 
825	 0.039127069426538 
826	 0.039151052684773 
827	 3.91851095357549E-02 
828	 3.92019144609005E-02 
829	 3.92608999010395E-02 
830	 0.039306604086213 
831	 3.93238184799326E-02 
832	 3.93321501552579E-02 
833	 3.92371968708072E-02 
834	 3.92134205794903E-02 
835	 3.93151908607569E-02 
836	 3.93580755242463E-02 
837	 3.94645073058064E-02 
838	 3.95017018262332E-02 
839	 3.93931954916142E-02 
840	 3.93736923410891E-02 
841	 3.94362595948033E-02 
842	 3.94935184432808E-02 
843	 3.94587843128006E-02 
844	 3.94505782886289E-02 
845	 3.94284367764161E-02 
846	 3.94537233786474E-02 
847	 3.96168858378327E-02 
848	 3.95737392767971E-02 
849	 3.95052025644464E-02 
850	 3.94939985724444E-02 
851	 3.94304914643343E-02 
852	 3.95788335215919E-02 
853	 3.96479979033581E-02 
854	 3.95022416305478E-02 
855	 3.95707608699511E-02 
856	 3.96290726328863E-02 
857	 3.96496430044216E-02 
858	 3.96570583912787E-02 
859	 3.96408833771849E-02 
860	 3.96830924372109E-02 
861	 3.97292434864593E-02 
862	 3.96708910936409E-02 
863	 3.95100145710114E-02 
864	 3.95766302234471E-02 
865	 0.039805410132883 
866	 0.039808226351945 
867	 3.97354898011905E-02 
868	 3.96741312634114E-02 
869	 3.96837961724172E-02 
870	 3.97838409897444E-02 
871	 0.039775260151354 
872	 3.97135924889831E-02 
873	 3.96978743674174E-02 
874	 3.97877370062214E-02 
875	 3.98774943448854E-02 
876	 3.98832723454535E-02 
877	 3.97851346304881E-02 
878	 3.97186635067194E-02 
879	 3.98271934564764E-02 
880	 3.99658120943549E-02 
881	 3.99178208723581E-02 
882	 3.99181611168545E-02 
883	 3.98852273543021E-02 
884	 3.98405862615417E-02 
885	 3.98831439344583E-02 
886	 3.99843816552167E-02 
887	 4.00259250910572E-02 
888	 3.99597472000382E-02 
889	 3.98466864667449E-02 
890	 3.99824144869949E-02 
891	 0.040130302027882 
892	 4.01362226493546E-02 
893	 4.01601762328743E-02 
894	 4.00555246133425E-02 
895	 3.99832367447111E-02 
896	 4.00505369729639E-02 
897	 4.00361165582064E-02 
898	 3.99916666806188E-02 
899	 3.99527098755579E-02 
900	 3.99647072956353E-02 
901	 4.01241049748456E-02 
902	 4.01716360391929E-02 
903	 4.00810495449762E-02 
904	 3.99794558273141E-02 
905	 4.00552707724665E-02 
906	 4.01539541928611E-02 
907	 4.01615013328223E-02 
908	 4.00527218174734E-02 
909	 4.00558208932225E-02 
910	 4.01766029474872E-02 
911	 4.02981939065247E-02 
912	 4.02401207747251E-02 
913	 4.01979503963249E-02 
914	 4.02367382967897E-02 
915	 0.040346749480783 
916	 4.04416717907583E-02 
917	 4.02918399943806E-02 
918	 4.02076586355097E-02 
919	 4.03261931295574E-02 
920	 4.02659826233664E-02 
921	 4.02039697648456E-02 
922	 4.02043690920928E-02 
923	 4.02756401852165E-02 
924	 4.03614440451012E-02 
925	 0.040412058537019 
926	 4.04373852705295E-02 
927	 4.04691633423468E-02 
928	 4.05306833184677E-02 
929	 4.05712064205479E-02 
930	 0.040518625161302 
931	 4.03766286227162E-02 
932	 4.04724118647309E-02 
933	 4.06060683348725E-02 
934	 4.05770440582099E-02 
935	 4.03428740470469E-02 
936	 4.05942437803108E-02 
937	 4.07087155094041E-02 
938	 4.06203666883346E-02 
939	 4.06704346663059E-02 
940	 4.07930068038035E-02 
941	 4.06853803311889E-02 
942	 4.04829136012601E-02 
943	 4.06224236325176E-02 
944	 4.06148833744965E-02 
945	 0.040608043134479 
946	 4.06783279340628E-02 
947	 4.07506044633451E-02 
948	 4.08061575698064E-02 
949	 0.040820883958927 
950	 4.08585231042704E-02 
951	 4.10585119145358E-02 
952	 4.11155946858026E-02 
953	 4.09559170179317E-02 
954	 4.07526689081471E-02 
955	 4.09195294700591E-02 
956	 4.08755174943143E-02 
957	 4.09105702200057E-02 
958	 4.11482785149435E-02 
959	 4.11390248052722E-02 
960	 4.12186729246202E-02 
961	 4.12988259886698E-02 
962	 4.12573723067609E-02 
963	 4.11059546034529E-02 
964	 4.07773804931171E-02 
965	 4.07363336989521E-02 
966	 4.10570340118648E-02 
967	 4.06721313490858E-02 
968	 4.07064303022397E-02 
969	 4.09499564540416E-02 
970	 0.041031276034408 
971	 4.11894038537517E-02 
972	 4.11371774365988E-02 
973	 4.10480513172166E-02 
974	 4.11239413848523E-02 
975	 4.12349988588435E-02 
976	 4.13985883255683E-02 
977	 4.13741817206072E-02 
978	 4.10891447509741E-02 
979	 4.11520218774407E-02 
980	 4.15449212393625E-02 
981	 4.17492380707592E-02 
982	 4.14126391469163E-02 
983	 4.12646437071873E-02 
984	 4.10712210792473E-02 
985	 4.12207539252583E-02 
986	 4.18218460018368E-02 
987	 4.14609818817383E-02 
988	 4.11056567623542E-02 
989	 4.11226105052753E-02 
990	 4.14407365917897E-02 
991	 4.13918739287644E-02 
992	 4.12273068990799E-02 
993	 4.11485529058813E-02 
994	 4.12389884470073E-02 
995	 4.12700118619704E-02 
996	 4.10675242934156E-02 
997	 4.10609684790634E-02 
998	 4.14928330776881E-02 
999	 4.12750308078938E-02 
1000	 4.10548995969448E-02 
1001	 4.27739343444867E-02 
1002	 4.24662380498312E-02 
1003	 4.23509103312892E-02 
1004	 4.23429453653448E-02 
1005	 0.042179300829947 
1006	 4.21777011753425E-02 
1007	 4.25712169663141E-02 
1008	 4.26147134737939E-02 
1009	 4.24742081844563E-02 
1010	 4.23993008124513E-02 
1011	 4.21699921094706E-02 
1012	 4.21336744794366E-02 
1013	 0.042152204461379 
1014	 4.22315111778903E-02 
1015	 4.25501862670902E-02 
1016	 4.27420867101827E-02 
1017	 4.26499829310205E-02 
1018	 4.26303462591948E-02 
1019	 4.26297138976695E-02 
1020	 0.042678627839968 
1021	 4.27430855529291E-02 
1022	 4.29933066347781E-02 
1023	 4.30363840716209E-02 
1024	 0.042885305290944 
1025	 4.28963577754746E-02 
1026	 0.04300486861406 
1027	 4.30236963544283E-02 
1028	 4.30532935758426E-02 
1029	 4.30711291126287E-02 
1030	 4.29747123283664E-02 
1031	 0.042841051435195 
1032	 0.042830349177462 
1033	 4.28682380234396E-02 
1034	 4.29805367704348E-02 
1035	 4.30827264384892E-02 
1036	 4.30782402409117E-02 
1037	 4.29784331060878E-02 
1038	 4.29498986097807E-02 
1039	 0.042871017242665 
1040	 4.28546247661562E-02 
1041	 4.28645337694137E-02 
1042	 4.28973546103014E-02 
1043	 4.30016165943017E-02 
1044	 4.30567908800068E-02 
1045	 0.042897279138581 
1046	 4.29023861201424E-02 
1047	 4.29149068764463E-02 
1048	 4.27229291284178E-02 
1049	 4.26532517030976E-02 
1050	 4.27162397936998E-02 
1051	 4.27385614189044E-02 
1052	 4.27852802603843E-02 
1053	 4.28345942850728E-02 
1054	 4.30220715228919E-02 
1055	 4.30218172572549E-02 
1056	 4.28013376657719E-02 
1057	 4.28002144119008E-02 
1058	 4.28691662204888E-02 
1059	 4.28886199313945E-02 
1060	 4.29764898141503E-02 
1061	 4.30789002903907E-02 
1062	 4.30838740612862E-02 
1063	 4.31126937722705E-02 
1064	 4.30524195312113E-02 
1065	 4.30517014322667E-02 
1066	 4.31268694368931E-02 
1067	 4.31034284526129E-02 
1068	 4.31261289522359E-02 
1069	 4.31695768085614E-02 
1070	 4.32449761075896E-02 
1071	 4.33107624050342E-02 
1072	 4.33742028041258E-02 
1073	 4.33877767306964E-02 
1074	 4.35119574512919E-02 
1075	 4.35020452441964E-02 
1076	 4.33964406301822E-02 
1077	 4.34529674120291E-02 
1078	 4.34767153516372E-02 
1079	 4.35008621239052E-02 
1080	 0.043510024859132 
1081	 4.35956029250693E-02 
1082	 4.36058383132122E-02 
1083	 4.35098894455102E-02 
1084	 4.35141071112084E-02 
1085	 0.04336800984453 
1086	 4.33724016179635E-02 
1087	 4.34437703033719E-02 
1088	 4.35916557359502E-02 
1089	 4.36489899083151E-02 
1090	 4.38023611411479E-02 
1091	 4.38338540725187E-02 
1092	 4.38124943274387E-02 
1093	 4.38804232508864E-02 
1094	 4.39223789180076E-02 
1095	 4.38767100039456E-02 
1096	 4.38377361254637E-02 
1097	 4.38162729205739E-02 
1098	 4.38249699285396E-02 
1099	 4.38880249592659E-02 
1100	 4.39718059301866E-02 
1101	 4.40192175306155E-02 
1102	 4.39906484465364E-02 
1103	 4.39705232951891E-02 
1104	 4.39362180681615E-02 
1105	 0.043898837937033 
1106	 4.37908462455743E-02 
1107	 4.37246560148878E-02 
1108	 4.38258740886959E-02 
1109	 0.043877011899731 
1110	 4.39556819035212E-02 
1111	 4.40650893647178E-02 
1112	 4.39866875156744E-02 
1113	 4.39507393309866E-02 
1114	 4.38944691493281E-02 
1115	 4.37821941215533E-02 
1116	 4.38059325309762E-02 
1117	 4.37745847457995E-02 
1118	 4.37610168951912E-02 
1119	 4.38474551339841E-02 
1120	 4.38798474727151E-02 
1121	 4.38742130904922E-02 
1122	 4.38160902444909E-02 
1123	 4.38715389111221E-02 
1124	 4.39062958218655E-02 
1125	 4.38579919917009E-02 
1126	 4.38422619854979E-02 
1127	 4.39275428178733E-02 
1128	 4.38777819571007E-02 
1129	 4.38108333966046E-02 
1130	 4.38651230201498E-02 
1131	 4.38335928078343E-02 
1132	 4.37909371051858E-02 
1133	 4.38037368878968E-02 
1134	 4.37742818652423E-02 
1135	 4.37349889063545E-02 
1136	 4.36147505944573E-02 
1137	 4.36046514928618E-02 
1138	 4.36391247304078E-02 
1139	 4.36542269927601E-02 
1140	 4.37307022366571E-02 
1141	 4.37344880379378E-02 
1142	 4.37104375384684E-02 
1143	 4.37849152123088E-02 
1144	 4.38094288883103E-02 
1145	 4.37945096742052E-02 
1146	 4.37049185914247E-02 
1147	 4.36154370676522E-02 
1148	 4.36270205215642E-02 
1149	 4.35831178643938E-02 
1150	 4.35440921322311E-02 
1151	 4.35858725941238E-02 
1152	 4.35895690631665E-02 
1153	 4.35396293943082E-02 
1154	 4.35473203119953E-02 
1155	 4.36129910169184E-02 
1156	 4.36245573983136E-02 
1157	 0.043626625728445 
1158	 4.36181167483792E-02 
1159	 4.35866822020575E-02 
1160	 4.35600560201462E-02 
1161	 4.35243717343519E-02 
1162	 4.35138573647091E-02 
1163	 4.35210598051447E-02 
1164	 4.35447735032323E-02 
1165	 4.35506526550283E-02 
1166	 0.043563576424507 
1167	 4.35964590298664E-02 
1168	 4.35539291127794E-02 
1169	 4.35493089488653E-02 
1170	 0.043558823780543 
1171	 4.35603396910283E-02 
1172	 4.35670023759765E-02 
1173	 4.35878772384338E-02 
1174	 4.36052827749873E-02 
1175	 4.36208532368592E-02 
1176	 4.36557669629363E-02 
1177	 4.36661367410674E-02 
1178	 4.36750972744599E-02 
1179	 4.36269761964577E-02 
1180	 4.36666920806865E-02 
1181	 4.37275299386962E-02 
1182	 0.043694299397181 
1183	 0.043717668049367 
1184	 4.36779722183251E-02 
1185	 4.35871105623847E-02 
1186	 0.043581308066048 
1187	 4.36588511643178E-02 
1188	 4.36600727007387E-02 
1189	 4.36366183336213E-02 
1190	 4.36456555690917E-02 
1191	 4.36411238740264E-02 
1192	 4.36373306917305E-02 
1193	 4.36869820165544E-02 
1194	 4.37036154755029E-02 
1195	 4.36648784007561E-02 
1196	 4.36529037348516E-02 
1197	 4.36418886234479E-02 
1198	 4.36518658602916E-02 
1199	 4.36904864954364E-02 
1200	 4.37433905945835E-02 
1201	 0.043823741405878 
1202	 4.38530844417254E-02 
1203	 4.38232597781818E-02 
1204	 4.37987405990524E-02 
1205	 4.37959152224571E-02 
1206	 4.37870625543162E-02 
1207	 4.37945031997848E-02 
1208	 4.38276265966649E-02 
1209	 4.38507655223034E-02 
1210	 4.38661047556621E-02 
1211	 4.38938958437798E-02 
1212	 0.04395881043865 
1213	 4.39856942029421E-02 
1214	 0.043995153023743 
1215	 4.39972160142724E-02 
1216	 4.39883349505574E-02 
1217	 4.39464548673585E-02 
1218	 4.38599794211133E-02 
1219	 4.38024436713433E-02 
1220	 4.37502628003417E-02 
1221	 4.37896100130431E-02 
1222	 0.043865276058223 
1223	 4.39323570579081E-02 
1224	 0.043960839679055 
1225	 4.39520545146526E-02 
1226	 4.39527209418553E-02 
1227	 4.39262031092822E-02 
1228	 4.39368265857389E-02 
1229	 4.39718527502975E-02 
1230	 4.39926466889196E-02 
1231	 4.40241624973556E-02 
1232	 4.40417339715189E-02 
1233	 4.40426537702939E-02 
1234	 0.04404777046347 
1235	 4.40763385813912E-02 
1236	 4.40701749719547E-02 
1237	 4.40214226628677E-02 
1238	 4.40034908126863E-02 
1239	 4.39793702706659E-02 
1240	 4.39406511707567E-02 
1241	 4.39921130530245E-02 
1242	 4.40553094104913E-02 
1243	 4.40620283742518E-02 
1244	 4.40578474274732E-02 
1245	 0.044056283919994 
1246	 4.39971913234395E-02 
1247	 0.044005875046447 
1248	 4.40919649449272E-02 
1249	 0.044092986416275 
1250	 4.40534176613366E-02 
1251	 4.40538948916092E-02 
1252	 4.40309268060316E-02 
1253	 4.40191263243467E-02 
1254	 4.40651369623024E-02 
1255	 4.40629757115622E-02 
1256	 0.044016685266112 
1257	 4.39841637383045E-02 
1258	 4.39163495566488E-02 
1259	 4.38968706178058E-02 
1260	 0.043925857636434 
1261	 4.39258523591837E-02 
1262	 4.39125097300927E-02 
1263	 0.043955411346809 
1264	 4.39663701571915E-02 
1265	 4.39574826401985E-02 
1266	 4.39336223108863E-02 
1267	 4.39095348255116E-02 
1268	 4.38921015487526E-02 
1269	 4.38303549507812E-02 
1270	 0.043828947162646 
1271	 4.38729889050063E-02 
1272	 4.39060615701699E-02 
1273	 4.39848820169156E-02 
1274	 0.043998589207942 
1275	 4.39830508616293E-02 
1276	 4.39733471428216E-02 
1277	 4.39079202963328E-02 
1278	 0.043884068589627 
1279	 0.043890369767341 
1280	 4.38944138649279E-02 
1281	 4.39005788846113E-02 
1282	 4.39203611737894E-02 
1283	 4.39415418580585E-02 
1284	 4.39815229571793E-02 
1285	 4.40367110665804E-02 
1286	 4.41308477196651E-02 
1287	 4.41519961528858E-02 
1288	 4.41447332630976E-02 
1289	 4.41826113752283E-02 
1290	 4.41916266250249E-02 
1291	 0.04422996599389 
1292	 4.43323113880497E-02 
1293	 4.43859727923148E-02 
1294	 4.44420867784073E-02 
1295	 4.44304809616397E-02 
1296	 4.43507560508962E-02 
1297	 4.43368566739949E-02 
1298	 4.42901592740004E-02 
1299	 4.42733397306379E-02 
1300	 4.43231724281949E-02 
1301	 4.43541069144069E-02 
1302	 4.43465090576433E-02 
1303	 4.43808510297122E-02 
1304	 4.44714768080621E-02 
1305	 4.45332186796976E-02 
1306	 4.46299981982666E-02 
1307	 4.46671614877415E-02 
1308	 4.46416076999104E-02 
1309	 4.46264169383889E-02 
1310	 4.46421247666539E-02 
1311	 4.46358546855661E-02 
1312	 4.46643337647744E-02 
1313	 4.47658331332588E-02 
1314	 4.47772726391878E-02 
1315	 0.044727422920948 
1316	 4.47442813192537E-02 
1317	 4.47766504758768E-02 
1318	 4.47744729599328E-02 
1319	 4.47938378135808E-02 
1320	 4.47934442453828E-02 
1321	 4.47481664351283E-02 
1322	 4.47158766659727E-02 
1323	 4.46762152166638E-02 
1324	 0.044674568691292 
1325	 4.46753177798929E-02 
1326	 4.46869956189422E-02 
1327	 4.47686482548216E-02 
1328	 4.47952686057114E-02 
1329	 4.47897801574804E-02 
1330	 4.47797104347542E-02 
1331	 4.47335453520634E-02 
1332	 4.47116742348047E-02 
1333	 4.46995354711331E-02 
1334	 4.46782808784126E-02 
1335	 4.46756525771074E-02 
1336	 4.46956532966227E-02 
1337	 4.46937118237148E-02 
1338	 4.46863977285738E-02 
1339	 4.46817573931652E-02 
1340	 0.044684742128065 
1341	 4.46557904930202E-02 
1342	 0.044598947442302 
1343	 4.45833638855028E-02 
1344	 4.45578645433876E-02 
1345	 4.45517498489835E-02 
1346	 4.46151370152387E-02 
1347	 4.45975755042162E-02 
1348	 4.45167212805266E-02 
1349	 4.44871907361356E-02 
1350	 4.44562962779055E-02 
1351	 4.44187354945212E-02 
1352	 4.44018857952469E-02 
1353	 0.044383259110184 
1354	 4.43406654454625E-02 
1355	 4.43139859635239E-02 
1356	 0.044336751128706 
1357	 4.43141778821748E-02 
1358	 4.42257020200575E-02 
1359	 4.41961066423983E-02 
1360	 4.41995639791507E-02 
1361	 4.41753094306451E-02 
1362	 4.41585506412436E-02 
1363	 4.41703470762338E-02 
1364	 4.41464361443046E-02 
1365	 4.40681896229844E-02 
1366	 4.40524057003734E-02 
1367	 0.044074574364561 
1368	 4.40588594083416E-02 
1369	 4.40438157901295E-02 
1370	 4.40277004878134E-02 
1371	 4.39984469064768E-02 
1372	 4.39655545921877E-02 
1373	 4.39422709678486E-02 
1374	 4.38996167179423E-02 
1375	 4.38169105745459E-02 
1376	 4.37790863306634E-02 
1377	 4.37532531905062E-02 
1378	 4.37367770017655E-02 
1379	 4.37633589188563E-02 
1380	 4.37563563451256E-02 
1381	 4.37371572472212E-02 
1382	 4.37139670207982E-02 
1383	 4.36750770178061E-02 
1384	 0.04363864416656 
1385	 4.35884953209795E-02 
1386	 4.35608875360935E-02 
1387	 4.35570654593824E-02 
1388	 0.043526991560088 
1389	 4.35026915792815E-02 
1390	 4.34695464388331E-02 
1391	 4.34003134682516E-02 
1392	 4.33446359793279E-02 
1393	 4.33305807607699E-02 
1394	 4.33239594295069E-02 
1395	 4.33006539961583E-02 
1396	 4.32972398076057E-02 
1397	 4.32637338872212E-02 
1398	 4.31942930214055E-02 
1399	 4.31557136221278E-02 
1400	 4.31196309817184E-02 
1401	 4.30980544196026E-02 
1402	 4.30872712323992E-02 
1403	 0.043078270227937 
1404	 4.30979383371633E-02 
1405	 4.30758121222432E-02 
1406	 4.30247227214494E-02 
1407	 4.30033093302023E-02 
1408	 4.29728650264452E-02 
1409	 4.29485486312686E-02 
1410	 4.29400901949539E-02 
1411	 4.29428087024259E-02 
1412	 4.29599927990255E-02 
1413	 4.29488787657877E-02 
1414	 4.29340628212974E-02 
1415	 0.042928591215134 
1416	 4.28907952694487E-02 
1417	 4.28804021140186E-02 
1418	 4.29403455949538E-02 
1419	 4.29329812396916E-02 
1420	 4.28436764770331E-02 
1421	 4.28307395538989E-02 
1422	 0.04283764965451 
1423	 4.28343397501053E-02 
1424	 0.042861528560444 
1425	 4.29272451175134E-02 
1426	 0.042935699537271 
1427	 4.29044531093218E-02 
1428	 4.29031828292035E-02 
1429	 4.29195207596602E-02 
1430	 4.29587445182187E-02 
1431	 4.30323456467252E-02 
1432	 4.30499688039433E-02 
1433	 0.043076292449508 
1434	 4.30715359611494E-02 
1435	 4.29944012696881E-02 
1436	 0.042997508308113 
1437	 4.30483277420294E-02 
1438	 4.30464059733624E-02 
1439	 0.043050481281694 
1440	 4.30426416489766E-02 
1441	 4.29802239416476E-02 
1442	 4.29767343169439E-02 
1443	 4.30088001962505E-02 
1444	 0.043032721253356 
1445	 4.30785414036498E-02 
1446	 4.31045255959722E-02 
1447	 4.31237141505508E-02 
1448	 4.31467591319455E-02 
1449	 0.04318628140191 
1450	 4.31826412690999E-02 
1451	 4.31499914463413E-02 
1452	 4.31304071123594E-02 
1453	 4.30509631815092E-02 
1454	 4.30416240716806E-02 
1455	 4.31126211094139E-02 
1456	 4.31284016729421E-02 
1457	 4.31440447623816E-02 
1458	 0.043160348232829 
1459	 4.31472514937345E-02 
1460	 4.31386561507942E-02 
1461	 4.31377519273793E-02 
1462	 4.31446336449578E-02 
1463	 4.31546256323827E-02 
1464	 4.31514340242078E-02 
1465	 4.31411123114066E-02 
1466	 4.31535073021864E-02 
1467	 4.31363355493918E-02 
1468	 4.31213282859583E-02 
1469	 4.31462507033886E-02 
1470	 4.31362985565201E-02 
1471	 0.043157572686133 
1472	 4.31971216542748E-02 
1473	 4.32150090177859E-02 
1474	 0.04323878065795 
1475	 4.32438274685627E-02 
1476	 4.32236191925721E-02 
1477	 4.32250210672841E-02 
1478	 4.32351440344799E-02 
1479	 4.32357640597853E-02 
1480	 4.32246626130557E-02 
1481	 4.32400915192819E-02 
1482	 4.32764446504716E-02 
1483	 4.32782857413139E-02 
1484	 4.32844662280668E-02 
1485	 0.043285967418965 
1486	 4.32418293510488E-02 
1487	 4.32429458196576E-02 
1488	 4.32754710503494E-02 
1489	 4.33027952485998E-02 
1490	 4.33546644711937E-02 
1491	 4.33703439719167E-02 
1492	 4.33841778160508E-02 
1493	 4.33773080655605E-02 
1494	 4.33217366007234E-02 
1495	 4.33061567808839E-02 
1496	 4.33173552668641E-02 
1497	 4.32946089037801E-02 
1498	 4.32368813649386E-02 
1499	 4.32352616862811E-02 
1500	 4.32416584510024E-02 
1501	 4.32562995699238E-02 
1502	 4.33423425163233E-02 
1503	 4.33818246501597E-02 
1504	 4.33723000272984E-02 
1505	 4.33886910850436E-02 
1506	 4.34393653459174E-02 
1507	 4.34433517055405E-02 
1508	 4.34176106817795E-02 
1509	 4.34090017854487E-02 
1510	 4.33560674420246E-02 
1511	 4.33374231734045E-02 
1512	 4.33600509423682E-02 
1513	 0.043374844604615 
1514	 4.34262077283983E-02 
1515	 4.34308615506047E-02 
1516	 4.33747732652285E-02 
1517	 4.33728364787056E-02 
1518	 4.33768627553364E-02 
1519	 4.33739183917633E-02 
1520	 0.043382816459461 
1521	 0.043448848005379 
1522	 4.34589751116016E-02 
1523	 4.34679078126816E-02 
1524	 4.34549992851162E-02 
1525	 4.34345642488327E-02 
1526	 4.34310861125738E-02 
1527	 4.34050484445901E-02 
1528	 4.34098373365627E-02 
1529	 4.34467724287784E-02 
1530	 4.34766868364602E-02 
1531	 4.35219171059284E-02 
1532	 4.35136604945426E-02 
1533	 4.34894936666962E-02 
1534	 4.34817804077851E-02 
1535	 4.34312586644207E-02 
1536	 4.34229732741256E-02 
1537	 4.34706976564237E-02 
1538	 4.34596210417299E-02 
1539	 4.34106158501871E-02 
1540	 4.34034454484559E-02 
1541	 4.33825158322138E-02 
1542	 4.34078566081461E-02 
1543	 4.34995770191958E-02 
1544	 4.35165234651101E-02 
1545	 0.043529288305917 
1546	 4.35185864844619E-02 
1547	 4.34403216335794E-02 
1548	 4.34255305508045E-02 
1549	 0.043449531463924 
1550	 4.34313247177357E-02 
1551	 4.33930533808713E-02 
1552	 4.34002612665533E-02 
1553	 4.34065720419505E-02 
1554	 4.34191416801884E-02 
1555	 4.35080596902664E-02 
1556	 4.35038065395367E-02 
1557	 4.34231395982287E-02 
1558	 4.33904574169008E-02 
1559	 4.33312870099598E-02 
1560	 4.33100063498722E-02 
1561	 4.33183493776465E-02 
1562	 4.33387802633279E-02 
1563	 0.04340567266716 
1564	 4.34111973490056E-02 
1565	 0.043394359381793 
1566	 4.33966825475102E-02 
1567	 4.33586098938937E-02 
1568	 4.33533126332049E-02 
1569	 4.33949848665536E-02 
1570	 0.043413612800405 
1571	 4.34185821700665E-02 
1572	 0.043430330020099 
1573	 4.34755560195996E-02 
1574	 4.34606598758894E-02 
1575	 4.33930475210767E-02 
1576	 4.33628544686552E-02 
1577	 0.043289628040006 
1578	 4.32766940010076E-02 
1579	 4.33343125221111E-02 
1580	 4.33605350147112E-02 
1581	 4.34163329949785E-02 
1582	 0.043426120830999 
1583	 4.33834727762017E-02 
1584	 4.33828798023139E-02 
1585	 4.33845116013249E-02 
1586	 4.33811225489641E-02 
1587	 4.34118478141323E-02 
1588	 4.34123648824442E-02 
1589	 4.33679509402104E-02 
1590	 4.33548153279641E-02 
1591	 4.33630596721545E-02 
1592	 4.33527057109832E-02 
1593	 4.33437918132983E-02 
1594	 4.33310508242155E-02 
1595	 4.32897260813348E-02 
1596	 4.32758128227232E-02 
1597	 4.32879255604588E-02 
1598	 4.32853805830252E-02 
1599	 4.32878849452915E-02 
1600	 4.32886276717676E-02 
1601	 4.32744542651492E-02 
1602	 4.32709261096383E-02 
1603	 4.32915281076878E-02 
1604	 4.32854687174469E-02 
1605	 4.32603072774207E-02 
1606	 4.32470623371083E-02 
1607	 4.31857415937822E-02 
1608	 4.31938081796402E-02 
1609	 4.32939389070554E-02 
1610	 4.33206614853892E-02 
1611	 4.33465094383734E-02 
1612	 4.33696452966889E-02 
1613	 4.33222388024289E-02 
1614	 0.043316229991341 
1615	 4.33690517243159E-02 
1616	 4.33840461043101E-02 
1617	 0.043392105516785 
1618	 4.33799988203455E-02 
1619	 4.33233484494222E-02 
1620	 0.043300567623397 
1621	 4.32926895375639E-02 
1622	 4.32703339832446E-02 
1623	 4.32415209050921E-02 
1624	 4.32397488197504E-02 
1625	 4.32665658641047E-02 
1626	 4.32448278084057E-02 
1627	 4.31800477772731E-02 
1628	 4.31892579554018E-02 
1629	 4.32195594341279E-02 
1630	 4.32169341646216E-02 
1631	 4.32946083556973E-02 
1632	 4.33073665751886E-02 
1633	 4.32012186769436E-02 
1634	 4.31668425384236E-02 
1635	 4.31531335254523E-02 
1636	 4.31504881389537E-02 
1637	 4.31984621183651E-02 
1638	 4.32066974236759E-02 
1639	 0.043190577235355 
1640	 4.31936249130352E-02 
1641	 4.32035941929187E-02 
1642	 4.31927996768088E-02 
1643	 4.31898936058141E-02 
1644	 0.043181349130532 
1645	 4.31178246350825E-02 
1646	 4.30944685017748E-02 
1647	 4.31080947839804E-02 
1648	 4.31081092792963E-02 
1649	 4.31106759236481E-02 
1650	 4.31315594382397E-02 
1651	 4.31741743688347E-02 
1652	 4.31889656897214E-02 
1653	 4.32125534954064E-02 
1654	 4.32184929169902E-02 
1655	 4.31738834737571E-02 
1656	 4.31580974554884E-02 
1657	 4.31386561209848E-02 
1658	 4.31540902322977E-02 
1659	 4.32215889848301E-02 
1660	 4.32479622913088E-02 
1661	 4.32999819752976E-02 
1662	 4.32967502120045E-02 
1663	 4.32208287046645E-02 
1664	 4.31788166341045E-02 
1665	 4.31177270523258E-02 
1666	 4.30854918621065E-02 
1667	 4.30764636005102E-02 
1668	 4.30723276577565E-02 
1669	 4.30849763272287E-02 
1670	 4.30808237384842E-02 
1671	 0.043112966782385 
1672	 4.30732102358071E-02 
1673	 4.29363536441813E-02 
1674	 4.29132623951513E-02 
1675	 4.29130802436083E-02 
1676	 4.29105478848662E-02 
1677	 4.29889984976138E-02 
1678	 4.30203370147405E-02 
1679	 4.30136141633355E-02 
1680	 4.29940526372268E-02 
1681	 4.29701126421105E-02 
1682	 4.29633040023813E-02 
1683	 4.29191830290827E-02 
1684	 0.042915319058636 
1685	 4.29630329513176E-02 
1686	 4.29767216655129E-02 
1687	 4.29882492721252E-02 
1688	 4.29964363863667E-02 
1689	 4.29960584551967E-02 
1690	 4.30076479912035E-02 
1691	 4.30114604852881E-02 
1692	 4.30160446240547E-02 
1693	 4.30210220353469E-02 
1694	 4.30396548747919E-02 
1695	 4.30892593928029E-02 
1696	 4.30913704519193E-02 
1697	 0.043059648347392 
1698	 4.30801362545201E-02 
1699	 4.31052431186353E-02 
1700	 4.30983635342063E-02 
1701	 4.31236483858763E-02 
1702	 4.31201147807915E-02 
1703	 4.30601751574914E-02 
1704	 4.30305887325878E-02 
1705	 4.30395785104021E-02 
1706	 4.29656677381094E-02 
1707	 4.28789141586645E-02 
1708	 4.29217390215741E-02 
1709	 4.29512805396874E-02 
1710	 4.29600166159019E-02 
1711	 4.30760007506975E-02 
1712	 4.30593917101513E-02 
1713	 4.30291325554346E-02 
1714	 4.30548162294552E-02 
1715	 4.29596176411099E-02 
1716	 0.04288900913515 
1717	 4.28702520117348E-02 
1718	 4.28804403894279E-02 
1719	 4.28953750932567E-02 
1720	 4.28922305274211E-02 
1721	 0.042853301831599 
1722	 4.28264896545014E-02 
1723	 4.29092076297031E-02 
1724	 4.29772073971621E-02 
1725	 4.30176465525001E-02 
1726	 4.30495590895352E-02 
1727	 4.29847675130946E-02 
1728	 4.29319158770217E-02 
1729	 0.042941355965389 
1730	 4.29368342169872E-02 
1731	 4.29423492087114E-02 
1732	 0.042929796899228 
1733	 4.28816495671257E-02 
1734	 4.28482449706773E-02 
1735	 4.27591433969176E-02 
1736	 4.27065708028946E-02 
1737	 4.27652480080623E-02 
1738	 4.28425201895498E-02 
1739	 4.28607893478311E-02 
1740	 4.28400223909725E-02 
1741	 0.042854634753065 
1742	 4.28778442903041E-02 
1743	 4.28658521732351E-02 
1744	 0.04285991382752 
1745	 4.28380146675491E-02 
1746	 4.27477289759779E-02 
1747	 4.27025864039464E-02 
1748	 4.27016900348066E-02 
1749	 4.26992140326509E-02 
1750	 4.26977450406438E-02 
1751	 4.27125197626011E-02 
1752	 4.27520080323046E-02 
1753	 4.27508404614327E-02 
1754	 4.27410184300819E-02 
1755	 4.27380452015024E-02 
1756	 4.27246532009327E-02 
1757	 4.27327089698818E-02 
1758	 4.26902176596912E-02 
1759	 4.27698303144672E-02 
1760	 4.28465330202156E-02 
1761	 4.28580058943815E-02 
1762	 4.28167355058306E-02 
1763	 4.27011888171246E-02 
1764	 4.26375145890192E-02 
1765	 4.26567126062698E-02 
1766	 0.042729034734176 
1767	 4.27120689366446E-02 
1768	 4.26786374505271E-02 
1769	 4.27333705013892E-02 
1770	 4.26946828181601E-02 
1771	 4.26889482049287E-02 
1772	 4.26906747156619E-02 
1773	 4.25589614458095E-02 
1774	 4.25261228561632E-02 
1775	 4.25883768661014E-02 
1776	 4.25945458004803E-02 
1777	 4.26140436143201E-02 
1778	 4.26940116705835E-02 
1779	 4.27131572496971E-02 
1780	 4.26465857491188E-02 
1781	 0.042632046166812 
1782	 4.26176641987251E-02 
1783	 4.25976233607334E-02 
1784	 4.26528176608367E-02 
1785	 0.042634773006418 
1786	 4.26407385305474E-02 
1787	 0.042683176315491 
1788	 4.26662686485693E-02 
1789	 4.26189995583511E-02 
1790	 4.25721237587904E-02 
1791	 4.24423070397167E-02 
1792	 4.23810359322553E-02 
1793	 0.042411878156731 
1794	 4.24452244604873E-02 
1795	 4.24449672918924E-02 
1796	 4.25075183980441E-02 
1797	 4.25449207998914E-02 
1798	 4.25747457756085E-02 
1799	 4.26414516104117E-02 
1800	 4.26687958075235E-02 
1801	 4.19074730705447E-02 
1802	 4.18918109012732E-02 
1803	 0.041916302616952 
1804	 4.20099331075254E-02 
1805	 4.20171559165646E-02 
1806	 4.20394619312312E-02 
1807	 4.20962203266141E-02 
1808	 4.20834028296469E-02 
1809	 4.19747302086987E-02 
1810	 4.19709815813339E-02 
1811	 4.20389060589972E-02 
1812	 0.042018102424227 
1813	 4.19672281457691E-02 
1814	 4.19450975044774E-02 
1815	 4.19296134778895E-02 
1816	 4.19130997747474E-02 
1817	 4.19144438621336E-02 
1818	 4.20046313747801E-02 
1819	 4.20330774924875E-02 
1820	 4.20083309105586E-02 
1821	 4.19990823580344E-02 
1822	 4.19654351023906E-02 
1823	 4.19997199437627E-02 
1824	 4.20654605440747E-02 
1825	 4.21280436867212E-02 
1826	 4.21687132397982E-02 
1827	 4.22676234432208E-02 
1828	 4.22831684027322E-02 
1829	 4.22025973402688E-02 
1830	 4.21881824375018E-02 
1831	 0.042171778818541 
1832	 0.042178529003846 
1833	 4.22160485076159E-02 
1834	 4.22293220071082E-02 
1835	 0.042279265373895 
1836	 4.22431181954326E-02 
1837	 4.22091009464803E-02 
1838	 4.21373505532971E-02 
1839	 4.21211731777486E-02 
1840	 4.21057668677843E-02 
1841	 4.21036844590706E-02 
1842	 4.21464868435453E-02 
1843	 0.042156966074648 
1844	 4.21312808109855E-02 
1845	 4.21201514693927E-02 
1846	 4.21559008185792E-02 
1847	 4.21901682360166E-02 
1848	 4.21920556175986E-02 
1849	 4.21911202430832E-02 
1850	 4.21816634838048E-02 
1851	 4.21353192701991E-02 
1852	 0.0421035931418 
1853	 4.21019227202567E-02 
1854	 4.21535483018122E-02 
1855	 4.21563746806045E-02 
1856	 4.21671500441769E-02 
1857	 4.22385182159721E-02 
1858	 4.21661747250367E-02 
1859	 4.21530509311591E-02 
1860	 0.042192905056525 
1861	 4.21815404638825E-02 
1862	 0.042091981402287 
1863	 4.21419438860862E-02 
1864	 4.21744757995443E-02 
1865	 4.21482861937239E-02 
1866	 4.21428651720245E-02 
1867	 4.21129461164736E-02 
1868	 4.21546314295672E-02 
1869	 4.21757265301659E-02 
1870	 4.21632429060304E-02 
1871	 4.21679440763319E-02 
1872	 4.21657677965192E-02 
1873	 4.21089752174147E-02 
1874	 4.20613718463431E-02 
1875	 4.20908539004602E-02 
1876	 4.21243823844215E-02 
1877	 4.20877940262746E-02 
1878	 4.19934862746681E-02 
1879	 4.19645997784915E-02 
1880	 4.19045373199234E-02 
1881	 4.18401839903904E-02 
1882	 4.17691707797404E-02 
1883	 4.17944198716033E-02 
1884	 4.17732612174249E-02 
1885	 4.17078023565139E-02 
1886	 4.17256556518619E-02 
1887	 4.17706998456298E-02 
1888	 4.17301177135549E-02 
1889	 4.16693465097785E-02 
1890	 4.16434025744617E-02 
1891	 4.16043338478487E-02 
1892	 4.15377712830704E-02 
1893	 4.14674262662277E-02 
1894	 4.14220392958819E-02 
1895	 4.13327229889839E-02 
1896	 4.11845765932833E-02 
1897	 4.11664429411799E-02 
1898	 4.12807736050075E-02 
1899	 4.13667670337049E-02 
1900	 4.13920077528823E-02 
1901	 4.13424993388951E-02 
1902	 4.12155256043986E-02 
1903	 4.11363579265744E-02 
1904	 4.11028878641223E-02 
1905	 4.11508269854665E-02 
1906	 4.11830780508512E-02 
1907	 4.12020370847493E-02 
1908	 4.11556651622618E-02 
1909	 4.10488220462914E-02 
1910	 4.09849378577023E-02 
1911	 4.09064281980409E-02 
1912	 4.08246926122866E-02 
1913	 4.07570628507609E-02 
1914	 4.06993386978987E-02 
1915	 4.06572702996582E-02 
1916	 4.06231640724458E-02 
1917	 4.05935275223644E-02 
1918	 0.040602168781906 
1919	 4.05964217360409E-02 
1920	 4.05674079813342E-02 
1921	 4.05949220703965E-02 
1922	 4.06124406086884E-02 
1923	 4.05986594440706E-02 
1924	 4.06095783302851E-02 
1925	 4.05479289661743E-02 
1926	 4.05138631196305E-02 
1927	 4.04597134275533E-02 
1928	 4.04624212769112E-02 
1929	 4.05054038868913E-02 
1930	 4.05457163601159E-02 
1931	 4.05223897574945E-02 
1932	 4.04689344985595E-02 
1933	 4.04067925902363E-02 
1934	 4.03552015876927E-02 
1935	 4.03856956157655E-02 
1936	 4.04919251301014E-02 
1937	 4.05150688368353E-02 
1938	 4.04851621842186E-02 
1939	 4.04697536799129E-02 
1940	 4.04409691333336E-02 
1941	 4.03954970648199E-02 
1942	 4.03551074596669E-02 
1943	 0.040413875841379 
1944	 4.04849956687098E-02 
1945	 4.04992350943768E-02 
1946	 4.04958886388216E-02 
1947	 4.05015538967127E-02 
1948	 4.04885289612684E-02 
1949	 4.04981863585633E-02 
1950	 4.05200752139772E-02 
1951	 4.05865607020426E-02 
1952	 4.06116641957594E-02 
1953	 4.06500139752526E-02 
1954	 4.06274789539059E-02 
1955	 4.05498426598861E-02 
1956	 4.05468429022052E-02 
1957	 4.05668358270422E-02 
1958	 4.05765104632618E-02 
1959	 4.06203452366004E-02 
1960	 4.06630356628086E-02 
1961	 4.06885573257503E-02 
1962	 0.040663153011686 
1963	 4.06813723613514E-02 
1964	 4.07604576600566E-02 
1965	 4.07813666712239E-02 
1966	 4.07599372926962E-02 
1967	 4.07725362121144E-02 
1968	 4.08436331543259E-02 
1969	 4.08450059574307E-02 
1970	 4.08326283974182E-02 
1971	 4.09277395630892E-02 
1972	 4.09581356581813E-02 
1973	 4.08739239178507E-02 
1974	 4.08558249735541E-02 
1975	 4.08415180958672E-02 
1976	 4.08499505379147E-02 
1977	 4.08968578025266E-02 
1978	 4.09356998277916E-02 
1979	 0.040999641392389 
1980	 4.10529820808001E-02 
1981	 4.10378668849334E-02 
1982	 4.10096996706365E-02 
1983	 4.10836443034913E-02 
1984	 4.11007703397137E-02 
1985	 0.041096941126957 
1986	 4.11726342869353E-02 
1987	 4.12016930378981E-02 
1988	 4.11580956896165E-02 
1989	 4.11772758413181E-02 
1990	 4.12433837536737E-02 
1991	 0.041264217864284 
1992	 4.12520092017284E-02 
1993	 4.13094667608616E-02 
1994	 4.13140796098675E-02 
1995	 0.04130046127723 
1996	 4.13265196712731E-02 
1997	 4.13357497503078E-02 
1998	 4.13792445654374E-02 
1999	 4.14746819336681E-02 
2000	 4.15316558790772E-02 
2001	 4.16005716472106E-02 
2002	 0.041631581193481 
2003	 0.041593761960274 
2004	 4.16132723198148E-02 
2005	 4.16836123547701E-02 
2006	 4.16924027263947E-02 
2007	 4.16725494098975E-02 
2008	 4.16987652602196E-02 
2009	 4.16730484436327E-02 
2010	 4.16241196998438E-02 
2011	 4.16555806482237E-02 
2012	 4.17081766887763E-02 
2013	 4.17468732760326E-02 
2014	 4.18176898700035E-02 
2015	 4.18416378893761E-02 
2016	 4.18076054020673E-02 
2017	 4.18282362301068E-02 
2018	 4.18485181761227E-02 
2019	 4.18791303281307E-02 
2020	 4.19265096691503E-02 
2021	 4.20433968181391E-02 
2022	 4.20868574918928E-02 
2023	 4.20650919401966E-02 
2024	 4.21107791480379E-02 
2025	 4.21350993434028E-02 
2026	 4.21331662984395E-02 
2027	 4.21233204757596E-02 
2028	 0.042134594130463 
2029	 4.21076848911573E-02 
2030	 4.21201247812239E-02 
2031	 4.21857426609483E-02 
2032	 4.22316704203563E-02 
2033	 0.042269375306683 
2034	 4.22977868322931E-02 
2035	 4.23222118433605E-02 
2036	 0.042371896699221 
2037	 4.23630643678811E-02 
2038	 4.23614664260233E-02 
2039	 4.23704237047971E-02 
2040	 0.042367051583078 
2041	 4.23805256499922E-02 
2042	 4.24266800788826E-02 
2043	 4.24314503206198E-02 
2044	 4.24318648483703E-02 
2045	 4.24132141149019E-02 
2046	 4.23387385944929E-02 
2047	 4.23220577909872E-02 
2048	 4.23150635603091E-02 
2049	 0.042315547988515 
2050	 4.23362283842966E-02 
2051	 4.24032524629357E-02 
2052	 4.23941281307316E-02 
2053	 4.23864093387372E-02 
2054	 4.24207360813701E-02 
2055	 4.24525267640854E-02 
2056	 4.25019023814611E-02 
2057	 4.26224737113488E-02 
2058	 4.26682140248609E-02 
2059	 4.26759251000078E-02 
2060	 4.27015890022629E-02 
2061	 0.042722201354909 
2062	 4.27176908404676E-02 
2063	 4.26797899283141E-02 
2064	 4.26792274203788E-02 
2065	 4.26419973941259E-02 
2066	 4.26758142364175E-02 
2067	 4.27596017753864E-02 
2068	 4.28198006713583E-02 
2069	 0.042844001054666 
2070	 4.28334906494056E-02 
2071	 4.28524355645586E-02 
2072	 4.28407708945668E-02 
2073	 4.28765348720133E-02 
2074	 4.29770377361071E-02 
2075	 4.30180176278484E-02 
2076	 4.30435718354499E-02 
2077	 4.30719346926359E-02 
2078	 4.31066463720026E-02 
2079	 4.30894492965878E-02 
2080	 4.30286818142274E-02 
2081	 4.30004000050554E-02 
2082	 4.29489881381958E-02 
2083	 4.28600230736739E-02 
2084	 4.29029863801017E-02 
2085	 4.29514748483339E-02 
2086	 4.29727681386413E-02 
2087	 4.29989728971854E-02 
2088	 4.30339566595951E-02 
2089	 4.30546097988081E-02 
2090	 4.30796162271863E-02 
2091	 4.31186895451546E-02 
2092	 4.31615004599816E-02 
2093	 4.32033313977083E-02 
2094	 4.32449431452142E-02 
2095	 4.33134108507239E-02 
2096	 4.33499353718494E-02 
2097	 0.043405132267491 
2098	 4.33589472273873E-02 
2099	 4.33425531330824E-02 
2100	 4.33423791991187E-02 
2101	 4.33050279883703E-02 
2102	 0.043253176889982 
2103	 4.31996333763983E-02 
2104	 4.30896891272231E-02 
2105	 4.30727816543845E-02 
2106	 4.30850128272837E-02 
2107	 4.31203570960799E-02 
2108	 4.32504624064534E-02 
2109	 4.32947864872688E-02 
2110	 4.32904399228419E-02 
2111	 4.33332585031318E-02 
2112	 4.33741944182205E-02 
2113	 4.34094595268263E-02 
2114	 4.35153619361731E-02 
2115	 4.35464654273216E-02 
2116	 0.043503053489245 
2117	 4.34561806392786E-02 
2118	 4.34604863024062E-02 
2119	 4.34788375062539E-02 
2120	 4.34619890616119E-02 
2121	 4.34645267326442E-02 
2122	 4.34661458212328E-02 
2123	 4.34121556425678E-02 
2124	 4.34056272283695E-02 
2125	 4.34416316861059E-02 
2126	 0.043473881097559 
2127	 4.35293163869382E-02 
2128	 4.35555053439496E-02 
2129	 4.35958426554118E-02 
2130	 4.36195433364017E-02 
2131	 4.35865375162188E-02 
2132	 4.35765989332114E-02 
2133	 4.35805281574932E-02 
2134	 4.35995788240991E-02 
2135	 4.35637786246075E-02 
2136	 4.35335745602722E-02 
2137	 0.043476021038639 
2138	 4.33557306925387E-02 
2139	 4.33153244933469E-02 
2140	 4.32830857779725E-02 
2141	 4.33001175509623E-02 
2142	 4.34079986823845E-02 
2143	 4.34204905915678E-02 
2144	 4.34439229002489E-02 
2145	 4.34094123168961E-02 
2146	 4.32841721906315E-02 
2147	 4.32109963516824E-02 
2148	 4.30943749489579E-02 
2149	 4.30529440568383E-02 
2150	 4.30927387986491E-02 
2151	 0.043072518373849 
2152	 4.30588730476787E-02 
2153	 4.30481139670814E-02 
2154	 4.30216123845746E-02 
2155	 4.30500687083174E-02 
2156	 4.30261963786402E-02 
2157	 4.30284387718571E-02 
2158	 4.30095854564231E-02 
2159	 4.29332129947112E-02 
2160	 4.28992029943033E-02 
2161	 0.042926831348836 
2162	 4.28706179407478E-02 
2163	 4.27490959877219E-02 
2164	 4.26772456687828E-02 
2165	 4.26178626522507E-02 
2166	 4.25292264438747E-02 
2167	 4.24258387809168E-02 
2168	 4.23526933200265E-02 
2169	 4.22490567814333E-02 
2170	 4.21720548332758E-02 
2171	 4.21733274366309E-02 
2172	 4.21269131625425E-02 
2173	 4.20334764922849E-02 
2174	 4.19635648817618E-02 
2175	 4.19216811680658E-02 
2176	 0.04193077134672 
2177	 4.19069907173696E-02 
2178	 4.19076254775672E-02 
2179	 4.19073759500485E-02 
2180	 4.18956211848085E-02 
2181	 4.18678420501896E-02 
2182	 4.18649769380227E-02 
2183	 4.18302599453339E-02 
2184	 4.17519413385574E-02 
2185	 4.16795308210858E-02 
2186	 4.15846355701583E-02 
2187	 4.15312879971448E-02 
2188	 4.14868471764058E-02 
2189	 4.14456338504693E-02 
2190	 4.14438637098488E-02 
2191	 4.14323880141182E-02 
2192	 4.14126781210597E-02 
2193	 4.13833167375225E-02 
2194	 4.13721963065553E-02 
2195	 4.13326052965113E-02 
2196	 0.041273948215386 
2197	 4.11851692742062E-02 
2198	 4.10810665422967E-02 
2199	 4.10072734998197E-02 
2200	 4.10060223893101E-02 
2201	 4.10619070098317E-02 
2202	 4.10745609832745E-02 
2203	 0.041151954607509 
2204	 4.11572363626415E-02 
2205	 0.041101469505014 
2206	 4.10693669101191E-02 
2207	 4.10031575086038E-02 
2208	 4.10081698338601E-02 
2209	 4.10241225725941E-02 
2210	 4.10654419502113E-02 
2211	 0.041258010273279 
2212	 4.12609126944521E-02 
2213	 4.10960839549927E-02 
2214	 4.10852614880051E-02 
2215	 4.10928331658681E-02 
2216	 4.10516765977128E-02 
2217	 4.10736351535691E-02 
2218	 4.10995865808878E-02 
2219	 4.10287285341889E-02 
2220	 0.040995060805189 
2221	 4.10328785154366E-02 
2222	 4.11036738719507E-02 
2223	 0.041031132162234 
2224	 4.10222856142428E-02 
2225	 4.10971634548695E-02 
2226	 4.09974871637423E-02 
2227	 4.09823606987352E-02 
2228	 4.09842240132619E-02 
2229	 4.10192139538928E-02 
2230	 4.10827721451385E-02 
2231	 4.11126290441762E-02 
2232	 4.11733490853408E-02 
2233	 4.11690259227625E-02 
2234	 4.10895899545524E-02 
2235	 4.10566213956483E-02 
2236	 4.10279975832563E-02 
2237	 4.10020710384598E-02 
2238	 0.040957358107551 
2239	 4.09669832516736E-02 
2240	 4.10285758956001E-02 
2241	 4.10501671696455E-02 
2242	 4.11072565472501E-02 
2243	 4.11174825047776E-02 
2244	 4.10585226295774E-02 
2245	 4.10309768432315E-02 
2246	 4.09669926022514E-02 
2247	 4.09798518667338E-02 
2248	 0.041100296927443 
2249	 4.11198986431971E-02 
2250	 4.10907838286734E-02 
2251	 4.11457553567417E-02 
2252	 4.11199480906845E-02 
2253	 4.10268756389546E-02 
2254	 0.040985133763549 
2255	 0.040924559246422 
2256	 4.08481702427378E-02 
2257	 4.08384622319731E-02 
2258	 4.08462029440813E-02 
2259	 4.09136334154055E-02 
2260	 4.09927512538077E-02 
2261	 4.11135585408083E-02 
2262	 0.041155023808444 
2263	 4.12219540475017E-02 
2264	 4.12062287771204E-02 
2265	 4.10706978612225E-02 
2266	 4.10485536191212E-02 
2267	 0.041027173370387 
2268	 0.041038976330508 
2269	 0.041128097773586 
2270	 4.11478896494142E-02 
2271	 4.11840559262858E-02 
2272	 4.11790856896717E-02 
2273	 4.10724235482912E-02 
2274	 4.10584851710828E-02 
2275	 4.10602966217179E-02 
2276	 4.10734101688046E-02 
2277	 4.11689020120476E-02 
2278	 4.12299706525862E-02 
2279	 4.12783397355055E-02 
2280	 4.13097119709589E-02 
2281	 4.13530969484012E-02 
2282	 0.041357026737552 
2283	 4.12836530922803E-02 
2284	 4.12734862668519E-02 
2285	 4.13457581663925E-02 
2286	 4.12628259337079E-02 
2287	 4.12272245305471E-02 
2288	 4.12626764205343E-02 
2289	 0.041142822525128 
2290	 4.12967507906669E-02 
2291	 4.13070968294165E-02 
2292	 4.12177596918734E-02 
2293	 4.14300990499316E-02 
2294	 4.12279597569976E-02 
2295	 0.041172574226188 
2296	 4.14185086842724E-02 
2297	 4.14297837981775E-02 
2298	 4.13102616376659E-02 
2299	 4.13247692941851E-02 
2300	 4.13015270660495E-02 
2301	 0.041374582901463 
2302	 4.16082669272004E-02 
2303	 0.041706799889766 
2304	 4.18329509431387E-02 
2305	 4.18265733331717E-02 
2306	 0.04168236475151 
2307	 4.15926514302993E-02 
2308	 4.14156079610239E-02 
2309	 4.13309356213141E-02 
2310	 0.041275269170629 
2311	 0.041270144381199 
2312	 4.13224600265615E-02 
2313	 4.13757928613004E-02 
2314	 4.15189347083974E-02 
2315	 4.15588196355634E-02 
2316	 0.041506586531855 
2317	 4.16072743436817E-02 
2318	 4.17697008354302E-02 
2319	 4.18123025563501E-02 
2320	 4.18945416457648E-02 
2321	 4.19688385412722E-02 
2322	 4.19854901722228E-02 
2323	 0.041973396204852 
2324	 4.20136835643436E-02 
2325	 4.19564824192702E-02 
2326	 4.16111331561175E-02 
2327	 4.15103572655265E-02 
2328	 4.16035070836317E-02 
2329	 0.041605495314875 
2330	 0.041626442400081 
2331	 4.17913644586369E-02 
2332	 4.17008101333419E-02 
2333	 4.15578405939735E-02 
2334	 0.041614453862448 
2335	 4.15632087134743E-02 
2336	 4.16068484560506E-02 
2337	 4.17700619253262E-02 
2338	 4.16745179527033E-02 
2339	 4.16962481524836E-02 
2340	 4.18599335094684E-02 
2341	 4.17372771281723E-02 
2342	 4.16609644445957E-02 
2343	 4.16083808587031E-02 
2344	 4.13772790215321E-02 
2345	 4.13581519175938E-02 
2346	 0.041598555991964 
2347	 4.17686105150888E-02 
2348	 0.042000785270281 
2349	 4.22708324378088E-02 
2350	 4.21838875607912E-02 
2351	 4.20568158379924E-02 
2352	 0.042167535805294 
2353	 4.21658092699099E-02 
2354	 4.22841710118319E-02 
2355	 4.25711386991618E-02 
2356	 4.26294458631726E-02 
2357	 4.25145946287009E-02 
2358	 4.23039462741289E-02 
2359	 4.21737603363037E-02 
2360	 4.20412605046165E-02 
2361	 4.18635119902535E-02 
2362	 4.17946929533363E-02 
2363	 4.16608899689209E-02 
2364	 4.14317375297211E-02 
2365	 4.14236275407947E-02 
2366	 4.15244306136592E-02 
2367	 4.16635966603725E-02 
2368	 4.21137486492964E-02 
2369	 4.22830876156583E-02 
2370	 0.042314560086755 
2371	 4.23166597171588E-02 
2372	 4.20534949242307E-02 
2373	 4.20438111595229E-02 
2374	 4.21073538978057E-02 
2375	 4.23522067351762E-02 
2376	 4.26172329188275E-02 
2377	 4.26313605327229E-02 
2378	 4.25497312937456E-02 
2379	 4.23078819153805E-02 
2380	 4.21743225393951E-02 
2381	 4.20949459655909E-02 
2382	 4.20890806909382E-02 
2383	 4.23818618051885E-02 
2384	 4.23536197280042E-02 
2385	 0.0421026212013 
2386	 4.20573569286053E-02 
2387	 4.19073732595688E-02 
2388	 4.17987816225058E-02 
2389	 4.18278745723344E-02 
2390	 4.20010290257618E-02 
2391	 4.23036525813673E-02 
2392	 4.23113059834492E-02 
2393	 0.042364549114195 
2394	 4.23219781804255E-02 
2395	 4.20029183700082E-02 
2396	 0.041834452595171 
2397	 4.18606566507447E-02 
2398	 4.16798724494525E-02 
2399	 4.10504207263962E-02 
2400	 4.09939484647805E-02 
2401	 4.13063958713746E-02 
2402	 4.14001421863438E-02 
2403	 0.041679810772426 
2404	 4.18388810702041E-02 
2405	 4.16965707276219E-02 
2406	 4.17288834554012E-02 
2407	 0.041641411314444 
2408	 4.16004949018278E-02 
2409	 4.19036110455172E-02 
2410	 4.19725009523523E-02 
2411	 4.21448500470767E-02 
2412	 4.21293081419121E-02 
2413	 4.19348217382387E-02 
2414	 4.20149855027168E-02 
2415	 4.19947441532676E-02 
2416	 4.24478675760185E-02 
2417	 4.27595833671142E-02 
2418	 4.22885833436362E-02 
2419	 4.19781228954639E-02 
2420	 4.14672397277675E-02 
2421	 4.06247131534895E-02 
2422	 4.09973843308149E-02 
2423	 4.21455069921493E-02 
2424	 4.27379372654576E-02 
2425	 0.043193095681058 
2426	 4.27233184760903E-02 
2427	 4.17689255265576E-02 
2428	 4.13537791637195E-02 
2429	 0.04116019192097 
2430	 4.16432289306797E-02 
2431	 4.19041776102692E-02 
2432	 0.041600144849693 
2433	 4.13988968623748E-02 
2434	 4.09374572966723E-02 
2435	 4.06853236379116E-02 
2436	 4.13473265744068E-02 
2437	 4.19418578439202E-02 
2438	 4.22185200221298E-02 
2439	 4.26462087500034E-02 
2440	 4.25722994933457E-02 
2441	 4.23091080129738E-02 
2442	 4.24246580374132E-02 
2443	 4.23732206799986E-02 
2444	 4.18522414070915E-02 
2445	 4.15925306471053E-02 
2446	 0.041493457657585 
2447	 4.17027168265955E-02 
2448	 4.25160246022639E-02 
2449	 4.31224804487077E-02 
2450	 4.38280084171277E-02 
2451	 4.37777699855933E-02 
2452	 4.25535041872057E-02 
2453	 4.22715053221921E-02 
2454	 4.19779397261758E-02 
2455	 0.041385885915752 
2456	 4.25151677672072E-02 
2457	 4.25063338323932E-02 
2458	 4.14032888631253E-02 
2459	 4.14756247111257E-02 
2460	 4.07857904788856E-02 
2461	 4.06189827143601E-02 
2462	 0.041763706523154 
2463	 4.21342656022435E-02 
2464	 4.20089362762788E-02 
2465	 0.041644954923137 
2466	 4.10587616398745E-02 
2467	 4.11412629625499E-02 
2468	 4.16529780381706E-02 
2469	 0.042003983579546 
2470	 4.20755922079092E-02 
2471	 4.18385107385411E-02 
2472	 4.13471030267962E-02 
2473	 4.10450719951999E-02 
2474	 4.09011595921486E-02 
2475	 0.040447603076358 
2476	 4.06702667357029E-02 
2477	 4.12746210224132E-02 
2478	 4.16010450652918E-02 
2479	 4.19758202188902E-02 
2480	 4.07805298809158E-02 
2481	 4.03255303009068E-02 
2482	 3.94295539557105E-02 
2483	 3.91736074211213E-02 
2484	 3.94834877219637E-02 
2485	 3.99301585503013E-02 
2486	 4.11442001024601E-02 
2487	 4.16490446187282E-02 
2488	 4.21208102060023E-02 
2489	 4.30076330712538E-02 
2490	 4.27417110460757E-02 
2491	 4.19541065490572E-02 
2492	 4.20817356776202E-02 
2493	 4.25811656018182E-02 
2494	 4.24810751950812E-02 
2495	 4.23320719912728E-02 
2496	 4.25184268276546E-02 
2497	 4.14302269717746E-02 
2498	 4.05804040223141E-02 
2499	 4.16538066073848E-02 
2500	 4.14698726734234E-02 
