Wavelength	Tablay400121.asd
350	 0.119720259711536 
351	 9.59259673636807E-02 
352	 0.11283444776331 
353	 0.186519844064622 
354	 0.170768816357323 
355	 9.93617686145192E-02 
356	 8.88377992099033E-02 
357	 0.190383916349415 
358	 0.196282742940754 
359	 0.150816371516872 
360	 9.71183830711405E-02 
361	 8.19671825349044E-02 
362	 9.09004957727302E-02 
363	 7.39786353345226E-02 
364	 3.90755773986456E-02 
365	 8.40712724511972E-02 
366	 0.049618809234332 
367	 1.32583177717655E-02 
368	 5.17301250379673E-02 
369	 9.67008697195195E-02 
370	 6.98307092734186E-02 
371	 2.81287638397236E-02 
372	 9.87558263356162E-02 
373	 0.165466606379595 
374	 0.125577108815009 
375	 0.011121071362768 
376	 6.63136296956093E-02 
377	 7.79416681258545E-02 
378	 7.69436858969708E-02 
379	 0.11545571237778 
380	 0.104768026211985 
381	 0.103805235719253 
382	 0.114215894187395 
383	 0.105510857636028 
384	 0.104688605888057 
385	 9.35022213678482E-02 
386	 7.30032758358067E-02 
387	 8.34106768641554E-02 
388	 6.06542153994966E-02 
389	 2.95928927108406E-02 
390	 2.95893449788704E-02 
391	 0.060778142717688 
392	 8.06351769120222E-02 
393	 8.21961785115102E-02 
394	 8.01484362824497E-02 
395	 0.07778138284806 
396	 0.070455463732257 
397	 6.23642603425712E-02 
398	 7.52830553868678E-02 
399	 8.00010988563849E-02 
400	 8.23591369267241E-02 
401	 9.02930586290002E-02 
402	 7.23003034851109E-02 
403	 7.76885979337258E-02 
404	 9.60742546774906E-02 
405	 7.82896512121855E-02 
406	 7.67853043336697E-02 
407	 8.13229780414958E-02 
408	 7.73924784676896E-02 
409	 5.56318548867065E-02 
410	 5.63707477598802E-02 
411	 7.13531679526137E-02 
412	 7.79745506105171E-02 
413	 6.74466161345148E-02 
414	 5.51090716946412E-02 
415	 5.52769199879976E-02 
416	 7.66933549050464E-02 
417	 7.30964336386477E-02 
418	 6.65905547012767E-02 
419	 7.36609971453665E-02 
420	 7.10394969700619E-02 
421	 6.40462831627703E-02 
422	 6.33089151728358E-02 
423	 7.57326039771849E-02 
424	 6.98202119937192E-02 
425	 6.29053492534372E-02 
426	 6.28570128072154E-02 
427	 6.29929170083841E-02 
428	 6.34461283047787E-02 
429	 6.14289706508198E-02 
430	 5.73960176366598E-02 
431	 6.27175609397101E-02 
432	 6.65015169605005E-02 
433	 6.66143506059107E-02 
434	 6.59780914871875E-02 
435	 6.69236633781017E-02 
436	 6.42047148949902E-02 
437	 5.90473276727475E-02 
438	 6.36043289260589E-02 
439	 0.060398770707164 
440	 5.66367218874337E-02 
441	 6.11055622880314E-02 
442	 5.96370503803846E-02 
443	 5.90842710512072E-02 
444	 6.03382377488786E-02 
445	 5.95190740375839E-02 
446	 5.88298526294899E-02 
447	 5.90387463220257E-02 
448	 5.98843225477924E-02 
449	 5.93860089436771E-02 
450	 5.89262571747105E-02 
451	 6.02364035259145E-02 
452	 6.35869140133252E-02 
453	 6.02549742894311E-02 
454	 5.71949168059994E-02 
455	 5.75146504912874E-02 
456	 5.90742576000501E-02 
457	 5.92774430183118E-02 
458	 5.81151428067477E-02 
459	 5.70330165308596E-02 
460	 6.00149536770004E-02 
461	 0.060357206680166 
462	 5.80637938269933E-02 
463	 5.67698226856275E-02 
464	 5.71557023952375E-02 
465	 5.70451192412596E-02 
466	 5.58512285931579E-02 
467	 5.57920171239815E-02 
468	 5.64946698138943E-02 
469	 5.77198187818392E-02 
470	 5.86975511840052E-02 
471	 5.62934826922285E-02 
472	 5.64065036224804E-02 
473	 5.81601522060381E-02 
474	 5.59089429786117E-02 
475	 0.056519175660719 
476	 5.64542367955738E-02 
477	 5.41042180374567E-02 
478	 5.55389466653372E-02 
479	 5.58505204962171E-02 
480	 5.54879514994971E-02 
481	 5.61076495338407E-02 
482	 0.053549968886749 
483	 5.37124514508734E-02 
484	 5.65947644755582E-02 
485	 5.52124355640394E-02 
486	 5.40002885784883E-02 
487	 5.38007993320656E-02 
488	 5.42685845359332E-02 
489	 5.37008667177456E-02 
490	 0.055364494961588 
491	 5.71756754436563E-02 
492	 0.054848946053207 
493	 5.37256661952885E-02 
494	 5.41950943432322E-02 
495	 5.51003718828992E-02 
496	 5.37493031648173E-02 
497	 5.38213518962002E-02 
498	 5.42708935885003E-02 
499	 0.053348997583092 
500	 5.27781555937396E-02 
501	 5.29516958967976E-02 
502	 5.36159716421144E-02 
503	 5.40106301080137E-02 
504	 5.35890756525131E-02 
505	 5.30985822110921E-02 
506	 5.31358406677134E-02 
507	 5.33883798126936E-02 
508	 5.38376591279376E-02 
509	 5.41388626899446E-02 
510	 5.39069172819129E-02 
511	 5.34319131583138E-02 
512	 0.052840486026171 
513	 5.24451322619073E-02 
514	 5.28197838522633E-02 
515	 0.052371109132781 
516	 5.21036012138623E-02 
517	 5.27651116516242E-02 
518	 5.17829566995182E-02 
519	 5.15461697772373E-02 
520	 5.21362623550879E-02 
521	 0.052079135297819 
522	 5.17067226180716E-02 
523	 5.15761162044518E-02 
524	 5.19449364915606E-02 
525	 5.25483088992708E-02 
526	 5.23506171283948E-02 
527	 5.18443188125643E-02 
528	 0.051944667603588 
529	 5.25958984933707E-02 
530	 5.24901943003193E-02 
531	 5.17011629884219E-02 
532	 5.17586719439712E-02 
533	 5.21800310147807E-02 
534	 0.052151939135447 
535	 0.051438368386507 
536	 0.051643529384184 
537	 5.18732836370425E-02 
538	 5.18810793902946E-02 
539	 5.17869600751199E-02 
540	 5.16136922508245E-02 
541	 5.12575697129309E-02 
542	 5.09015421123856E-02 
543	 0.051232735791299 
544	 5.13410293373993E-02 
545	 5.11248649598457E-02 
546	 5.08391014478644E-02 
547	 5.11173976901602E-02 
548	 5.12787138849745E-02 
549	 5.11343690268241E-02 
550	 5.09860987963614E-02 
551	 5.11955997802712E-02 
552	 5.11328488293137E-02 
553	 5.05936279261982E-02 
554	 0.050955783393137 
555	 5.09590453234053E-02 
556	 5.06934357973479E-02 
557	 5.08050177765748E-02 
558	 5.10297638042641E-02 
559	 5.09192862178385E-02 
560	 5.05438136088739E-02 
561	 5.06995251148508E-02 
562	 5.08709695550186E-02 
563	 5.09345480282354E-02 
564	 5.09093994051319E-02 
565	 5.09596187350537E-02 
566	 5.09111542104979E-02 
567	 0.05073912751686 
568	 5.05607001042899E-02 
569	 5.08005989276443E-02 
570	 5.08366690640273E-02 
571	 5.04092311156261E-02 
572	 5.03135645708265E-02 
573	 5.04294892427303E-02 
574	 5.06113849630576E-02 
575	 5.06971277167604E-02 
576	 5.07067656348821E-02 
577	 5.05408258566057E-02 
578	 5.03048665743144E-02 
579	 5.03285676835793E-02 
580	 0.050546890960737 
581	 5.06868308720107E-02 
582	 5.05615242118693E-02 
583	 5.03628039866251E-02 
584	 5.03823671502798E-02 
585	 5.05959248307872E-02 
586	 5.07644593280436E-02 
587	 5.06616843655974E-02 
588	 5.05668367264681E-02 
589	 5.05931866725581E-02 
590	 5.04807974901332E-02 
591	 5.03799540110409E-02 
592	 5.03657400563029E-02 
593	 5.04596665082075E-02 
594	 5.05587414820527E-02 
595	 5.06959398727774E-02 
596	 5.07452123488257E-02 
597	 5.04791432494755E-02 
598	 5.04046898865469E-02 
599	 5.04411108067219E-02 
600	 5.04378496185552E-02 
601	 5.03388986356964E-02 
602	 5.02528206679281E-02 
603	 5.02789515969047E-02 
604	 5.04520563698472E-02 
605	 0.050430774397316 
606	 5.04505816231463E-02 
607	 5.05541928095663E-02 
608	 5.04909770853744E-02 
609	 0.050321046541209 
610	 0.050167909231299 
611	 5.01473090187533E-02 
612	 5.02971246410938E-02 
613	 5.04705230886536E-02 
614	 5.05481947455013E-02 
615	 5.04552195337627E-02 
616	 5.02975074930688E-02 
617	 5.02001564707222E-02 
618	 5.02132706159025E-02 
619	 0.050268284447267 
620	 5.02093083562801E-02 
621	 5.01552556055305E-02 
622	 5.02535703239497E-02 
623	 5.03082595787742E-02 
624	 0.050271071683405 
625	 5.01929193630156E-02 
626	 5.02011081339271E-02 
627	 5.01753784298167E-02 
628	 5.01500412472319E-02 
629	 0.050162547844805 
630	 5.01932484505202E-02 
631	 5.01959860606528E-02 
632	 5.01913768094749E-02 
633	 5.01935986950667E-02 
634	 4.99088413439967E-02 
635	 4.98892046386377E-02 
636	 5.01635331600211E-02 
637	 5.00451190707233E-02 
638	 5.00582988949111E-02 
639	 5.01109130434407E-02 
640	 5.00698120412933E-02 
641	 5.01770824784682E-02 
642	 5.01424271714133E-02 
643	 0.049989446513313 
644	 0.04993458873225 
645	 5.00101156979986E-02 
646	 5.01124159414115E-02 
647	 5.01345136743961E-02 
648	 4.99873896175419E-02 
649	 4.99473507325395E-02 
650	 4.99411862413186E-02 
651	 4.98439358578597E-02 
652	 4.97943706084076E-02 
653	 4.98801257987998E-02 
654	 5.00137172838132E-02 
655	 4.99871954841915E-02 
656	 4.99468004981129E-02 
657	 4.99481816008887E-02 
658	 4.99792758970292E-02 
659	 4.99047272949954E-02 
660	 4.99520026926737E-02 
661	 4.99625608782595E-02 
662	 4.97652806384451E-02 
663	 4.99504790691898E-02 
664	 5.00786866954261E-02 
665	 5.00020855427201E-02 
666	 4.99275769195947E-02 
667	 0.04990718706712 
668	 4.99269057061346E-02 
669	 4.99487622848379E-02 
670	 0.049930714658875 
671	 4.98511702503363E-02 
672	 0.049754084288868 
673	 4.97170138456676E-02 
674	 4.98051545717749E-02 
675	 4.99041504556325E-02 
676	 4.99544584320714E-02 
677	 4.99821222374853E-02 
678	 4.99321918289662E-02 
679	 4.98310265608588E-02 
680	 4.97303143122856E-02 
681	 4.96845720573334E-02 
682	 4.97310285239075E-02 
683	 4.97959387080056E-02 
684	 4.97638472102355E-02 
685	 4.97206486777633E-02 
686	 0.049705318728171 
687	 4.97134433976806E-02 
688	 4.96869303215262E-02 
689	 4.97387520834397E-02 
690	 0.049772343914475 
691	 0.049697691150437 
692	 4.96301323487337E-02 
693	 4.96377500955848E-02 
694	 0.049678817250187 
695	 4.96647475380386E-02 
696	 4.98065194057147E-02 
697	 4.98161300833038E-02 
698	 4.96223944004089E-02 
699	 4.95671242320052E-02 
700	 4.97499072147679E-02 
701	 4.99029478089974E-02 
702	 4.97784588583991E-02 
703	 4.96355197587494E-02 
704	 4.95819212529145E-02 
705	 4.96446491557727E-02 
706	 4.97680486252371E-02 
707	 4.97034734898981E-02 
708	 4.96621473110985E-02 
709	 0.049743924371619 
710	 4.97622181435554E-02 
711	 4.97660807640928E-02 
712	 4.97606485932069E-02 
713	 4.97430969528376E-02 
714	 4.97118903283257E-02 
715	 0.049690832265154 
716	 4.97003118967966E-02 
717	 4.97424424005472E-02 
718	 4.96481699329185E-02 
719	 0.049677201963059 
720	 4.98402000168359E-02 
721	 4.96204069555341E-02 
722	 4.96945162448754E-02 
723	 4.98499869030891E-02 
724	 4.97630077902626E-02 
725	 4.97928990548946E-02 
726	 4.98358445375456E-02 
727	 4.98545723935452E-02 
728	 4.98685935984641E-02 
729	 4.99186779717987E-02 
730	 4.99415120808176E-02 
731	 4.99055006381811E-02 
732	 4.98500363513194E-02 
733	 4.98253855363421E-02 
734	 0.049826789687506 
735	 4.98498851309623E-02 
736	 4.99879269383879E-02 
737	 4.99937553142789E-02 
738	 4.98813948663222E-02 
739	 4.98441740428391E-02 
740	 4.99574970089075E-02 
741	 5.00633481451114E-02 
742	 5.00708237458504E-02 
743	 5.00332708083045E-02 
744	 5.00592923335314E-02 
745	 5.01338378340719E-02 
746	 5.01901112802826E-02 
747	 5.01209349508486E-02 
748	 5.00628726102018E-02 
749	 5.00588885624327E-02 
750	 5.00881535702847E-02 
751	 0.05012505020438 
752	 0.050113898602558 
753	 5.00864117280454E-02 
754	 5.01822104448985E-02 
755	 5.01952434968911E-02 
756	 5.01454887034405E-02 
757	 5.01104121382178E-02 
758	 5.01715192766788E-02 
759	 5.02224059587462E-02 
760	 0.050197303978382 
761	 5.00970789656305E-02 
762	 5.01899488122812E-02 
763	 5.02274859658404E-02 
764	 5.01478853608729E-02 
765	 5.01256926523058E-02 
766	 5.01632016938925E-02 
767	 5.01764987748387E-02 
768	 5.01325720675312E-02 
769	 5.01567036630219E-02 
770	 5.02127133257797E-02 
771	 5.02506570291811E-02 
772	 5.02309072062866E-02 
773	 5.01891659443699E-02 
774	 5.02645200222191E-02 
775	 5.03721158102091E-02 
776	 5.02773480986619E-02 
777	 5.02554127009756E-02 
778	 5.02534587002623E-02 
779	 5.02286459550847E-02 
780	 5.02367518938172E-02 
781	 5.02317989845747E-02 
782	 5.02385817585624E-02 
783	 5.02783852141567E-02 
784	 0.05029590069262 
785	 5.02587551034286E-02 
786	 5.02475741320478E-02 
787	 5.03623176869282E-02 
788	 5.03372450912846E-02 
789	 5.03537656312789E-02 
790	 5.04134418075024E-02 
791	 5.02736727521612E-02 
792	 0.050194231704548 
793	 5.02466586359404E-02 
794	 5.03738508679979E-02 
795	 5.03116469522977E-02 
796	 5.02706692055206E-02 
797	 5.02747421656434E-02 
798	 5.02811668913668E-02 
799	 5.02758792507529E-02 
800	 5.02621607036415E-02 
801	 5.02485744141152E-02 
802	 5.02473181905727E-02 
803	 5.02747485744819E-02 
804	 5.02886768093898E-02 
805	 5.02773575784986E-02 
806	 5.02854679304105E-02 
807	 5.02135753214907E-02 
808	 0.050192005692765 
809	 5.02876157391487E-02 
810	 5.02027949268509E-02 
811	 5.02056089480987E-02 
812	 5.02662594565492E-02 
813	 5.02539419751069E-02 
814	 5.03010850308814E-02 
815	 0.050250008387801 
816	 5.01606232902553E-02 
817	 5.02617346666144E-02 
818	 0.050249171520402 
819	 0.050177523746577 
820	 5.01350458949162E-02 
821	 5.01687195690245E-02 
822	 5.02971609835364E-02 
823	 5.03099743420721E-02 
824	 0.050123662085853 
825	 5.02234343617001E-02 
826	 5.03127518696332E-02 
827	 0.050330744147262 
828	 5.03199726951304E-02 
829	 5.02419730554439E-02 
830	 5.01592957590263E-02 
831	 0.050167986701501 
832	 5.03411312038966E-02 
833	 5.02492805406513E-02 
834	 5.02044647863245E-02 
835	 5.03298681811505E-02 
836	 5.02940677727342E-02 
837	 5.03726908259977E-02 
838	 5.04334413459964E-02 
839	 5.03616633784134E-02 
840	 0.05036747328295 
841	 5.04121765003303E-02 
842	 5.04275951555583E-02 
843	 5.03740261287439E-02 
844	 5.04299175432856E-02 
845	 5.04641126213173E-02 
846	 5.04315361573493E-02 
847	 5.03747666170651E-02 
848	 5.04030477017221E-02 
849	 5.04731806161035E-02 
850	 5.05053851725262E-02 
851	 5.04133603540258E-02 
852	 5.03971911510141E-02 
853	 5.03994363784841E-02 
854	 5.03778777375263E-02 
855	 5.04481608493192E-02 
856	 5.03897337480147E-02 
857	 0.050349435966475 
858	 5.04605408333884E-02 
859	 5.03664132275691E-02 
860	 5.03060585310475E-02 
861	 5.03996829911772E-02 
862	 0.050608188907146 
863	 5.04094571572431E-02 
864	 5.03427079924127E-02 
865	 5.04787059309331E-02 
866	 5.04458114568162E-02 
867	 0.05034232279312 
868	 5.03320897763708E-02 
869	 5.04361505406536E-02 
870	 5.04715289328267E-02 
871	 5.05186122434671E-02 
872	 5.05221756413608E-02 
873	 0.050466749961784 
874	 5.04746811082341E-02 
875	 5.05407421002902E-02 
876	 5.06088298552913E-02 
877	 5.06271664512015E-02 
878	 5.06301220907885E-02 
879	 5.06287585578361E-02 
880	 5.05933942074356E-02 
881	 5.05172462232285E-02 
882	 5.06323512460369E-02 
883	 5.06396749683688E-02 
884	 5.05588781563144E-02 
885	 5.06383742179214E-02 
886	 5.06835056791105E-02 
887	 5.07269855477593E-02 
888	 5.07275299000638E-02 
889	 5.05606161843032E-02 
890	 5.05866033310431E-02 
891	 5.06249959281652E-02 
892	 5.05770199641714E-02 
893	 5.06504203457509E-02 
894	 5.06890368448358E-02 
895	 5.06837660192942E-02 
896	 5.06448022704515E-02 
897	 5.05161001561238E-02 
898	 5.05418293082999E-02 
899	 5.06101567618241E-02 
900	 5.05669361039101E-02 
901	 5.06072008133633E-02 
902	 5.06693877530932E-02 
903	 5.06717670344305E-02 
904	 5.05713359752084E-02 
905	 5.05461861681926E-02 
906	 5.06397008578264E-02 
907	 5.07379745264661E-02 
908	 0.050670855574233 
909	 5.06834335698339E-02 
910	 5.07279781677938E-02 
911	 5.07098039748119E-02 
912	 5.05516922079961E-02 
913	 5.05355831223684E-02 
914	 5.06549512381325E-02 
915	 5.08183328755507E-02 
916	 5.08936670925268E-02 
917	 5.08118862984485E-02 
918	 5.07359160416741E-02 
919	 5.07437562933641E-02 
920	 5.06645592542597E-02 
921	 5.07260074900063E-02 
922	 5.08097890233841E-02 
923	 5.07983781287358E-02 
924	 0.050811462000622 
925	 5.08078007852887E-02 
926	 5.08158086409315E-02 
927	 5.08766474477633E-02 
928	 5.10301410552137E-02 
929	 5.09424920689021E-02 
930	 5.08047260537038E-02 
931	 5.08882607129207E-02 
932	 5.07561726366732E-02 
933	 5.07577105981957E-02 
934	 5.07934001016359E-02 
935	 5.06367971549783E-02 
936	 5.08402236975505E-02 
937	 5.09519756885481E-02 
938	 5.09175479159932E-02 
939	 5.09719660559936E-02 
940	 5.10135365736747E-02 
941	 5.11239013390761E-02 
942	 5.11664481991949E-02 
943	 5.09146577209866E-02 
944	 5.10943665392746E-02 
945	 5.11311881299345E-02 
946	 5.09303395541044E-02 
947	 5.10133951910248E-02 
948	 5.11717011706719E-02 
949	 5.12404939253353E-02 
950	 5.11654614016109E-02 
951	 5.10431224639489E-02 
952	 0.051173565657606 
953	 5.11037782582785E-02 
954	 5.08461016583979E-02 
955	 5.12180137573341E-02 
956	 5.12702839695758E-02 
957	 5.11880839945967E-02 
958	 5.12261743848896E-02 
959	 5.13343552166277E-02 
960	 5.13439704793229E-02 
961	 5.12334633024118E-02 
962	 5.11029635257169E-02 
963	 5.11881973018682E-02 
964	 5.14268493648409E-02 
965	 5.13963081736116E-02 
966	 5.10144332249784E-02 
967	 5.11299247584301E-02 
968	 0.051164310355196 
969	 5.10551538710332E-02 
970	 5.09553697501007E-02 
971	 5.11726018118801E-02 
972	 5.13526064832005E-02 
973	 5.13755309039876E-02 
974	 5.12556864488528E-02 
975	 5.11330683559829E-02 
976	 5.10891172891054E-02 
977	 5.10406920564574E-02 
978	 5.09237968471105E-02 
979	 5.09085762925848E-02 
980	 5.09751069076915E-02 
981	 5.10094778038144E-02 
982	 5.10312122172739E-02 
983	 5.16687958809193E-02 
984	 5.13540394339708E-02 
985	 5.08991486895682E-02 
986	 5.13494259577295E-02 
987	 5.15395171845249E-02 
988	 0.051643083564505 
989	 0.051615675952662 
990	 5.14237323104056E-02 
991	 5.11823816132727E-02 
992	 0.051467750469194 
993	 5.18027127929682E-02 
994	 0.051599624059267 
995	 5.12786741031264E-02 
996	 5.12472008561096E-02 
997	 5.13246672854352E-02 
998	 5.12670028651542E-02 
999	 5.14648000724531E-02 
1000	 5.14576952314399E-02 
1001	 5.25034355211096E-02 
1002	 5.26103070594342E-02 
1003	 0.052813491938177 
1004	 5.28075232976461E-02 
1005	 5.26484743094086E-02 
1006	 5.26310218826933E-02 
1007	 5.26020010496044E-02 
1008	 5.26037935373728E-02 
1009	 5.26799552018266E-02 
1010	 5.27085162744468E-02 
1011	 5.26588111156236E-02 
1012	 5.26874379076187E-02 
1013	 5.27884100752517E-02 
1014	 5.28717847860274E-02 
1015	 5.30153034311314E-02 
1016	 5.31168838281056E-02 
1017	 5.30658372554583E-02 
1018	 5.29749664964857E-02 
1019	 5.29748839364366E-02 
1020	 5.28479689750231E-02 
1021	 5.28755929156878E-02 
1022	 5.31026350130438E-02 
1023	 5.31654607761626E-02 
1024	 5.32796190774883E-02 
1025	 5.32541276216855E-02 
1026	 5.29839020565284E-02 
1027	 5.29085485039554E-02 
1028	 5.28925151761776E-02 
1029	 5.27813669062495E-02 
1030	 5.27126700378034E-02 
1031	 5.28155531495267E-02 
1032	 5.27565668265028E-02 
1033	 5.27177223205111E-02 
1034	 5.28343578931832E-02 
1035	 5.29196687003154E-02 
1036	 5.29583104922394E-02 
1037	 5.30013634577511E-02 
1038	 5.29589466952219E-02 
1039	 5.27959170403566E-02 
1040	 5.27577922829862E-02 
1041	 5.26852549422815E-02 
1042	 5.26605929762578E-02 
1043	 5.27008194044432E-02 
1044	 0.052864342759736 
1045	 5.28825905254977E-02 
1046	 5.28047946574043E-02 
1047	 5.27822165972864E-02 
1048	 5.27939908254043E-02 
1049	 5.26226209819775E-02 
1050	 5.25681722970693E-02 
1051	 5.27142283943984E-02 
1052	 5.26756322023756E-02 
1053	 5.26182430676169E-02 
1054	 5.25769153780821E-02 
1055	 5.25946336224687E-02 
1056	 5.25491950313453E-02 
1057	 5.25149855652351E-02 
1058	 5.25494306579479E-02 
1059	 5.25998119822181E-02 
1060	 5.25197919022176E-02 
1061	 5.25469089521748E-02 
1062	 5.27727792760818E-02 
1063	 5.30050315259428E-02 
1064	 5.30557031706645E-02 
1065	 5.31099673688506E-02 
1066	 5.30889340973225E-02 
1067	 5.27876656471606E-02 
1068	 5.27883838727715E-02 
1069	 5.29837827638301E-02 
1070	 5.30368821506808E-02 
1071	 0.052998008585349 
1072	 5.32117105964093E-02 
1073	 5.33406519120046E-02 
1074	 5.32286675343119E-02 
1075	 5.32211465517473E-02 
1076	 0.053219461449746 
1077	 5.31634835277602E-02 
1078	 0.05318921892897 
1079	 5.32831950352952E-02 
1080	 5.32257389298543E-02 
1081	 0.053217419497607 
1082	 5.32805831322845E-02 
1083	 0.053198962208185 
1084	 5.31825273955292E-02 
1085	 5.32486938391302E-02 
1086	 5.33476597865509E-02 
1087	 5.34488747582232E-02 
1088	 5.35654039679681E-02 
1089	 5.36501435741465E-02 
1090	 5.36915217018575E-02 
1091	 5.35898865587138E-02 
1092	 5.34131033472478E-02 
1093	 5.34132486894771E-02 
1094	 5.35604671442759E-02 
1095	 5.37212373439447E-02 
1096	 5.39080112998376E-02 
1097	 5.39894992014388E-02 
1098	 5.38802636036868E-02 
1099	 5.37910151063178E-02 
1100	 0.053752647086111 
1101	 5.37083512600863E-02 
1102	 0.053801750848724 
1103	 5.38360253510408E-02 
1104	 5.38675179403643E-02 
1105	 5.37794105985293E-02 
1106	 0.053757363153401 
1107	 5.37326845621968E-02 
1108	 5.36772578053774E-02 
1109	 5.37133036815415E-02 
1110	 5.37869067002838E-02 
1111	 5.37921247620864E-02 
1112	 5.37758890617199E-02 
1113	 5.38175743663658E-02 
1114	 5.38339467976973E-02 
1115	 5.37564452539594E-02 
1116	 5.37016792937701E-02 
1117	 5.36945201310756E-02 
1118	 5.36905071920256E-02 
1119	 5.37408469690165E-02 
1120	 5.37315463616437E-02 
1121	 5.37300114214058E-02 
1122	 5.36466385990615E-02 
1123	 5.35655081162659E-02 
1124	 5.34842108273733E-02 
1125	 5.34804684373962E-02 
1126	 5.35489148388284E-02 
1127	 5.35516269855658E-02 
1128	 0.053560029744492 
1129	 5.35576692155089E-02 
1130	 5.34650608870775E-02 
1131	 0.053391429329338 
1132	 5.33731434612997E-02 
1133	 5.33627036656032E-02 
1134	 5.33085473870729E-02 
1135	 0.053278071235206 
1136	 5.32671238191837E-02 
1137	 5.32429070183834E-02 
1138	 5.32193263169732E-02 
1139	 5.32144198380489E-02 
1140	 5.32267360486033E-02 
1141	 0.053173206293097 
1142	 5.31911506206476E-02 
1143	 5.32220696642961E-02 
1144	 5.32347875432353E-02 
1145	 5.32589131228792E-02 
1146	 5.32436852630171E-02 
1147	 5.31570273698844E-02 
1148	 5.31340076510862E-02 
1149	 5.31286008698035E-02 
1150	 0.053123821018804 
1151	 5.31639856524699E-02 
1152	 5.31601473568049E-02 
1153	 5.30925724177913E-02 
1154	 5.31025518771979E-02 
1155	 5.31717538363707E-02 
1156	 5.31810155468134E-02 
1157	 5.32070785938477E-02 
1158	 5.32109379197496E-02 
1159	 5.31910466700984E-02 
1160	 5.30905835387457E-02 
1161	 5.30516164992003E-02 
1162	 5.30397581077946E-02 
1163	 5.30075406662346E-02 
1164	 5.29572442519741E-02 
1165	 5.29029737769609E-02 
1166	 5.29447078577437E-02 
1167	 5.29668521217488E-02 
1168	 5.30187941919629E-02 
1169	 5.30458956191636E-02 
1170	 5.30405605793999E-02 
1171	 5.30681815358116E-02 
1172	 5.31237145327558E-02 
1173	 5.31387051408216E-02 
1174	 5.31818779083875E-02 
1175	 0.053205034307198 
1176	 5.31351287782992E-02 
1177	 5.31564303286245E-02 
1178	 5.32916748403501E-02 
1179	 5.33072953648283E-02 
1180	 5.32347315325657E-02 
1181	 5.31587760683054E-02 
1182	 5.30563276921549E-02 
1183	 5.30244631129503E-02 
1184	 5.30617098412554E-02 
1185	 5.31575807258102E-02 
1186	 5.32130738788799E-02 
1187	 5.32448452545004E-02 
1188	 5.32572121060576E-02 
1189	 5.32866172623753E-02 
1190	 5.32682359612226E-02 
1191	 5.31723732193122E-02 
1192	 5.31564921169638E-02 
1193	 5.31648167734158E-02 
1194	 5.31656771697282E-02 
1195	 5.31786709793195E-02 
1196	 5.32051735784493E-02 
1197	 5.32277485529611E-02 
1198	 5.32754204377669E-02 
1199	 5.33132393204892E-02 
1200	 5.33904636038021E-02 
1201	 5.34135261812736E-02 
1202	 5.34029811584077E-02 
1203	 5.34195847389814E-02 
1204	 5.33933433842928E-02 
1205	 5.34015300668506E-02 
1206	 5.34309921101836E-02 
1207	 5.34258837608584E-02 
1208	 5.34212338869142E-02 
1209	 5.34171972956275E-02 
1210	 5.33598128448172E-02 
1211	 0.053355547841417 
1212	 5.34087999536266E-02 
1213	 5.34240059444881E-02 
1214	 5.34366450962046E-02 
1215	 5.34403105619727E-02 
1216	 0.053417996985718 
1217	 5.34076271058069E-02 
1218	 5.33675154218051E-02 
1219	 5.34209717971787E-02 
1220	 5.34095093297789E-02 
1221	 5.33618218761938E-02 
1222	 5.34079930101192E-02 
1223	 5.34320095472402E-02 
1224	 5.34508199423521E-02 
1225	 5.35356354543882E-02 
1226	 5.35322202176712E-02 
1227	 5.34401415533442E-02 
1228	 5.34149897045124E-02 
1229	 0.0533651031344 
1230	 5.33830327455993E-02 
1231	 5.34749636082483E-02 
1232	 5.35122670004479E-02 
1233	 5.35761662870201E-02 
1234	 5.36132886804446E-02 
1235	 5.36098577112966E-02 
1236	 0.05360402305474 
1237	 5.35809506956436E-02 
1238	 5.35803616783872E-02 
1239	 5.35687454074261E-02 
1240	 5.35793856960739E-02 
1241	 5.35804674022289E-02 
1242	 5.36058179336318E-02 
1243	 5.36027279052545E-02 
1244	 5.35613819481656E-02 
1245	 5.35670645241157E-02 
1246	 5.35811678672918E-02 
1247	 5.36164620449901E-02 
1248	 5.37154730097772E-02 
1249	 5.37240354780038E-02 
1250	 5.36957162518085E-02 
1251	 5.36840897136592E-02 
1252	 0.053610618822979 
1253	 0.053589884723646 
1254	 5.36487020863825E-02 
1255	 0.05363727615908 
1256	 5.35596659648031E-02 
1257	 5.35467005834571E-02 
1258	 5.35504660613386E-02 
1259	 5.35352609769679E-02 
1260	 5.35577276111157E-02 
1261	 5.35682789696414E-02 
1262	 5.35507812453175E-02 
1263	 5.35225526619911E-02 
1264	 5.35160696939423E-02 
1265	 5.35462749597469E-02 
1266	 5.35250460133668E-02 
1267	 5.34754717113668E-02 
1268	 5.34407879129698E-02 
1269	 5.33865508834955E-02 
1270	 5.33523768369356E-02 
1271	 5.33406332885704E-02 
1272	 5.33147703198045E-02 
1273	 5.32509820569382E-02 
1274	 5.32565772343009E-02 
1275	 0.053305605632063 
1276	 5.33351136385965E-02 
1277	 5.34261669394876E-02 
1278	 5.34597399739749E-02 
1279	 5.34184620051645E-02 
1280	 5.34324877888396E-02 
1281	 5.34808715043962E-02 
1282	 5.34959447800105E-02 
1283	 0.053494144358232 
1284	 5.35242764621459E-02 
1285	 5.35596051026683E-02 
1286	 5.35736517093831E-02 
1287	 5.36100758089514E-02 
1288	 5.37023436925878E-02 
1289	 5.37283914225553E-02 
1290	 5.37023979782728E-02 
1291	 5.37244674043317E-02 
1292	 5.37299105874678E-02 
1293	 5.37923670035239E-02 
1294	 5.39305737040294E-02 
1295	 5.39908944966783E-02 
1296	 5.40496327409014E-02 
1297	 5.40924452391352E-02 
1298	 5.40604134691352E-02 
1299	 5.40913771715774E-02 
1300	 5.41637436512202E-02 
1301	 5.42207357599179E-02 
1302	 5.43081867330271E-02 
1303	 5.43586611472598E-02 
1304	 5.43791721678874E-02 
1305	 5.44102207569272E-02 
1306	 5.44184954555535E-02 
1307	 5.44423719971783E-02 
1308	 5.44564550851561E-02 
1309	 5.45293484106452E-02 
1310	 5.45466282319657E-02 
1311	 5.45446283861243E-02 
1312	 5.45742144947918E-02 
1313	 5.46074475086009E-02 
1314	 5.46224848584556E-02 
1315	 5.46522280013632E-02 
1316	 0.054671804512748 
1317	 5.46765764691811E-02 
1318	 5.46585428450258E-02 
1319	 5.46211646916614E-02 
1320	 5.46194727980585E-02 
1321	 5.46028358841782E-02 
1322	 5.45980674344636E-02 
1323	 5.46444135016891E-02 
1324	 5.46583936032771E-02 
1325	 5.46144501135638E-02 
1326	 5.46321835093692E-02 
1327	 5.47157068320411E-02 
1328	 5.47393373353902E-02 
1329	 5.47936129093484E-02 
1330	 5.47849808302774E-02 
1331	 5.46423478148676E-02 
1332	 5.45981600084907E-02 
1333	 5.45972765226856E-02 
1334	 5.45883734318355E-02 
1335	 5.45456443742645E-02 
1336	 5.45339821543179E-02 
1337	 0.054509275978976 
1338	 0.054412061967263 
1339	 5.44015484560965E-02 
1340	 5.44905097813692E-02 
1341	 5.44619430026618E-02 
1342	 5.43908384944164E-02 
1343	 5.43380794537216E-02 
1344	 5.42207361967228E-02 
1345	 5.41839004879258E-02 
1346	 5.42127977697271E-02 
1347	 5.41956796754275E-02 
1348	 5.41909543262216E-02 
1349	 5.41662838789794E-02 
1350	 5.41077992291098E-02 
1351	 5.40690357006777E-02 
1352	 5.40426341568794E-02 
1353	 5.40054934044712E-02 
1354	 5.39364656052572E-02 
1355	 5.39157269058313E-02 
1356	 5.39339465963716E-02 
1357	 5.39268360432401E-02 
1358	 5.39373036278265E-02 
1359	 5.39459568052832E-02 
1360	 5.39627485697676E-02 
1361	 5.39270322257455E-02 
1362	 5.38976364923922E-02 
1363	 5.38647915011896E-02 
1364	 5.38216979939246E-02 
1365	 5.37405631882017E-02 
1366	 5.36975837720434E-02 
1367	 5.36654420548299E-02 
1368	 5.36516844318961E-02 
1369	 5.36617610680341E-02 
1370	 0.053638917856572 
1371	 5.36328489956004E-02 
1372	 5.35918222057016E-02 
1373	 5.34964451005428E-02 
1374	 5.34491966002627E-02 
1375	 5.34132952464028E-02 
1376	 5.33800704581454E-02 
1377	 0.053365084321665 
1378	 5.33423562253021E-02 
1379	 5.33199093093502E-02 
1380	 0.053289515852536 
1381	 5.32758452400093E-02 
1382	 5.32327179031529E-02 
1383	 0.053129648185463 
1384	 5.30902251549238E-02 
1385	 5.30770730761873E-02 
1386	 5.30506564346721E-02 
1387	 5.30852751194886E-02 
1388	 5.30720055139914E-02 
1389	 0.05299099560253 
1390	 5.29444633838408E-02 
1391	 0.052912096932387 
1392	 5.28682208732919E-02 
1393	 5.27989091866416E-02 
1394	 5.27645305557342E-02 
1395	 5.27271258164985E-02 
1396	 0.052666603903991 
1397	 5.26472078180369E-02 
1398	 0.052686470803981 
1399	 5.26579011086831E-02 
1400	 5.25889955222978E-02 
1401	 5.25702620647882E-02 
1402	 5.25585558352676E-02 
1403	 5.25253785298459E-02 
1404	 5.25047787305074E-02 
1405	 5.25041460529019E-02 
1406	 5.25028294633939E-02 
1407	 5.24631613329649E-02 
1408	 5.24338027051929E-02 
1409	 5.24056679878096E-02 
1410	 0.052298709859256 
1411	 5.22811570411178E-02 
1412	 5.23562176349369E-02 
1413	 0.052375391165696 
1414	 5.24143721791648E-02 
1415	 5.24082772214871E-02 
1416	 5.23290060586914E-02 
1417	 0.052316533914765 
1418	 5.23145249774327E-02 
1419	 5.23220367128829E-02 
1420	 5.24042893527238E-02 
1421	 5.24210845170641E-02 
1422	 5.23887036699997E-02 
1423	 5.23742706430073E-02 
1424	 5.23257452103672E-02 
1425	 5.23037459018369E-02 
1426	 5.23224469354813E-02 
1427	 5.23252975014613E-02 
1428	 5.23418481757879E-02 
1429	 5.23461582538062E-02 
1430	 5.23448167396581E-02 
1431	 5.23160805135639E-02 
1432	 5.23471175338044E-02 
1433	 5.24023234035708E-02 
1434	 0.052442410139234 
1435	 5.25296438204222E-02 
1436	 0.052552926226132 
1437	 5.25292131467225E-02 
1438	 5.25284355363058E-02 
1439	 5.25029919817308E-02 
1440	 5.25145464036007E-02 
1441	 5.25587225587207E-02 
1442	 0.052568512855568 
1443	 5.25887478535109E-02 
1444	 5.25836536984117E-02 
1445	 5.25298071379278E-02 
1446	 5.25186999683006E-02 
1447	 5.25198367427028E-02 
1448	 5.25208067661535E-02 
1449	 5.25378597444284E-02 
1450	 5.25553495915511E-02 
1451	 5.25795859646069E-02 
1452	 5.25917045850904E-02 
1453	 5.26092417829557E-02 
1454	 5.26140094353998E-02 
1455	 5.25931672728005E-02 
1456	 5.25914278649398E-02 
1457	 5.25959097479217E-02 
1458	 5.25969030441995E-02 
1459	 5.26060473793392E-02 
1460	 0.05261116393257 
1461	 5.26175997820993E-02 
1462	 5.26158659718069E-02 
1463	 5.26048302164538E-02 
1464	 0.052598955384155 
1465	 5.25785728625802E-02 
1466	 5.25731282153213E-02 
1467	 0.052607992615355 
1468	 5.26203737750909E-02 
1469	 0.052611837354255 
1470	 5.26523785107485E-02 
1471	 5.26747397655885E-02 
1472	 5.26790457652561E-02 
1473	 5.27066377937545E-02 
1474	 5.27749339374416E-02 
1475	 5.27762795008856E-02 
1476	 5.27466745857835E-02 
1477	 5.27379121583031E-02 
1478	 5.27059829723519E-02 
1479	 5.26790739422852E-02 
1480	 5.26661866308623E-02 
1481	 5.26557264722609E-02 
1482	 5.26103775113631E-02 
1483	 5.26243596460589E-02 
1484	 5.27064638686085E-02 
1485	 5.27220756984364E-02 
1486	 5.27374578540297E-02 
1487	 5.27341864619562E-02 
1488	 5.26702658537714E-02 
1489	 5.26557775497986E-02 
1490	 5.26567126478381E-02 
1491	 0.052674246546306 
1492	 5.27401508808059E-02 
1493	 5.27495539492583E-02 
1494	 5.27363322486798E-02 
1495	 5.27359265080342E-02 
1496	 5.26867915008389E-02 
1497	 5.26927682784293E-02 
1498	 5.27852507537658E-02 
1499	 5.27891098082912E-02 
1500	 5.27514421864554E-02 
1501	 5.27349880054439E-02 
1502	 5.26405627940746E-02 
1503	 0.052631550521113 
1504	 5.27257676677598E-02 
1505	 5.27559572487316E-02 
1506	 5.27970038662283E-02 
1507	 5.28131324448582E-02 
1508	 5.27701337930346E-02 
1509	 5.27532688320974E-02 
1510	 5.27318385177161E-02 
1511	 5.27352742187632E-02 
1512	 5.27887245199293E-02 
1513	 5.27916666961006E-02 
1514	 5.27588165115242E-02 
1515	 5.27595436923367E-02 
1516	 5.27450761475064E-02 
1517	 5.27354225316255E-02 
1518	 5.27674347716654E-02 
1519	 5.27893685792256E-02 
1520	 5.27984699900431E-02 
1521	 5.28075844669419E-02 
1522	 5.27856582063623E-02 
1523	 5.27534047333247E-02 
1524	 5.27295769476053E-02 
1525	 5.26601098409977E-02 
1526	 5.26738251985664E-02 
1527	 5.27531976050647E-02 
1528	 5.27619521788922E-02 
1529	 5.27764287766757E-02 
1530	 5.27718854972784E-02 
1531	 5.27192812539467E-02 
1532	 0.052706588776056 
1533	 5.27153956280432E-02 
1534	 0.05271478752992 
1535	 5.27164451245369E-02 
1536	 5.27080622198624E-02 
1537	 5.26959546433229E-02 
1538	 5.26887917805669E-02 
1539	 5.26667162959159E-02 
1540	 0.052674031629501 
1541	 5.27036620325493E-02 
1542	 5.27203654671818E-02 
1543	 5.27716137447577E-02 
1544	 5.27485917154033E-02 
1545	 5.26611584447755E-02 
1546	 5.26435260530378E-02 
1547	 5.26030486071576E-02 
1548	 5.26071751913109E-02 
1549	 5.26968925668656E-02 
1550	 5.27169010635526E-02 
1551	 5.27028557312452E-02 
1552	 5.27131088669227E-02 
1553	 5.27345593102368E-02 
1554	 0.052718147998401 
1555	 5.26828278900508E-02 
1556	 5.26674426589286E-02 
1557	 5.26242264482563E-02 
1558	 5.26054349887965E-02 
1559	 5.26197341426918E-02 
1560	 5.26263426701816E-02 
1561	 5.26190463854958E-02 
1562	 5.26339017999678E-02 
1563	 5.26951093217874E-02 
1564	 5.27002225640191E-02 
1565	 5.26628423488405E-02 
1566	 5.26705415692511E-02 
1567	 5.26831098262283E-02 
1568	 5.26785859521685E-02 
1569	 5.27137645140654E-02 
1570	 5.27031650194311E-02 
1571	 5.26106465691092E-02 
1572	 5.25921505802493E-02 
1573	 5.26048463580061E-02 
1574	 5.26119363745615E-02 
1575	 5.26608405859672E-02 
1576	 5.26777488702095E-02 
1577	 5.26914934771645E-02 
1578	 5.26724559156635E-02 
1579	 5.25958312153243E-02 
1580	 5.25818774130036E-02 
1581	 5.25702709686993E-02 
1582	 5.25723219707241E-02 
1583	 5.26560741702911E-02 
1584	 5.26685024932566E-02 
1585	 5.26376906089347E-02 
1586	 5.26109533947524E-02 
1587	 0.052536136095758 
1588	 5.25061015874376E-02 
1589	 5.25031237093985E-02 
1590	 5.24883103163784E-02 
1591	 5.24830274142239E-02 
1592	 5.24872620542883E-02 
1593	 5.24856873892062E-02 
1594	 5.24921693669069E-02 
1595	 5.25250342584054E-02 
1596	 5.25458999613972E-02 
1597	 5.25854519578107E-02 
1598	 5.25769390745223E-02 
1599	 5.25236197556287E-02 
1600	 5.24951406962934E-02 
1601	 5.24256534545132E-02 
1602	 5.23985561817908E-02 
1603	 5.24140842149654E-02 
1604	 5.24293489687092E-02 
1605	 5.24938105599694E-02 
1606	 5.24965287304636E-02 
1607	 0.052461105979363 
1608	 5.24467391110344E-02 
1609	 5.23929532673818E-02 
1610	 5.23577686560814E-02 
1611	 5.23627899119553E-02 
1612	 5.23484724575619E-02 
1613	 5.23214611743926E-02 
1614	 5.22956742363892E-02 
1615	 5.22414433526376E-02 
1616	 5.22350357933313E-02 
1617	 5.22581398063373E-02 
1618	 5.22736430450863E-02 
1619	 5.23337611700443E-02 
1620	 5.23627367133247E-02 
1621	 5.23783989390629E-02 
1622	 5.23711726741008E-02 
1623	 5.23184698056586E-02 
1624	 5.23098925916359E-02 
1625	 5.23099956376372E-02 
1626	 5.23022087317351E-02 
1627	 5.23458252249476E-02 
1628	 5.23414391666742E-02 
1629	 5.22489862459306E-02 
1630	 5.22365850388077E-02 
1631	 5.22713306778298E-02 
1632	 5.22739035401445E-02 
1633	 5.23284244740151E-02 
1634	 0.052338102875657 
1635	 5.22815606227833E-02 
1636	 5.22457587075155E-02 
1637	 5.21682781879948E-02 
1638	 5.21689675941232E-02 
1639	 5.22636994171182E-02 
1640	 5.22728862527263E-02 
1641	 5.22865946697309E-02 
1642	 5.22881274057723E-02 
1643	 5.22015206396331E-02 
1644	 5.21594942694606E-02 
1645	 0.052170907938267 
1646	 5.21527426676433E-02 
1647	 5.21029577896258E-02 
1648	 5.20874144862516E-02 
1649	 5.20860729621124E-02 
1650	 5.20895112751337E-02 
1651	 0.052122771446267 
1652	 5.21230465037141E-02 
1653	 5.20991324808317E-02 
1654	 5.20968993289957E-02 
1655	 5.20849001743272E-02 
1656	 5.20950691888113E-02 
1657	 5.21464921662638E-02 
1658	 5.21619651502544E-02 
1659	 5.21730834303527E-02 
1660	 5.21780941719664E-02 
1661	 5.21716505369318E-02 
1662	 5.21430496355687E-02 
1663	 5.20833002733002E-02 
1664	 5.20406189663762E-02 
1665	 5.19788084489633E-02 
1666	 5.19378379351294E-02 
1667	 5.19300821654407E-02 
1668	 5.19229300724874E-02 
1669	 5.18967989421279E-02 
1670	 5.19065947333894E-02 
1671	 5.19660949255479E-02 
1672	 5.19802208793264E-02 
1673	 5.19758526299456E-02 
1674	 5.20062779323108E-02 
1675	 0.052061468813522 
1676	 5.20558146880413E-02 
1677	 5.20157686681958E-02 
1678	 5.20308690322257E-02 
1679	 5.20207225477677E-02 
1680	 5.20211207559556E-02 
1681	 5.21228817243536E-02 
1682	 5.21355415983667E-02 
1683	 5.20698465110539E-02 
1684	 5.20275689218591E-02 
1685	 5.19567361967414E-02 
1686	 5.19158714442723E-02 
1687	 5.18781846565099E-02 
1688	 0.051861229399727 
1689	 5.18754067674836E-02 
1690	 5.18863644634564E-02 
1691	 0.051889271540802 
1692	 5.19096662260959E-02 
1693	 5.19492441541063E-02 
1694	 5.19863785406194E-02 
1695	 5.20680371617242E-02 
1696	 5.20820291301239E-02 
1697	 5.20611969003807E-02 
1698	 5.20402138762232E-02 
1699	 5.19392169595607E-02 
1700	 0.051938527878989 
1701	 5.20106991816713E-02 
1702	 5.20223454129707E-02 
1703	 5.20729335462407E-02 
1704	 5.20683637437246E-02 
1705	 5.19844779258713E-02 
1706	 5.20070300116675E-02 
1707	 5.19521096415712E-02 
1708	 5.18866375634325E-02 
1709	 5.18860578744651E-02 
1710	 5.18432059119992E-02 
1711	 5.18886037352785E-02 
1712	 5.19526660288975E-02 
1713	 5.19295287805886E-02 
1714	 5.19335448424407E-02 
1715	 5.18888968032816E-02 
1716	 5.18677560461953E-02 
1717	 5.19764867890621E-02 
1718	 5.19730126866561E-02 
1719	 5.18971887396777E-02 
1720	 5.18263247697182E-02 
1721	 5.17470407750837E-02 
1722	 5.17945684067538E-02 
1723	 5.18624063229158E-02 
1724	 5.18717479686456E-02 
1725	 0.051843160644908 
1726	 5.18058416996202E-02 
1727	 5.18040701296384E-02 
1728	 5.18814365017695E-02 
1729	 5.19232805307404E-02 
1730	 5.18191297053916E-02 
1731	 5.17426724219047E-02 
1732	 5.16341720521039E-02 
1733	 5.15579986257501E-02 
1734	 5.16772914540188E-02 
1735	 5.17597036403171E-02 
1736	 5.17805171417739E-02 
1737	 5.17984810457975E-02 
1738	 5.17576728540901E-02 
1739	 5.17278232991699E-02 
1740	 5.17203213389478E-02 
1741	 5.17231707724876E-02 
1742	 5.16749913459712E-02 
1743	 0.051635425212684 
1744	 5.16742661142935E-02 
1745	 5.16524008026539E-02 
1746	 5.15818433116589E-02 
1747	 5.15720737344197E-02 
1748	 5.15428996081538E-02 
1749	 5.15290756300446E-02 
1750	 5.15551070479278E-02 
1751	 5.15620187651879E-02 
1752	 5.15905246741227E-02 
1753	 5.15797378776228E-02 
1754	 5.15390033836749E-02 
1755	 5.15168050884098E-02 
1756	 5.14670669709929E-02 
1757	 5.14531605191206E-02 
1758	 5.14382789743239E-02 
1759	 5.14057230352446E-02 
1760	 5.13965381625633E-02 
1761	 5.13481251316988E-02 
1762	 5.13055225223396E-02 
1763	 5.13292127830853E-02 
1764	 5.13458285355118E-02 
1765	 5.14227476952818E-02 
1766	 5.14933074695161E-02 
1767	 5.14256049791565E-02 
1768	 5.14274239375193E-02 
1769	 5.14548051340093E-02 
1770	 5.13987842474693E-02 
1771	 5.14273062668138E-02 
1772	 5.14236468894954E-02 
1773	 5.13497623341908E-02 
1774	 5.13657236480878E-02 
1775	 5.13861117467103E-02 
1776	 5.13848295860548E-02 
1777	 0.051415751380193 
1778	 5.14111716687059E-02 
1779	 5.13640877251562E-02 
1780	 5.13238273814541E-02 
1781	 5.12777797271739E-02 
1782	 0.051215764451871 
1783	 5.12231410041518E-02 
1784	 5.12479660603043E-02 
1785	 5.13015913895915E-02 
1786	 5.13273889376923E-02 
1787	 5.13470346654713E-02 
1788	 5.13622197799568E-02 
1789	 5.13719558008302E-02 
1790	 5.13213400160352E-02 
1791	 5.12264098887198E-02 
1792	 5.11849933768409E-02 
1793	 5.10772172519239E-02 
1794	 5.10084422393809E-02 
1795	 0.051060489584583 
1796	 5.10551166601181E-02 
1797	 5.11132312788002E-02 
1798	 5.11494400852613E-02 
1799	 5.10888680992948E-02 
1800	 0.051059649393599 
1801	 5.07449801326565E-02 
1802	 5.07630537276365E-02 
1803	 5.07628520729196E-02 
1804	 5.07267898932939E-02 
1805	 5.07826726425657E-02 
1806	 5.07571681905833E-02 
1807	 5.06634201271448E-02 
1808	 5.06475582057002E-02 
1809	 5.06303968963853E-02 
1810	 5.06466592564284E-02 
1811	 5.07725678876168E-02 
1812	 5.08144975266476E-02 
1813	 5.08472588964126E-02 
1814	 5.07928937964856E-02 
1815	 5.08216984606124E-02 
1816	 0.050816338586965 
1817	 0.050809792378881 
1818	 5.08487426760583E-02 
1819	 5.08540385512633E-02 
1820	 5.08134042886427E-02 
1821	 5.07836127355832E-02 
1822	 0.050758828686089 
1823	 5.06900601843965E-02 
1824	 0.050744025313444 
1825	 5.08085567627807E-02 
1826	 5.08283811566402E-02 
1827	 5.08975820994711E-02 
1828	 5.09404509931206E-02 
1829	 5.09366898542373E-02 
1830	 5.09249940604848E-02 
1831	 0.050934352349753 
1832	 5.09254519011649E-02 
1833	 5.08699255156365E-02 
1834	 5.07821773010309E-02 
1835	 5.07891042584281E-02 
1836	 5.08391380278786E-02 
1837	 0.050859560741521 
1838	 5.09019504500749E-02 
1839	 5.09101117029955E-02 
1840	 5.08946625369143E-02 
1841	 5.09026742664019E-02 
1842	 5.09284975157216E-02 
1843	 5.08921384937051E-02 
1844	 5.09255242612399E-02 
1845	 5.08976395788262E-02 
1846	 0.050777890158527 
1847	 5.07703900199738E-02 
1848	 5.07823122352267E-02 
1849	 5.07978279445247E-02 
1850	 5.08357336931515E-02 
1851	 0.050956384784389 
1852	 5.10118843468982E-02 
1853	 5.10140428341545E-02 
1854	 5.10717978744265E-02 
1855	 5.10858487694155E-02 
1856	 5.10763954495722E-02 
1857	 5.10296092997098E-02 
1858	 5.09727265441796E-02 
1859	 5.09356089251616E-02 
1860	 5.08518157671729E-02 
1861	 5.08351409493214E-02 
1862	 5.08976302998533E-02 
1863	 5.08924080393209E-02 
1864	 5.08564371149351E-02 
1865	 5.09198155403649E-02 
1866	 0.050950892048434 
1867	 0.050933706614668 
1868	 5.09375548610106E-02 
1869	 5.09310949512538E-02 
1870	 5.09099174177605E-02 
1871	 5.08470215522448E-02 
1872	 5.08332951126337E-02 
1873	 5.08445709736561E-02 
1874	 5.08464794884911E-02 
1875	 5.08248345954331E-02 
1876	 5.07971031466788E-02 
1877	 5.07650196259847E-02 
1878	 5.06718257118078E-02 
1879	 5.05848765514206E-02 
1880	 5.05777152587419E-02 
1881	 5.05596980586197E-02 
1882	 5.05498446292769E-02 
1883	 5.05290718438386E-02 
1884	 5.05601111397294E-02 
1885	 5.05489066507322E-02 
1886	 5.04682163419498E-02 
1887	 5.04196489380241E-02 
1888	 0.050385900259097 
1889	 5.03609545871563E-02 
1890	 5.03987718008862E-02 
1891	 5.04328576615156E-02 
1892	 5.04079042491804E-02 
1893	 5.03792253878252E-02 
1894	 5.03111502335245E-02 
1895	 5.02412361368424E-02 
1896	 5.01823895137905E-02 
1897	 0.050142316551572 
1898	 5.01750300903351E-02 
1899	 5.01821180360301E-02 
1900	 5.01848547491806E-02 
1901	 0.050187210811264 
1902	 0.050067665424893 
1903	 4.99724742525208E-02 
1904	 0.049908066954571 
1905	 4.98447059919223E-02 
1906	 4.97969676425574E-02 
1907	 4.98097042089143E-02 
1908	 4.97965947750753E-02 
1909	 0.049760653754884 
1910	 4.97779525315396E-02 
1911	 4.98253472314852E-02 
1912	 0.049801864989653 
1913	 4.97353708812539E-02 
1914	 4.96739630284044E-02 
1915	 4.96286664459693E-02 
1916	 4.95541235087294E-02 
1917	 4.95122926698076E-02 
1918	 4.95215584223157E-02 
1919	 4.94955042171921E-02 
1920	 4.94736207182192E-02 
1921	 4.94979666159968E-02 
1922	 4.94456576889653E-02 
1923	 4.94266066288092E-02 
1924	 4.94290048890911E-02 
1925	 4.93782964823141E-02 
1926	 4.93542737486038E-02 
1927	 4.93794189003253E-02 
1928	 4.93898209414486E-02 
1929	 4.93837320137633E-02 
1930	 4.93833566355767E-02 
1931	 0.04940898192408 
1932	 4.93834850053597E-02 
1933	 4.93864302178394E-02 
1934	 4.93859969130721E-02 
1935	 4.93521247175962E-02 
1936	 4.94104069146221E-02 
1937	 0.049423320088467 
1938	 4.94073460240425E-02 
1939	 4.93854363076576E-02 
1940	 4.93702968491832E-02 
1941	 4.93254864242517E-02 
1942	 4.92537781347199E-02 
1943	 4.92268289366693E-02 
1944	 4.92503972668376E-02 
1945	 4.92192637087877E-02 
1946	 0.049257669256532 
1947	 4.93221687372595E-02 
1948	 4.92898563663142E-02 
1949	 4.93082371324994E-02 
1950	 4.93349898957852E-02 
1951	 4.93379180276591E-02 
1952	 4.93446648438473E-02 
1953	 4.93638378295835E-02 
1954	 4.94377398413385E-02 
1955	 4.94879511010442E-02 
1956	 4.95202460846089E-02 
1957	 4.95599466540446E-02 
1958	 0.049581248865844 
1959	 4.96118384000372E-02 
1960	 4.95867740594404E-02 
1961	 4.95785089141022E-02 
1962	 4.95921685177929E-02 
1963	 4.95969674358432E-02 
1964	 0.049565634168642 
1965	 4.95953136928164E-02 
1966	 4.96967750428586E-02 
1967	 4.97182184393428E-02 
1968	 4.96987904819093E-02 
1969	 4.96683155702152E-02 
1970	 4.96611004416115E-02 
1971	 0.04965485771947 
1972	 4.96862028598172E-02 
1973	 4.97775724663663E-02 
1974	 4.98178222194797E-02 
1975	 4.97972652794675E-02 
1976	 4.98222175529741E-02 
1977	 4.98866818865988E-02 
1978	 4.99097251812538E-02 
1979	 4.98899233762802E-02 
1980	 0.049957213665391 
1981	 5.00062245106948E-02 
1982	 4.99536493924303E-02 
1983	 4.99761734325659E-02 
1984	 5.00214762370124E-02 
1985	 5.00054837911846E-02 
1986	 5.00261379294303E-02 
1987	 5.00391726730382E-02 
1988	 5.00208127636065E-02 
1989	 5.00251691209463E-02 
1990	 5.00580466891859E-02 
1991	 5.00840732856095E-02 
1992	 5.00918499137888E-02 
1993	 5.01547920126176E-02 
1994	 5.02321048297615E-02 
1995	 5.02434211751094E-02 
1996	 0.05026951074529 
1997	 5.02719459800702E-02 
1998	 5.02576509894301E-02 
1999	 5.01953390491542E-02 
2000	 5.02066697531513E-02 
2001	 5.02061945535475E-02 
2002	 5.02546911149462E-02 
2003	 5.03901088170282E-02 
2004	 5.04733364833427E-02 
2005	 5.05790970137558E-02 
2006	 5.06513915795597E-02 
2007	 5.07177836086048E-02 
2008	 0.050706295690296 
2009	 5.06929463006542E-02 
2010	 5.07374845101187E-02 
2011	 5.07685601525666E-02 
2012	 5.07552457977294E-02 
2013	 5.07487937700525E-02 
2014	 5.07217167373322E-02 
2015	 5.07171770313279E-02 
2016	 5.07023235983663E-02 
2017	 5.07167464174278E-02 
2018	 0.050784730493273 
2019	 5.08025539355597E-02 
2020	 5.08069221184971E-02 
2021	 5.08005844539741E-02 
2022	 5.08013073670635E-02 
2023	 5.07861074207629E-02 
2024	 5.08156928480358E-02 
2025	 5.09425467810322E-02 
2026	 0.051000651545234 
2027	 5.10646328871175E-02 
2028	 5.11021775541389E-02 
2029	 5.11070092739132E-02 
2030	 5.11150072100165E-02 
2031	 0.051098215538363 
2032	 5.11172603323161E-02 
2033	 5.11411292680138E-02 
2034	 0.051169073616146 
2035	 5.12184142842068E-02 
2036	 5.12873857081558E-02 
2037	 5.13458271456121E-02 
2038	 5.13679612917238E-02 
2039	 5.13447024467565E-02 
2040	 5.12427964150187E-02 
2041	 5.12491504141748E-02 
2042	 5.12774015741162E-02 
2043	 5.12796582797466E-02 
2044	 5.13260729879344E-02 
2045	 5.13702592989701E-02 
2046	 5.13737419207235E-02 
2047	 5.13845496223901E-02 
2048	 5.14554993049736E-02 
2049	 5.14929129414573E-02 
2050	 5.14943094294907E-02 
2051	 5.14798637893781E-02 
2052	 5.14818356351201E-02 
2053	 0.051479729254039 
2054	 5.14999863646525E-02 
2055	 5.15361181352365E-02 
2056	 5.15422353796007E-02 
2057	 5.15427137776446E-02 
2058	 5.15719413365545E-02 
2059	 5.15973247952016E-02 
2060	 5.16090421788515E-02 
2061	 5.16474875587719E-02 
2062	 5.16720651732548E-02 
2063	 5.16687414008725E-02 
2064	 5.16661159180167E-02 
2065	 5.16973897568672E-02 
2066	 5.16823261243688E-02 
2067	 5.15892842569754E-02 
2068	 5.15559663134582E-02 
2069	 5.15847544789751E-02 
2070	 5.16650162633902E-02 
2071	 5.17076331329869E-02 
2072	 5.18072457647763E-02 
2073	 5.18638752469087E-02 
2074	 5.18619349925607E-02 
2075	 0.051891095704413 
2076	 0.051958436238868 
2077	 5.19944002335525E-02 
2078	 5.20041017103065E-02 
2079	 5.20167447753122E-02 
2080	 5.20406364256061E-02 
2081	 5.20456281563724E-02 
2082	 5.20061372996762E-02 
2083	 5.20118968964506E-02 
2084	 0.052046679276617 
2085	 5.20027882558717E-02 
2086	 5.20055776643293E-02 
2087	 0.052032866625285 
2088	 5.20515596834062E-02 
2089	 5.20759310369439E-02 
2090	 5.20831503708545E-02 
2091	 5.20843289602173E-02 
2092	 5.20876048250903E-02 
2093	 5.20904709449947E-02 
2094	 5.20733739796696E-02 
2095	 5.20103600537317E-02 
2096	 5.20139830870925E-02 
2097	 5.20246661682214E-02 
2098	 5.20635918173523E-02 
2099	 5.21248565623938E-02 
2100	 5.22412396192926E-02 
2101	 5.22939884968568E-02 
2102	 5.23260109593656E-02 
2103	 5.23084876043524E-02 
2104	 5.22232500011733E-02 
2105	 5.22253018669533E-02 
2106	 5.22285992403062E-02 
2107	 5.22327944217064E-02 
2108	 5.23013408485087E-02 
2109	 5.23371568446675E-02 
2110	 0.052325358318557 
2111	 5.23419109066006E-02 
2112	 5.23886166392502E-02 
2113	 5.24222682968238E-02 
2114	 5.24700173388871E-02 
2115	 5.24735097248861E-02 
2116	 0.052400613968725 
2117	 5.24162663260852E-02 
2118	 5.24642792652215E-02 
2119	 5.25209677276026E-02 
2120	 5.25722441222661E-02 
2121	 5.27140286649989E-02 
2122	 5.27604503022514E-02 
2123	 5.27245202309596E-02 
2124	 0.052729807794878 
2125	 5.27626788771396E-02 
2126	 5.27453746464716E-02 
2127	 0.05267380538251 
2128	 5.26530951471784E-02 
2129	 5.26199483109352E-02 
2130	 5.25982574239831E-02 
2131	 5.26052826761816E-02 
2132	 5.26268816599591E-02 
2133	 5.26621738809352E-02 
2134	 5.26963770442588E-02 
2135	 5.27261354327262E-02 
2136	 5.27592801323118E-02 
2137	 0.052748324075753 
2138	 0.052679670884277 
2139	 5.26519647327061E-02 
2140	 5.26508373549325E-02 
2141	 5.25863461184796E-02 
2142	 5.24534328967375E-02 
2143	 5.24130573846279E-02 
2144	 0.05240144343063 
2145	 5.23352561789938E-02 
2146	 5.22919865797642E-02 
2147	 5.22714441473932E-02 
2148	 5.22262117874999E-02 
2149	 5.21616574101286E-02 
2150	 5.21270314862167E-02 
2151	 5.20871306010007E-02 
2152	 5.19843703967654E-02 
2153	 5.19032995912986E-02 
2154	 5.19032164953973E-02 
2155	 0.051915127009003 
2156	 5.18675651826754E-02 
2157	 5.17826018420582E-02 
2158	 5.17399258325843E-02 
2159	 0.051676603212671 
2160	 5.16404044128468E-02 
2161	 5.16522150587874E-02 
2162	 0.051632339092513 
2163	 5.16050096361462E-02 
2164	 5.15669102034222E-02 
2165	 5.15292442004849E-02 
2166	 5.14796782795629E-02 
2167	 5.13937686962293E-02 
2168	 5.13381412089348E-02 
2169	 5.13172545081445E-02 
2170	 5.12466050146945E-02 
2171	 5.11410265131915E-02 
2172	 5.10692380829469E-02 
2173	 0.05096627117283 
2174	 5.08961544246145E-02 
2175	 5.08927663190766E-02 
2176	 5.09092592331373E-02 
2177	 5.08782285166531E-02 
2178	 5.08486605743554E-02 
2179	 5.07816025040085E-02 
2180	 0.050638323680752 
2181	 5.06064533126587E-02 
2182	 5.06528309515789E-02 
2183	 0.050591138649637 
2184	 5.05209629400717E-02 
2185	 5.04631385686037E-02 
2186	 5.03211541492287E-02 
2187	 5.02325169874957E-02 
2188	 5.02217709851133E-02 
2189	 5.01725813338404E-02 
2190	 5.00724121483753E-02 
2191	 5.00168634340779E-02 
2192	 0.049984224736052 
2193	 4.99684281483093E-02 
2194	 4.99996899977241E-02 
2195	 4.99911696211591E-02 
2196	 4.99615325706532E-02 
2197	 4.99662807474613E-02 
2198	 4.99533908424027E-02 
2199	 4.99106377912565E-02 
2200	 4.98536616861485E-02 
2201	 4.97715397764058E-02 
2202	 4.97457864529915E-02 
2203	 4.97449694853099E-02 
2204	 4.96750961942082E-02 
2205	 4.96098418040771E-02 
2206	 4.95603490934717E-02 
2207	 4.94034161178811E-02 
2208	 4.93797542309445E-02 
2209	 4.94901259203576E-02 
2210	 4.95249339470136E-02 
2211	 4.95715780666747E-02 
2212	 4.96081905207085E-02 
2213	 4.96528756882957E-02 
2214	 4.96501906743858E-02 
2215	 0.04959727641301 
2216	 4.95823511654215E-02 
2217	 4.95522354320644E-02 
2218	 4.95239075284115E-02 
2219	 4.95321112263226E-02 
2220	 4.95325332186322E-02 
2221	 4.95362134011888E-02 
2222	 4.94548258313046E-02 
2223	 4.95400320508089E-02 
2224	 4.95634420046165E-02 
2225	 4.95898592278107E-02 
2226	 0.049749290112249 
2227	 4.97606911378724E-02 
2228	 4.96778205624137E-02 
2229	 4.96886760424416E-02 
2230	 4.96976153863901E-02 
2231	 4.96835374035028E-02 
2232	 4.97385054437296E-02 
2233	 4.97286828258416E-02 
2234	 4.96105579849518E-02 
2235	 4.95788023029872E-02 
2236	 4.96048156507237E-02 
2237	 4.95655183943715E-02 
2238	 4.95099184576802E-02 
2239	 4.94797730946291E-02 
2240	 4.94251004670656E-02 
2241	 4.93735177522831E-02 
2242	 4.93210939127747E-02 
2243	 4.93281924095381E-02 
2244	 4.93532060122219E-02 
2245	 0.049384912630459 
2246	 4.94734591991765E-02 
2247	 4.95413262914028E-02 
2248	 4.96385883260912E-02 
2249	 4.96724318945386E-02 
2250	 4.96677191523241E-02 
2251	 4.96964426270198E-02 
2252	 4.96508487732179E-02 
2253	 4.95155213246518E-02 
2254	 4.95905549738483E-02 
2255	 4.96781707827945E-02 
2256	 4.97314207442603E-02 
2257	 4.98458830170429E-02 
2258	 4.98348385172868E-02 
2259	 4.96627609805254E-02 
2260	 4.96705678408739E-02 
2261	 4.97121262550242E-02 
2262	 4.97670638794283E-02 
2263	 4.99361444844125E-02 
2264	 5.00088731586467E-02 
2265	 5.00346948488439E-02 
2266	 5.00374449427406E-02 
2267	 5.00134433829165E-02 
2268	 4.99887097717419E-02 
2269	 4.99286666713735E-02 
2270	 4.99011961853756E-02 
2271	 4.98577196576998E-02 
2272	 4.98491364096799E-02 
2273	 0.04988899882125 
2274	 4.98826396911609E-02 
2275	 4.98717174045344E-02 
2276	 4.98925761515749E-02 
2277	 4.99166549277658E-02 
2278	 4.99234376118475E-02 
2279	 4.98865607336343E-02 
2280	 4.99273646162123E-02 
2281	 4.99823978248031E-02 
2282	 5.00518180372585E-02 
2283	 5.01505612541046E-02 
2284	 5.04362779228359E-02 
2285	 0.050483944622527 
2286	 5.04320275026206E-02 
2287	 5.03872338722202E-02 
2288	 5.03302587989274E-02 
2289	 5.03328918386256E-02 
2290	 5.03370524808555E-02 
2291	 0.050355317496131 
2292	 5.02901812425395E-02 
2293	 5.02043167400797E-02 
2294	 5.02057127836254E-02 
2295	 5.02070785317133E-02 
2296	 5.02638970882673E-02 
2297	 5.03701881410644E-02 
2298	 5.05837209703419E-02 
2299	 5.06899175144867E-02 
2300	 5.08490988333607E-02 
2301	 5.08340081497652E-02 
2302	 5.06631448056251E-02 
2303	 5.05882765166583E-02 
2304	 5.04127766372389E-02 
2305	 5.03687608918764E-02 
2306	 5.04257641693866E-02 
2307	 5.04656153433663E-02 
2308	 5.05818321096182E-02 
2309	 5.06258001794773E-02 
2310	 5.06505659391938E-02 
2311	 5.06252041320498E-02 
2312	 5.05039707532972E-02 
2313	 5.04834126162352E-02 
2314	 5.04820532925068E-02 
2315	 5.05511876597984E-02 
2316	 5.07461349306881E-02 
2317	 5.08098273230141E-02 
2318	 5.08489046315745E-02 
2319	 5.08498259402363E-02 
2320	 5.07200651728402E-02 
2321	 5.07351245935638E-02 
2322	 5.07463073416988E-02 
2323	 5.08575555220547E-02 
2324	 5.12701033100724E-02 
2325	 5.13420499103116E-02 
2326	 5.12192239995003E-02 
2327	 5.12478214465442E-02 
2328	 5.11437485772747E-02 
2329	 5.10749941433137E-02 
2330	 5.11644159919224E-02 
2331	 0.051181469844576 
2332	 5.11178286963883E-02 
2333	 0.051034667257849 
2334	 5.10232574529855E-02 
2335	 5.11927703027644E-02 
2336	 5.12664087557428E-02 
2337	 5.13325580604053E-02 
2338	 5.15402369986583E-02 
2339	 5.15780967975214E-02 
2340	 5.13916055237747E-02 
2341	 5.12050215459456E-02 
2342	 5.10482587222746E-02 
2343	 5.08496889574737E-02 
2344	 5.07360500568086E-02 
2345	 5.07596651955302E-02 
2346	 0.050767399786576 
2347	 5.08202779483536E-02 
2348	 5.10351197720684E-02 
2349	 5.10621067304758E-02 
2350	 0.050872734783543 
2351	 5.07699681603811E-02 
2352	 5.05711855236271E-02 
2353	 0.050464363765654 
2354	 5.05242412197613E-02 
2355	 0.050558082425603 
2356	 0.050727757718778 
2357	 5.08426680811636E-02 
2358	 5.09819070767305E-02 
2359	 5.11077179624769E-02 
2360	 5.11451482438118E-02 
2361	 5.12730700843321E-02 
2362	 5.13887379238896E-02 
2363	 5.14048212489457E-02 
2364	 5.11857935741144E-02 
2365	 5.10293747520654E-02 
2366	 5.09011274864406E-02 
2367	 5.08714783679734E-02 
2368	 5.10801270259545E-02 
2369	 5.12060374223568E-02 
2370	 5.13087166881256E-02 
2371	 5.12525044997229E-02 
2372	 5.11848073387758E-02 
2373	 5.12242318192296E-02 
2374	 5.12021458323415E-02 
2375	 5.11073206089789E-02 
2376	 5.10978348628097E-02 
2377	 5.08845102993893E-02 
2378	 5.06884069402567E-02 
2379	 5.09654629248723E-02 
2380	 5.09488773417395E-02 
2381	 0.051039586280575 
2382	 5.10994315895701E-02 
2383	 5.10734794200751E-02 
2384	 5.10404867345189E-02 
2385	 5.10630760225098E-02 
2386	 5.10136495749845E-02 
2387	 5.08612864547422E-02 
2388	 5.08629529939265E-02 
2389	 5.08564970871423E-02 
2390	 5.07939677552512E-02 
2391	 5.08901490623322E-02 
2392	 5.09753699061647E-02 
2393	 5.10592718862802E-02 
2394	 5.11518966603063E-02 
2395	 5.12359276620813E-02 
2396	 5.11599917912305E-02 
2397	 5.08506025546398E-02 
2398	 5.08913797012101E-02 
2399	 5.11519477090916E-02 
2400	 0.051196081085321 
2401	 5.14009847462868E-02 
2402	 5.09378114904122E-02 
2403	 5.06583251625971E-02 
2404	 0.050564956185718 
2405	 5.05409425355152E-02 
2406	 5.04114952815472E-02 
2407	 5.02644623304581E-02 
2408	 5.03925124513214E-02 
2409	 5.05029815682085E-02 
2410	 5.07432037261819E-02 
2411	 5.09815844894521E-02 
2412	 5.11003346589692E-02 
2413	 5.10057709417156E-02 
2414	 5.08862632633536E-02 
2415	 5.09623018628998E-02 
2416	 0.050990024017058 
2417	 5.09873928678834E-02 
2418	 5.09204824963473E-02 
2419	 0.050604453347372 
2420	 5.02672880837556E-02 
2421	 0.05023679441991 
2422	 5.01933197780778E-02 
2423	 5.04418800054598E-02 
2424	 5.09272095873448E-02 
2425	 5.10957475504798E-02 
2426	 5.10552060279424E-02 
2427	 5.11128511651502E-02 
2428	 5.10596354505761E-02 
2429	 5.04704905651261E-02 
2430	 0.050036140821008 
2431	 4.99071124174571E-02 
2432	 4.97509262208766E-02 
2433	 5.00045667488391E-02 
2434	 5.03440904561112E-02 
2435	 5.04680487543133E-02 
2436	 5.04612004933429E-02 
2437	 5.01121586380384E-02 
2438	 5.05835266971149E-02 
2439	 5.09210880886465E-02 
2440	 5.06250246952225E-02 
2441	 0.050918203273914 
2442	 5.04850220012866E-02 
2443	 4.99521139849518E-02 
2444	 5.00489684917636E-02 
2445	 5.03313753164525E-02 
2446	 5.07547308751366E-02 
2447	 5.11540577033951E-02 
2448	 5.14494890217199E-02 
2449	 5.13582092068811E-02 
2450	 5.12409483494542E-02 
2451	 5.14139715188931E-02 
2452	 5.15086982198397E-02 
2453	 5.13637674832643E-02 
2454	 5.13336097747225E-02 
2455	 5.10573319097802E-02 
2456	 5.09844290930239E-02 
2457	 5.10445856525106E-02 
2458	 5.06315638984988E-02 
2459	 0.050658902777116 
2460	 5.10276466807121E-02 
2461	 5.12438297031221E-02 
2462	 5.21498888304659E-02 
2463	 5.25282353841536E-02 
2464	 5.12479816886105E-02 
2465	 5.07440484726107E-02 
2466	 5.00380580747746E-02 
2467	 4.90542291533711E-02 
2468	 4.93530937558226E-02 
2469	 0.049364830307802 
2470	 0.049299343084901 
2471	 4.89185263062733E-02 
2472	 4.82659666076586E-02 
2473	 4.83799298463616E-02 
2474	 4.83398213438813E-02 
2475	 4.84705154229568E-02 
2476	 4.95561120471591E-02 
2477	 4.93677619050662E-02 
2478	 4.86382020760559E-02 
2479	 4.90587909441942E-02 
2480	 4.81667882071311E-02 
2481	 4.83991597015483E-02 
2482	 4.96613727172704E-02 
2483	 4.90958594539269E-02 
2484	 0.049741198655154 
2485	 5.01454824617332E-02 
2486	 4.97896030892597E-02 
2487	 0.050157830026622 
2488	 5.04142050656696E-02 
2489	 5.05127264078119E-02 
2490	 5.08450419573976E-02 
2491	 5.07080521726759E-02 
2492	 4.97288850256603E-02 
2493	 4.82725038779693E-02 
2494	 0.047506216991467 
2495	 4.73604052465428E-02 
2496	 4.81853411732005E-02 
2497	 4.96404458664912E-02 
2498	 5.05867410654716E-02 
2499	 5.06419400741992E-02 
2500	 0.050563390460514 
