Wavelength	Tablay400027.asd
350	 0.234230914746016 
351	 0.233010517485655 
352	 0.229336403543132 
353	 0.21809687903602 
354	 0.27798244473354 
355	 0.294750667261525 
356	 0.261165589624378 
357	 0.208627290315549 
358	 0.157812609567906 
359	 0.176084672983767 
360	 0.243027116693111 
361	 0.275705781806991 
362	 0.219018631825685 
363	 0.196164728064866 
364	 0.241105979147085 
365	 0.230826684422241 
366	 0.167709508746629 
367	 0.158746826061211 
368	 0.244933863830338 
369	 0.178856124053617 
370	 0.117683269418718 
371	 0.121348276332626 
372	 0.18611335365151 
373	 0.159569150645306 
374	 0.126112010078169 
375	 0.131618155118641 
376	 0.138278370653747 
377	 0.136791104850385 
378	 0.14069870837259 
379	 0.14967183124447 
380	 8.27841060885542E-02 
381	 9.92920806330671E-02 
382	 0.162512489493629 
383	 0.13143288130652 
384	 0.104165988445126 
385	 0.106292366572526 
386	 0.133872819695651 
387	 0.157174518003654 
388	 0.155860244062288 
389	 0.138647299296255 
390	 0.12242210643018 
391	 0.11128241677962 
392	 0.10947301618482 
393	 0.115276779696123 
394	 0.121541908222482 
395	 0.108057236449211 
396	 9.86592425070393E-02 
397	 0.101658952919924 
398	 9.11368635578318E-02 
399	 0.102028360939223 
400	 0.11266282813268 
401	 0.10020457176215 
402	 0.10108085790804 
403	 9.61823019501995E-02 
404	 8.78146204416165E-02 
405	 9.31693700207727E-02 
406	 0.105804586225004 
407	 0.110085673556205 
408	 0.101470950795449 
409	 9.70476436423899E-02 
410	 9.55886510437646E-02 
411	 9.68855262730516E-02 
412	 9.90136882578345E-02 
413	 9.37226402836344E-02 
414	 8.23909059468585E-02 
415	 7.67732471254758E-02 
416	 0.094224488449842 
417	 0.092427971965721 
418	 8.18375745223799E-02 
419	 7.64469894166568E-02 
420	 7.90288405897221E-02 
421	 7.82503683336339E-02 
422	 7.80581175637927E-02 
423	 8.51684996361082E-02 
424	 8.27296075687492E-02 
425	 8.04921258132582E-02 
426	 8.02880616491245E-02 
427	 7.33239413237932E-02 
428	 7.40161624652518E-02 
429	 7.79634720308037E-02 
430	 7.87864608811414E-02 
431	 7.68190572918463E-02 
432	 7.56226351946236E-02 
433	 7.52083653558285E-02 
434	 7.38677823187935E-02 
435	 7.30273326712015E-02 
436	 7.43061487143812E-02 
437	 7.61037816113474E-02 
438	 7.18934374130833E-02 
439	 7.09607480126586E-02 
440	 7.24504652142232E-02 
441	 7.30799499743054E-02 
442	 7.24014324212955E-02 
443	 7.24421492281348E-02 
444	 7.29578030367498E-02 
445	 7.21423231257635E-02 
446	 7.29051355321316E-02 
447	 7.46345057753586E-02 
448	 7.56669521781001E-02 
449	 7.27483292623194E-02 
450	 7.28308495032525E-02 
451	 7.47067758590008E-02 
452	 7.45059452802496E-02 
453	 7.26706328709622E-02 
454	 7.17054043041809E-02 
455	 7.14620994297695E-02 
456	 6.89580830188821E-02 
457	 6.92982535273573E-02 
458	 7.08722859788911E-02 
459	 7.14355746887226E-02 
460	 7.12417919790443E-02 
461	 7.12282495486602E-02 
462	 7.20826254049435E-02 
463	 0.073914190617762 
464	 7.37981176397466E-02 
465	 7.23919450484821E-02 
466	 7.09028641051607E-02 
467	 7.07402184872039E-02 
468	 6.97527823303904E-02 
469	 6.90540120279282E-02 
470	 6.97873001673239E-02 
471	 0.069369006977451 
472	 6.95650864191056E-02 
473	 0.070523413357318 
474	 7.10428595189346E-02 
475	 0.070328406035527 
476	 6.99376448691844E-02 
477	 7.05231194505767E-02 
478	 7.00408712791697E-02 
479	 6.94175312307397E-02 
480	 6.89723313320966E-02 
481	 6.86976821651723E-02 
482	 6.75547347607986E-02 
483	 6.87235551301285E-02 
484	 7.10863798591337E-02 
485	 6.87319413801091E-02 
486	 6.84267384030881E-02 
487	 6.89688203620487E-02 
488	 6.84339494641636E-02 
489	 6.83247760803235E-02 
490	 6.74753037371756E-02 
491	 6.69727818041281E-02 
492	 6.86978517990983E-02 
493	 6.94825273653033E-02 
494	 6.92600988958574E-02 
495	 6.87664711713239E-02 
496	 6.93890229086987E-02 
497	 6.97910971774506E-02 
498	 6.98317839866413E-02 
499	 6.98102421917771E-02 
500	 7.02822197206653E-02 
501	 7.05467865573378E-02 
502	 7.06215486351438E-02 
503	 7.10980534582513E-02 
504	 7.05907004373599E-02 
505	 6.99380481382388E-02 
506	 7.01166560436616E-02 
507	 7.17900359422383E-02 
508	 7.18719048637126E-02 
509	 7.11101592946473E-02 
510	 7.16609143542869E-02 
511	 7.26072005750107E-02 
512	 7.30172750002416E-02 
513	 7.28216907128108E-02 
514	 7.30072607342151E-02 
515	 7.29865353523817E-02 
516	 7.32621420719427E-02 
517	 7.41184675934014E-02 
518	 7.42317211889371E-02 
519	 7.43611803918159E-02 
520	 7.47771564653653E-02 
521	 7.53550885961536E-02 
522	 0.075655393039904 
523	 7.62353877718702E-02 
524	 7.72677703166923E-02 
525	 7.79542889541974E-02 
526	 7.84632455515489E-02 
527	 7.87737794491069E-02 
528	 7.89566944913303E-02 
529	 7.98233542679926E-02 
530	 8.03269592853931E-02 
531	 8.04143662610453E-02 
532	 8.11392686532932E-02 
533	 8.18248856888056E-02 
534	 0.082509505255056 
535	 8.33046716967914E-02 
536	 8.41307481529563E-02 
537	 8.47928383217617E-02 
538	 8.53701296365118E-02 
539	 8.60990150478413E-02 
540	 8.71782156069314E-02 
541	 8.78889837224174E-02 
542	 8.81320165565993E-02 
543	 8.89375135082923E-02 
544	 8.95018693535864E-02 
545	 9.01052983705904E-02 
546	 0.09111371306929 
547	 9.18839586635228E-02 
548	 9.22210054587815E-02 
549	 9.24022453806423E-02 
550	 9.30584056487575E-02 
551	 9.37716950965179E-02 
552	 0.094357129312934 
553	 9.47815160077454E-02 
554	 9.52513672485303E-02 
555	 9.58537134152443E-02 
556	 9.65745306583302E-02 
557	 9.73306890710395E-02 
558	 9.80247937898955E-02 
559	 9.86062905698318E-02 
560	 9.91813885772849E-02 
561	 0.100055528136948 
562	 0.100947951756227 
563	 0.101717936437943 
564	 0.1022962987075 
565	 0.102690655930034 
566	 0.103262664137591 
567	 0.103807016434807 
568	 0.103793447940857 
569	 0.10425801179597 
570	 0.104683224481965 
571	 0.104768713584586 
572	 0.105139168599288 
573	 0.105651216899864 
574	 0.106205012243314 
575	 0.106735487357685 
576	 0.107450444071135 
577	 0.107876481704915 
578	 0.108058178908107 
579	 0.108645668955716 
580	 0.108971120080167 
581	 0.109342880250297 
582	 0.109984371804773 
583	 0.110152918002262 
584	 0.110369489725408 
585	 0.110790031179903 
586	 0.11133452037392 
587	 0.111944684561343 
588	 0.112304946670995 
589	 0.112456538349603 
590	 0.113054861804645 
591	 0.113545657823484 
592	 0.113929582580782 
593	 0.114294209010697 
594	 0.114303498692389 
595	 0.114496913025199 
596	 0.114961020087089 
597	 0.115360891841829 
598	 0.115518949581545 
599	 0.115664709121734 
600	 0.115959501927807 
601	 0.116205869584908 
602	 0.116514425130645 
603	 0.116831400798824 
604	 0.117062530396151 
605	 0.117342342931556 
606	 0.117596284176587 
607	 0.117888278590685 
608	 0.118468368819101 
609	 0.118636389699937 
610	 0.118689137122724 
611	 0.119012660387247 
612	 0.119414024905154 
613	 0.119778849799237 
614	 0.120040852614899 
615	 0.120186215720075 
616	 0.120297695328493 
617	 0.120543444907509 
618	 0.120969527938309 
619	 0.121430006885133 
620	 0.121491439518386 
621	 0.121491090210767 
622	 0.121880908580959 
623	 0.122274187527954 
624	 0.122663429139589 
625	 0.122997217399142 
626	 0.123190787096479 
627	 0.123540667878763 
628	 0.123781981648576 
629	 0.123817143089468 
630	 0.12424357162667 
631	 0.124587607510295 
632	 0.124783873881848 
633	 0.124958860690146 
634	 0.125192521653438 
635	 0.125685884627457 
636	 0.126236922740711 
637	 0.126157641609698 
638	 0.126333558222219 
639	 0.126703523780895 
640	 0.127029349756017 
641	 0.127304159107481 
642	 0.127653372890792 
643	 0.128039225871544 
644	 0.12833771803372 
645	 0.128650573061984 
646	 0.12892202867907 
647	 0.129173081393143 
648	 0.12958485627805 
649	 0.129908828339892 
650	 0.130155062099811 
651	 0.130421222819006 
652	 0.13079790526216 
653	 0.131219454858746 
654	 0.13159047917676 
655	 0.131823503315791 
656	 0.132216129143847 
657	 0.132648563494127 
658	 0.132991849623709 
659	 0.133221891155073 
660	 0.133637573346547 
661	 0.134081322033158 
662	 0.13430887457714 
663	 0.134621244327637 
664	 0.13502016887338 
665	 0.135428818314568 
666	 0.135720456634032 
667	 0.136092927376583 
668	 0.1365071967687 
669	 0.136904103146201 
670	 0.13729939903302 
671	 0.137694002241603 
672	 0.138051927471673 
673	 0.138348688130163 
674	 0.138725445615042 
675	 0.139228272748523 
676	 0.139765606753387 
677	 0.140102983140591 
678	 0.140424925897481 
679	 0.140789193111462 
680	 0.14118359229755 
681	 0.141464113853381 
682	 0.14185621444398 
683	 0.142323432758769 
684	 0.142707870079679 
685	 0.143150327909093 
686	 0.143578986440228 
687	 0.143961089324568 
688	 0.1443483772232 
689	 0.144741767166705 
690	 0.145191731862384 
691	 0.145709742716504 
692	 0.146151294734522 
693	 0.146495529921813 
694	 0.14683233531718 
695	 0.14730002271891 
696	 0.147798318911061 
697	 0.148266962510906 
698	 0.148675171331088 
699	 0.149022901722271 
700	 0.149528470559291 
701	 0.150092265861663 
702	 0.150570671819072 
703	 0.151051181723636 
704	 0.151428355901918 
705	 0.151758860990997 
706	 0.152202331624468 
707	 0.152745867566595 
708	 0.153235393633951 
709	 0.153624102057625 
710	 0.154067010180873 
711	 0.154562530262911 
712	 0.155044670088305 
713	 0.155464620091365 
714	 0.155927744833142 
715	 0.15644741116998 
716	 0.156951296213206 
717	 0.157334742897827 
718	 0.157827331414066 
719	 0.158358969889292 
720	 0.15884558574574 
721	 0.159243798953551 
722	 0.159766778035812 
723	 0.160316760168514 
724	 0.160755394474759 
725	 0.161181881275927 
726	 0.161682937791165 
727	 0.162199635406459 
728	 0.162599594215847 
729	 0.163128259940878 
730	 0.163638416711766 
731	 0.164039248860297 
732	 0.164409528897539 
733	 0.164882936424253 
734	 0.165366809273773 
735	 0.165746344260219 
736	 0.16608786429108 
737	 0.166523923325382 
738	 0.167023357851785 
739	 0.167454820982879 
740	 0.167876659100587 
741	 0.168335311403588 
742	 0.168824778962557 
743	 0.169265289693974 
744	 0.16966627441166 
745	 0.170122659200143 
746	 0.170668932067214 
747	 0.171065386610157 
748	 0.171428669796164 
749	 0.171815287303385 
750	 0.172236736839647 
751	 0.172666306165733 
752	 0.173038548471791 
753	 0.173346400624168 
754	 0.173660816103725 
755	 0.174009348089946 
756	 0.174334460556211 
757	 0.174608211819291 
758	 0.174954455050324 
759	 0.175214069475447 
760	 0.175484827579763 
761	 0.175919134123952 
762	 0.17620279688743 
763	 0.176458371153086 
764	 0.176753405723906 
765	 0.177060149714359 
766	 0.177358512456636 
767	 0.177623036622779 
768	 0.177850547261243 
769	 0.178078772794848 
770	 0.178364467887624 
771	 0.17868966533815 
772	 0.179000397301047 
773	 0.179250387343361 
774	 0.179415255045938 
775	 0.179552495124328 
776	 0.179773342586022 
777	 0.180029089013167 
778	 0.180278247674588 
779	 0.1804791894816 
780	 0.180588294307693 
781	 0.180723906126014 
782	 0.180892756466909 
783	 0.181060841597133 
784	 0.181168126449286 
785	 0.181391295372218 
786	 0.181655580423531 
787	 0.181768511730582 
788	 0.181831149632212 
789	 0.181991969513309 
790	 0.182224266187969 
791	 0.18230183682554 
792	 0.182322402389132 
793	 0.182418097649727 
794	 0.182611316890259 
795	 0.182639326539993 
796	 0.182702295461637 
797	 0.18277787871551 
798	 0.182788373359472 
799	 0.182788418263829 
800	 0.182867896464372 
801	 0.182981849820851 
802	 0.182995766496293 
803	 0.182998355994653 
804	 0.183009039971873 
805	 0.183033133322875 
806	 0.183067574873204 
807	 0.183079386753043 
808	 0.183095775356034 
809	 0.183127723946619 
810	 0.1830881010373 
811	 0.183071292074612 
812	 0.18305506773486 
813	 0.1829888009296 
814	 0.182977414677419 
815	 0.182981525344036 
816	 0.182960070703855 
817	 0.182891746487956 
818	 0.182909608631234 
819	 0.182920101997372 
820	 0.182861612274552 
821	 0.182781273458054 
822	 0.182781563685203 
823	 0.182730244470231 
824	 0.182566042415758 
825	 0.182665705810771 
826	 0.182604179346469 
827	 0.182467296679348 
828	 0.182514979049688 
829	 0.182521142907709 
830	 0.182512362988225 
831	 0.182475166203732 
832	 0.182363553707736 
833	 0.182289893314312 
834	 0.182209652620501 
835	 0.182121977948007 
836	 0.182126166639649 
837	 0.182094906101285 
838	 0.182009699948289 
839	 0.181905144995449 
840	 0.18188540738226 
841	 0.181785155106697 
842	 0.18168524725972 
843	 0.181703663788394 
844	 0.181614970888018 
845	 0.181546198535235 
846	 0.181487060661283 
847	 0.181340504517265 
848	 0.181277529138995 
849	 0.181132418415608 
850	 0.180926136524861 
851	 0.180939248437011 
852	 0.180949034432659 
853	 0.180863256173095 
854	 0.180713236812167 
855	 0.180732315824613 
856	 0.180668617485759 
857	 0.180531729670156 
858	 0.180421975996602 
859	 0.180457291903404 
860	 0.180336459973006 
861	 0.180167236233773 
862	 0.180188915738357 
863	 0.180030273670229 
864	 0.179935990159693 
865	 0.179982061269931 
866	 0.180041389474708 
867	 0.17983603411541 
868	 0.179755074704851 
869	 0.179861895010169 
870	 0.1796748170955 
871	 0.179710667755735 
872	 0.179743197682984 
873	 0.179583693028263 
874	 0.179472187421949 
875	 0.179485823236276 
876	 0.179571649913885 
877	 0.179624061992325 
878	 0.179541949465478 
879	 0.179524919929356 
880	 0.179554765812684 
881	 0.1795429503468 
882	 0.179690596738854 
883	 0.179629797216216 
884	 0.179425202088729 
885	 0.179451421924416 
886	 0.179552542078675 
887	 0.179570159030052 
888	 0.179486602378694 
889	 0.179445753585675 
890	 0.17947435835972 
891	 0.179530565738686 
892	 0.179573415012092 
893	 0.179593995841324 
894	 0.179538316511257 
895	 0.179528090516684 
896	 0.179630968535105 
897	 0.179663152852372 
898	 0.17971619085176 
899	 0.17976522396197 
900	 0.179772394042295 
901	 0.179780568433851 
902	 0.179926867269759 
903	 0.180018517180328 
904	 0.179830082835231 
905	 0.17987452237258 
906	 0.179927178720484 
907	 0.179949310847246 
908	 0.180044966681953 
909	 0.180114976145119 
910	 0.180200980761725 
911	 0.180258558648253 
912	 0.180181130893871 
913	 0.180304511899543 
914	 0.180440836742897 
915	 0.180471728323685 
916	 0.18049078389933 
917	 0.180653005410435 
918	 0.180741122804786 
919	 0.180674610023491 
920	 0.180758266082919 
921	 0.18091551240736 
922	 0.181043632653748 
923	 0.181090883601296 
924	 0.181146345736655 
925	 0.181368916785057 
926	 0.181674792366789 
927	 0.181906113962734 
928	 0.181994318626859 
929	 0.181834338382991 
930	 0.181835234811831 
931	 0.182339018444928 
932	 0.182489235825104 
933	 0.182563792174455 
934	 0.182632170386395 
935	 0.182679755016332 
936	 0.182961316402602 
937	 0.18306403506379 
938	 0.183168893803214 
939	 0.183700047786948 
940	 0.183626706261178 
941	 0.183771908895469 
942	 0.184249735197655 
943	 0.184463573035415 
944	 0.184447659813745 
945	 0.18460549901021 
946	 0.184872494282599 
947	 0.184751111515054 
948	 0.185134094752017 
949	 0.185455210349662 
950	 0.185540430277088 
951	 0.185921205070886 
952	 0.186004414653057 
953	 0.186037455001464 
954	 0.186251762395596 
955	 0.186614250181375 
956	 0.18688600406756 
957	 0.186998615286387 
958	 0.187032064511493 
959	 0.187224715254459 
960	 0.18756009761383 
961	 0.187895243439383 
962	 0.188099322358404 
963	 0.18813994012141 
964	 0.18827687058406 
965	 0.188567616722949 
966	 0.188904972027892 
967	 0.188977451278319 
968	 0.18906309377333 
969	 0.189188202433739 
970	 0.189366044860758 
971	 0.189775602718408 
972	 0.189901992151656 
973	 0.190114985318768 
974	 0.190663702460531 
975	 0.190677244370598 
976	 0.190915904175449 
977	 0.19120059854394 
978	 0.191202544397478 
979	 0.191034147688084 
980	 0.191447208918473 
981	 0.19208778121948 
982	 0.192419217825485 
983	 0.192701579749472 
984	 0.192711032154316 
985	 0.192830709469984 
986	 0.193336344574981 
987	 0.193460884770017 
988	 0.193626263789655 
989	 0.193948560740247 
990	 0.194286777837762 
991	 0.193998357349017 
992	 0.194339170865249 
993	 0.194960939975868 
994	 0.195144209894068 
995	 0.195090941796729 
996	 0.195326502670058 
997	 0.195886441621026 
998	 0.196507464366627 
999	 0.196742979469304 
1000	 0.196556894087003 
1001	 0.201943846273583 
1002	 0.202503081263129 
1003	 0.202739883920292 
1004	 0.203025225110679 
1005	 0.203460317108035 
1006	 0.203768481071925 
1007	 0.203833192088086 
1008	 0.204097096871764 
1009	 0.204448075938176 
1010	 0.204853579566075 
1011	 0.205358049500278 
1012	 0.205713068076122 
1013	 0.206075023277288 
1014	 0.206449179838317 
1015	 0.20668976429365 
1016	 0.207004725405645 
1017	 0.207528920673075 
1018	 0.207776053728715 
1019	 0.207943704159491 
1020	 0.208348055046505 
1021	 0.208718366832875 
1022	 0.20914998181339 
1023	 0.209574814312922 
1024	 0.210012393893207 
1025	 0.210418473493843 
1026	 0.210743988285393 
1027	 0.211157686300738 
1028	 0.211621237108246 
1029	 0.212211909625545 
1030	 0.21247042470011 
1031	 0.212757646385118 
1032	 0.213004162671521 
1033	 0.21309036829583 
1034	 0.213423394929396 
1035	 0.213808497586945 
1036	 0.21406670489043 
1037	 0.214238413255733 
1038	 0.21449757604368 
1039	 0.214690745989418 
1040	 0.214945051539047 
1041	 0.215344156828075 
1042	 0.21563754236402 
1043	 0.215813532328716 
1044	 0.216184952505716 
1045	 0.216510209210397 
1046	 0.216636796009614 
1047	 0.216994207870123 
1048	 0.217402063770154 
1049	 0.217796725107306 
1050	 0.21809918239902 
1051	 0.218284397288434 
1052	 0.218545406775624 
1053	 0.218902565844509 
1054	 0.219353733935297 
1055	 0.219837192687503 
1056	 0.220498417009507 
1057	 0.220959468430503 
1058	 0.221326380453497 
1059	 0.221656275688247 
1060	 0.222108705674232 
1061	 0.222533062774685 
1062	 0.222949220984655 
1063	 0.223575378369515 
1064	 0.224142107577678 
1065	 0.22455030126986 
1066	 0.225138509944899 
1067	 0.225715146633408 
1068	 0.226183475533684 
1069	 0.226762439690733 
1070	 0.22731064597257 
1071	 0.227832251441845 
1072	 0.228352217847861 
1073	 0.2289479972142 
1074	 0.229521735060682 
1075	 0.230101398592189 
1076	 0.230777786360457 
1077	 0.231496417095168 
1078	 0.232099272570736 
1079	 0.232667068717824 
1080	 0.233195086323078 
1081	 0.233642441208499 
1082	 0.234252852514032 
1083	 0.234988426319034 
1084	 0.235635041872742 
1085	 0.236333635132743 
1086	 0.236961972120727 
1087	 0.237526956433619 
1088	 0.238020398554903 
1089	 0.238636927001695 
1090	 0.239204631742805 
1091	 0.239821024631439 
1092	 0.24050891627243 
1093	 0.241152611125611 
1094	 0.241765695315728 
1095	 0.242254807987059 
1096	 0.24272419577796 
1097	 0.243188121190354 
1098	 0.243668620469993 
1099	 0.244245554229743 
1100	 0.24473210176628 
1101	 0.245176258619707 
1102	 0.245647309225287 
1103	 0.24610537301669 
1104	 0.246509402693932 
1105	 0.247009606797003 
1106	 0.247575537860012 
1107	 0.248064445894665 
1108	 0.24854751773565 
1109	 0.249044590713892 
1110	 0.249460295370635 
1111	 0.249832569113102 
1112	 0.250176893116008 
1113	 0.250514147427407 
1114	 0.250886464109917 
1115	 0.251292572838563 
1116	 0.25176188895805 
1117	 0.252153846947735 
1118	 0.2525404280703 
1119	 0.252968603617299 
1120	 0.253279811965335 
1121	 0.253477565826663 
1122	 0.253785282952726 
1123	 0.254059597961786 
1124	 0.254196356756934 
1125	 0.25451126817325 
1126	 0.254824956132894 
1127	 0.255113666013878 
1128	 0.255504919989983 
1129	 0.25584291929888 
1130	 0.25610986798951 
1131	 0.256373330386805 
1132	 0.256602339625458 
1133	 0.256874164601154 
1134	 0.257170322076393 
1135	 0.257397057592324 
1136	 0.257556314512292 
1137	 0.257812174050504 
1138	 0.258055318532402 
1139	 0.258331574977875 
1140	 0.258723613296836 
1141	 0.258997848580766 
1142	 0.259225805730159 
1143	 0.25946334032677 
1144	 0.259694108759101 
1145	 0.2599690404536 
1146	 0.260267491938289 
1147	 0.2605815047438 
1148	 0.260840517865868 
1149	 0.26109781352738 
1150	 0.261396560844996 
1151	 0.261670899776394 
1152	 0.261956922858207 
1153	 0.262296946846842 
1154	 0.262576800006928 
1155	 0.26279695793547 
1156	 0.263070616076677 
1157	 0.263350199486911 
1158	 0.26361171867221 
1159	 0.263920239078879 
1160	 0.264136984765705 
1161	 0.26439587913583 
1162	 0.264749585170555 
1163	 0.265032069835385 
1164	 0.265356508031242 
1165	 0.265634922003301 
1166	 0.265822421890419 
1167	 0.266079746318335 
1168	 0.26646092742638 
1169	 0.266806544148079 
1170	 0.267186353948416 
1171	 0.267544608898576 
1172	 0.26793339401996 
1173	 0.268230467686565 
1174	 0.268475054908742 
1175	 0.268736410140739 
1176	 0.268926212481065 
1177	 0.269170796340711 
1178	 0.269425982113151 
1179	 0.269754568720172 
1180	 0.270063903787699 
1181	 0.27032917186561 
1182	 0.270679472088757 
1183	 0.270922903784512 
1184	 0.271128250432637 
1185	 0.271449215274779 
1186	 0.271745340184294 
1187	 0.272033741648427 
1188	 0.272343893865058 
1189	 0.27269214902663 
1190	 0.273003571210065 
1191	 0.273299030655296 
1192	 0.273602047191921 
1193	 0.273900638363512 
1194	 0.274205696342824 
1195	 0.27450664113611 
1196	 0.274816718733729 
1197	 0.275109438482372 
1198	 0.27546035195864 
1199	 0.2758396123454 
1200	 0.276188993028554 
1201	 0.276568184435166 
1202	 0.276950361622556 
1203	 0.277264986905681 
1204	 0.277636497074785 
1205	 0.278026623925415 
1206	 0.27842726212099 
1207	 0.278840257306154 
1208	 0.279314472648628 
1209	 0.27971634590322 
1210	 0.280049452673816 
1211	 0.280484548834873 
1212	 0.280936956481202 
1213	 0.281407909114872 
1214	 0.281951288401909 
1215	 0.282483538282771 
1216	 0.283023692433048 
1217	 0.28354095480074 
1218	 0.284058248193703 
1219	 0.284604165904577 
1220	 0.285062859001762 
1221	 0.285567938650608 
1222	 0.286177150169302 
1223	 0.286725166619495 
1224	 0.287280283870314 
1225	 0.287855919003518 
1226	 0.288426658815583 
1227	 0.289024535597322 
1228	 0.289512304997715 
1229	 0.289920774426086 
1230	 0.290407921971958 
1231	 0.290839132185191 
1232	 0.291308965969512 
1233	 0.291891390813528 
1234	 0.292407186026915 
1235	 0.292859521371665 
1236	 0.293323961555364 
1237	 0.293807571694464 
1238	 0.294269948715787 
1239	 0.294725664437656 
1240	 0.295143601351855 
1241	 0.295562102546394 
1242	 0.295977997175769 
1243	 0.296355401080913 
1244	 0.296688301125358 
1245	 0.297069319926683 
1246	 0.297441622260704 
1247	 0.297822843062015 
1248	 0.298242858784208 
1249	 0.298636276369753 
1250	 0.299009970568671 
1251	 0.299388185809997 
1252	 0.299788216656066 
1253	 0.300136891573195 
1254	 0.300438830793256 
1255	 0.300774718157227 
1256	 0.301099923650196 
1257	 0.301428280925293 
1258	 0.301786871862879 
1259	 0.302122521406332 
1260	 0.302496866011763 
1261	 0.302772993641593 
1262	 0.30297289155789 
1263	 0.303163932210203 
1264	 0.303388913366684 
1265	 0.303555353129206 
1266	 0.303770465666387 
1267	 0.304044412516014 
1268	 0.304310248774904 
1269	 0.304583645466732 
1270	 0.304802126524242 
1271	 0.305021631829007 
1272	 0.305245788242266 
1273	 0.305370395668109 
1274	 0.305607660893923 
1275	 0.305961087131773 
1276	 0.306244473630017 
1277	 0.306499246733588 
1278	 0.306804822064966 
1279	 0.307110326904309 
1280	 0.307435206359561 
1281	 0.307781066109895 
1282	 0.308177770612594 
1283	 0.308600263136627 
1284	 0.309038348637135 
1285	 0.309508443434126 
1286	 0.310048061212659 
1287	 0.310549438748232 
1288	 0.311039697419886 
1289	 0.311553580707009 
1290	 0.312077520282741 
1291	 0.312622060386801 
1292	 0.313160851458725 
1293	 0.313758011793299 
1294	 0.314388569764495 
1295	 0.315044006125148 
1296	 0.315790273963304 
1297	 0.316447296435381 
1298	 0.317068154159897 
1299	 0.317715880656675 
1300	 0.31834708636154 
1301	 0.318960990052393 
1302	 0.319603830833625 
1303	 0.320211251237288 
1304	 0.320759249012165 
1305	 0.321321441720479 
1306	 0.321881297352482 
1307	 0.322441435990438 
1308	 0.322984283827131 
1309	 0.323556689745199 
1310	 0.324080041299486 
1311	 0.324596918242373 
1312	 0.325088772936352 
1313	 0.325546742302505 
1314	 0.326001198741645 
1315	 0.326452731725852 
1316	 0.326872517053085 
1317	 0.327262914431039 
1318	 0.327650201298414 
1319	 0.328041060869137 
1320	 0.328374721501186 
1321	 0.328658457889213 
1322	 0.328963937127 
1323	 0.329274285777223 
1324	 0.329515760702399 
1325	 0.329704894963748 
1326	 0.329941059804251 
1327	 0.330164635860295 
1328	 0.330352260081436 
1329	 0.33058448083462 
1330	 0.330768894178939 
1331	 0.330856175020228 
1332	 0.330971975554876 
1333	 0.331107850719114 
1334	 0.331238417069836 
1335	 0.331317605063487 
1336	 0.331375030279068 
1337	 0.331411010357747 
1338	 0.331394681368909 
1339	 0.331422844976552 
1340	 0.331479953337229 
1341	 0.331469057062017 
1342	 0.331441251813218 
1343	 0.331401554519698 
1344	 0.331298291651819 
1345	 0.33124245873323 
1346	 0.331222008337199 
1347	 0.33117011819844 
1348	 0.331130523114772 
1349	 0.331042191020897 
1350	 0.330893486580025 
1351	 0.330795272782345 
1352	 0.330682926227967 
1353	 0.330592816345097 
1354	 0.330570118347003 
1355	 0.330492637002422 
1356	 0.330384825277211 
1357	 0.330281975252135 
1358	 0.33016548497486 
1359	 0.330041048251621 
1360	 0.329904250661616 
1361	 0.32977557440158 
1362	 0.329662338498184 
1363	 0.32953222394653 
1364	 0.329440295448299 
1365	 0.329380068125136 
1366	 0.329313907273458 
1367	 0.329277982497099 
1368	 0.329179117249681 
1369	 0.329068297855927 
1370	 0.328938527914198 
1371	 0.328758745210521 
1372	 0.328605288925397 
1373	 0.328469526924687 
1374	 0.32829719408948 
1375	 0.328067319882047 
1376	 0.327918850032386 
1377	 0.327822864628698 
1378	 0.327665829497302 
1379	 0.327521251192274 
1380	 0.327373309479936 
1381	 0.327170588655634 
1382	 0.326988381407175 
1383	 0.326833153515507 
1384	 0.326682496497516 
1385	 0.326509745188021 
1386	 0.326359041935568 
1387	 0.326225046537851 
1388	 0.326123328323152 
1389	 0.326015718618221 
1390	 0.325953518546562 
1391	 0.325932189632446 
1392	 0.325957795897664 
1393	 0.32596970761878 
1394	 0.32602399920029 
1395	 0.326047999681118 
1396	 0.326065792997204 
1397	 0.32609009718201 
1398	 0.326118019282884 
1399	 0.326132198574479 
1400	 0.326183318189028 
1401	 0.326130445520229 
1402	 0.326030008131333 
1403	 0.3258990510423 
1404	 0.325706145722045 
1405	 0.325500491554184 
1406	 0.325264601940312 
1407	 0.325021769237735 
1408	 0.324722708436237 
1409	 0.324460398897609 
1410	 0.324213863103625 
1411	 0.323964642491348 
1412	 0.323734817634922 
1413	 0.323485589311519 
1414	 0.323201773127578 
1415	 0.322954755454183 
1416	 0.322675732327101 
1417	 0.322475801572682 
1418	 0.322363173209196 
1419	 0.322223009176676 
1420	 0.322105522735903 
1421	 0.322006536195513 
1422	 0.3219038007348 
1423	 0.321807942033566 
1424	 0.321753028748535 
1425	 0.32167576686259 
1426	 0.321604340891118 
1427	 0.321565344770837 
1428	 0.321496119251299 
1429	 0.321474181237092 
1430	 0.321435209705703 
1431	 0.32137054127287 
1432	 0.321360925457375 
1433	 0.321409242991967 
1434	 0.321371800972653 
1435	 0.32131332792232 
1436	 0.321275064953746 
1437	 0.321180429009963 
1438	 0.321160181729558 
1439	 0.321204976166375 
1440	 0.321218822309323 
1441	 0.321224220720526 
1442	 0.321261703888663 
1443	 0.321297840800723 
1444	 0.321378830667633 
1445	 0.321480948460459 
1446	 0.321632226020552 
1447	 0.321801263014 
1448	 0.322044007123233 
1449	 0.322361183386292 
1450	 0.322690941425074 
1451	 0.323053165662155 
1452	 0.323478883899134 
1453	 0.323950252054759 
1454	 0.32444953516654 
1455	 0.325039719883669 
1456	 0.325597253907123 
1457	 0.326177015741539 
1458	 0.326728026816941 
1459	 0.327259081832438 
1460	 0.327798543057414 
1461	 0.328335277526643 
1462	 0.328852315240705 
1463	 0.329374454162985 
1464	 0.329874064792296 
1465	 0.330339394777676 
1466	 0.330793694268131 
1467	 0.331289870978206 
1468	 0.331778852920073 
1469	 0.332283788638623 
1470	 0.332759087104138 
1471	 0.333236570593359 
1472	 0.333692850452918 
1473	 0.334159391545401 
1474	 0.334637371071938 
1475	 0.335093185538431 
1476	 0.335544757444861 
1477	 0.335966118756347 
1478	 0.336354530449919 
1479	 0.336767985933283 
1480	 0.337173891670229 
1481	 0.337570891585462 
1482	 0.337997084260937 
1483	 0.338374974182783 
1484	 0.3387088197491 
1485	 0.339056882505198 
1486	 0.3393851885651 
1487	 0.33972721232568 
1488	 0.340062634911046 
1489	 0.340423418700737 
1490	 0.340810315516145 
1491	 0.341176987923319 
1492	 0.341535104092077 
1493	 0.341924155803078 
1494	 0.342315504079015 
1495	 0.342711416152687 
1496	 0.343138788159416 
1497	 0.34355783014347 
1498	 0.343964148153833 
1499	 0.34438615019444 
1500	 0.344833785633334 
1501	 0.345264645068849 
1502	 0.345701829362131 
1503	 0.346107461889054 
1504	 0.346486337273529 
1505	 0.346872743588941 
1506	 0.347239041489163 
1507	 0.347618171731397 
1508	 0.348016658150843 
1509	 0.348396443077148 
1510	 0.348800949324123 
1511	 0.349140257089589 
1512	 0.349415664743283 
1513	 0.349715463647426 
1514	 0.349982362843416 
1515	 0.350253617794722 
1516	 0.350576370750049 
1517	 0.350841502209243 
1518	 0.351017451057657 
1519	 0.351254952866296 
1520	 0.351511956194278 
1521	 0.351764914706738 
1522	 0.351989829293663 
1523	 0.352221742294138 
1524	 0.352469930353333 
1525	 0.352688000455732 
1526	 0.352898362515997 
1527	 0.353152629244868 
1528	 0.353352946814996 
1529	 0.353490071253147 
1530	 0.353646487428667 
1531	 0.353832608266183 
1532	 0.353946802596116 
1533	 0.353977128439338 
1534	 0.354113796965414 
1535	 0.35425896201405 
1536	 0.354434342902409 
1537	 0.354697210510282 
1538	 0.354872434102575 
1539	 0.354991816600533 
1540	 0.355183789444876 
1541	 0.35536911923256 
1542	 0.355600870172418 
1543	 0.355918900794717 
1544	 0.356157136703834 
1545	 0.356358667395201 
1546	 0.3566056305707 
1547	 0.356841467929912 
1548	 0.357098588303003 
1549	 0.357418901578568 
1550	 0.357672791715746 
1551	 0.357892300310302 
1552	 0.358117620292841 
1553	 0.358309794030679 
1554	 0.358537695904205 
1555	 0.358776946843945 
1556	 0.359023270320405 
1557	 0.359298277821209 
1558	 0.359546605575415 
1559	 0.359795522754138 
1560	 0.36002499690414 
1561	 0.360213770022634 
1562	 0.36044926231565 
1563	 0.360698273857863 
1564	 0.360945883102355 
1565	 0.361245992996382 
1566	 0.361480129548726 
1567	 0.361660637801152 
1568	 0.361873756555642 
1569	 0.362069532811927 
1570	 0.362278406700038 
1571	 0.362523599745873 
1572	 0.362734144839422 
1573	 0.362901655678143 
1574	 0.363115517894706 
1575	 0.363360941979407 
1576	 0.363571150408856 
1577	 0.363778815207264 
1578	 0.364000642980097 
1579	 0.364180862440142 
1580	 0.36441007026995 
1581	 0.36469132209095 
1582	 0.364963601270101 
1583	 0.365284931424558 
1584	 0.365534144121069 
1585	 0.365758646118347 
1586	 0.365966272905757 
1587	 0.366092560320235 
1588	 0.36627066822188 
1589	 0.366463623316304 
1590	 0.36666726263685 
1591	 0.366894209169569 
1592	 0.367119160532336 
1593	 0.367373889350056 
1594	 0.36758938738204 
1595	 0.367789798158307 
1596	 0.367980361743686 
1597	 0.368121258222903 
1598	 0.368300880000292 
1599	 0.368500143058808 
1600	 0.368694591650058 
1601	 0.368932491599411 
1602	 0.369113339332213 
1603	 0.369232278468575 
1604	 0.3693992181923 
1605	 0.369564894569725 
1606	 0.369724800043822 
1607	 0.369943639124695 
1608	 0.370101717601596 
1609	 0.370191339910171 
1610	 0.370313210930908 
1611	 0.370420005790951 
1612	 0.370540008449857 
1613	 0.370673963807395 
1614	 0.37081693482696 
1615	 0.370968865486807 
1616	 0.371123141498398 
1617	 0.371333566658092 
1618	 0.371463679482861 
1619	 0.37154815091401 
1620	 0.371626638758901 
1621	 0.371641652836887 
1622	 0.371673144187425 
1623	 0.371697207250718 
1624	 0.371743785114982 
1625	 0.371814708486782 
1626	 0.37185640576736 
1627	 0.371921550256777 
1628	 0.371946884937324 
1629	 0.3718574516669 
1630	 0.37188524059267 
1631	 0.371981725564595 
1632	 0.37205146577161 
1633	 0.372229257775742 
1634	 0.37230547889538 
1635	 0.372264427055359 
1636	 0.372286361501657 
1637	 0.37228091701546 
1638	 0.37231549134044 
1639	 0.372427973441753 
1640	 0.372493990187875 
1641	 0.372561538240112 
1642	 0.372597846017889 
1643	 0.372582456443762 
1644	 0.372594168426223 
1645	 0.372630344124829 
1646	 0.372622562160048 
1647	 0.372590219672276 
1648	 0.372567021637199 
1649	 0.372526322914662 
1650	 0.372464719270697 
1651	 0.372409864003045 
1652	 0.372349606614461 
1653	 0.372268588596253 
1654	 0.372155710504067 
1655	 0.372038541767419 
1656	 0.371900185360826 
1657	 0.371731525689471 
1658	 0.371536493734688 
1659	 0.371357427865769 
1660	 0.371095617248318 
1661	 0.370745439182877 
1662	 0.370394787777306 
1663	 0.369996024890145 
1664	 0.369600524690282 
1665	 0.369239583307287 
1666	 0.368783548580203 
1667	 0.368281383258898 
1668	 0.367727737284667 
1669	 0.367137834557368 
1670	 0.366430841246254 
1671	 0.365626855942052 
1672	 0.364804210830516 
1673	 0.363875137798764 
1674	 0.362931474654617 
1675	 0.361980206847356 
1676	 0.36099060011897 
1677	 0.359960518298775 
1678	 0.358880987559736 
1679	 0.357790118060192 
1680	 0.356603343697633 
1681	 0.355341487483727 
1682	 0.353996388234151 
1683	 0.352541067468829 
1684	 0.351133033954559 
1685	 0.349698841774473 
1686	 0.348203222443502 
1687	 0.346699177126314 
1688	 0.345128974309403 
1689	 0.343466588339599 
1690	 0.341774641054257 
1691	 0.340065194299619 
1692	 0.338334860285431 
1693	 0.336562099287109 
1694	 0.334760084460195 
1695	 0.332920036292995 
1696	 0.331073840564575 
1697	 0.329168783053473 
1698	 0.327270868926782 
1699	 0.325407321866152 
1700	 0.323521808840887 
1701	 0.321586565158065 
1702	 0.319681851690388 
1703	 0.317725774418947 
1704	 0.315952882890207 
1705	 0.314212184665318 
1706	 0.312625743945167 
1707	 0.311224207963597 
1708	 0.309851076257173 
1709	 0.30865516578735 
1710	 0.307587808171281 
1711	 0.306505958148967 
1712	 0.305539756897275 
1713	 0.304581109185382 
1714	 0.303666415509793 
1715	 0.302908079136281 
1716	 0.302185250369624 
1717	 0.301497369606935 
1718	 0.300891671950079 
1719	 0.30029241857717 
1720	 0.299646967286569 
1721	 0.299081407552858 
1722	 0.298595257442761 
1723	 0.298149589207515 
1724	 0.29786654322098 
1725	 0.297728529250985 
1726	 0.297648252544472 
1727	 0.297674842054332 
1728	 0.2978435051384 
1729	 0.29817754512969 
1730	 0.298687370781379 
1731	 0.29937585179533 
1732	 0.30018836806935 
1733	 0.30106117774007 
1734	 0.30200836768469 
1735	 0.302861374744377 
1736	 0.303667914655368 
1737	 0.304472484371591 
1738	 0.305258333209397 
1739	 0.305881708910147 
1740	 0.306447595599596 
1741	 0.306824234908301 
1742	 0.306975339802685 
1743	 0.307098023883167 
1744	 0.307120162388158 
1745	 0.307049974206528 
1746	 0.306823210249194 
1747	 0.306682016829283 
1748	 0.306473935174159 
1749	 0.306347420822183 
1750	 0.306274686975703 
1751	 0.306226270003592 
1752	 0.306170793478383 
1753	 0.306227698026851 
1754	 0.306361701152579 
1755	 0.306564921333346 
1756	 0.306836920256929 
1757	 0.307160809737296 
1758	 0.307615185613659 
1759	 0.308117627092096 
1760	 0.308714868473201 
1761	 0.309501207046463 
1762	 0.310340475831429 
1763	 0.311341243044068 
1764	 0.312440873555852 
1765	 0.313529875789612 
1766	 0.314767266150232 
1767	 0.316035761594825 
1768	 0.317370123183611 
1769	 0.318718508838913 
1770	 0.319914008676488 
1771	 0.321163196170145 
1772	 0.322373492638594 
1773	 0.323524697769456 
1774	 0.32470785718807 
1775	 0.325665502716585 
1776	 0.32649603977522 
1777	 0.32731260351349 
1778	 0.328081614766523 
1779	 0.328879425862557 
1780	 0.329591705489471 
1781	 0.330182942801626 
1782	 0.330755414620327 
1783	 0.331275092810863 
1784	 0.331772515183621 
1785	 0.332328586622492 
1786	 0.332725168283547 
1787	 0.33297835660622 
1788	 0.333312229118918 
1789	 0.333617444114512 
1790	 0.333904098824179 
1791	 0.334196516033619 
1792	 0.334508379814026 
1793	 0.33475642341745 
1794	 0.335165997868997 
1795	 0.33554928271891 
1796	 0.335718694697034 
1797	 0.335846331638109 
1798	 0.335944752457083 
1799	 0.336061753307081 
1800	 0.336297297426116 
1801	 0.344526710568662 
1802	 0.344753189786452 
1803	 0.345035901262146 
1804	 0.345363568802335 
1805	 0.345644641329934 
1806	 0.345906142032675 
1807	 0.346138292601183 
1808	 0.346428825841574 
1809	 0.346698138094631 
1810	 0.346998981848272 
1811	 0.347397162203067 
1812	 0.347715308678351 
1813	 0.34798545841692 
1814	 0.348299124071991 
1815	 0.348497067901169 
1816	 0.348740884742008 
1817	 0.349029730642739 
1818	 0.349325493669376 
1819	 0.349639408399031 
1820	 0.350007052841121 
1821	 0.350366418777717 
1822	 0.35072518744028 
1823	 0.351090040843682 
1824	 0.351461098041489 
1825	 0.351911478971877 
1826	 0.352316192807355 
1827	 0.352723057576186 
1828	 0.353101309570654 
1829	 0.353485370530031 
1830	 0.353830249072525 
1831	 0.354118495268817 
1832	 0.354458073422582 
1833	 0.35479753841125 
1834	 0.355032281367835 
1835	 0.355363576675364 
1836	 0.355706576143424 
1837	 0.356025058984079 
1838	 0.356361060951403 
1839	 0.356690971934598 
1840	 0.356969526533293 
1841	 0.357287914588697 
1842	 0.357615398702 
1843	 0.357979968670157 
1844	 0.358335632569605 
1845	 0.358727334518328 
1846	 0.359138778184164 
1847	 0.359439928203083 
1848	 0.359746447905419 
1849	 0.360058438212361 
1850	 0.360339210137272 
1851	 0.360582180300353 
1852	 0.36079907954715 
1853	 0.361055302976085 
1854	 0.361222116860106 
1855	 0.361363829591896 
1856	 0.361511876199289 
1857	 0.361545489018848 
1858	 0.361582854752133 
1859	 0.3616104390814 
1860	 0.361628430954052 
1861	 0.361574352758503 
1862	 0.361508935766381 
1863	 0.361368464586591 
1864	 0.361199106898929 
1865	 0.361079389885417 
1866	 0.360973830683492 
1867	 0.360824523064294 
1868	 0.360650402221303 
1869	 0.360344743098827 
1870	 0.360019812266998 
1871	 0.359705341634634 
1872	 0.359299908931829 
1873	 0.358790853724386 
1874	 0.358286970935355 
1875	 0.357815768837627 
1876	 0.357183560184869 
1877	 0.356546220752944 
1878	 0.355848117514161 
1879	 0.355024724442269 
1880	 0.354184535089413 
1881	 0.353214593946751 
1882	 0.35213467606487 
1883	 0.35103339901179 
1884	 0.349856474180984 
1885	 0.348483227446262 
1886	 0.347142972654003 
1887	 0.345654802232723 
1888	 0.343969999979776 
1889	 0.342344334881123 
1890	 0.340567494568132 
1891	 0.338742700674122 
1892	 0.33691210328524 
1893	 0.334964947482534 
1894	 0.332866957139651 
1895	 0.330834690776095 
1896	 0.328777585881129 
1897	 0.326700955925791 
1898	 0.324796606700754 
1899	 0.32282106214911 
1900	 0.320920379740286 
1901	 0.319054695463287 
1902	 0.31702432208723 
1903	 0.315159545553811 
1904	 0.313377572864147 
1905	 0.311620832153291 
1906	 0.309928420584624 
1907	 0.30845946499855 
1908	 0.30702325352383 
1909	 0.305658651891405 
1910	 0.304379694494589 
1911	 0.30315899726099 
1912	 0.302043108413963 
1913	 0.300936400853283 
1914	 0.299893988921378 
1915	 0.29897553218608 
1916	 0.298171741445001 
1917	 0.297423416137522 
1918	 0.296753029337963 
1919	 0.296172253045122 
1920	 0.295578997662171 
1921	 0.294976949327576 
1922	 0.29442656569246 
1923	 0.293915361028282 
1924	 0.293484204525861 
1925	 0.293101419930872 
1926	 0.29274895634353 
1927	 0.292472686883716 
1928	 0.292178170032105 
1929	 0.291879722754238 
1930	 0.291629739942676 
1931	 0.291426451373992 
1932	 0.291228844160446 
1933	 0.291115325559983 
1934	 0.291084859704914 
1935	 0.291124981113583 
1936	 0.291253857038015 
1937	 0.291398189917787 
1938	 0.291609961564515 
1939	 0.291827196385311 
1940	 0.292070370354822 
1941	 0.292334648183594 
1942	 0.292608503500819 
1943	 0.292954025863972 
1944	 0.293353420008802 
1945	 0.293703092512235 
1946	 0.294117475104936 
1947	 0.294572417275414 
1948	 0.295014548622858 
1949	 0.295600442870676 
1950	 0.296191184680297 
1951	 0.29685990480574 
1952	 0.297507745089831 
1953	 0.298196998089329 
1954	 0.298831032848332 
1955	 0.299507585464124 
1956	 0.300149073331519 
1957	 0.30082347976075 
1958	 0.301523889532896 
1959	 0.302163938732563 
1960	 0.302841961998147 
1961	 0.303497900885515 
1962	 0.304131274825695 
1963	 0.304766736421943 
1964	 0.305415410176647 
1965	 0.306020835863952 
1966	 0.306615079101912 
1967	 0.307188336328961 
1968	 0.307685139611389 
1969	 0.308215250825078 
1970	 0.308716487546421 
1971	 0.309145017823051 
1972	 0.309636840607093 
1973	 0.310147651245386 
1974	 0.310656474670393 
1975	 0.311200372399063 
1976	 0.311720355193881 
1977	 0.312222613192363 
1978	 0.312730137499213 
1979	 0.313220474350268 
1980	 0.313734198064481 
1981	 0.314275260917397 
1982	 0.314820775146768 
1983	 0.315434528374052 
1984	 0.316045189982456 
1985	 0.316600417378137 
1986	 0.317165798925894 
1987	 0.317718395449857 
1988	 0.31818938346415 
1989	 0.318764864601622 
1990	 0.31939187988053 
1991	 0.320024975458161 
1992	 0.320706339174678 
1993	 0.321397224089445 
1994	 0.322051568432634 
1995	 0.322703263392451 
1996	 0.32333982822202 
1997	 0.32396933114659 
1998	 0.32461919985306 
1999	 0.325281082912119 
2000	 0.325936180306226 
2001	 0.326645502671047 
2002	 0.327254386827833 
2003	 0.327793598713381 
2004	 0.328359988239416 
2005	 0.328902459499997 
2006	 0.329413390715138 
2007	 0.329919416613167 
2008	 0.330435727371758 
2009	 0.330897198976996 
2010	 0.33130965085247 
2011	 0.33165278712178 
2012	 0.331955486261324 
2013	 0.332239691886097 
2014	 0.33245637220497 
2015	 0.332662250167491 
2016	 0.33286810709992 
2017	 0.333022143765153 
2018	 0.333137766656394 
2019	 0.333207389213318 
2020	 0.333232174004498 
2021	 0.333239275173284 
2022	 0.333203574759763 
2023	 0.33310165305067 
2024	 0.333014144548927 
2025	 0.332944827349212 
2026	 0.332803748318267 
2027	 0.3326148569533 
2028	 0.332437357966111 
2029	 0.332206795377135 
2030	 0.33199884848949 
2031	 0.331831645055419 
2032	 0.331610488082865 
2033	 0.331342729935839 
2034	 0.331089833938613 
2035	 0.330818133980535 
2036	 0.330555299880862 
2037	 0.330275564800242 
2038	 0.329999765063964 
2039	 0.329755031747661 
2040	 0.329504569329358 
2041	 0.329294898250891 
2042	 0.329144812672346 
2043	 0.328952147204055 
2044	 0.328766631491186 
2045	 0.328567919546409 
2046	 0.328333823804476 
2047	 0.328141737222004 
2048	 0.327963030868456 
2049	 0.327786742168331 
2050	 0.327621644362144 
2051	 0.327499684300466 
2052	 0.327325135734491 
2053	 0.327103050392912 
2054	 0.326915584165135 
2055	 0.326699471265829 
2056	 0.326520944628711 
2057	 0.326387519714169 
2058	 0.326240200229922 
2059	 0.326090133239669 
2060	 0.32594852786638 
2061	 0.325826228131963 
2062	 0.325675696396919 
2063	 0.325477893428417 
2064	 0.32535310408768 
2065	 0.32527207939884 
2066	 0.325166359448396 
2067	 0.325066010248276 
2068	 0.324991177976196 
2069	 0.324879475932118 
2070	 0.324699306031677 
2071	 0.324581744157822 
2072	 0.324521214629799 
2073	 0.32438566447709 
2074	 0.324211057492627 
2075	 0.32407526938672 
2076	 0.32392552400838 
2077	 0.323769511465749 
2078	 0.323623004274709 
2079	 0.323496382113102 
2080	 0.323380911900202 
2081	 0.323239638750546 
2082	 0.323114484570759 
2083	 0.32296209783555 
2084	 0.322835793360412 
2085	 0.322698528981064 
2086	 0.322609686728081 
2087	 0.32263802274917 
2088	 0.322531265763741 
2089	 0.322371322407998 
2090	 0.322222940123403 
2091	 0.322021776565844 
2092	 0.321828359692626 
2093	 0.321631163189573 
2094	 0.321446636511012 
2095	 0.321274520457318 
2096	 0.321071711545218 
2097	 0.320898604793504 
2098	 0.320638669352502 
2099	 0.320433753468207 
2100	 0.320173040204069 
2101	 0.319973147476888 
2102	 0.31987285618386 
2103	 0.319633827910516 
2104	 0.319329628419438 
2105	 0.319053518985555 
2106	 0.318685456151286 
2107	 0.318397767599329 
2108	 0.318235019233027 
2109	 0.317930520508794 
2110	 0.317538908282979 
2111	 0.31720743192302 
2112	 0.31682096302392 
2113	 0.316462333036929 
2114	 0.316236282165317 
2115	 0.315889746910189 
2116	 0.315509860070945 
2117	 0.315003059809147 
2118	 0.314530732864435 
2119	 0.313994697015146 
2120	 0.31348335860005 
2121	 0.312932888061147 
2122	 0.312486942931678 
2123	 0.312079387725013 
2124	 0.311674843174416 
2125	 0.31136004080079 
2126	 0.31099976816567 
2127	 0.31055022229402 
2128	 0.310215644028963 
2129	 0.309941385920843 
2130	 0.309683645401648 
2131	 0.309550140504069 
2132	 0.309335500094983 
2133	 0.309054104500653 
2134	 0.308834731292477 
2135	 0.30860411614963 
2136	 0.308362399953735 
2137	 0.308186408398155 
2138	 0.308064118773841 
2139	 0.307951841534988 
2140	 0.307879496624998 
2141	 0.307788194000262 
2142	 0.307703270084341 
2143	 0.307651110594116 
2144	 0.307603634520289 
2145	 0.307578992626038 
2146	 0.307585147648489 
2147	 0.307621787418081 
2148	 0.307674092354737 
2149	 0.307736747905254 
2150	 0.30784175500256 
2151	 0.307953593853894 
2152	 0.308065549310438 
2153	 0.308194406574773 
2154	 0.308413915866271 
2155	 0.308532115268004 
2156	 0.308600069606748 
2157	 0.30859866735333 
2158	 0.308683987073669 
2159	 0.308752367359547 
2160	 0.308810218346392 
2161	 0.308937496071373 
2162	 0.308994457764126 
2163	 0.308967288286997 
2164	 0.308964478386434 
2165	 0.30896982427681 
2166	 0.308972670484619 
2167	 0.308967179802405 
2168	 0.308942376167851 
2169	 0.308915630679342 
2170	 0.308886644007917 
2171	 0.308807986690071 
2172	 0.308763315942073 
2173	 0.308738742320778 
2174	 0.308750892821148 
2175	 0.30870522672653 
2176	 0.308609642557912 
2177	 0.308568069017665 
2178	 0.308513097886591 
2179	 0.308466476602676 
2180	 0.308499918647422 
2181	 0.308405649690612 
2182	 0.308210894004656 
2183	 0.308081820279676 
2184	 0.307913618291247 
2185	 0.307794126059696 
2186	 0.307744633036403 
2187	 0.307642709614148 
2188	 0.307548573321188 
2189	 0.307390050224635 
2190	 0.307178372640523 
2191	 0.306983867333154 
2192	 0.306714596106582 
2193	 0.306516769053435 
2194	 0.30636820401653 
2195	 0.306209812127797 
2196	 0.306076347051711 
2197	 0.305962706947904 
2198	 0.305799809943206 
2199	 0.305651124840487 
2200	 0.30541748264465 
2201	 0.305139244298483 
2202	 0.304830024793984 
2203	 0.304433816366501 
2204	 0.304095656303763 
2205	 0.303737975668933 
2206	 0.303416479255679 
2207	 0.303125073608861 
2208	 0.302839921979051 
2209	 0.302626726401007 
2210	 0.302296782500481 
2211	 0.301930287545183 
2212	 0.301538591485241 
2213	 0.301013354621739 
2214	 0.300584086268596 
2215	 0.300228253673113 
2216	 0.299810972618268 
2217	 0.299398767960579 
2218	 0.298973391318137 
2219	 0.298503947560288 
2220	 0.29804125879177 
2221	 0.297604141953194 
2222	 0.297106634297734 
2223	 0.296657626783455 
2224	 0.296195267163896 
2225	 0.295692511514471 
2226	 0.29521863058115 
2227	 0.294539889039503 
2228	 0.293712553309652 
2229	 0.292894773790915 
2230	 0.291963509113602 
2231	 0.291022494296165 
2232	 0.290130502989593 
2233	 0.289042898177919 
2234	 0.287845921986922 
2235	 0.286545954645751 
2236	 0.285128706107898 
2237	 0.283595000857156 
2238	 0.281916947583872 
2239	 0.280188344362601 
2240	 0.278373558862615 
2241	 0.276418553617518 
2242	 0.274388919022236 
2243	 0.272241634331273 
2244	 0.269938445525004 
2245	 0.267566530865081 
2246	 0.264962615575065 
2247	 0.262474248150466 
2248	 0.259947621087148 
2249	 0.25742008587142 
2250	 0.254943678519086 
2251	 0.252581240745837 
2252	 0.249904730029639 
2253	 0.247127055040766 
2254	 0.244319542873271 
2255	 0.241536434632267 
2256	 0.239001151811404 
2257	 0.236601185289083 
2258	 0.234219073030793 
2259	 0.232016328635201 
2260	 0.229667842668723 
2261	 0.227252094928557 
2262	 0.224948331647632 
2263	 0.222584646214405 
2264	 0.220455738986389 
2265	 0.218514393229036 
2266	 0.216554292538262 
2267	 0.214803497547036 
2268	 0.212854709960632 
2269	 0.210789787475238 
2270	 0.208854790675232 
2271	 0.20679520723409 
2272	 0.204969241313418 
2273	 0.203382597196813 
2274	 0.201705783656309 
2275	 0.200188628556141 
2276	 0.198542785144442 
2277	 0.196827993641181 
2278	 0.195098933145441 
2279	 0.19323063493205 
2280	 0.19146143184677 
2281	 0.189742811777885 
2282	 0.187967285451424 
2283	 0.186222939833295 
2284	 0.184562220658027 
2285	 0.182419646099221 
2286	 0.180337518288815 
2287	 0.178358586324787 
2288	 0.176112002933474 
2289	 0.174122625485211 
2290	 0.172282949681571 
2291	 0.17027014123417 
2292	 0.168351937814168 
2293	 0.166560026412482 
2294	 0.164735923810954 
2295	 0.162881244122134 
2296	 0.161138457566692 
2297	 0.159698376751686 
2298	 0.158407493641799 
2299	 0.157320060446588 
2300	 0.156509036515672 
2301	 0.155960342441617 
2302	 0.155577876240264 
2303	 0.155466710406117 
2304	 0.155756975949839 
2305	 0.156054267288884 
2306	 0.156458187880116 
2307	 0.157128761414438 
2308	 0.157944249566693 
2309	 0.159129345217243 
2310	 0.160730611460988 
2311	 0.162265722117516 
2312	 0.164233977079115 
2313	 0.165854940411328 
2314	 0.167292425979979 
2315	 0.168861887384048 
2316	 0.17043948453672 
2317	 0.171854556852216 
2318	 0.173293694121499 
2319	 0.174572951055912 
2320	 0.175741229024805 
2321	 0.176699885496432 
2322	 0.177611254693657 
2323	 0.178240186435447 
2324	 0.178451609084205 
2325	 0.178665885536076 
2326	 0.178750249372264 
2327	 0.17871909247533 
2328	 0.178638073145448 
2329	 0.178395764505105 
2330	 0.177969561115582 
2331	 0.17747171507384 
2332	 0.176732551779225 
2333	 0.17589224284428 
2334	 0.174977047182898 
2335	 0.173705466046695 
2336	 0.172514701141746 
2337	 0.171299551012798 
2338	 0.170031439371336 
2339	 0.168930544308856 
2340	 0.167831719994366 
2341	 0.16688174818722 
2342	 0.165872412004436 
2343	 0.164755800951276 
2344	 0.163829336165959 
2345	 0.163096313835846 
2346	 0.162845420923853 
2347	 0.163041956945997 
2348	 0.163355428962257 
2349	 0.163813861610282 
2350	 0.164293000079409 
2351	 0.165026608617257 
2352	 0.166193914757948 
2353	 0.16745859663187 
2354	 0.168726754520185 
2355	 0.169955816073187 
2356	 0.170922759974639 
2357	 0.171729597460499 
2358	 0.172323826540122 
2359	 0.172788304516497 
2360	 0.173317862978448 
2361	 0.173621800775252 
2362	 0.173894246064719 
2363	 0.17414662778573 
2364	 0.174164213414044 
2365	 0.17409250919894 
2366	 0.174008651364689 
2367	 0.174020092085802 
2368	 0.174255330102063 
2369	 0.174564343206492 
2370	 0.174626280170684 
2371	 0.174527421216415 
2372	 0.174277589916701 
2373	 0.174039213836769 
2374	 0.174044288338923 
2375	 0.173943364201484 
2376	 0.173825485878443 
2377	 0.173721482586363 
2378	 0.173555270961194 
2379	 0.173609106062613 
2380	 0.173823261830642 
2381	 0.174044413144167 
2382	 0.174218217778519 
2383	 0.174458912789358 
2384	 0.174595529421684 
2385	 0.174579507568781 
2386	 0.174674819719527 
2387	 0.174856253107303 
2388	 0.174897005118241 
2389	 0.174845008404438 
2390	 0.175012525630304 
2391	 0.175147339631705 
2392	 0.175469103437533 
2393	 0.176204965469422 
2394	 0.176479674265654 
2395	 0.176548177777039 
2396	 0.176574596506502 
2397	 0.176299129391984 
2398	 0.176177285784155 
2399	 0.17621871843674 
2400	 0.176244492219465 
2401	 0.176056633603114 
2402	 0.176279658904616 
2403	 0.176749786920553 
2404	 0.177072018694043 
2405	 0.177474774257862 
2406	 0.177683870180325 
2407	 0.177265950617575 
2408	 0.176826901893478 
2409	 0.17674743395177 
2410	 0.176651881586578 
2411	 0.176669129690873 
2412	 0.176547843952311 
2413	 0.17626301470118 
2414	 0.176104968132792 
2415	 0.175881967446009 
2416	 0.176005957932232 
2417	 0.176174617815734 
2418	 0.176256246629717 
2419	 0.176447406466276 
2420	 0.176415012837796 
2421	 0.176568356389884 
2422	 0.176673033551042 
2423	 0.176533097974772 
2424	 0.17690649467779 
2425	 0.177228419368316 
2426	 0.177160581578347 
2427	 0.177037311116421 
2428	 0.176520401888246 
2429	 0.17597788150023 
2430	 0.175824862087613 
2431	 0.175902094298814 
2432	 0.175782341957235 
2433	 0.175571989838265 
2434	 0.175716642373765 
2435	 0.176076350802185 
2436	 0.176544669175322 
2437	 0.176812913516742 
2438	 0.17670319103635 
2439	 0.176385911654362 
2440	 0.175687460034764 
2441	 0.175143154512356 
2442	 0.175066439943369 
2443	 0.174475565577921 
2444	 0.174016073673375 
2445	 0.174595753046968 
2446	 0.174736238557379 
2447	 0.174006699443634 
2448	 0.17360006268803 
2449	 0.173079410793635 
2450	 0.172063395070699 
2451	 0.172065495652281 
2452	 0.172558396669339 
2453	 0.172001989306448 
2454	 0.171403933892547 
2455	 0.171369135558363 
2456	 0.171134390644987 
2457	 0.170986485447238 
2458	 0.171168021844516 
2459	 0.170626552122647 
2460	 0.169901534681613 
2461	 0.169810222116572 
2462	 0.169628322956294 
2463	 0.169621241635285 
2464	 0.169727482437759 
2465	 0.169009307188155 
2466	 0.167977099135511 
2467	 0.167196639600826 
2468	 0.166564748779613 
2469	 0.166541823601994 
2470	 0.166731725448681 
2471	 0.166572512446601 
2472	 0.166302163618191 
2473	 0.165807781346441 
2474	 0.165594574438943 
2475	 0.166015783407056 
2476	 0.166118446879007 
2477	 0.166181235357933 
2478	 0.166756119835764 
2479	 0.166601738666013 
2480	 0.166744501059321 
2481	 0.166939669077238 
2482	 0.166227543254398 
2483	 0.166981961060557 
2484	 0.167738619850136 
2485	 0.167310290824353 
2486	 0.167028426478836 
2487	 0.166288074520899 
2488	 0.166143329163161 
2489	 0.167112679880193 
2490	 0.167329707198557 
2491	 0.167429250215652 
2492	 0.166856500136679 
2493	 0.166479196588544 
2494	 0.167260052779234 
2495	 0.167982305838313 
2496	 0.168438645509612 
2497	 0.168941089325515 
2498	 0.169828198901866 
2499	 0.170956185289107 
2500	 0.171963997154696 
