Wavelength	Tablay400055.asd
350	 0.42789568407696 
351	 0.268178046245346 
352	 0.190544243254906 
353	 0.282057521909772 
354	 0.218955412616943 
355	 0.250389239844728 
356	 0.291758124075742 
357	 0.251664256542965 
358	 0.190355979301457 
359	 0.165982652554626 
360	 0.193630877917916 
361	 0.251354912097667 
362	 0.174673404446078 
363	 0.138185006171785 
364	 0.175584724329521 
365	 9.75781671521632E-02 
366	 0.100345777281803 
367	 0.140156034721887 
368	 0.14371677978669 
369	 0.156039272794655 
370	 0.123580518446948 
371	 8.75043891268576E-02 
372	 0.134966221511708 
373	 0.163553279565841 
374	 0.137365845053058 
375	 7.89299782869378E-02 
376	 9.86176975525217E-02 
377	 0.122937981244262 
378	 0.141646833261303 
379	 0.156583405951539 
380	 0.151256166405993 
381	 0.123298778366592 
382	 9.57565241141209E-02 
383	 9.24794088928541E-02 
384	 9.36932624234355E-02 
385	 0.089104951844953 
386	 8.34403983432302E-02 
387	 9.91312447678379E-02 
388	 9.02784449789421E-02 
389	 0.100722600377705 
390	 0.15468957943099 
391	 0.112440849113592 
392	 0.108152841576804 
393	 0.133187909427689 
394	 0.097135935994277 
395	 9.26359257614004E-02 
396	 0.10782399103733 
397	 0.113579324242098 
398	 7.30545875658534E-02 
399	 9.45383910437026E-02 
400	 0.122875543597338 
401	 9.45496512527005E-02 
402	 9.00297135081978E-02 
403	 8.98887859795218E-02 
404	 8.85541871690709E-02 
405	 0.092282023533787 
406	 9.13761398357761E-02 
407	 9.24772297531693E-02 
408	 9.59261159932356E-02 
409	 8.50641254362558E-02 
410	 7.89033595756123E-02 
411	 7.80598032654862E-02 
412	 7.86165680631495E-02 
413	 8.99605964933964E-02 
414	 8.22382826445103E-02 
415	 6.51700725766995E-02 
416	 8.06671272472972E-02 
417	 8.28752980343354E-02 
418	 7.77067917180799E-02 
419	 7.40635383017761E-02 
420	 6.65200840017003E-02 
421	 6.68635179728794E-02 
422	 7.16528976608801E-02 
423	 7.22907153203309E-02 
424	 7.04068139458768E-02 
425	 7.11451651044963E-02 
426	 7.26198889892204E-02 
427	 6.53120765664619E-02 
428	 6.25348674873077E-02 
429	 6.36040675390827E-02 
430	 6.51602481057362E-02 
431	 6.60894763964756E-02 
432	 6.57098786408855E-02 
433	 6.61899224702855E-02 
434	 6.98675266945643E-02 
435	 6.62173771640392E-02 
436	 6.39802448052559E-02 
437	 6.60658861063502E-02 
438	 0.063847866370533 
439	 6.13917735862864E-02 
440	 6.19814396724294E-02 
441	 6.59637069638436E-02 
442	 6.31761257373423E-02 
443	 6.26348436737316E-02 
444	 6.46787293940318E-02 
445	 6.29934216423486E-02 
446	 6.16778167130675E-02 
447	 6.14706882104821E-02 
448	 6.16147968213441E-02 
449	 5.88807280251115E-02 
450	 5.91645010898411E-02 
451	 6.16704559468206E-02 
452	 6.33329753209819E-02 
453	 0.064793878154239 
454	 6.26057088430459E-02 
455	 5.84119924086621E-02 
456	 5.91935581367258E-02 
457	 5.89284747304991E-02 
458	 5.92800166984699E-02 
459	 6.14115613427655E-02 
460	 6.00928551089571E-02 
461	 6.14747946270924E-02 
462	 6.30444597748947E-02 
463	 5.91368005299399E-02 
464	 5.95313235219677E-02 
465	 6.01426451776695E-02 
466	 0.058991245656801 
467	 5.94911787134021E-02 
468	 5.90326758297804E-02 
469	 5.79252645192106E-02 
470	 5.75030469116318E-02 
471	 0.060314960975059 
472	 0.059160184311839 
473	 5.59419138790447E-02 
474	 5.88603597777243E-02 
475	 0.058689109704303 
476	 5.80273374997126E-02 
477	 5.87972554065705E-02 
478	 5.73579775416896E-02 
479	 5.64325412830782E-02 
480	 5.68983520934936E-02 
481	 5.83262291615267E-02 
482	 0.056986639283243 
483	 5.62695880870393E-02 
484	 5.74272374115888E-02 
485	 5.88186593652659E-02 
486	 5.81039340135973E-02 
487	 5.73874877045152E-02 
488	 0.058179279596988 
489	 5.69461804121366E-02 
490	 5.55984658910497E-02 
491	 5.60068970278007E-02 
492	 5.90528433100338E-02 
493	 5.71606279310744E-02 
494	 5.54268398020792E-02 
495	 0.05643187650144 
496	 0.056343936994443 
497	 5.69395390833358E-02 
498	 0.056847912242669 
499	 5.50790772365398E-02 
500	 5.62964191830417E-02 
501	 5.67870984719032E-02 
502	 5.58978813770525E-02 
503	 5.57849065117534E-02 
504	 5.57277065262515E-02 
505	 5.59328467072509E-02 
506	 5.64442415845934E-02 
507	 5.66639910091259E-02 
508	 5.66378256313601E-02 
509	 5.62162309685876E-02 
510	 5.54209044058359E-02 
511	 5.58184249078982E-02 
512	 5.62036860842008E-02 
513	 5.61930610697215E-02 
514	 5.67369305583015E-02 
515	 5.66565044706833E-02 
516	 5.63866872936843E-02 
517	 5.64476499053543E-02 
518	 5.61332955443124E-02 
519	 5.62677083637633E-02 
520	 5.66663571078009E-02 
521	 5.65340854720909E-02 
522	 5.65244077524489E-02 
523	 5.66755267641153E-02 
524	 0.056940457743471 
525	 5.73272715855553E-02 
526	 5.74328956671392E-02 
527	 5.72410778519996E-02 
528	 5.69950886266848E-02 
529	 5.74775681009496E-02 
530	 5.75801374751152E-02 
531	 5.73352162192498E-02 
532	 5.80193522043127E-02 
533	 5.83432394708771E-02 
534	 5.80321305885608E-02 
535	 5.73707716942345E-02 
536	 5.74767056631897E-02 
537	 5.81962568965773E-02 
538	 5.89345109998204E-02 
539	 5.90025693447059E-02 
540	 5.93018858832741E-02 
541	 5.93494181066053E-02 
542	 5.91778196044949E-02 
543	 5.99097771459637E-02 
544	 6.02227810799322E-02 
545	 6.01440855258135E-02 
546	 6.01230605551072E-02 
547	 6.05176558276623E-02 
548	 6.08154301744535E-02 
549	 6.09390787557893E-02 
550	 6.12245708806096E-02 
551	 6.18561259934174E-02 
552	 6.23426271975223E-02 
553	 6.24509572558696E-02 
554	 0.062892639055968 
555	 0.063392372762937 
556	 0.063889042773359 
557	 6.44241134709494E-02 
558	 6.51073737937536E-02 
559	 6.57540132306755E-02 
560	 6.64400125644971E-02 
561	 6.76454744284692E-02 
562	 6.83346921270092E-02 
563	 6.89702973122843E-02 
564	 0.070136797953586 
565	 0.071267905422099 
566	 7.22253464959768E-02 
567	 7.31496995220804E-02 
568	 7.43466725022437E-02 
569	 7.54393504277411E-02 
570	 0.076651472585964 
571	 7.81773604851409E-02 
572	 7.99672258062427E-02 
573	 8.20677659962625E-02 
574	 8.42403662918195E-02 
575	 8.62198337661534E-02 
576	 8.82083871912541E-02 
577	 9.04910501722404E-02 
578	 9.30586526296899E-02 
579	 0.095577256243028 
580	 9.82247063503727E-02 
581	 0.101016327718638 
582	 0.103948016889547 
583	 0.106974631801041 
584	 0.110585011913256 
585	 0.114729252313552 
586	 0.119025547341616 
587	 0.123285674029374 
588	 0.128029754015194 
589	 0.133440409467586 
590	 0.139017277528745 
591	 0.144837211250996 
592	 0.150904876483046 
593	 0.157179815124156 
594	 0.163445901314019 
595	 0.169912859874652 
596	 0.176640508289756 
597	 0.183548520502779 
598	 0.190601777409175 
599	 0.197530672500777 
600	 0.20437624237593 
601	 0.211984956465514 
602	 0.219491597466721 
603	 0.226703584221194 
604	 0.233723803968518 
605	 0.240651622224482 
606	 0.247478735942644 
607	 0.254159518042944 
608	 0.260587928272588 
609	 0.266534277508259 
610	 0.272014684322602 
611	 0.277146148745448 
612	 0.282023454204893 
613	 0.286830894610573 
614	 0.291445898664969 
615	 0.295575935625641 
616	 0.299284263905401 
617	 0.302771786726973 
618	 0.306149200947436 
619	 0.309362513238418 
620	 0.312150730607273 
621	 0.314727702200575 
622	 0.317366498323035 
623	 0.319772945857451 
624	 0.321901287920477 
625	 0.323811994806481 
626	 0.325648290189734 
627	 0.327280357214871 
628	 0.328879099941121 
629	 0.330528970306282 
630	 0.331951105628799 
631	 0.333461964618211 
632	 0.334863484131764 
633	 0.335829261497535 
634	 0.336814282540373 
635	 0.338093992326606 
636	 0.339453675971822 
637	 0.340116274392348 
638	 0.340924249386168 
639	 0.341910544333377 
640	 0.342922290876394 
641	 0.343920566089451 
642	 0.344736910153993 
643	 0.345393018754893 
644	 0.346029177030624 
645	 0.346614848158561 
646	 0.347221674006484 
647	 0.347918839137321 
648	 0.348769919556046 
649	 0.349455901473516 
650	 0.350023736188913 
651	 0.350627390584093 
652	 0.351323500950486 
653	 0.352008770393831 
654	 0.352617391733683 
655	 0.353129404970129 
656	 0.353626740745979 
657	 0.354252190271056 
658	 0.354949160661004 
659	 0.35520266240291 
660	 0.355592781762298 
661	 0.356194944429828 
662	 0.356832416071271 
663	 0.357063990773975 
664	 0.357475290831225 
665	 0.358160152892468 
666	 0.358668032435308 
667	 0.359087004325385 
668	 0.359509811499615 
669	 0.359994815445078 
670	 0.360507448708619 
671	 0.36093494965694 
672	 0.361283581810812 
673	 0.361629416098062 
674	 0.362059453654531 
675	 0.362497647799589 
676	 0.362942134672584 
677	 0.363493876136932 
678	 0.363741676734668 
679	 0.364005052023458 
680	 0.364535749806973 
681	 0.364832286131994 
682	 0.365218465528672 
683	 0.365662048589027 
684	 0.365977446842818 
685	 0.366433752608531 
686	 0.366822193816682 
687	 0.367071657305847 
688	 0.367365200255722 
689	 0.367909098646824 
690	 0.368388878299403 
691	 0.36853452331262 
692	 0.368711563721707 
693	 0.368981163372963 
694	 0.369345420690159 
695	 0.369757051972256 
696	 0.370135926253448 
697	 0.370561397121715 
698	 0.371002480259942 
699	 0.371225345082385 
700	 0.37144906931905 
701	 0.371745097316707 
702	 0.372108048990862 
703	 0.372427307779984 
704	 0.372684406014986 
705	 0.37294948282755 
706	 0.373326703627618 
707	 0.373635651041151 
708	 0.373826285514293 
709	 0.373970361282264 
710	 0.374304659696358 
711	 0.374681489478068 
712	 0.375019898900115 
713	 0.375277163883254 
714	 0.375468903611944 
715	 0.375709441900376 
716	 0.376033184679289 
717	 0.376394783718186 
718	 0.376583359625741 
719	 0.37686951649968 
720	 0.377279524047577 
721	 0.377302693278111 
722	 0.377640842233753 
723	 0.37804979199031 
724	 0.378190458577206 
725	 0.378547870673018 
726	 0.37890215620061 
727	 0.379146258593426 
728	 0.379285802334066 
729	 0.379486441330875 
730	 0.379712387028702 
731	 0.379948456546791 
732	 0.380259896566057 
733	 0.380647269989445 
734	 0.380965546038098 
735	 0.381096092342033 
736	 0.381160337331526 
737	 0.381267542153786 
738	 0.381493215982716 
739	 0.381854613490782 
740	 0.382125305929487 
741	 0.38237555217288 
742	 0.382664028923773 
743	 0.382972038873384 
744	 0.383375743291781 
745	 0.38370241912352 
746	 0.383819941852079 
747	 0.383939354390625 
748	 0.384101457161245 
749	 0.384381854880557 
750	 0.384820650561115 
751	 0.385098763292554 
752	 0.385288009264844 
753	 0.385453897508067 
754	 0.385596407071019 
755	 0.385898926060353 
756	 0.38615323238804 
757	 0.386232310436058 
758	 0.386515744733484 
759	 0.386734484353809 
760	 0.386894116665804 
761	 0.387126794785302 
762	 0.387485949153057 
763	 0.387842240787372 
764	 0.388085454740416 
765	 0.388164911750304 
766	 0.388453636129769 
767	 0.388771826559711 
768	 0.388967187698823 
769	 0.389200351609941 
770	 0.389551480790027 
771	 0.3898422671599 
772	 0.389893805691354 
773	 0.390027593895768 
774	 0.39025434957453 
775	 0.390523309109475 
776	 0.390749549974981 
777	 0.390942268351233 
778	 0.391224750190663 
779	 0.391545988858783 
780	 0.391531843654951 
781	 0.391743644979969 
782	 0.392073268090265 
783	 0.392286886288772 
784	 0.392420665513045 
785	 0.39269778684514 
786	 0.393026486923445 
787	 0.393173013891068 
788	 0.393318195597065 
789	 0.393584049021494 
790	 0.393925066295587 
791	 0.394115427031005 
792	 0.394141662770248 
793	 0.394324359240837 
794	 0.394754012115552 
795	 0.394786983617207 
796	 0.394938402589796 
797	 0.395191714394564 
798	 0.39538328026035 
799	 0.395636211080114 
800	 0.395905581172254 
801	 0.396135612409114 
802	 0.396275655025909 
803	 0.396318530713028 
804	 0.396541677303389 
805	 0.396943202445387 
806	 0.397067707196535 
807	 0.397191969004356 
808	 0.397376080747302 
809	 0.397593820430064 
810	 0.397719049133792 
811	 0.397890837305005 
812	 0.398091002257974 
813	 0.398255421319153 
814	 0.398503383717134 
815	 0.39868917167304 
816	 0.398821077799918 
817	 0.399034084729575 
818	 0.399101880459478 
819	 0.399187403394454 
820	 0.399388047289784 
821	 0.399597910411029 
822	 0.399874894923353 
823	 0.400075530141443 
824	 0.400128908914371 
825	 0.400343184962701 
826	 0.400490239375011 
827	 0.400650900146094 
828	 0.400969941131234 
829	 0.401104214755156 
830	 0.401249377464429 
831	 0.40140848551021 
832	 0.401425072784574 
833	 0.401650611135954 
834	 0.401815646013864 
835	 0.401815251364635 
836	 0.401930598030872 
837	 0.402174610155261 
838	 0.402425854956964 
839	 0.402561519652253 
840	 0.402552570018361 
841	 0.402639241173556 
842	 0.402857393282808 
843	 0.40311131261043 
844	 0.403167480519147 
845	 0.403242259841877 
846	 0.40341494930753 
847	 0.40363072965378 
848	 0.403768365437261 
849	 0.403894742891427 
850	 0.404030266643441 
851	 0.404110508113812 
852	 0.404183125908566 
853	 0.404262962651008 
854	 0.404404827503216 
855	 0.404774362717023 
856	 0.405002517966087 
857	 0.405073659188143 
858	 0.405106177565816 
859	 0.405224265561433 
860	 0.405351897492084 
861	 0.405494326768443 
862	 0.405656567788761 
863	 0.405567064789677 
864	 0.405659004025915 
865	 0.405948900580225 
866	 0.406075047756473 
867	 0.406093383020193 
868	 0.406149857639639 
869	 0.406302790858824 
870	 0.406466367253857 
871	 0.406556177778179 
872	 0.406645797291051 
873	 0.406755441225447 
874	 0.406703931971685 
875	 0.406640678090582 
876	 0.406646329901948 
877	 0.406795649508936 
878	 0.407267232721554 
879	 0.407477304816464 
880	 0.407395684522787 
881	 0.407317301606636 
882	 0.407567344135586 
883	 0.407695203807777 
884	 0.407644135490339 
885	 0.407685935299604 
886	 0.407821351977851 
887	 0.407980909798352 
888	 0.408141719618619 
889	 0.40833863504159 
890	 0.408397034763492 
891	 0.408489369608639 
892	 0.408670267956154 
893	 0.40869445295572 
894	 0.408655670985976 
895	 0.40864213898339 
896	 0.408754402278758 
897	 0.409169727594847 
898	 0.409144302726438 
899	 0.408962979021554 
900	 0.409107434728643 
901	 0.409318134735301 
902	 0.409507817740131 
903	 0.409571504808078 
904	 0.409482975013123 
905	 0.409581636484845 
906	 0.409780550803132 
907	 0.409946266517712 
908	 0.40995550250259 
909	 0.409840913099023 
910	 0.409935069035862 
911	 0.410194787921611 
912	 0.410227534291558 
913	 0.41045457330779 
914	 0.410697746099104 
915	 0.41074355128931 
916	 0.410494642516762 
917	 0.410721714253599 
918	 0.410932076304028 
919	 0.410805703260043 
920	 0.410829532841442 
921	 0.410893914833295 
922	 0.411106682534907 
923	 0.411431498276062 
924	 0.411362867976348 
925	 0.411398572744063 
926	 0.411631841992616 
927	 0.411934938407728 
928	 0.41192696921138 
929	 0.412085085064859 
930	 0.412355252566516 
931	 0.412470381946906 
932	 0.412323197228719 
933	 0.412213055755452 
934	 0.412302405317299 
935	 0.412567002213449 
936	 0.412551115613805 
937	 0.412660196934055 
938	 0.41281092565018 
939	 0.412692710810717 
940	 0.41309799796913 
941	 0.413444428380571 
942	 0.413529774725389 
943	 0.413592639278526 
944	 0.41370214370828 
945	 0.413786431871701 
946	 0.413791357287711 
947	 0.413733018562001 
948	 0.413916234061606 
949	 0.414268970091728 
950	 0.414566820211492 
951	 0.414527346880956 
952	 0.414561956344702 
953	 0.414417589540564 
954	 0.414285933870772 
955	 0.415065588829973 
956	 0.415180823443792 
957	 0.415172495878037 
958	 0.415429097577801 
959	 0.415319371497715 
960	 0.41560495180319 
961	 0.415786118540568 
962	 0.415534624949616 
963	 0.415431966096114 
964	 0.415496737577788 
965	 0.415632746445003 
966	 0.415802086895382 
967	 0.416201772820601 
968	 0.416611071291381 
969	 0.41685141699193 
970	 0.416854770021923 
971	 0.416758632866084 
972	 0.4167508374219 
973	 0.416837046794578 
974	 0.417000590219727 
975	 0.417382993272987 
976	 0.417567471528907 
977	 0.417343567856112 
978	 0.416892088962656 
979	 0.417238630272946 
980	 0.417656280587526 
981	 0.418006770635371 
982	 0.41828007808731 
983	 0.418234812159231 
984	 0.417998843917699 
985	 0.417865359347801 
986	 0.418032930181701 
987	 0.418225937930754 
988	 0.418370690593431 
989	 0.418489067210545 
990	 0.418626351937885 
991	 0.418775623574405 
992	 0.418552654633386 
993	 0.418413522586925 
994	 0.418778348289418 
995	 0.418871720293243 
996	 0.418984872059301 
997	 0.419293127004002 
998	 0.419722755377358 
999	 0.419537118483231 
1000	 0.419538154518373 
1001	 0.427870369883676 
1002	 0.428080980455216 
1003	 0.428222995756783 
1004	 0.428320951161617 
1005	 0.428300449683371 
1006	 0.428486684049902 
1007	 0.428739735314879 
1008	 0.428879449326379 
1009	 0.42911732190388 
1010	 0.429203039534108 
1011	 0.429033722462985 
1012	 0.429083317639045 
1013	 0.429241482759016 
1014	 0.429364944482376 
1015	 0.429491426870015 
1016	 0.429713419710345 
1017	 0.430008684562081 
1018	 0.430096722527008 
1019	 0.430372315944849 
1020	 0.430683063488566 
1021	 0.430813252131141 
1022	 0.430802341605464 
1023	 0.430994944297495 
1024	 0.431185731982836 
1025	 0.431275732196444 
1026	 0.431413483213408 
1027	 0.431524699328196 
1028	 0.431522577309109 
1029	 0.431553675481202 
1030	 0.431740245691096 
1031	 0.431887883224127 
1032	 0.431722941684262 
1033	 0.431830452755323 
1034	 0.431983296390078 
1035	 0.432000938162146 
1036	 0.432025418998822 
1037	 0.432067400387728 
1038	 0.432083839635567 
1039	 0.431992601584831 
1040	 0.431997976351539 
1041	 0.432124113464994 
1042	 0.432179186625235 
1043	 0.432147274095089 
1044	 0.432290838861323 
1045	 0.43239560886025 
1046	 0.432524652880711 
1047	 0.432498826585713 
1048	 0.432301730280933 
1049	 0.432475562381867 
1050	 0.432616676010604 
1051	 0.432647947347743 
1052	 0.43287481165132 
1053	 0.433001221765747 
1054	 0.432862652188983 
1055	 0.432934426880861 
1056	 0.433198352725308 
1057	 0.433319098869668 
1058	 0.433440765019527 
1059	 0.433391588999253 
1060	 0.433346123890131 
1061	 0.433572986607032 
1062	 0.433889465279598 
1063	 0.434210280981237 
1064	 0.434563186086154 
1065	 0.434883580362887 
1066	 0.434911450476375 
1067	 0.434956677406175 
1068	 0.435257440225758 
1069	 0.435618812460341 
1070	 0.435919818875868 
1071	 0.436337762617846 
1072	 0.436660570285276 
1073	 0.436838998579916 
1074	 0.436947059616086 
1075	 0.437086233580636 
1076	 0.437469557455871 
1077	 0.437845895702259 
1078	 0.438008606287855 
1079	 0.438288192079793 
1080	 0.43860665261453 
1081	 0.438814266068117 
1082	 0.439118928478664 
1083	 0.439415552914822 
1084	 0.43966253554094 
1085	 0.439954347391588 
1086	 0.440219010605069 
1087	 0.440521735180111 
1088	 0.44078991190197 
1089	 0.44084652065474 
1090	 0.440899725295613 
1091	 0.441147565850187 
1092	 0.441305047775058 
1093	 0.441599177071414 
1094	 0.441998310461456 
1095	 0.442227520959715 
1096	 0.442381324947159 
1097	 0.442439778573826 
1098	 0.442543449877213 
1099	 0.442569887363277 
1100	 0.442603744094204 
1101	 0.44285073353635 
1102	 0.442951844584137 
1103	 0.443024939529358 
1104	 0.443052612504979 
1105	 0.443162379324984 
1106	 0.443144664852616 
1107	 0.443225142295573 
1108	 0.443406063755776 
1109	 0.443429499568111 
1110	 0.443474762504945 
1111	 0.44360325624862 
1112	 0.443676164850805 
1113	 0.443736926760995 
1114	 0.443791052856463 
1115	 0.443834082077546 
1116	 0.443875992194278 
1117	 0.443939951988049 
1118	 0.44397978960066 
1119	 0.444061156645961 
1120	 0.444034204622893 
1121	 0.443909395615053 
1122	 0.44385331796596 
1123	 0.443842396362955 
1124	 0.44384823344206 
1125	 0.443832374727797 
1126	 0.44384167686465 
1127	 0.443847135023119 
1128	 0.443869947663955 
1129	 0.443911549913494 
1130	 0.443900143136864 
1131	 0.443863724377457 
1132	 0.443760186501946 
1133	 0.443718990517488 
1134	 0.443774802335812 
1135	 0.443727781492085 
1136	 0.443592604262614 
1137	 0.443522941652359 
1138	 0.443470102585171 
1139	 0.443369963143788 
1140	 0.44321721203981 
1141	 0.443250242745886 
1142	 0.44318240721946 
1143	 0.443062789110911 
1144	 0.44313401758226 
1145	 0.443100496471699 
1146	 0.443054246478737 
1147	 0.44305574461568 
1148	 0.442996839349523 
1149	 0.443012402860746 
1150	 0.443017926762549 
1151	 0.442956142247961 
1152	 0.442945289844227 
1153	 0.442935453355777 
1154	 0.442921259801864 
1155	 0.442957101040224 
1156	 0.442948035834124 
1157	 0.442863586585278 
1158	 0.442856673748025 
1159	 0.442877201194594 
1160	 0.442905018972539 
1161	 0.442966029384776 
1162	 0.442942039429156 
1163	 0.442894244527243 
1164	 0.44290648485544 
1165	 0.442965046695379 
1166	 0.44307284877146 
1167	 0.443150134278937 
1168	 0.443213119748545 
1169	 0.443219594810024 
1170	 0.443123952151011 
1171	 0.443103381214446 
1172	 0.443073378170592 
1173	 0.443079218786144 
1174	 0.443132172288206 
1175	 0.44318606861986 
1176	 0.443273015070725 
1177	 0.443327248004101 
1178	 0.443385671201776 
1179	 0.443404511594342 
1180	 0.443461907851805 
1181	 0.443456273073129 
1182	 0.443461267811515 
1183	 0.443554720695814 
1184	 0.443560927530052 
1185	 0.443612543927495 
1186	 0.443648114209061 
1187	 0.443660987487406 
1188	 0.443688242097307 
1189	 0.443751482413948 
1190	 0.443735150849454 
1191	 0.443645353282244 
1192	 0.443660357403591 
1193	 0.443656317964223 
1194	 0.443722373015692 
1195	 0.443924571230838 
1196	 0.444055437009099 
1197	 0.444181770218324 
1198	 0.444273833225565 
1199	 0.444399412871109 
1200	 0.444503166007271 
1201	 0.444585011474436 
1202	 0.444689065727805 
1203	 0.444764388484321 
1204	 0.444833573784282 
1205	 0.444912635309572 
1206	 0.44497484232216 
1207	 0.44509146769604 
1208	 0.445223702785349 
1209	 0.445377370856568 
1210	 0.445587621321849 
1211	 0.4457917316324 
1212	 0.44597129143864 
1213	 0.446221777314233 
1214	 0.446536691071434 
1215	 0.446818077004381 
1216	 0.447111935340572 
1217	 0.447427283087521 
1218	 0.447769333237304 
1219	 0.448061025036649 
1220	 0.448333978934632 
1221	 0.448728058330878 
1222	 0.449000500630625 
1223	 0.449216155310127 
1224	 0.449518041649013 
1225	 0.449854053436188 
1226	 0.450160147400765 
1227	 0.450483506469754 
1228	 0.450824318967006 
1229	 0.451162799645694 
1230	 0.451487421095042 
1231	 0.451871590999046 
1232	 0.452181343665508 
1233	 0.45242037931606 
1234	 0.452672485863039 
1235	 0.452904222553649 
1236	 0.453126196861712 
1237	 0.453356221943836 
1238	 0.45356320674514 
1239	 0.453718695931422 
1240	 0.453898610298518 
1241	 0.454185318531353 
1242	 0.454355392819866 
1243	 0.454556855526132 
1244	 0.454775797631199 
1245	 0.455023968962144 
1246	 0.455265013346049 
1247	 0.45549138879084 
1248	 0.455751887450446 
1249	 0.455994393169363 
1250	 0.456199421668646 
1251	 0.456406639631348 
1252	 0.456665829529165 
1253	 0.456858567935339 
1254	 0.456970128143659 
1255	 0.457119431379733 
1256	 0.457280321835977 
1257	 0.457419259259416 
1258	 0.457571905486383 
1259	 0.45768632287271 
1260	 0.457720534447518 
1261	 0.457813264815734 
1262	 0.457895222129452 
1263	 0.458020296352247 
1264	 0.458179704338512 
1265	 0.458416590565744 
1266	 0.458576078104918 
1267	 0.458745750836889 
1268	 0.458870276946941 
1269	 0.458939775871189 
1270	 0.459035470817371 
1271	 0.459097228296441 
1272	 0.459216047326331 
1273	 0.459388146140967 
1274	 0.459510045679459 
1275	 0.459602372568862 
1276	 0.459758543164408 
1277	 0.459953864048585 
1278	 0.46008859385763 
1279	 0.460226698767833 
1280	 0.460389556829066 
1281	 0.460474775304542 
1282	 0.460624348024221 
1283	 0.460867665408713 
1284	 0.461095618056489 
1285	 0.461328314146199 
1286	 0.461545367733778 
1287	 0.461822100721319 
1288	 0.4621215947769 
1289	 0.462452300547312 
1290	 0.462870254110022 
1291	 0.463169064396579 
1292	 0.463413114137596 
1293	 0.463720404284511 
1294	 0.463990113378949 
1295	 0.464292560800719 
1296	 0.464670712340517 
1297	 0.465007334649015 
1298	 0.465299810629603 
1299	 0.465621964130814 
1300	 0.465973917848337 
1301	 0.466308883664601 
1302	 0.466645891380364 
1303	 0.466966846780528 
1304	 0.467298546984699 
1305	 0.467589787463625 
1306	 0.467814838495059 
1307	 0.468084974787153 
1308	 0.468341259537474 
1309	 0.468632478117008 
1310	 0.468896853234492 
1311	 0.469198202220135 
1312	 0.469438270410111 
1313	 0.469641153240701 
1314	 0.469829485906708 
1315	 0.4699841762868 
1316	 0.470165531357521 
1317	 0.470334999589398 
1318	 0.470504107601581 
1319	 0.470712728344233 
1320	 0.470856335727715 
1321	 0.47096833997674 
1322	 0.471056405154723 
1323	 0.471101718002898 
1324	 0.471151539773844 
1325	 0.471175513897014 
1326	 0.471207379951601 
1327	 0.471243132868535 
1328	 0.471264756614706 
1329	 0.471277830226119 
1330	 0.471290330894818 
1331	 0.471282609720808 
1332	 0.471293275586037 
1333	 0.471340325139001 
1334	 0.471343187977625 
1335	 0.471337287492768 
1336	 0.471344388748376 
1337	 0.471282859668413 
1338	 0.471176343672229 
1339	 0.471061873647515 
1340	 0.470886566556264 
1341	 0.470784675676517 
1342	 0.470709154983178 
1343	 0.470607792208256 
1344	 0.470533331342963 
1345	 0.470430937369762 
1346	 0.470307061772174 
1347	 0.470158343865882 
1348	 0.470002281436053 
1349	 0.469836715163823 
1350	 0.469643410605646 
1351	 0.469441521945585 
1352	 0.469189810917839 
1353	 0.469016517943621 
1354	 0.468844470126596 
1355	 0.468715517389772 
1356	 0.468718031540406 
1357	 0.468630773660436 
1358	 0.468531350741119 
1359	 0.468387625104571 
1360	 0.468170494591104 
1361	 0.46794840794065 
1362	 0.467760948911374 
1363	 0.467651172639842 
1364	 0.467509179946437 
1365	 0.467418476309405 
1366	 0.467281770427984 
1367	 0.467122642513967 
1368	 0.466940334728976 
1369	 0.46674899171326 
1370	 0.466553562101104 
1371	 0.466341291368842 
1372	 0.466106481463634 
1373	 0.465851989000538 
1374	 0.465621142778327 
1375	 0.465355875543938 
1376	 0.465125242708786 
1377	 0.464923028974851 
1378	 0.464738019200803 
1379	 0.464596831148889 
1380	 0.464397463286499 
1381	 0.464178326032117 
1382	 0.463978629572404 
1383	 0.46373228454575 
1384	 0.463520918056347 
1385	 0.463364676361983 
1386	 0.463191301847141 
1387	 0.463009440272192 
1388	 0.46283579711339 
1389	 0.462638466027297 
1390	 0.462489945079072 
1391	 0.462371672074891 
1392	 0.462256091867432 
1393	 0.462167525368188 
1394	 0.462143217117833 
1395	 0.462104757952102 
1396	 0.462090527401048 
1397	 0.462047456702969 
1398	 0.462014355337654 
1399	 0.461953401693629 
1400	 0.461877022199991 
1401	 0.461767727023371 
1402	 0.461661737335101 
1403	 0.461482450230965 
1404	 0.461234842025096 
1405	 0.461008291021428 
1406	 0.460766274579262 
1407	 0.460480083653277 
1408	 0.460152166882679 
1409	 0.459856827210863 
1410	 0.459519728209321 
1411	 0.45922091194613 
1412	 0.458958354823229 
1413	 0.458716266098479 
1414	 0.45848443211827 
1415	 0.458255803893225 
1416	 0.458049761133619 
1417	 0.457858302573117 
1418	 0.457648964855909 
1419	 0.457488056823889 
1420	 0.457395403331188 
1421	 0.457277991559468 
1422	 0.457149527178683 
1423	 0.457051450931593 
1424	 0.456952596023199 
1425	 0.456894361752408 
1426	 0.45682811014096 
1427	 0.45673734570016 
1428	 0.456637682046748 
1429	 0.45651812088884 
1430	 0.456410652415187 
1431	 0.456308136790979 
1432	 0.456222434231994 
1433	 0.45613981497119 
1434	 0.456051808686635 
1435	 0.455982579367878 
1436	 0.455895910741304 
1437	 0.455799561211963 
1438	 0.455691201777682 
1439	 0.455561820419818 
1440	 0.455469520397218 
1441	 0.455352608257826 
1442	 0.455300367805268 
1443	 0.455322891675051 
1444	 0.45530316712296 
1445	 0.455275388530617 
1446	 0.455288001973682 
1447	 0.455274252335572 
1448	 0.455337514705317 
1449	 0.455447110902617 
1450	 0.45561563476704 
1451	 0.455854008539482 
1452	 0.456103403258812 
1453	 0.456413998869755 
1454	 0.456722543023708 
1455	 0.457054695515311 
1456	 0.457374719906202 
1457	 0.45772056979094 
1458	 0.458042223387963 
1459	 0.458346838297784 
1460	 0.458648372447705 
1461	 0.458939235071917 
1462	 0.459225616054222 
1463	 0.459505268377313 
1464	 0.459775727423967 
1465	 0.460030294811802 
1466	 0.460295041057973 
1467	 0.4605617036714 
1468	 0.46082075187036 
1469	 0.461060366546512 
1470	 0.461320397752709 
1471	 0.461584218431439 
1472	 0.461846487383575 
1473	 0.462103107749004 
1474	 0.462388010944566 
1475	 0.462620021628457 
1476	 0.462804852183176 
1477	 0.463037269546086 
1478	 0.463278877676707 
1479	 0.463484416254155 
1480	 0.463708202154728 
1481	 0.463888709590549 
1482	 0.464004761103876 
1483	 0.464170488897248 
1484	 0.464350309895584 
1485	 0.464523674759114 
1486	 0.464697334283584 
1487	 0.464879289169497 
1488	 0.465073227793158 
1489	 0.465242008788616 
1490	 0.465420187439974 
1491	 0.465571589513949 
1492	 0.465643233567908 
1493	 0.465824080856203 
1494	 0.466045407135009 
1495	 0.466275634112113 
1496	 0.466592212319469 
1497	 0.466854553841075 
1498	 0.467074950949632 
1499	 0.467335993164644 
1500	 0.46762294407161 
1501	 0.467889254328571 
1502	 0.46817281962014 
1503	 0.468433038916613 
1504	 0.468663951085969 
1505	 0.468896078842844 
1506	 0.469096822597004 
1507	 0.469344019911528 
1508	 0.469636623170912 
1509	 0.469888855580244 
1510	 0.470180458546833 
1511	 0.470410705040192 
1512	 0.470577087319707 
1513	 0.470729492005447 
1514	 0.470831907234304 
1515	 0.470954711208634 
1516	 0.471066988866159 
1517	 0.471181001712017 
1518	 0.471299358591467 
1519	 0.471425318361589 
1520	 0.471562030453323 
1521	 0.4716833271111 
1522	 0.471789026019369 
1523	 0.471911275038646 
1524	 0.471980542044257 
1525	 0.471992293942204 
1526	 0.472073509651973 
1527	 0.472168720935071 
1528	 0.472233026677503 
1529	 0.472317624963422 
1530	 0.472385201035302 
1531	 0.472397200269413 
1532	 0.472488009411561 
1533	 0.472635830282596 
1534	 0.472731770297985 
1535	 0.472841050678507 
1536	 0.472915029382477 
1537	 0.472942944362485 
1538	 0.473014043206362 
1539	 0.473081807442796 
1540	 0.47317826383852 
1541	 0.473316494031504 
1542	 0.473406626669288 
1543	 0.473501496444314 
1544	 0.473566716610806 
1545	 0.473573098647078 
1546	 0.473644799652421 
1547	 0.473710239481262 
1548	 0.473837485411329 
1549	 0.47402726929891 
1550	 0.474200261937965 
1551	 0.474421901227682 
1552	 0.474591142215573 
1553	 0.474737865075665 
1554	 0.474885134743054 
1555	 0.475009516520603 
1556	 0.47514443167869 
1557	 0.475279771916721 
1558	 0.475419379273707 
1559	 0.475561897986176 
1560	 0.47569870009199 
1561	 0.475853681603389 
1562	 0.475970518015089 
1563	 0.476048280900473 
1564	 0.476158072865815 
1565	 0.476249423464212 
1566	 0.476372486894894 
1567	 0.476543388532946 
1568	 0.476681216749914 
1569	 0.476802291978735 
1570	 0.476947711752433 
1571	 0.477124870391943 
1572	 0.477242846600188 
1573	 0.477344309106045 
1574	 0.477443380872235 
1575	 0.477501516219103 
1576	 0.477557285823147 
1577	 0.477585453817735 
1578	 0.477679815395371 
1579	 0.477774997377111 
1580	 0.47789926388687 
1581	 0.478131933498766 
1582	 0.478284893633142 
1583	 0.478389993004406 
1584	 0.478512601511798 
1585	 0.478604943779282 
1586	 0.478726521436831 
1587	 0.478900718104929 
1588	 0.47901501556427 
1589	 0.479108766224693 
1590	 0.479197124863977 
1591	 0.479237916725349 
1592	 0.479295501015835 
1593	 0.479353288924795 
1594	 0.479429526237192 
1595	 0.479525475671429 
1596	 0.479595248991011 
1597	 0.47965226267592 
1598	 0.479735462916425 
1599	 0.479821666988553 
1600	 0.479898857357809 
1601	 0.479994052802044 
1602	 0.480089073159095 
1603	 0.480174706069346 
1604	 0.480245034849512 
1605	 0.480338148128764 
1606	 0.480395435929107 
1607	 0.480403653678715 
1608	 0.480425160531872 
1609	 0.480421219945686 
1610	 0.480453734978444 
1611	 0.480501778268689 
1612	 0.480553066330224 
1613	 0.48064407361157 
1614	 0.480708218254678 
1615	 0.480778210464626 
1616	 0.480813016991807 
1617	 0.48080349507759 
1618	 0.480817417746737 
1619	 0.480839802845756 
1620	 0.480826334966807 
1621	 0.48079884545483 
1622	 0.480776844188422 
1623	 0.48072595952678 
1624	 0.480671597203684 
1625	 0.480616963184115 
1626	 0.480582042363358 
1627	 0.480511903311461 
1628	 0.480502305022638 
1629	 0.480605794910685 
1630	 0.480609530016248 
1631	 0.480607998925148 
1632	 0.480553512447729 
1633	 0.480340607972092 
1634	 0.48026351058507 
1635	 0.480222358272632 
1636	 0.48021963052369 
1637	 0.480382706522562 
1638	 0.480407531163718 
1639	 0.480348018615641 
1640	 0.480331809539258 
1641	 0.480262059698876 
1642	 0.480202996790413 
1643	 0.480191574024352 
1644	 0.480160044314934 
1645	 0.480112934023142 
1646	 0.480061105247036 
1647	 0.480022423321392 
1648	 0.479954412885411 
1649	 0.479809212658077 
1650	 0.47973696981485 
1651	 0.479782627623069 
1652	 0.479662215485211 
1653	 0.479449562213716 
1654	 0.479295282430096 
1655	 0.47902800792775 
1656	 0.478850477010298 
1657	 0.478824012251463 
1658	 0.478699577574753 
1659	 0.478521892678787 
1660	 0.478341624746427 
1661	 0.478191710433039 
1662	 0.477942310748114 
1663	 0.477581047801912 
1664	 0.477303303344769 
1665	 0.476991452808839 
1666	 0.476687982909693 
1667	 0.476515542751209 
1668	 0.476203471363696 
1669	 0.475778036013259 
1670	 0.475365654332621 
1671	 0.474898520559382 
1672	 0.47443191066535 
1673	 0.473970334949338 
1674	 0.473484903813019 
1675	 0.472993785216303 
1676	 0.472456096659162 
1677	 0.471908526758141 
1678	 0.47128190507729 
1679	 0.470594224884298 
1680	 0.46985417097534 
1681	 0.469047107032017 
1682	 0.468223467032071 
1683	 0.46733933392039 
1684	 0.466476006522666 
1685	 0.465569587285294 
1686	 0.464702387367623 
1687	 0.463896702391581 
1688	 0.462973681477518 
1689	 0.462020491212075 
1690	 0.461033515677617 
1691	 0.459960743176984 
1692	 0.45890897963599 
1693	 0.457893432515124 
1694	 0.456795381451736 
1695	 0.455575819768788 
1696	 0.454463667035714 
1697	 0.453397453648676 
1698	 0.45224030903605 
1699	 0.451110844650153 
1700	 0.449949334537486 
1701	 0.448667162851777 
1702	 0.447481926127477 
1703	 0.446318106499928 
1704	 0.445239702505617 
1705	 0.444193332892713 
1706	 0.44319864586647 
1707	 0.442324023849895 
1708	 0.441474983736026 
1709	 0.440706878905771 
1710	 0.440004640245732 
1711	 0.439341114963013 
1712	 0.438774700571843 
1713	 0.438226970158115 
1714	 0.437753351991126 
1715	 0.437314263138908 
1716	 0.436749496575048 
1717	 0.436205077625731 
1718	 0.435717380501648 
1719	 0.435252920083233 
1720	 0.434896697099648 
1721	 0.43452770911235 
1722	 0.434157092361996 
1723	 0.43388662348869 
1724	 0.433671262429886 
1725	 0.433615806711131 
1726	 0.433620892228757 
1727	 0.433607641774981 
1728	 0.433707042454811 
1729	 0.43391715606808 
1730	 0.434258806674549 
1731	 0.434675025543579 
1732	 0.435271656486942 
1733	 0.435874579291434 
1734	 0.436371296444103 
1735	 0.436964659184789 
1736	 0.437415856126443 
1737	 0.437796345554723 
1738	 0.438252490226265 
1739	 0.438568382107678 
1740	 0.438772455850042 
1741	 0.438960663175427 
1742	 0.439082048349565 
1743	 0.439143875768368 
1744	 0.439154684152826 
1745	 0.439131287263503 
1746	 0.439044575085842 
1747	 0.438973445862829 
1748	 0.438862765232971 
1749	 0.438782447580181 
1750	 0.438646635534835 
1751	 0.438606148841713 
1752	 0.438676904945687 
1753	 0.438672437973948 
1754	 0.438639850447904 
1755	 0.438698604782854 
1756	 0.438718408067075 
1757	 0.438875873301851 
1758	 0.439167288563937 
1759	 0.439536949432213 
1760	 0.440005452564908 
1761	 0.440488209238551 
1762	 0.441011138698889 
1763	 0.441707514870843 
1764	 0.442428716880377 
1765	 0.443168274572907 
1766	 0.443962944165883 
1767	 0.444607398236008 
1768	 0.445172411950013 
1769	 0.445828769228907 
1770	 0.446518831478736 
1771	 0.447232589980881 
1772	 0.447921735481987 
1773	 0.448484515096875 
1774	 0.449084708950515 
1775	 0.449747876267289 
1776	 0.450364932678199 
1777	 0.450954846456949 
1778	 0.4514348721236 
1779	 0.451776151376231 
1780	 0.452035121326481 
1781	 0.452397004674442 
1782	 0.452823420016309 
1783	 0.45314936301246 
1784	 0.453491382885588 
1785	 0.453674937952054 
1786	 0.453843434165324 
1787	 0.453942168039888 
1788	 0.454065778837505 
1789	 0.454179180444575 
1790	 0.454363562161707 
1791	 0.454556266888495 
1792	 0.45475171479418 
1793	 0.455007128656944 
1794	 0.455216525664811 
1795	 0.455414514635478 
1796	 0.455598304029479 
1797	 0.455832435677786 
1798	 0.45596826056088 
1799	 0.45609147357493 
1800	 0.456290313761662 
1801	 0.459439661994137 
1802	 0.45961654597978 
1803	 0.459770812397638 
1804	 0.459968961700817 
1805	 0.460152736631559 
1806	 0.460290019378023 
1807	 0.460384271283874 
1808	 0.46048495897357 
1809	 0.46055483816217 
1810	 0.46063854352714 
1811	 0.460662812696495 
1812	 0.460786431912812 
1813	 0.460923203938734 
1814	 0.461139163020557 
1815	 0.461459590819572 
1816	 0.461777542614123 
1817	 0.462033475413618 
1818	 0.462299908861165 
1819	 0.462524810117001 
1820	 0.462623945449983 
1821	 0.462830703998061 
1822	 0.463108853817366 
1823	 0.463335091058059 
1824	 0.463530324105352 
1825	 0.463782815037065 
1826	 0.46397743599342 
1827	 0.46408809744524 
1828	 0.464258941208195 
1829	 0.464468183255356 
1830	 0.464645016460108 
1831	 0.464763554125219 
1832	 0.464984728358758 
1833	 0.465256904349777 
1834	 0.465527299316966 
1835	 0.465812653047137 
1836	 0.466004711707667 
1837	 0.46624016931515 
1838	 0.466410242050518 
1839	 0.466620480274937 
1840	 0.466911418550046 
1841	 0.467156153123018 
1842	 0.467359618500501 
1843	 0.467612370036579 
1844	 0.467784361844275 
1845	 0.467900616074371 
1846	 0.467993909026525 
1847	 0.468039089255416 
1848	 0.468169042863314 
1849	 0.468368123761643 
1850	 0.468521337419216 
1851	 0.468697713748309 
1852	 0.468869309400695 
1853	 0.468970316003621 
1854	 0.469039836996284 
1855	 0.469152618532743 
1856	 0.469205096313358 
1857	 0.469129057981405 
1858	 0.469131165952628 
1859	 0.469120683507874 
1860	 0.46904716717149 
1861	 0.468986107706688 
1862	 0.469000094036911 
1863	 0.468918057937568 
1864	 0.468727735878738 
1865	 0.468645341183171 
1866	 0.468442742555744 
1867	 0.468183389662762 
1868	 0.468000852863687 
1869	 0.467751813536866 
1870	 0.467530772765556 
1871	 0.46742322492678 
1872	 0.46717043681689 
1873	 0.466855305953405 
1874	 0.466500918850397 
1875	 0.466110284179958 
1876	 0.465668363044871 
1877	 0.465200194039152 
1878	 0.464619974059174 
1879	 0.463961084401649 
1880	 0.46327435202033 
1881	 0.462550361012591 
1882	 0.461767687231345 
1883	 0.461033881356872 
1884	 0.460202668236236 
1885	 0.459268138845426 
1886	 0.458389253232433 
1887	 0.457392931562783 
1888	 0.456335822509411 
1889	 0.455375165037511 
1890	 0.454345511151745 
1891	 0.453310975785109 
1892	 0.452218783065314 
1893	 0.451052245484939 
1894	 0.449777546300566 
1895	 0.448535919779174 
1896	 0.447262949809915 
1897	 0.445988832260073 
1898	 0.444856224470626 
1899	 0.44370554558414 
1900	 0.442622495560407 
1901	 0.441740007097778 
1902	 0.440842569608219 
1903	 0.439974873226025 
1904	 0.439129422955123 
1905	 0.438270352273863 
1906	 0.437486935564176 
1907	 0.436847468691865 
1908	 0.436154073272892 
1909	 0.435574781268509 
1910	 0.435019444749407 
1911	 0.434375905258207 
1912	 0.433850829832229 
1913	 0.43336166902822 
1914	 0.432858957505662 
1915	 0.43242208738232 
1916	 0.432048193204885 
1917	 0.431677417290065 
1918	 0.431316404854254 
1919	 0.431019557736394 
1920	 0.430683014125186 
1921	 0.43037714962279 
1922	 0.430129199270325 
1923	 0.429802407593395 
1924	 0.42950774109086 
1925	 0.429226344454256 
1926	 0.428983005502843 
1927	 0.428807112697401 
1928	 0.42860880265205 
1929	 0.428393365516219 
1930	 0.428235295669158 
1931	 0.428151655907067 
1932	 0.427946527986827 
1933	 0.427911893126642 
1934	 0.427960216265593 
1935	 0.42785660204536 
1936	 0.42789448648876 
1937	 0.427977985218077 
1938	 0.428082983901098 
1939	 0.428178179402531 
1940	 0.42833859354941 
1941	 0.428549299252722 
1942	 0.428628401496689 
1943	 0.42871223205886 
1944	 0.428939846690971 
1945	 0.429177364188106 
1946	 0.429427429821714 
1947	 0.429784939829974 
1948	 0.430126827420342 
1949	 0.430410282763646 
1950	 0.430748615253994 
1951	 0.431158720460751 
1952	 0.431508401535956 
1953	 0.431829831340742 
1954	 0.432178183775226 
1955	 0.432572215061946 
1956	 0.432965997365631 
1957	 0.433442260024086 
1958	 0.433933001293499 
1959	 0.434323393081918 
1960	 0.434711719215234 
1961	 0.435090269351311 
1962	 0.435429945698112 
1963	 0.435778236684456 
1964	 0.436111822865209 
1965	 0.436479823437247 
1966	 0.436868743456239 
1967	 0.437234040900328 
1968	 0.437605172878501 
1969	 0.437990144917214 
1970	 0.438293490156185 
1971	 0.438613123643152 
1972	 0.439027088350866 
1973	 0.439375575844604 
1974	 0.439708040403955 
1975	 0.440045874571702 
1976	 0.440382265480245 
1977	 0.440626262023016 
1978	 0.440961864634198 
1979	 0.441372332220018 
1980	 0.441753718913801 
1981	 0.442084784676303 
1982	 0.442522186678855 
1983	 0.442887848535077 
1984	 0.443230733074501 
1985	 0.443592369710799 
1986	 0.443953618765098 
1987	 0.444338779568647 
1988	 0.444682155299125 
1989	 0.445111934680179 
1990	 0.445642446374202 
1991	 0.446114054991583 
1992	 0.446547232768059 
1993	 0.447119307227513 
1994	 0.447648602108769 
1995	 0.448185987192072 
1996	 0.448842888706263 
1997	 0.449458842837584 
1998	 0.450008903746189 
1999	 0.450524735114383 
2000	 0.451033780189128 
2001	 0.451473841479829 
2002	 0.451940891505793 
2003	 0.452450540076961 
2004	 0.452887841553387 
2005	 0.453268461794051 
2006	 0.453675512931009 
2007	 0.454094288381667 
2008	 0.454447541152595 
2009	 0.454748794448451 
2010	 0.455070935932988 
2011	 0.455341514283177 
2012	 0.455536679190955 
2013	 0.455731791990866 
2014	 0.45589505446621 
2015	 0.456081163246657 
2016	 0.456253865382766 
2017	 0.456426611683136 
2018	 0.4566371624219 
2019	 0.456811825055713 
2020	 0.456954050373725 
2021	 0.457089509237698 
2022	 0.457209436587033 
2023	 0.457265920836293 
2024	 0.457274286936396 
2025	 0.45720330619488 
2026	 0.457178713972607 
2027	 0.457150401632586 
2028	 0.457101182378872 
2029	 0.457055631612135 
2030	 0.457006288260331 
2031	 0.456888664696021 
2032	 0.456835385674027 
2033	 0.45683470831075 
2034	 0.45682028158646 
2035	 0.456835470323184 
2036	 0.456849519321771 
2037	 0.456790178887108 
2038	 0.456660772189919 
2039	 0.45658022671985 
2040	 0.45643075319388 
2041	 0.456390315788177 
2042	 0.456436650763654 
2043	 0.456450443825088 
2044	 0.456513450083772 
2045	 0.456513925194916 
2046	 0.456513323057835 
2047	 0.456466547160348 
2048	 0.4562967218992 
2049	 0.456240157812514 
2050	 0.456207726367191 
2051	 0.456205237567918 
2052	 0.456266687903192 
2053	 0.456280368138711 
2054	 0.456285395635532 
2055	 0.456250159201034 
2056	 0.456232468712399 
2057	 0.45623542028878 
2058	 0.456224030604894 
2059	 0.456162431450465 
2060	 0.456159166167378 
2061	 0.456228702642571 
2062	 0.456206252062641 
2063	 0.456176659328582 
2064	 0.456130033322532 
2065	 0.455994338132688 
2066	 0.455871773579316 
2067	 0.455840883361055 
2068	 0.455883574945263 
2069	 0.455872022100876 
2070	 0.455889440375177 
2071	 0.455888152353217 
2072	 0.455851897059338 
2073	 0.455824854327832 
2074	 0.455788064210312 
2075	 0.455813224080896 
2076	 0.455856795716591 
2077	 0.455899472856115 
2078	 0.456021454859232 
2079	 0.456097205372044 
2080	 0.456137765146254 
2081	 0.456171957764081 
2082	 0.456233629987319 
2083	 0.456220598845037 
2084	 0.456150778101408 
2085	 0.456160977331639 
2086	 0.456181979093189 
2087	 0.456208961458035 
2088	 0.45626334400676 
2089	 0.456413569196429 
2090	 0.456437024892738 
2091	 0.456428085540132 
2092	 0.456398967503341 
2093	 0.456257242679829 
2094	 0.456179750447576 
2095	 0.456124895738037 
2096	 0.4560758133041 
2097	 0.455995648773025 
2098	 0.456031318392081 
2099	 0.45608956339749 
2100	 0.455986528394745 
2101	 0.455908250743715 
2102	 0.455801440475126 
2103	 0.45570206740939 
2104	 0.455535481205194 
2105	 0.455464870969782 
2106	 0.455424280776376 
2107	 0.455423590579175 
2108	 0.455534336160135 
2109	 0.455548795875528 
2110	 0.455548627634554 
2111	 0.455536599066228 
2112	 0.455483565114003 
2113	 0.455415325377027 
2114	 0.455351330033554 
2115	 0.455259411500972 
2116	 0.455144362380011 
2117	 0.454965507855886 
2118	 0.454835333554697 
2119	 0.454737694983909 
2120	 0.454572815648401 
2121	 0.454393697618868 
2122	 0.454202091909434 
2123	 0.453911508257053 
2124	 0.453736401945866 
2125	 0.453630875911585 
2126	 0.453480857650939 
2127	 0.453360706899413 
2128	 0.453233668577309 
2129	 0.453055604135133 
2130	 0.452935815473121 
2131	 0.452891280087912 
2132	 0.452804579604614 
2133	 0.452722385008308 
2134	 0.452611272707019 
2135	 0.45251580971072 
2136	 0.452446987176438 
2137	 0.452368510049751 
2138	 0.452342089695474 
2139	 0.452223161884318 
2140	 0.452022307101083 
2141	 0.451897480239056 
2142	 0.451791595903725 
2143	 0.45164473417362 
2144	 0.451525228480093 
2145	 0.451371759262568 
2146	 0.451099705684106 
2147	 0.450947013878295 
2148	 0.450880268920221 
2149	 0.450781531587779 
2150	 0.450734723925422 
2151	 0.450651282389696 
2152	 0.450555521951701 
2153	 0.45041802910194 
2154	 0.450241036688253 
2155	 0.45012552151147 
2156	 0.450020574243526 
2157	 0.449921586217731 
2158	 0.44981326700911 
2159	 0.449764321512295 
2160	 0.449608904405724 
2161	 0.449397649437157 
2162	 0.449181065669328 
2163	 0.448912841047922 
2164	 0.448662739131549 
2165	 0.448369026443918 
2166	 0.448125285907167 
2167	 0.447892218492386 
2168	 0.447691579197596 
2169	 0.447612965765901 
2170	 0.447396435102402 
2171	 0.447100901281079 
2172	 0.446833018726134 
2173	 0.446494105881647 
2174	 0.446157547343576 
2175	 0.445914540180457 
2176	 0.445628753576007 
2177	 0.445419306968045 
2178	 0.44523127222851 
2179	 0.445067569599683 
2180	 0.444992626832068 
2181	 0.444841942507171 
2182	 0.444665104374274 
2183	 0.444497205926596 
2184	 0.444289632149286 
2185	 0.444125743212028 
2186	 0.443968090640683 
2187	 0.4438331185247 
2188	 0.44378766265365 
2189	 0.443657568648795 
2190	 0.443485678358104 
2191	 0.443321127571681 
2192	 0.44305880564282 
2193	 0.442887970978742 
2194	 0.442843688165747 
2195	 0.442705180903846 
2196	 0.442590513137135 
2197	 0.442403349440576 
2198	 0.44209765202925 
2199	 0.44182384558733 
2200	 0.44159132775601 
2201	 0.441342027762875 
2202	 0.441224167998759 
2203	 0.441221761758347 
2204	 0.441100782600458 
2205	 0.441049174968655 
2206	 0.440875985332317 
2207	 0.440540868826606 
2208	 0.440351725603916 
2209	 0.440213132157123 
2210	 0.440024247620303 
2211	 0.439832248396554 
2212	 0.439677468111483 
2213	 0.439507196928141 
2214	 0.439359127401596 
2215	 0.439300097113092 
2216	 0.43917627597155 
2217	 0.439027705765172 
2218	 0.438847050889186 
2219	 0.438636059049326 
2220	 0.438410384974453 
2221	 0.438156870893981 
2222	 0.437881024495549 
2223	 0.437588445785663 
2224	 0.437232213013969 
2225	 0.436926899156447 
2226	 0.436658717603143 
2227	 0.436385469648049 
2228	 0.436204493456283 
2229	 0.435869636193391 
2230	 0.435430279639458 
2231	 0.435055975941042 
2232	 0.434736743436701 
2233	 0.434190602501721 
2234	 0.433562471936272 
2235	 0.432913432226221 
2236	 0.432057844572574 
2237	 0.431274336209386 
2238	 0.430595736407191 
2239	 0.42978972250883 
2240	 0.428922295725863 
2241	 0.427931851407391 
2242	 0.426886591888476 
2243	 0.425718589297246 
2244	 0.424352412880742 
2245	 0.42301981073119 
2246	 0.421560915493978 
2247	 0.420189713008936 
2248	 0.418898860745646 
2249	 0.417510874699938 
2250	 0.416116558082346 
2251	 0.414706367928506 
2252	 0.413181215004857 
2253	 0.411584002274722 
2254	 0.409891100376859 
2255	 0.408192875026942 
2256	 0.406614643736831 
2257	 0.405072963506593 
2258	 0.4036744088609 
2259	 0.402563569830852 
2260	 0.401149876211516 
2261	 0.399660993535158 
2262	 0.398241939139367 
2263	 0.396639189954698 
2264	 0.395296881267047 
2265	 0.394169508038607 
2266	 0.392931003494654 
2267	 0.391811893296079 
2268	 0.390546175600612 
2269	 0.389166809625341 
2270	 0.387857661825821 
2271	 0.386413835962118 
2272	 0.385163903053551 
2273	 0.38406343465475 
2274	 0.382951401969511 
2275	 0.382037798678432 
2276	 0.380934315498908 
2277	 0.379779795711714 
2278	 0.378535350088505 
2279	 0.377039704543428 
2280	 0.375734513638533 
2281	 0.374495653525018 
2282	 0.373214126914212 
2283	 0.372085336836767 
2284	 0.370813502743839 
2285	 0.369253523736253 
2286	 0.367739796428322 
2287	 0.366131657062869 
2288	 0.364489889217288 
2289	 0.363092577367865 
2290	 0.361599820261041 
2291	 0.36014103706005 
2292	 0.35890915112423 
2293	 0.357488695192399 
2294	 0.35613793607214 
2295	 0.354882418723273 
2296	 0.353396598929084 
2297	 0.352174942635093 
2298	 0.351004383378616 
2299	 0.350189847429973 
2300	 0.349495253865971 
2301	 0.349209162646396 
2302	 0.349443628167071 
2303	 0.349495607179504 
2304	 0.349635581574057 
2305	 0.350103928498886 
2306	 0.350683018589921 
2307	 0.351441916674311 
2308	 0.352588004691972 
2309	 0.353703517734866 
2310	 0.354866392651933 
2311	 0.356129529511734 
2312	 0.357600237540532 
2313	 0.359053614895853 
2314	 0.360544479302218 
2315	 0.362008688442918 
2316	 0.363620836760571 
2317	 0.365016945312078 
2318	 0.366386137226452 
2319	 0.36754948173245 
2320	 0.368559402446232 
2321	 0.369392121968129 
2322	 0.369913115223681 
2323	 0.370495012962445 
2324	 0.371107704835827 
2325	 0.371453622300572 
2326	 0.37165321277665 
2327	 0.3718119679205 
2328	 0.371719345082025 
2329	 0.371569664098675 
2330	 0.371453078659274 
2331	 0.371160452192922 
2332	 0.370580675977678 
2333	 0.369880221017633 
2334	 0.369071011327713 
2335	 0.368268317641277 
2336	 0.367475480813754 
2337	 0.366645163551769 
2338	 0.365791752729628 
2339	 0.364913439968369 
2340	 0.364077268460171 
2341	 0.363106318873188 
2342	 0.362108376306661 
2343	 0.361448209417982 
2344	 0.360780588793211 
2345	 0.360447621447834 
2346	 0.360485016408277 
2347	 0.360455553234616 
2348	 0.360812551390722 
2349	 0.361395681737179 
2350	 0.362043144405635 
2351	 0.362878230345368 
2352	 0.363610570595015 
2353	 0.364520273578668 
2354	 0.365784723866593 
2355	 0.366981745125581 
2356	 0.367932697785095 
2357	 0.368918598579287 
2358	 0.369840025537518 
2359	 0.370378841562283 
2360	 0.370947852897293 
2361	 0.371560898949982 
2362	 0.371711870241879 
2363	 0.371824634127527 
2364	 0.37194097964365 
2365	 0.371820436094916 
2366	 0.371922207982733 
2367	 0.371978254978258 
2368	 0.371934996794407 
2369	 0.371972067473396 
2370	 0.371884826933363 
2371	 0.371726533105519 
2372	 0.371639090730103 
2373	 0.371620830826763 
2374	 0.371476716412882 
2375	 0.371455515311747 
2376	 0.371671680312454 
2377	 0.371832796190639 
2378	 0.371928222568935 
2379	 0.372041509139503 
2380	 0.372071369594179 
2381	 0.372113650207277 
2382	 0.372349981225349 
2383	 0.372941609545396 
2384	 0.373031992166334 
2385	 0.372938923954444 
2386	 0.37310407831586 
2387	 0.373046779157251 
2388	 0.373122410283435 
2389	 0.373596708438483 
2390	 0.373765500656433 
2391	 0.373622313247342 
2392	 0.373764591223608 
2393	 0.373918045620368 
2394	 0.37420352568475 
2395	 0.374795002719739 
2396	 0.375144903211308 
2397	 0.375611373284047 
2398	 0.375699419351781 
2399	 0.375254874580916 
2400	 0.375268507555142 
2401	 0.375278960237564 
2402	 0.375827970937671 
2403	 0.376356250439841 
2404	 0.376214955640698 
2405	 0.376021129010968 
2406	 0.375850947442249 
2407	 0.375538733037646 
2408	 0.375601744197259 
2409	 0.375699956226098 
2410	 0.37528863951845 
2411	 0.375002217076712 
2412	 0.375302335478033 
2413	 0.375615407801563 
2414	 0.375986020280333 
2415	 0.376417741659648 
2416	 0.376548009584179 
2417	 0.376795633012106 
2418	 0.377156972121803 
2419	 0.377222288315297 
2420	 0.377117921343567 
2421	 0.377003926719122 
2422	 0.377268456851385 
2423	 0.377626845179081 
2424	 0.377603982221773 
2425	 0.377570388555179 
2426	 0.377265769946376 
2427	 0.377141034359877 
2428	 0.377434583079183 
2429	 0.377561280925171 
2430	 0.377502263519539 
2431	 0.377277375009396 
2432	 0.377435886825948 
2433	 0.377550168397323 
2434	 0.377600212198384 
2435	 0.377725001135059 
2436	 0.377128003963203 
2437	 0.376666499664697 
2438	 0.37654522811445 
2439	 0.376364690825728 
2440	 0.376262514921726 
2441	 0.37643498526457 
2442	 0.376450483510344 
2443	 0.376272432279148 
2444	 0.376740105788529 
2445	 0.376745856478675 
2446	 0.376146337906531 
2447	 0.375331929720039 
2448	 0.374357786055943 
2449	 0.373907928740562 
2450	 0.37367423321183 
2451	 0.374102485843833 
2452	 0.374672003007999 
2453	 0.374215103302988 
2454	 0.373597491132077 
2455	 0.372986626801156 
2456	 0.371557601064176 
2457	 0.370589312656047 
2458	 0.370424638809237 
2459	 0.369952110750055 
2460	 0.369995802547615 
2461	 0.370055046501808 
2462	 0.369923128743041 
2463	 0.370274389006602 
2464	 0.37005068260323 
2465	 0.369397164758671 
2466	 0.368943715940407 
2467	 0.368348207196902 
2468	 0.369049979247734 
2469	 0.370294740653505 
2470	 0.370399004238251 
2471	 0.370620024751616 
2472	 0.369662515870257 
2473	 0.368896858755067 
2474	 0.369476032952976 
2475	 0.369645001004892 
2476	 0.370524711368135 
2477	 0.371046956278002 
2478	 0.370892805489577 
2479	 0.371233004510452 
2480	 0.370749098063236 
2481	 0.370583611999209 
2482	 0.370920034721093 
2483	 0.370121203830328 
2484	 0.370316898880374 
2485	 0.370709020600882 
2486	 0.370518595169987 
2487	 0.371320441939194 
2488	 0.370923999348826 
2489	 0.369661347726985 
2490	 0.370336205008108 
2491	 0.371211010540552 
2492	 0.371885804066626 
2493	 0.372899722363391 
2494	 0.373827575721967 
2495	 0.373653437977202 
2496	 0.373205831770986 
2497	 0.374020148620238 
2498	 0.373950733475696 
2499	 0.374005133194901 
2500	 0.375171697669929 
