Wavelength	Tablay400085.asd
350	 1.26107799480965E-02 
351	 9.95287723874413E-02 
352	 0.138265020081652 
353	 6.26173804903151E-02 
354	 0.138021565385211 
355	 0.147594795962763 
356	 8.71979675009903E-02 
357	 1.81079556715006E-02 
358	 8.41286331756521E-02 
359	 9.98827490070382E-02 
360	 8.22917064894463E-02 
361	 0.137931837751297 
362	 0.103191634107143 
363	 5.09297653984623E-02 
364	 4.90794769335098E-02 
365	 8.13153740462776E-02 
366	 7.09926484777183E-02 
367	 5.63914281099854E-02 
368	 7.80991206606449E-02 
369	 9.26694427509707E-02 
370	 8.38457459738242E-02 
371	 7.25538792207899E-02 
372	 9.10473400043316E-02 
373	 6.13274257632772E-02 
374	 0.032331639590301 
375	 2.68660292878196E-02 
376	 2.57743496606438E-02 
377	 4.16491820115616E-02 
378	 5.85241743833438E-02 
379	 6.18129630805095E-02 
380	 0.057081590099231 
381	 4.40079374025688E-02 
382	 3.53198630368617E-02 
383	 4.43489994248682E-02 
384	 4.74273757139813E-02 
385	 4.18296577220471E-02 
386	 3.79220894384311E-02 
387	 6.09978260756363E-02 
388	 5.65911405103693E-02 
389	 4.94854831599583E-02 
390	 6.56823290614433E-02 
391	 5.60337231095889E-02 
392	 5.28746542843378E-02 
393	 5.30828605151414E-02 
394	 3.50333508400845E-02 
395	 5.26175875764656E-02 
396	 6.74741307936619E-02 
397	 5.87950852935787E-02 
398	 5.11866340106074E-02 
399	 4.37617383861643E-02 
400	 4.57571520005251E-02 
401	 6.09173920793098E-02 
402	 7.08764879906702E-02 
403	 5.80531805092738E-02 
404	 4.10060913770045E-02 
405	 5.85724227130063E-02 
406	 7.20798254559029E-02 
407	 7.36784301504672E-02 
408	 6.46303314514914E-02 
409	 0.050389570087214 
410	 5.26403914505443E-02 
411	 6.61420175337157E-02 
412	 7.53068278894119E-02 
413	 6.31952717814483E-02 
414	 5.13081354065879E-02 
415	 4.91437450720286E-02 
416	 5.39638010405631E-02 
417	 6.03019002309796E-02 
418	 5.98682792760591E-02 
419	 5.34995657990716E-02 
420	 6.40470494669941E-02 
421	 6.03676463448987E-02 
422	 5.35843201385596E-02 
423	 6.44652706269285E-02 
424	 0.059240496256473 
425	 5.82380266910705E-02 
426	 6.46802734515166E-02 
427	 5.97204744337492E-02 
428	 5.92476313251775E-02 
429	 6.01148350905914E-02 
430	 5.86444683820522E-02 
431	 0.062453919382664 
432	 0.062837308233259 
433	 5.92732519571135E-02 
434	 5.60836609187313E-02 
435	 5.74062254463865E-02 
436	 5.87018380868511E-02 
437	 5.87547137979927E-02 
438	 6.31584670438463E-02 
439	 5.99720604259551E-02 
440	 0.056556723190652 
441	 6.10974485176437E-02 
442	 6.21699330448719E-02 
443	 6.27142826981295E-02 
444	 6.26724702342056E-02 
445	 5.97757922131365E-02 
446	 5.74929607591705E-02 
447	 5.81461304325975E-02 
448	 6.19722336353348E-02 
449	 6.66271067733636E-02 
450	 6.29000617682164E-02 
451	 5.83760710126767E-02 
452	 6.37035477594954E-02 
453	 6.70373313362067E-02 
454	 0.064624444366529 
455	 5.96683158627993E-02 
456	 6.17994727836696E-02 
457	 6.29810166551935E-02 
458	 6.34977028737966E-02 
459	 6.40618133910807E-02 
460	 6.08136907240014E-02 
461	 6.16194989518144E-02 
462	 6.43682257624445E-02 
463	 6.26939792759086E-02 
464	 6.35093211911279E-02 
465	 6.41091656574329E-02 
466	 6.31326720082145E-02 
467	 6.26063928927031E-02 
468	 6.42052014374537E-02 
469	 6.58762237054757E-02 
470	 6.56829214663474E-02 
471	 6.72048610954853E-02 
472	 6.61838700194952E-02 
473	 6.35014816611919E-02 
474	 6.37812291627665E-02 
475	 6.39373324522095E-02 
476	 0.064291246113397 
477	 6.50754094698212E-02 
478	 6.51882194189208E-02 
479	 6.56791254868697E-02 
480	 6.64937628190828E-02 
481	 6.69977840383406E-02 
482	 6.56788729686742E-02 
483	 6.50536617940868E-02 
484	 6.57367733280379E-02 
485	 6.59864837578069E-02 
486	 6.64303366646349E-02 
487	 6.64851707253726E-02 
488	 6.58158077081655E-02 
489	 6.55002686104739E-02 
490	 6.48770852177202E-02 
491	 6.40071695997975E-02 
492	 6.34021045255679E-02 
493	 6.35295661913586E-02 
494	 6.40705902581281E-02 
495	 6.43665155659568E-02 
496	 6.32314593459885E-02 
497	 6.40286119548363E-02 
498	 6.49328821793823E-02 
499	 6.35987963327056E-02 
500	 6.26585888312338E-02 
501	 0.062644348580165 
502	 6.29496061058818E-02 
503	 6.21949350104764E-02 
504	 6.17097858301586E-02 
505	 0.061808517188643 
506	 6.21422083159441E-02 
507	 6.11900688265382E-02 
508	 6.06521599698135E-02 
509	 6.05297284049666E-02 
510	 6.01304174495624E-02 
511	 5.94741264732233E-02 
512	 5.89432955920901E-02 
513	 5.87735828673685E-02 
514	 5.89871136926008E-02 
515	 5.89658467871849E-02 
516	 5.82855391609216E-02 
517	 5.70309961506758E-02 
518	 5.66240071160002E-02 
519	 5.67325143068702E-02 
520	 0.056818779008598 
521	 5.63148479348063E-02 
522	 5.57224452249193E-02 
523	 5.55861690286584E-02 
524	 5.57691280579842E-02 
525	 5.47599965318493E-02 
526	 5.41004847310182E-02 
527	 5.39343233962816E-02 
528	 5.38786410511528E-02 
529	 5.35928022738484E-02 
530	 5.30389588851683E-02 
531	 5.25886480143163E-02 
532	 5.29667136011437E-02 
533	 5.27248512873656E-02 
534	 5.21695171872168E-02 
535	 5.17595523767278E-02 
536	 5.11682905333948E-02 
537	 5.10499324087488E-02 
538	 5.11744265491009E-02 
539	 5.08910158404587E-02 
540	 5.05679960924473E-02 
541	 0.050029628600591 
542	 4.94121668605666E-02 
543	 4.94475727404047E-02 
544	 4.94360639505949E-02 
545	 4.91967903129106E-02 
546	 4.87755841599831E-02 
547	 4.84222036004907E-02 
548	 4.83206251371435E-02 
549	 4.82350445281426E-02 
550	 4.76264486949057E-02 
551	 4.73513911437905E-02 
552	 4.71686039118667E-02 
553	 4.68919860236054E-02 
554	 4.70619925374555E-02 
555	 4.68106856955441E-02 
556	 4.63938058478447E-02 
557	 4.64715149517321E-02 
558	 4.63712391245053E-02 
559	 4.62612478885937E-02 
560	 4.62245850579813E-02 
561	 4.61238026906053E-02 
562	 0.045877373209141 
563	 4.56390281581371E-02 
564	 4.55301803164288E-02 
565	 4.52548485830749E-02 
566	 4.52553728184153E-02 
567	 4.53680348990923E-02 
568	 4.50413695279769E-02 
569	 4.49893828796226E-02 
570	 4.48454457148923E-02 
571	 4.44272680303097E-02 
572	 4.42619314332909E-02 
573	 4.41886295583615E-02 
574	 4.41515363926071E-02 
575	 4.41093111142945E-02 
576	 4.39556869364184E-02 
577	 4.39121904039808E-02 
578	 4.39258461494907E-02 
579	 4.36309759054229E-02 
580	 4.38314579637782E-02 
581	 4.40186819513053E-02 
582	 4.36895883168347E-02 
583	 4.32520871127134E-02 
584	 4.32430334772756E-02 
585	 4.34338669151196E-02 
586	 4.32074969348213E-02 
587	 4.30327159276054E-02 
588	 4.29324977848436E-02 
589	 4.28684035637329E-02 
590	 4.27865870405587E-02 
591	 4.27489171273711E-02 
592	 4.28119448231259E-02 
593	 0.042939803228388 
594	 4.26924980090103E-02 
595	 4.26598636813322E-02 
596	 4.28048017394558E-02 
597	 4.25626177902348E-02 
598	 4.24064025877822E-02 
599	 4.24534903310771E-02 
600	 4.26287186611216E-02 
601	 0.042568498610355 
602	 4.23853029508273E-02 
603	 4.22001467987196E-02 
604	 4.21271742758188E-02 
605	 0.042118355766916 
606	 4.21421223248846E-02 
607	 4.21903367241944E-02 
608	 4.22844961980728E-02 
609	 0.041987139904542 
610	 4.17095858119176E-02 
611	 4.17972736372259E-02 
612	 4.16204664087681E-02 
613	 4.16583765029187E-02 
614	 0.041849672626264 
615	 4.18008858601255E-02 
616	 4.15555034610793E-02 
617	 4.14111706768315E-02 
618	 4.14833779592776E-02 
619	 4.15159143899308E-02 
620	 4.15229215216775E-02 
621	 0.041476984258301 
622	 4.13715349028169E-02 
623	 4.12960247157892E-02 
624	 4.13328379597027E-02 
625	 4.14187037930385E-02 
626	 0.04136959220741 
627	 4.13366301855881E-02 
628	 4.12135476306516E-02 
629	 4.10283540728066E-02 
630	 4.12987174903313E-02 
631	 4.13201026035047E-02 
632	 4.11336692279899E-02 
633	 4.10761267900554E-02 
634	 4.09573394589415E-02 
635	 4.10726924780739E-02 
636	 4.12912544303447E-02 
637	 4.09310136156731E-02 
638	 4.07758390070456E-02 
639	 4.08759118522023E-02 
640	 4.10560079985761E-02 
641	 4.10651402339603E-02 
642	 4.09747180357703E-02 
643	 4.09057457635129E-02 
644	 4.09691134081265E-02 
645	 4.08606548243452E-02 
646	 4.07968251934634E-02 
647	 4.08562570917934E-02 
648	 4.07865443596308E-02 
649	 4.08293767229809E-02 
650	 4.08951475113911E-02 
651	 4.08421968162932E-02 
652	 4.07406373314951E-02 
653	 4.07161232611535E-02 
654	 4.07910995936411E-02 
655	 4.08945549470794E-02 
656	 4.09135013286712E-02 
657	 4.09683250952237E-02 
658	 4.10721639726179E-02 
659	 4.09186773102461E-02 
660	 4.07512938201265E-02 
661	 4.07435335672121E-02 
662	 4.09398335644383E-02 
663	 4.08385444879154E-02 
664	 4.08528903258312E-02 
665	 4.10203794633739E-02 
666	 4.09646972774375E-02 
667	 0.040884550955741 
668	 4.08779239827032E-02 
669	 4.09510602662879E-02 
670	 4.09304667771876E-02 
671	 4.08686929450643E-02 
672	 4.08509107917933E-02 
673	 4.09313779645786E-02 
674	 0.040827219853657 
675	 4.07855548905236E-02 
676	 4.08949363020915E-02 
677	 4.10015417516986E-02 
678	 4.10439472819617E-02 
679	 4.09785851325349E-02 
680	 4.08271634974788E-02 
681	 4.07459228177431E-02 
682	 4.07968461378037E-02 
683	 4.09538845484935E-02 
684	 4.11171897635384E-02 
685	 4.10765455870901E-02 
686	 4.10354947680136E-02 
687	 0.041077429439242 
688	 4.10551445580996E-02 
689	 4.10549754834025E-02 
690	 4.10859651993512E-02 
691	 4.11314767476795E-02 
692	 4.11629938609201E-02 
693	 4.11471244188181E-02 
694	 0.0411545593673 
695	 4.12849080890654E-02 
696	 4.12596300336137E-02 
697	 0.041240735691867 
698	 4.12827322207832E-02 
699	 0.04118217417267 
700	 0.041291733810083 
701	 0.041392649402238 
702	 4.12694445630953E-02 
703	 0.041364756719913 
704	 4.14717907271127E-02 
705	 0.041518288213483 
706	 4.15376435801054E-02 
707	 4.15627289259202E-02 
708	 4.15247382217331E-02 
709	 4.14514187018369E-02 
710	 4.15556846924926E-02 
711	 0.041576371932487 
712	 4.16144623788003E-02 
713	 4.17806296936231E-02 
714	 4.17729569412578E-02 
715	 4.18312867278859E-02 
716	 4.19421299755598E-02 
717	 4.19210153562041E-02 
718	 4.18817151961499E-02 
719	 4.19744720277243E-02 
720	 0.042156754754099 
721	 4.20516600735729E-02 
722	 4.20976679044929E-02 
723	 4.22044425239085E-02 
724	 4.22020021813153E-02 
725	 4.22736246599445E-02 
726	 4.23382605982509E-02 
727	 4.23906888450801E-02 
728	 0.042474329230897 
729	 4.25264995801347E-02 
730	 0.042501908731644 
731	 0.042445996580825 
732	 4.25445071159726E-02 
733	 4.26323585884968E-02 
734	 4.26731811208271E-02 
735	 4.26880472701745E-02 
736	 0.042766033094378 
737	 4.27979439475231E-02 
738	 0.042807092166561 
739	 0.042890394003749 
740	 4.29302240454616E-02 
741	 4.30503709885558E-02 
742	 4.32189979323534E-02 
743	 4.31359317782959E-02 
744	 4.31200281916486E-02 
745	 4.32062653658458E-02 
746	 0.043331674663691 
747	 4.33932759377418E-02 
748	 4.33919099350117E-02 
749	 4.34075667439809E-02 
750	 4.35272132936324E-02 
751	 4.35096761375396E-02 
752	 4.35204166711401E-02 
753	 0.043602642495379 
754	 4.35935087120682E-02 
755	 4.36611653294935E-02 
756	 4.37506748110728E-02 
757	 4.37822755716354E-02 
758	 4.37486243871458E-02 
759	 4.37619705288749E-02 
760	 4.38183229333432E-02 
761	 4.38628026970643E-02 
762	 4.39200777445195E-02 
763	 4.39881878628173E-02 
764	 4.40485866463364E-02 
765	 4.40735382425913E-02 
766	 4.41987802799541E-02 
767	 4.42415937105794E-02 
768	 4.41312812377305E-02 
769	 0.044191856341883 
770	 4.42562813963948E-02 
771	 4.43035868012646E-02 
772	 4.43581118373318E-02 
773	 4.44223928692552E-02 
774	 4.44521010807431E-02 
775	 0.044465908674606 
776	 4.45292138845065E-02 
777	 4.46157286182523E-02 
778	 4.46572101783336E-02 
779	 4.46376375429179E-02 
780	 4.46357762021287E-02 
781	 0.044631071216022 
782	 4.46676149290622E-02 
783	 4.47698958311152E-02 
784	 4.48525746433888E-02 
785	 4.48621812021632E-02 
786	 4.48163447403141E-02 
787	 4.47906558791964E-02 
788	 4.49325818738648E-02 
789	 4.50716849281311E-02 
790	 4.50867591362778E-02 
791	 4.49656686865881E-02 
792	 4.49487035743521E-02 
793	 4.50532576417756E-02 
794	 4.52041293139114E-02 
795	 4.52441556390207E-02 
796	 4.52001751492314E-02 
797	 4.51940498568321E-02 
798	 4.53155296317964E-02 
799	 4.53030367482564E-02 
800	 4.53109178895789E-02 
801	 4.53846211094241E-02 
802	 0.045470072230152 
803	 4.55587015218559E-02 
804	 4.55810046082074E-02 
805	 4.55570478986408E-02 
806	 4.56432414151534E-02 
807	 4.57151561878184E-02 
808	 4.57620333987341E-02 
809	 4.57921175412476E-02 
810	 4.57743508794775E-02 
811	 4.58205083106225E-02 
812	 0.045871797114211 
813	 4.58497774092134E-02 
814	 4.60468923631762E-02 
815	 4.61540487927798E-02 
816	 4.61376670503195E-02 
817	 4.62187034540808E-02 
818	 4.61991659789298E-02 
819	 4.62136718385472E-02 
820	 4.63269166499434E-02 
821	 4.64115721544257E-02 
822	 4.65742745432089E-02 
823	 4.66861593355531E-02 
824	 4.66625150250556E-02 
825	 4.67341923033053E-02 
826	 4.68612160595116E-02 
827	 4.69285450912674E-02 
828	 4.68490872441032E-02 
829	 4.68862442460116E-02 
830	 0.047073865831079 
831	 0.047288211004667 
832	 4.73107297028817E-02 
833	 4.72873251024534E-02 
834	 4.72835811698816E-02 
835	 4.73615771833134E-02 
836	 4.75896485370779E-02 
837	 4.77776889133276E-02 
838	 4.78368982041868E-02 
839	 4.77996897477873E-02 
840	 4.79319790418385E-02 
841	 4.81194100926138E-02 
842	 4.82397038603789E-02 
843	 4.82452370869066E-02 
844	 4.84753450920178E-02 
845	 4.86273654502132E-02 
846	 0.048658233494182 
847	 4.87370822951212E-02 
848	 4.89213639388333E-02 
849	 4.90454212281964E-02 
850	 4.91027502051793E-02 
851	 4.93014338585544E-02 
852	 4.93403524081114E-02 
853	 4.94055439591142E-02 
854	 4.96282922379669E-02 
855	 4.98185427779803E-02 
856	 4.99429190910652E-02 
857	 5.00664155798075E-02 
858	 5.02521909765982E-02 
859	 5.04229408249784E-02 
860	 0.050538846639486 
861	 5.06663307460742E-02 
862	 5.08787547180654E-02 
863	 5.09287429948207E-02 
864	 5.11282304121436E-02 
865	 5.14391808834351E-02 
866	 5.15426406483955E-02 
867	 0.051803047178394 
868	 5.19876225428215E-02 
869	 0.052044531006447 
870	 5.22650219642755E-02 
871	 5.25385435774483E-02 
872	 5.27946910469965E-02 
873	 0.053013225244229 
874	 5.32738243150583E-02 
875	 5.34874043096093E-02 
876	 5.36627002345528E-02 
877	 5.38485390794921E-02 
878	 5.41088032370656E-02 
879	 5.44083614428656E-02 
880	 5.46682469556431E-02 
881	 5.48423064902348E-02 
882	 0.055157849234815 
883	 5.54559287064317E-02 
884	 5.57107444640779E-02 
885	 5.60124151033126E-02 
886	 5.63753772342306E-02 
887	 5.67243844483741E-02 
888	 5.69623287589915E-02 
889	 5.70204553705589E-02 
890	 5.74807371089022E-02 
891	 0.057982445444565 
892	 5.82848605556247E-02 
893	 5.86540506345183E-02 
894	 5.89411399824253E-02 
895	 5.92105107830253E-02 
896	 5.95507071164471E-02 
897	 5.99802271635298E-02 
898	 6.04294348026209E-02 
899	 6.07851408395011E-02 
900	 6.10441996172259E-02 
901	 6.16500682846878E-02 
902	 6.21568723184188E-02 
903	 6.25078884211191E-02 
904	 6.28724901025217E-02 
905	 6.34136711254222E-02 
906	 6.39425819188131E-02 
907	 6.44193995338966E-02 
908	 6.49288477651283E-02 
909	 6.55024946611862E-02 
910	 6.60015814888359E-02 
911	 6.64384407158741E-02 
912	 6.69881705336196E-02 
913	 6.77269857852635E-02 
914	 6.82729715350536E-02 
915	 6.86400850917102E-02 
916	 6.94250175003265E-02 
917	 7.00642467928202E-02 
918	 7.05400659253378E-02 
919	 7.09956202378114E-02 
920	 7.16415746286351E-02 
921	 7.23840205700697E-02 
922	 7.30535519625405E-02 
923	 7.36367717279089E-02 
924	 0.074569394248701 
925	 0.075361774603889 
926	 7.60557152695672E-02 
927	 7.68098788681082E-02 
928	 7.75455492506521E-02 
929	 7.82509017962939E-02 
930	 7.89588237776244E-02 
931	 7.97037809248875E-02 
932	 8.04351332889552E-02 
933	 8.11954595150188E-02 
934	 8.19864290919264E-02 
935	 0.082808691769036 
936	 8.38102943890087E-02 
937	 0.08463788573525 
938	 8.53463476630007E-02 
939	 0.086264152618263 
940	 8.73941204934139E-02 
941	 8.84625551608508E-02 
942	 8.93490594816805E-02 
943	 9.01306260655583E-02 
944	 9.10629268663283E-02 
945	 9.20008198281094E-02 
946	 0.092934790435274 
947	 9.40165880816821E-02 
948	 0.095007038259188 
949	 0.095959277002476 
950	 0.096965375704148 
951	 9.80846759176005E-02 
952	 0.099045161379227 
953	 9.99769660028921E-02 
954	 0.101001551890992 
955	 0.102103674067621 
956	 0.103101456771933 
957	 0.104055918199761 
958	 0.105106463796061 
959	 0.106405966094972 
960	 0.107658832619361 
961	 0.108745677993695 
962	 0.109721728745086 
963	 0.110875010233073 
964	 0.11182876132859 
965	 0.11292337267157 
966	 0.11435999385447 
967	 0.115626373685564 
968	 0.116928270690656 
969	 0.118092844286644 
970	 0.119026564292684 
971	 0.120049793392996 
972	 0.121286067411362 
973	 0.122539486009977 
974	 0.123699410189059 
975	 0.125220590569267 
976	 0.126436789474334 
977	 0.12745875156441 
978	 0.128600652837958 
979	 0.129963686939633 
980	 0.131067017974606 
981	 0.13224747759104 
982	 0.133821866679162 
983	 0.135151234463131 
984	 0.13613383856196 
985	 0.137323570005191 
986	 0.139045462541561 
987	 0.140100560727255 
988	 0.141193020773075 
989	 0.142534455475086 
990	 0.143976377368566 
991	 0.144773960150904 
992	 0.146301045817646 
993	 0.148003960171799 
994	 0.148989628355098 
995	 0.149769140661092 
996	 0.150827227145997 
997	 0.152358378423431 
998	 0.154140804335311 
999	 0.155162987900718 
1000	 0.156226414706964 
1001	 0.160174353612089 
1002	 0.161530645518461 
1003	 0.16299237564742 
1004	 0.164165521846664 
1005	 0.165091843111856 
1006	 0.166194239109176 
1007	 0.167176595235906 
1008	 0.168332041464051 
1009	 0.169635279635524 
1010	 0.170941646001407 
1011	 0.172241978576334 
1012	 0.173636159444535 
1013	 0.175305743848132 
1014	 0.176599980260641 
1015	 0.177677335705617 
1016	 0.178909572019137 
1017	 0.18005625260179 
1018	 0.181116903191085 
1019	 0.182437926335051 
1020	 0.183827573792469 
1021	 0.185060425236726 
1022	 0.18621869257702 
1023	 0.187370211977562 
1024	 0.18835149713686 
1025	 0.189576477134776 
1026	 0.191002015886457 
1027	 0.19218141804629 
1028	 0.193356266483267 
1029	 0.19454811535782 
1030	 0.19558840432403 
1031	 0.196444441300379 
1032	 0.197419969468768 
1033	 0.198604966774899 
1034	 0.199762782927639 
1035	 0.200811607412539 
1036	 0.201887809243859 
1037	 0.203053917710617 
1038	 0.204073266788475 
1039	 0.20492521794434 
1040	 0.206030356536182 
1041	 0.207221846828365 
1042	 0.208305829320082 
1043	 0.20948042852318 
1044	 0.210589928483494 
1045	 0.211548435252523 
1046	 0.212518123868375 
1047	 0.213346223529311 
1048	 0.214308830493255 
1049	 0.21535176042339 
1050	 0.216331214948473 
1051	 0.21744531440117 
1052	 0.218522128997011 
1053	 0.219625359466226 
1054	 0.220832913826514 
1055	 0.221859796672365 
1056	 0.222763817998437 
1057	 0.223748102486341 
1058	 0.224689775384455 
1059	 0.225453888988463 
1060	 0.226471143120928 
1061	 0.227454867461961 
1062	 0.228255603220596 
1063	 0.22904625828885 
1064	 0.2298277746499 
1065	 0.230886482047517 
1066	 0.231872744621544 
1067	 0.232865295538715 
1068	 0.233981607624821 
1069	 0.234781877037106 
1070	 0.235633624428793 
1071	 0.236449582857694 
1072	 0.237382714796017 
1073	 0.238200492915944 
1074	 0.239077211765561 
1075	 0.240024429471772 
1076	 0.240920078363487 
1077	 0.241827650929451 
1078	 0.24268367465432 
1079	 0.243475927890883 
1080	 0.244275738271495 
1081	 0.244880148318571 
1082	 0.245576557133316 
1083	 0.246381800920995 
1084	 0.247107231534017 
1085	 0.248000463041697 
1086	 0.24880559970335 
1087	 0.249572611569659 
1088	 0.250392734200921 
1089	 0.251282046858027 
1090	 0.251920195974604 
1091	 0.252701793250025 
1092	 0.253389087205662 
1093	 0.253840070693697 
1094	 0.254511927310723 
1095	 0.255258594564851 
1096	 0.255947357996653 
1097	 0.256621260448318 
1098	 0.257267404665571 
1099	 0.257823504536359 
1100	 0.258257419406392 
1101	 0.258749599785545 
1102	 0.259313429258667 
1103	 0.259906403653946 
1104	 0.2604963432622 
1105	 0.261227487026974 
1106	 0.261905718612063 
1107	 0.262430591296231 
1108	 0.263030652914488 
1109	 0.26355777924315 
1110	 0.264124140712732 
1111	 0.264855913249411 
1112	 0.265449026494943 
1113	 0.265987950829151 
1114	 0.266501989080697 
1115	 0.266887581969045 
1116	 0.267321355829173 
1117	 0.26787027337543 
1118	 0.268399417375236 
1119	 0.2690108283217 
1120	 0.26952287133701 
1121	 0.270019723167509 
1122	 0.270462131128401 
1123	 0.270782298844804 
1124	 0.271116915885063 
1125	 0.271586745317473 
1126	 0.271996821922509 
1127	 0.272453098525975 
1128	 0.272974562114611 
1129	 0.273361384711616 
1130	 0.273761804823574 
1131	 0.274205496797141 
1132	 0.274620812801441 
1133	 0.275044898636494 
1134	 0.275455883418225 
1135	 0.275853846680031 
1136	 0.276232447073521 
1137	 0.27661257229843 
1138	 0.276994414886098 
1139	 0.277342224124592 
1140	 0.277655361580866 
1141	 0.277970885726968 
1142	 0.278355702217583 
1143	 0.278695491088846 
1144	 0.279009277495517 
1145	 0.279319925927186 
1146	 0.279497091959669 
1147	 0.279786091768361 
1148	 0.280143798197963 
1149	 0.280415806073609 
1150	 0.280783003129766 
1151	 0.281090202279353 
1152	 0.281365422387495 
1153	 0.281618370104489 
1154	 0.281880096222917 
1155	 0.282082310656123 
1156	 0.282325712522605 
1157	 0.282630916380081 
1158	 0.282839159860391 
1159	 0.282976712071765 
1160	 0.283175171840812 
1161	 0.283386819993914 
1162	 0.283604106605401 
1163	 0.283970366975841 
1164	 0.28432384873379 
1165	 0.284569540151325 
1166	 0.284771489475363 
1167	 0.284933816444232 
1168	 0.285114317097889 
1169	 0.285302671377426 
1170	 0.285529996087821 
1171	 0.285713816151221 
1172	 0.285857364079815 
1173	 0.286042590054648 
1174	 0.286261129487959 
1175	 0.286417977508638 
1176	 0.286542402045334 
1177	 0.286704487415061 
1178	 0.28683618432755 
1179	 0.286993761058442 
1180	 0.287184545767379 
1181	 0.287415033459915 
1182	 0.287562381565918 
1183	 0.287680715909322 
1184	 0.287850928938427 
1185	 0.287918795670464 
1186	 0.288040310355371 
1187	 0.288167178377983 
1188	 0.288313669854945 
1189	 0.288483096005273 
1190	 0.288658920604447 
1191	 0.288835023282914 
1192	 0.289026442261282 
1193	 0.289243016515888 
1194	 0.289428602502884 
1195	 0.289637538023487 
1196	 0.289813061920955 
1197	 0.289951021969679 
1198	 0.290082852226149 
1199	 0.2902105214115 
1200	 0.290366968808816 
1201	 0.290570847916795 
1202	 0.290797872634971 
1203	 0.291073982473185 
1204	 0.291334637464578 
1205	 0.291617932564045 
1206	 0.291919080668161 
1207	 0.292213575079301 
1208	 0.292497082989525 
1209	 0.292854192049444 
1210	 0.293232853962804 
1211	 0.293630547351811 
1212	 0.294095069708842 
1213	 0.294534939212975 
1214	 0.294986641021913 
1215	 0.295435189423374 
1216	 0.29584357687976 
1217	 0.296320191767711 
1218	 0.296841196613646 
1219	 0.297331611977492 
1220	 0.297873632397761 
1221	 0.298522293291861 
1222	 0.29909870238762 
1223	 0.299666582336422 
1224	 0.300173822365116 
1225	 0.300612264184728 
1226	 0.301105209857504 
1227	 0.301570663292229 
1228	 0.302064271280555 
1229	 0.302634399656614 
1230	 0.303134357429138 
1231	 0.303611825779075 
1232	 0.304050529977604 
1233	 0.304453393966153 
1234	 0.304828481465924 
1235	 0.305108725143026 
1236	 0.305482207454461 
1237	 0.30589174931149 
1238	 0.306295587905124 
1239	 0.306756801033336 
1240	 0.307199971697671 
1241	 0.307609992966323 
1242	 0.30799191279096 
1243	 0.308360018693217 
1244	 0.308722363220997 
1245	 0.309051461039546 
1246	 0.309333873409486 
1247	 0.309648293965835 
1248	 0.309962172064821 
1249	 0.310267088250842 
1250	 0.310575439146496 
1251	 0.310876583991047 
1252	 0.311149111002987 
1253	 0.311454314614731 
1254	 0.311811212311711 
1255	 0.312102547662547 
1256	 0.312386435681553 
1257	 0.312640819540947 
1258	 0.312793996544252 
1259	 0.313025701936866 
1260	 0.313264207347169 
1261	 0.313546892898674 
1262	 0.313899162614519 
1263	 0.314281326090866 
1264	 0.314559542415477 
1265	 0.314816235881209 
1266	 0.315063748431579 
1267	 0.315219760956077 
1268	 0.315457915055175 
1269	 0.315746697090607 
1270	 0.316008361086312 
1271	 0.316288506387665 
1272	 0.316527874754072 
1273	 0.316724403543958 
1274	 0.316970227439448 
1275	 0.317198269408121 
1276	 0.31746163331248 
1277	 0.317827065276141 
1278	 0.3180920433788 
1279	 0.318320856835374 
1280	 0.318535114568071 
1281	 0.318612399254844 
1282	 0.318821955047571 
1283	 0.319093637063577 
1284	 0.319382094670922 
1285	 0.319714080810494 
1286	 0.320143884351698 
1287	 0.320497095430803 
1288	 0.320875451256343 
1289	 0.321135035916839 
1290	 0.321306768656023 
1291	 0.321563391512368 
1292	 0.321760885347878 
1293	 0.322023401202146 
1294	 0.322409497702784 
1295	 0.322679524081514 
1296	 0.322871374827766 
1297	 0.323118258052857 
1298	 0.323343094568838 
1299	 0.323603297125435 
1300	 0.323934391013308 
1301	 0.324202591807808 
1302	 0.324450513271623 
1303	 0.32469369673246 
1304	 0.324902077338409 
1305	 0.325116795272315 
1306	 0.325310340635769 
1307	 0.325539209030026 
1308	 0.325765266208237 
1309	 0.326037689806925 
1310	 0.326270278445871 
1311	 0.326550426110788 
1312	 0.326715949734972 
1313	 0.32679001117584 
1314	 0.326943951021692 
1315	 0.32702959926688 
1316	 0.327256063655959 
1317	 0.327600763333301 
1318	 0.327882056677805 
1319	 0.328209731458512 
1320	 0.328500109155744 
1321	 0.32875752212677 
1322	 0.329016825865398 
1323	 0.329280719541147 
1324	 0.329532839688908 
1325	 0.32976362475758 
1326	 0.329999780740342 
1327	 0.330276527756455 
1328	 0.330476941114784 
1329	 0.330628279521419 
1330	 0.330780590321821 
1331	 0.33092528650739 
1332	 0.33100430757764 
1333	 0.331040518448036 
1334	 0.331077760089157 
1335	 0.331085868885695 
1336	 0.331017996264665 
1337	 0.33100914405974 
1338	 0.330994650223752 
1339	 0.331062053476065 
1340	 0.331139070332925 
1341	 0.331285127129533 
1342	 0.33154263364533 
1343	 0.331738282301721 
1344	 0.331921904778001 
1345	 0.332149906255486 
1346	 0.332426632701466 
1347	 0.332627314746878 
1348	 0.332843868380554 
1349	 0.333013708328787 
1350	 0.333101954302172 
1351	 0.333210859432931 
1352	 0.333349091735761 
1353	 0.333426597329859 
1354	 0.333420391746878 
1355	 0.333479256570865 
1356	 0.333571527804635 
1357	 0.333611169269359 
1358	 0.333615616595415 
1359	 0.3336850635426 
1360	 0.33376632847131 
1361	 0.333839498518724 
1362	 0.333889824577746 
1363	 0.333911310837722 
1364	 0.333913762692272 
1365	 0.333807975724893 
1366	 0.333779776545735 
1367	 0.333821261257519 
1368	 0.333785265375596 
1369	 0.333713066668899 
1370	 0.333629722957745 
1371	 0.333524164164878 
1372	 0.333417687186103 
1373	 0.333289317274919 
1374	 0.333168715358516 
1375	 0.333085438480768 
1376	 0.332914014469922 
1377	 0.332677997224236 
1378	 0.332468804301413 
1379	 0.332212973904792 
1380	 0.331977703979949 
1381	 0.331782011549379 
1382	 0.331557792269788 
1383	 0.331304946957448 
1384	 0.331054249794896 
1385	 0.330837169620547 
1386	 0.330555822953446 
1387	 0.330180968569852 
1388	 0.329894021963513 
1389	 0.329577810907905 
1390	 0.329329657299573 
1391	 0.329152937719566 
1392	 0.329024778560958 
1393	 0.32893488351145 
1394	 0.328895461581669 
1395	 0.328889095434818 
1396	 0.328978663047736 
1397	 0.328970002188555 
1398	 0.328956390473723 
1399	 0.328914791416289 
1400	 0.328859891211178 
1401	 0.328727195358432 
1402	 0.328580143607815 
1403	 0.3283490376524 
1404	 0.328028432403031 
1405	 0.327684601188369 
1406	 0.327281400612944 
1407	 0.326873957536193 
1408	 0.326407481631922 
1409	 0.325959701444938 
1410	 0.325494307993717 
1411	 0.325060288108223 
1412	 0.324610555499676 
1413	 0.32421792821779 
1414	 0.323869485024852 
1415	 0.323528786338478 
1416	 0.323204326707179 
1417	 0.322915308072892 
1418	 0.322649946709673 
1419	 0.32240934178041 
1420	 0.322219429592024 
1421	 0.32203163184486 
1422	 0.321881540960546 
1423	 0.321692909926247 
1424	 0.321466487480189 
1425	 0.321283633865613 
1426	 0.321082020363136 
1427	 0.320932454564284 
1428	 0.320815209754275 
1429	 0.320637965998824 
1430	 0.320478103729537 
1431	 0.320284920005766 
1432	 0.320137768294304 
1433	 0.320030662773639 
1434	 0.319873524155543 
1435	 0.319716594528997 
1436	 0.319539234112192 
1437	 0.319306475872379 
1438	 0.319138474933233 
1439	 0.318996276804179 
1440	 0.318842716934597 
1441	 0.318703853291667 
1442	 0.318572792028685 
1443	 0.318411748225971 
1444	 0.318325337542556 
1445	 0.318272974400278 
1446	 0.318257324945393 
1447	 0.318273014682705 
1448	 0.318347235704727 
1449	 0.318459836911814 
1450	 0.318628008301124 
1451	 0.318905931503107 
1452	 0.319127630107052 
1453	 0.319374005003481 
1454	 0.319599461300921 
1455	 0.319817237966577 
1456	 0.320000891353654 
1457	 0.320154280692953 
1458	 0.320318522657364 
1459	 0.320430920622406 
1460	 0.320585138824905 
1461	 0.320849612241144 
1462	 0.320989760708276 
1463	 0.321086373767322 
1464	 0.321149582388278 
1465	 0.321156643396153 
1466	 0.321091281159821 
1467	 0.320975512883031 
1468	 0.320774634496456 
1469	 0.320454102061844 
1470	 0.32007314636779 
1471	 0.319639442339764 
1472	 0.319165666471054 
1473	 0.31860129145573 
1474	 0.317947383173867 
1475	 0.317256939849889 
1476	 0.316523359618847 
1477	 0.315682248087225 
1478	 0.314744905505723 
1479	 0.313814450231329 
1480	 0.312821712623876 
1481	 0.311772895266358 
1482	 0.310701756395482 
1483	 0.309575612918625 
1484	 0.30836393159462 
1485	 0.30712668959291 
1486	 0.305837940537142 
1487	 0.304589229357219 
1488	 0.303262093776379 
1489	 0.302035217208007 
1490	 0.300792625746657 
1491	 0.299749519441458 
1492	 0.298752240192388 
1493	 0.297962121829898 
1494	 0.297382850751837 
1495	 0.296898951155725 
1496	 0.296557113482584 
1497	 0.296318842321036 
1498	 0.296189812294137 
1499	 0.29621237172521 
1500	 0.29625979171423 
1501	 0.296634242586341 
1502	 0.297058525798782 
1503	 0.298011020841844 
1504	 0.299280847239493 
1505	 0.300996908019937 
1506	 0.303354706714446 
1507	 0.305772703217106 
1508	 0.308709048785751 
1509	 0.311475694907061 
1510	 0.314539304235039 
1511	 0.317184417652012 
1512	 0.319763640484868 
1513	 0.321972435635068 
1514	 0.32375338176257 
1515	 0.325406823236411 
1516	 0.326738458324162 
1517	 0.327999273271818 
1518	 0.329049334525244 
1519	 0.330075572718338 
1520	 0.330998166105776 
1521	 0.331849503676994 
1522	 0.332752851065184 
1523	 0.333724597827412 
1524	 0.334676849519266 
1525	 0.33568957545552 
1526	 0.33662162876886 
1527	 0.337530997081739 
1528	 0.338378795398004 
1529	 0.339189139865439 
1530	 0.339961426399541 
1531	 0.340686135951703 
1532	 0.341370297520508 
1533	 0.342025648241034 
1534	 0.342625138061619 
1535	 0.343153103868814 
1536	 0.343687910894362 
1537	 0.344179629247139 
1538	 0.344693517664823 
1539	 0.345210862591922 
1540	 0.345699861195936 
1541	 0.346175764651598 
1542	 0.346656633639529 
1543	 0.347117224936117 
1544	 0.347583701545124 
1545	 0.348055227436996 
1546	 0.348531610520957 
1547	 0.349011462380363 
1548	 0.349469969380942 
1549	 0.349923205500302 
1550	 0.350388725838368 
1551	 0.350854726866449 
1552	 0.351287719479784 
1553	 0.351719585104835 
1554	 0.352147664858299 
1555	 0.352546918945651 
1556	 0.352937413278297 
1557	 0.35333814068538 
1558	 0.353724090727784 
1559	 0.354092408447686 
1560	 0.354427979065269 
1561	 0.354755548201459 
1562	 0.35506698862565 
1563	 0.355329789138467 
1564	 0.355603075194051 
1565	 0.3558559408486 
1566	 0.356157872857752 
1567	 0.356480926728804 
1568	 0.356787959490471 
1569	 0.357136931940607 
1570	 0.357453240070124 
1571	 0.35773750043273 
1572	 0.358018428243457 
1573	 0.358299359171603 
1574	 0.358571083444036 
1575	 0.358801385113293 
1576	 0.359071789928323 
1577	 0.359362095844615 
1578	 0.359654520793307 
1579	 0.360003214752813 
1580	 0.360274398862885 
1581	 0.36047125440825 
1582	 0.360738012348313 
1583	 0.360992465050756 
1584	 0.36126577089419 
1585	 0.361621887391706 
1586	 0.361920010550832 
1587	 0.362184707750956 
1588	 0.362438110535985 
1589	 0.362663544830534 
1590	 0.362906423324052 
1591	 0.363167359321028 
1592	 0.363378900248883 
1593	 0.3635674561022 
1594	 0.363759464282106 
1595	 0.363877864294468 
1596	 0.364069585540182 
1597	 0.36430115604188 
1598	 0.364552838523745 
1599	 0.364875546771298 
1600	 0.365144083934481 
1601	 0.36541121750825 
1602	 0.365667716859596 
1603	 0.365914050387719 
1604	 0.366115293775307 
1605	 0.366306098171204 
1606	 0.366460441633574 
1607	 0.366511224111025 
1608	 0.366633116096016 
1609	 0.366771492899623 
1610	 0.36692155360908 
1611	 0.367129231671938 
1612	 0.367299301628394 
1613	 0.367440662823745 
1614	 0.367604104878945 
1615	 0.367770694854149 
1616	 0.367931920433464 
1617	 0.368107560771373 
1618	 0.368274638545157 
1619	 0.368439299330727 
1620	 0.368585287701424 
1621	 0.368720297064851 
1622	 0.368855428844194 
1623	 0.369024501974847 
1624	 0.369093528144745 
1625	 0.369096133007896 
1626	 0.369114253393755 
1627	 0.368993614642262 
1628	 0.369002832864911 
1629	 0.369137042278253 
1630	 0.369218048934593 
1631	 0.369322322025543 
1632	 0.369433611507416 
1633	 0.369523297237 
1634	 0.369623326741442 
1635	 0.369768596403265 
1636	 0.369878639887236 
1637	 0.369940452436135 
1638	 0.370036517852023 
1639	 0.370154669279087 
1640	 0.37025402498506 
1641	 0.370385259366877 
1642	 0.370467960648384 
1643	 0.370493764228224 
1644	 0.370535388550027 
1645	 0.370572183486365 
1646	 0.370593630045318 
1647	 0.370618573528292 
1648	 0.37061979387074 
1649	 0.370604972387809 
1650	 0.370569174566207 
1651	 0.370513804799698 
1652	 0.370438334453854 
1653	 0.370339567086823 
1654	 0.370220768552027 
1655	 0.37008262348481 
1656	 0.369932808593095 
1657	 0.369743617081182 
1658	 0.369561647911869 
1659	 0.369414332084959 
1660	 0.369188928148541 
1661	 0.368949425993885 
1662	 0.368652181660316 
1663	 0.368276625069572 
1664	 0.36787200228206 
1665	 0.367435678976954 
1666	 0.366941310785036 
1667	 0.366415442528053 
1668	 0.365822658484206 
1669	 0.365180457127122 
1670	 0.364471961657185 
1671	 0.363658681041713 
1672	 0.362818896497006 
1673	 0.361963504370348 
1674	 0.361002469254241 
1675	 0.359966054173407 
1676	 0.358921621247445 
1677	 0.357786091742412 
1678	 0.356646146232798 
1679	 0.355513663869883 
1680	 0.354301557467037 
1681	 0.353074724236362 
1682	 0.351710381771211 
1683	 0.350244519641244 
1684	 0.348742483013181 
1685	 0.347127693449397 
1686	 0.345503724699619 
1687	 0.343845620393091 
1688	 0.342133211104801 
1689	 0.340355788723205 
1690	 0.338555183831209 
1691	 0.33671681048572 
1692	 0.334895624972051 
1693	 0.333105647495534 
1694	 0.3311683492801 
1695	 0.329144772418849 
1696	 0.327103925131933 
1697	 0.324947170079372 
1698	 0.32281816039889 
1699	 0.320711717029919 
1700	 0.318619911003647 
1701	 0.316483686257037 
1702	 0.314407837123403 
1703	 0.312307962383165 
1704	 0.310351293712873 
1705	 0.308440166788125 
1706	 0.306589984076805 
1707	 0.305029401431721 
1708	 0.303560303287344 
1709	 0.302152247394259 
1710	 0.300950659592482 
1711	 0.299800424441932 
1712	 0.29869020913945 
1713	 0.297588874981725 
1714	 0.296573194604777 
1715	 0.295706238557382 
1716	 0.29489549138487 
1717	 0.294257149889152 
1718	 0.293686211450864 
1719	 0.293033394017335 
1720	 0.292408310272545 
1721	 0.291769369742841 
1722	 0.291110624920974 
1723	 0.290599912467768 
1724	 0.290249079742717 
1725	 0.290058327742405 
1726	 0.290105155138348 
1727	 0.290306714203515 
1728	 0.290532371489758 
1729	 0.290909275773991 
1730	 0.291485568870334 
1731	 0.292126944948314 
1732	 0.292997053868944 
1733	 0.293980346973127 
1734	 0.294928708371439 
1735	 0.295926040758297 
1736	 0.296878809412115 
1737	 0.297824809985608 
1738	 0.298684449830829 
1739	 0.299353294598989 
1740	 0.299870933861871 
1741	 0.300300330392342 
1742	 0.300594075444336 
1743	 0.300821449694578 
1744	 0.300980289342973 
1745	 0.301015446420514 
1746	 0.300873411433753 
1747	 0.300729908363965 
1748	 0.30046716119445 
1749	 0.300305124139654 
1750	 0.300127838549945 
1751	 0.300070719365505 
1752	 0.300071863806499 
1753	 0.300131030261118 
1754	 0.300235823382035 
1755	 0.300448876485872 
1756	 0.300750842788665 
1757	 0.301131711045333 
1758	 0.301687835823543 
1759	 0.302339278484854 
1760	 0.30302743742292 
1761	 0.303894957104723 
1762	 0.304796106932757 
1763	 0.305738747153079 
1764	 0.306845096746491 
1765	 0.308078854862035 
1766	 0.309414350813021 
1767	 0.310751240689367 
1768	 0.312135123282946 
1769	 0.313539145620072 
1770	 0.314883512751581 
1771	 0.316409685320413 
1772	 0.317913304422518 
1773	 0.319235999591055 
1774	 0.320577125636828 
1775	 0.321709937565675 
1776	 0.322637612811635 
1777	 0.323518932220191 
1778	 0.32431264973693 
1779	 0.32505858227188 
1780	 0.325842356239679 
1781	 0.326606165469156 
1782	 0.327245473328106 
1783	 0.327867618242609 
1784	 0.328505843076724 
1785	 0.329103404338094 
1786	 0.329601540306102 
1787	 0.330011146958842 
1788	 0.330398081972073 
1789	 0.330689627376119 
1790	 0.331016389566919 
1791	 0.331350818853618 
1792	 0.331629018025777 
1793	 0.331893918976682 
1794	 0.332170421402134 
1795	 0.332349719856786 
1796	 0.332640489270113 
1797	 0.332882480640373 
1798	 0.332979085766814 
1799	 0.3332042759838 
1800	 0.333523711131568 
1801	 0.334937295984422 
1802	 0.335168562470856 
1803	 0.335443947943054 
1804	 0.335741313653273 
1805	 0.336059289991816 
1806	 0.336356543917736 
1807	 0.336667732567028 
1808	 0.336973453705865 
1809	 0.337291112561528 
1810	 0.337555208408328 
1811	 0.337816352786522 
1812	 0.338038057584524 
1813	 0.33811474837766 
1814	 0.338354279114212 
1815	 0.338611205191727 
1816	 0.338889616621933 
1817	 0.339253891192687 
1818	 0.339763298105102 
1819	 0.340158082558432 
1820	 0.340579238543149 
1821	 0.340960374016045 
1822	 0.341297896836585 
1823	 0.341629586187546 
1824	 0.341915813749008 
1825	 0.342191719878871 
1826	 0.342522465193206 
1827	 0.342863218429421 
1828	 0.343195688893422 
1829	 0.343583770553838 
1830	 0.343933041161642 
1831	 0.34426945565138 
1832	 0.344539414277435 
1833	 0.344879467822134 
1834	 0.345265188836606 
1835	 0.345549238771214 
1836	 0.345789067353512 
1837	 0.346077128959739 
1838	 0.346303574871942 
1839	 0.346622351377142 
1840	 0.347037973040038 
1841	 0.347418011667563 
1842	 0.347839056063206 
1843	 0.348209556808247 
1844	 0.348518577627867 
1845	 0.348798265514015 
1846	 0.349105730269857 
1847	 0.34932202141696 
1848	 0.349550900693973 
1849	 0.34982198782157 
1850	 0.350025007914341 
1851	 0.350159617608423 
1852	 0.350324091861429 
1853	 0.350494649705647 
1854	 0.350534983300839 
1855	 0.350594145694554 
1856	 0.350639955830298 
1857	 0.350646007629018 
1858	 0.350690163392088 
1859	 0.350665652724893 
1860	 0.350605109105851 
1861	 0.35051663745961 
1862	 0.350378330049664 
1863	 0.350238996780059 
1864	 0.350077391540463 
1865	 0.34992120428419 
1866	 0.349701322030654 
1867	 0.349360054285193 
1868	 0.348990541681045 
1869	 0.348552868471103 
1870	 0.348083843072433 
1871	 0.347558007277216 
1872	 0.347045788012388 
1873	 0.346536934303944 
1874	 0.345979715569903 
1875	 0.345319320724479 
1876	 0.344529360771128 
1877	 0.343688240219905 
1878	 0.342672151590515 
1879	 0.341498550352409 
1880	 0.340373143801301 
1881	 0.339112685416384 
1882	 0.337679585962195 
1883	 0.336239573189753 
1884	 0.334777207024752 
1885	 0.33307260782012 
1886	 0.331418812371572 
1887	 0.329698356111025 
1888	 0.327955300351277 
1889	 0.326450195290728 
1890	 0.324894203539638 
1891	 0.323336052426034 
1892	 0.321881573160907 
1893	 0.320330491573868 
1894	 0.31869689367458 
1895	 0.317101203877149 
1896	 0.315489062857202 
1897	 0.313796359646737 
1898	 0.312254722343878 
1899	 0.310671227693571 
1900	 0.30908436305552 
1901	 0.307522975592597 
1902	 0.305818655905961 
1903	 0.304142167085749 
1904	 0.302526230358129 
1905	 0.300897101458772 
1906	 0.299343934853371 
1907	 0.297998911936987 
1908	 0.296727495725975 
1909	 0.295538610099739 
1910	 0.294429454565796 
1911	 0.293287301016546 
1912	 0.292197123490983 
1913	 0.291125831366261 
1914	 0.290092366330304 
1915	 0.289201806251879 
1916	 0.288427587314566 
1917	 0.287710215343059 
1918	 0.287043280271062 
1919	 0.286455920909643 
1920	 0.28586258956732 
1921	 0.285261341492335 
1922	 0.2847283009136 
1923	 0.284246044744553 
1924	 0.283817399830264 
1925	 0.283438150466661 
1926	 0.283108094945482 
1927	 0.28285416353883 
1928	 0.282606048490073 
1929	 0.282377934616211 
1930	 0.282204163569291 
1931	 0.282086405833877 
1932	 0.28202559916071 
1933	 0.282033371291642 
1934	 0.282112183196412 
1935	 0.282168692042983 
1936	 0.282229355083024 
1937	 0.282349749658277 
1938	 0.28248396906516 
1939	 0.282673006782943 
1940	 0.282917492913725 
1941	 0.283211859087876 
1942	 0.283497408144263 
1943	 0.283844184538027 
1944	 0.284199265137893 
1945	 0.284541867731268 
1946	 0.284971893827571 
1947	 0.285424750626037 
1948	 0.285897116722982 
1949	 0.286424104334024 
1950	 0.286921553659395 
1951	 0.287396724817811 
1952	 0.287906273860075 
1953	 0.28841316825449 
1954	 0.288943447266284 
1955	 0.289542102752923 
1956	 0.290194007077846 
1957	 0.290833277197272 
1958	 0.291491533396431 
1959	 0.292115684649213 
1960	 0.292701706219359 
1961	 0.293223344994485 
1962	 0.293668299871171 
1963	 0.294129586526564 
1964	 0.294577123036469 
1965	 0.29494255574136 
1966	 0.295271078177249 
1967	 0.295599741182726 
1968	 0.295825563656924 
1969	 0.296056611262848 
1970	 0.296249393364975 
1971	 0.296397382959922 
1972	 0.296546518735684 
1973	 0.296630523764008 
1974	 0.296801180786575 
1975	 0.297026642785053 
1976	 0.297261485957933 
1977	 0.297515987486882 
1978	 0.297817093397474 
1979	 0.298136396060471 
1980	 0.298483622759134 
1981	 0.298920791093107 
1982	 0.299453347904742 
1983	 0.300037217538128 
1984	 0.300786709051216 
1985	 0.30159365701416 
1986	 0.302380499959914 
1987	 0.303174076719472 
1988	 0.304040315383434 
1989	 0.304792761832831 
1990	 0.305447707744223 
1991	 0.306179205549193 
1992	 0.306929946746332 
1993	 0.307648245434538 
1994	 0.308285631134218 
1995	 0.308999858316931 
1996	 0.309587496584094 
1997	 0.310092359486927 
1998	 0.310696728672745 
1999	 0.311385219530573 
2000	 0.31195545467256 
2001	 0.312540414891931 
2002	 0.313044278639707 
2003	 0.313499179447478 
2004	 0.313856724857064 
2005	 0.314094885791055 
2006	 0.314359264570919 
2007	 0.314553142537374 
2008	 0.314770949014268 
2009	 0.31494307934869 
2010	 0.315039811200287 
2011	 0.315073367327147 
2012	 0.315008395041399 
2013	 0.314907044754086 
2014	 0.314772224127589 
2015	 0.314580961951528 
2016	 0.314321605653432 
2017	 0.314003429622134 
2018	 0.313636710544398 
2019	 0.313228698842551 
2020	 0.312770267404172 
2021	 0.312205476083793 
2022	 0.311667433202337 
2023	 0.311112891850333 
2024	 0.310535906287522 
2025	 0.309964872237797 
2026	 0.309439796912768 
2027	 0.308926964153312 
2028	 0.308454751593742 
2029	 0.308025506181434 
2030	 0.307621126266165 
2031	 0.307328854883218 
2032	 0.30690277336384 
2033	 0.306535670490602 
2034	 0.305992497249235 
2035	 0.305352223976729 
2036	 0.304527123597231 
2037	 0.303695165090475 
2038	 0.302656111909515 
2039	 0.301681081324873 
2040	 0.300603542542569 
2041	 0.29963726906841 
2042	 0.298520002144103 
2043	 0.29785904179033 
2044	 0.297314213669479 
2045	 0.297092818440805 
2046	 0.297339346385758 
2047	 0.297545821932109 
2048	 0.298009427280721 
2049	 0.298411356882778 
2050	 0.298921591503606 
2051	 0.29935401635036 
2052	 0.299813228735396 
2053	 0.300081829402925 
2054	 0.300295108354445 
2055	 0.300369754737433 
2056	 0.300501902427943 
2057	 0.300560316928448 
2058	 0.30065714290963 
2059	 0.300744034799271 
2060	 0.300891168007876 
2061	 0.30101451484693 
2062	 0.301233310294147 
2063	 0.301553436287123 
2064	 0.301872848042515 
2065	 0.30223182236327 
2066	 0.302604010251933 
2067	 0.303031352400396 
2068	 0.303475778431836 
2069	 0.303914880634596 
2070	 0.304426559477613 
2071	 0.304818986056144 
2072	 0.305179159412969 
2073	 0.305481292442384 
2074	 0.305683598678836 
2075	 0.305920234597366 
2076	 0.306208086489476 
2077	 0.30633409021951 
2078	 0.306372621233905 
2079	 0.306406801649845 
2080	 0.306277641719539 
2081	 0.30622201077343 
2082	 0.30625051820327 
2083	 0.306203906842483 
2084	 0.306114377608575 
2085	 0.306041389490416 
2086	 0.305971671512787 
2087	 0.305913465031997 
2088	 0.305803274335377 
2089	 0.305677448977314 
2090	 0.305546866741617 
2091	 0.305362124899607 
2092	 0.305196444358596 
2093	 0.305062493177222 
2094	 0.304892160476497 
2095	 0.304660132455236 
2096	 0.304482295301955 
2097	 0.304296881885572 
2098	 0.304181262181873 
2099	 0.304066206324996 
2100	 0.303916977415237 
2101	 0.303688262056037 
2102	 0.303401437036197 
2103	 0.3030847728634 
2104	 0.302675167859698 
2105	 0.302314433432171 
2106	 0.301954656072202 
2107	 0.301584861932482 
2108	 0.301224263868895 
2109	 0.300848421503137 
2110	 0.300423042874014 
2111	 0.300040641324339 
2112	 0.299716299215494 
2113	 0.299315169774184 
2114	 0.298903470955883 
2115	 0.29847676851824 
2116	 0.29799999195694 
2117	 0.297505449612285 
2118	 0.296986477717302 
2119	 0.296431092538244 
2120	 0.295932551306911 
2121	 0.29539825082316 
2122	 0.294940639528384 
2123	 0.294591367950141 
2124	 0.294171738035437 
2125	 0.293750804057377 
2126	 0.293306499889008 
2127	 0.292785718788832 
2128	 0.292370193468147 
2129	 0.291982152973542 
2130	 0.291628970641089 
2131	 0.291341879028626 
2132	 0.291073399431427 
2133	 0.290836069396365 
2134	 0.290619657949779 
2135	 0.29033098057735 
2136	 0.290127403542425 
2137	 0.289952513352771 
2138	 0.289762440140185 
2139	 0.289618135800801 
2140	 0.289570418068947 
2141	 0.289497806565588 
2142	 0.28941669506798 
2143	 0.289339345400999 
2144	 0.28928434376364 
2145	 0.289238535440058 
2146	 0.289177037372036 
2147	 0.289138984178287 
2148	 0.28913057317434 
2149	 0.289138987168919 
2150	 0.289112688612103 
2151	 0.289172150386561 
2152	 0.289300508480632 
2153	 0.289453832333294 
2154	 0.289643320789181 
2155	 0.28983093138504 
2156	 0.290000863340116 
2157	 0.290195763237889 
2158	 0.290284179336611 
2159	 0.290292861074311 
2160	 0.290378954633841 
2161	 0.290435031563259 
2162	 0.290502657643786 
2163	 0.290656152409382 
2164	 0.29069975414826 
2165	 0.290639761294397 
2166	 0.290639850294629 
2167	 0.290626450855729 
2168	 0.290643244924241 
2169	 0.290740707973155 
2170	 0.290732238359062 
2171	 0.290641887509071 
2172	 0.290608209661723 
2173	 0.290566863544558 
2174	 0.290484208562638 
2175	 0.290480912888766 
2176	 0.290489397333159 
2177	 0.290463948944253 
2178	 0.290369724900617 
2179	 0.290416421073424 
2180	 0.290571752928812 
2181	 0.290584117329402 
2182	 0.290648235863673 
2183	 0.290589015596214 
2184	 0.290342137294122 
2185	 0.290198855449166 
2186	 0.290041295530001 
2187	 0.289941565223573 
2188	 0.28994826604463 
2189	 0.289817697994528 
2190	 0.289636783771133 
2191	 0.289473531022819 
2192	 0.289241078019804 
2193	 0.288999464017322 
2194	 0.28880666615232 
2195	 0.288565028934591 
2196	 0.288264891142085 
2197	 0.287937118801927 
2198	 0.287615942266333 
2199	 0.287238428782171 
2200	 0.286695218514899 
2201	 0.286024756133378 
2202	 0.285336604196393 
2203	 0.284586941950496 
2204	 0.283640028763629 
2205	 0.282577290820322 
2206	 0.281469246761778 
2207	 0.280025296435281 
2208	 0.278922989137304 
2209	 0.277944849353219 
2210	 0.276997635942765 
2211	 0.276051721617359 
2212	 0.275401116397627 
2213	 0.274795101311989 
2214	 0.274525495501311 
2215	 0.274705950482589 
2216	 0.274840145250417 
2217	 0.275203168114303 
2218	 0.275515495069561 
2219	 0.275980243013612 
2220	 0.276271812412978 
2221	 0.276607316513067 
2222	 0.276733451763093 
2223	 0.276580834556523 
2224	 0.276275190597163 
2225	 0.2759849157844 
2226	 0.275503046795649 
2227	 0.274910869917425 
2228	 0.274308529965616 
2229	 0.273475124231315 
2230	 0.272303523933937 
2231	 0.271330082662065 
2232	 0.270361303477303 
2233	 0.269259771955039 
2234	 0.26824733673232 
2235	 0.266921477811241 
2236	 0.265379989390982 
2237	 0.263750698635975 
2238	 0.261890224006605 
2239	 0.260020984870369 
2240	 0.258057929146856 
2241	 0.256019577813077 
2242	 0.253990206390757 
2243	 0.251728635678614 
2244	 0.249237986010202 
2245	 0.246778114507712 
2246	 0.244159816150166 
2247	 0.241519100056804 
2248	 0.238814474123412 
2249	 0.236153294968477 
2250	 0.233451654891482 
2251	 0.230761738725362 
2252	 0.22801722545605 
2253	 0.225405385521049 
2254	 0.222686735258587 
2255	 0.219940416730897 
2256	 0.217401134585518 
2257	 0.214778263068321 
2258	 0.212177068826617 
2259	 0.209698633904952 
2260	 0.20692321112732 
2261	 0.203972344624203 
2262	 0.201134770335843 
2263	 0.198131716813747 
2264	 0.195238890106363 
2265	 0.192611786560867 
2266	 0.189601408275847 
2267	 0.186695835170121 
2268	 0.183104368146473 
2269	 0.179111919323324 
2270	 0.174842109896889 
2271	 0.169925723515247 
2272	 0.165030770717213 
2273	 0.160039743956826 
2274	 0.154692985797351 
2275	 0.149002830991064 
2276	 0.143267906708135 
2277	 0.136887115307089 
2278	 0.131183714220636 
2279	 0.125243320697119 
2280	 0.120233590248005 
2281	 0.115806599854663 
2282	 0.112013546435604 
2283	 0.108789084574805 
2284	 0.106515063609925 
2285	 0.104771540451975 
2286	 0.103573131446774 
2287	 0.103070863199911 
2288	 0.10318105777345 
2289	 0.10380789582434 
2290	 0.104865715529777 
2291	 0.106143416930042 
2292	 0.107620013247007 
2293	 0.109365652918844 
2294	 0.111341797547506 
2295	 0.113564675606853 
2296	 0.115776202306849 
2297	 0.117770609285469 
2298	 0.119665144220462 
2299	 0.1214640935278 
2300	 0.123107887944095 
2301	 0.124723893552612 
2302	 0.12629063259581 
2303	 0.127718587005664 
2304	 0.128924123966121 
2305	 0.130294383018775 
2306	 0.131636842222503 
2307	 0.133014141846843 
2308	 0.134524607004291 
2309	 0.135943887745458 
2310	 0.137177993632637 
2311	 0.138659530641119 
2312	 0.140310372820672 
2313	 0.141836995430807 
2314	 0.143568902472555 
2315	 0.145025516081459 
2316	 0.146274077972984 
2317	 0.147463043072331 
2318	 0.14858651604807 
2319	 0.149492653752064 
2320	 0.150388011087832 
2321	 0.150883751748565 
2322	 0.151168682075637 
2323	 0.15103131766514 
2324	 0.150483364681253 
2325	 0.1496580617853 
2326	 0.148372750634838 
2327	 0.146941706999874 
2328	 0.145429050319457 
2329	 0.143332161044102 
2330	 0.140838378275514 
2331	 0.137993733093172 
2332	 0.134584758964314 
2333	 0.130784848149888 
2334	 0.126863122578909 
2335	 0.122800589799636 
2336	 0.118203836571652 
2337	 0.11348252429846 
2338	 0.109146238378859 
2339	 0.104716776144465 
2340	 0.100811913667412 
2341	 9.73432300397845E-02 
2342	 9.35675628625929E-02 
2343	 9.02877360712871E-02 
2344	 8.77026077970211E-02 
2345	 8.57512185859625E-02 
2346	 8.44427751061819E-02 
2347	 8.35882504210405E-02 
2348	 8.27665114717069E-02 
2349	 8.21381411504409E-02 
2350	 8.17835112773501E-02 
2351	 8.11828092708486E-02 
2352	 8.06418133715098E-02 
2353	 8.01253672083869E-02 
2354	 0.079671902089453 
2355	 7.95260954965947E-02 
2356	 7.97347305225125E-02 
2357	 8.04373113800742E-02 
2358	 8.21915376058737E-02 
2359	 8.50447092731805E-02 
2360	 8.87147482108474E-02 
2361	 9.33004015346827E-02 
2362	 9.79645856651509E-02 
2363	 0.102740465758268 
2364	 0.107311763430641 
2365	 0.111844576277115 
2366	 0.116643825016391 
2367	 0.120795120767578 
2368	 0.124701120434136 
2369	 0.12824237843995 
2370	 0.13061408218601 
2371	 0.132800281497671 
2372	 0.13516624634847 
2373	 0.136964586795128 
2374	 0.138726372135609 
2375	 0.140047876442917 
2376	 0.140646740343162 
2377	 0.141246092558485 
2378	 0.141798081893586 
2379	 0.142210862507152 
2380	 0.142497005472155 
2381	 0.142614713492002 
2382	 0.142843499599843 
2383	 0.142988467805293 
2384	 0.143203100062094 
2385	 0.143348145420631 
2386	 0.143917962996733 
2387	 0.144609813994871 
2388	 0.145427930662725 
2389	 0.146854708471231 
2390	 0.147943350341424 
2391	 0.149013264258801 
2392	 0.149719529448035 
2393	 0.150047139984024 
2394	 0.150491412910434 
2395	 0.150627830790654 
2396	 0.151068940944225 
2397	 0.15193511744118 
2398	 0.152512673174722 
2399	 0.153050576946705 
2400	 0.153434697245946 
2401	 0.153496072392701 
2402	 0.153732306809205 
2403	 0.154062462374878 
2404	 0.154337748072927 
2405	 0.155237140118866 
2406	 0.156155126066705 
2407	 0.156636216123307 
2408	 0.157702194587308 
2409	 0.1583525671106 
2410	 0.158230827428631 
2411	 0.158433685056521 
2412	 0.158556073624395 
2413	 0.158565764753138 
2414	 0.159295741229488 
2415	 0.15993602974629 
2416	 0.160264576979662 
2417	 0.160898159970505 
2418	 0.161202874149437 
2419	 0.161726952066889 
2420	 0.162453678664232 
2421	 0.16251094199447 
2422	 0.162668479956601 
2423	 0.162999939215126 
2424	 0.163194955455337 
2425	 0.163641983649014 
2426	 0.163953511386112 
2427	 0.163848770335922 
2428	 0.163585130491948 
2429	 0.163446584376424 
2430	 0.163746646283125 
2431	 0.164368538131914 
2432	 0.16473803600267 
2433	 0.164374065430515 
2434	 0.163908869961443 
2435	 0.163748972979109 
2436	 0.163461204805972 
2437	 0.163814660666238 
2438	 0.163953603785128 
2439	 0.163494213382274 
2440	 0.163624691329138 
2441	 0.163331046832459 
2442	 0.163292610082416 
2443	 0.163839475335976 
2444	 0.163618517648548 
2445	 0.163658273314344 
2446	 0.163975208646244 
2447	 0.163232560417761 
2448	 0.16284075215857 
2449	 0.162908709451678 
2450	 0.162445839467979 
2451	 0.162760971613544 
2452	 0.162889419489652 
2453	 0.162495199284933 
2454	 0.162327774472468 
2455	 0.161560567293467 
2456	 0.161231658447095 
2457	 0.161615823854041 
2458	 0.161543931487937 
2459	 0.161350586511937 
2460	 0.16106898837329 
2461	 0.160005390105144 
2462	 0.159032017254294 
2463	 0.158520864014925 
2464	 0.158213426781297 
2465	 0.157991356565557 
2466	 0.157833504198374 
2467	 0.157843058509842 
2468	 0.157543756252798 
2469	 0.157738866279559 
2470	 0.158219487498081 
2471	 0.158434252581761 
2472	 0.158670286491019 
2473	 0.158442657548239 
2474	 0.158147460174274 
2475	 0.157911901876372 
2476	 0.157602946409656 
2477	 0.1572168331719 
2478	 0.156734196727239 
2479	 0.156243156310777 
2480	 0.15541552720315 
2481	 0.155189785461049 
2482	 0.154693612698069 
2483	 0.154981036470396 
2484	 0.156210042649732 
2485	 0.155520647867143 
2486	 0.155690629122518 
2487	 0.156936330024633 
2488	 0.155921712110608 
2489	 0.156666065978576 
2490	 0.157882753880406 
2491	 0.157337537138709 
2492	 0.157553933321069 
2493	 0.157108959534771 
2494	 0.157771964274463 
2495	 0.159050265728808 
2496	 0.159235685987964 
2497	 0.160487860185213 
2498	 0.160479113448501 
2499	 0.159692431648732 
2500	 0.160453790033617 
