Wavelength	Tablay400049.asd
350	 0.133014115672841 
351	 0.165335384796325 
352	 0.157897378104716 
353	 0.100608065672026 
354	 0.12858402543104 
355	 0.133417631319707 
356	 0.116568127724279 
357	 0.106957419552918 
358	 0.1382125381569 
359	 0.153187222811866 
360	 0.133157190419548 
361	 9.27753685457842E-02 
362	 0.114437858203166 
363	 0.134064698026232 
364	 0.112444586359815 
365	 6.67283213328915E-02 
366	 5.63575866856179E-02 
367	 9.06010731356102E-02 
368	 0.139213884074672 
369	 0.119861446475465 
370	 0.101161475406746 
371	 0.123650610856842 
372	 0.185527701465578 
373	 0.144617293719761 
374	 0.104023317785062 
375	 0.105089236379181 
376	 7.52395416415737E-02 
377	 3.73555354199519E-02 
378	 5.60759133354284E-02 
379	 0.132538655403691 
380	 6.66004494746281E-02 
381	 4.77004888903422E-02 
382	 0.088639829813436 
383	 8.81062256099477E-02 
384	 4.53000850398572E-02 
385	 2.71483694733935E-02 
386	 5.38122850252027E-02 
387	 7.52898866526833E-02 
388	 8.46492989502971E-02 
389	 8.67013349776687E-02 
390	 8.62575689973465E-02 
391	 6.03667002525335E-02 
392	 6.96044290231468E-02 
393	 9.47023215591726E-02 
394	 0.072465138863197 
395	 4.18980565403909E-02 
396	 4.43328492510853E-02 
397	 0.076976300499269 
398	 7.14163410237669E-02 
399	 6.10445819551735E-02 
400	 6.72652916927459E-02 
401	 9.17763886750337E-02 
402	 0.071363360629356 
403	 6.14169264081901E-02 
404	 7.15208482382086E-02 
405	 7.53821347368462E-02 
406	 8.42645519060113E-02 
407	 8.26398821994569E-02 
408	 0.067958264537087 
409	 6.85554986865372E-02 
410	 6.50683574252366E-02 
411	 6.47687126569047E-02 
412	 7.40025288298447E-02 
413	 5.30739899345201E-02 
414	 4.37158826308628E-02 
415	 5.61153673146558E-02 
416	 7.04127151498034E-02 
417	 6.72998349737013E-02 
418	 5.88134979959445E-02 
419	 0.055986107702078 
420	 5.57245009690741E-02 
421	 4.91304913161233E-02 
422	 4.39792009397856E-02 
423	 5.12784164257311E-02 
424	 5.56415762262834E-02 
425	 0.060233115059043 
426	 6.38394132420464E-02 
427	 5.93356654446351E-02 
428	 5.78804608931037E-02 
429	 5.30841466317925E-02 
430	 4.29888857745176E-02 
431	 0.050350875393301 
432	 5.68564432968184E-02 
433	 5.64108385310303E-02 
434	 5.13323717473297E-02 
435	 5.43121018285963E-02 
436	 5.40860530606046E-02 
437	 4.79552089228787E-02 
438	 4.97569651606015E-02 
439	 4.96100391334562E-02 
440	 4.85922735930507E-02 
441	 4.94519239367598E-02 
442	 4.88768523827742E-02 
443	 0.051577379162338 
444	 5.45098469558785E-02 
445	 4.95528755960734E-02 
446	 4.69362540203375E-02 
447	 4.96178884471165E-02 
448	 5.49380650663445E-02 
449	 5.06728105127895E-02 
450	 4.83612343674247E-02 
451	 0.048964517656846 
452	 4.96455529944427E-02 
453	 4.96344713287534E-02 
454	 4.87765431294014E-02 
455	 4.81551886315334E-02 
456	 4.99071564202321E-02 
457	 4.77684214736587E-02 
458	 4.56228289641994E-02 
459	 4.70912835114715E-02 
460	 4.87430915798373E-02 
461	 4.96532685059393E-02 
462	 4.99142220975861E-02 
463	 5.00611253019922E-02 
464	 4.83976689599802E-02 
465	 4.64217535764312E-02 
466	 4.56328443837119E-02 
467	 0.047152502419844 
468	 4.75524742231469E-02 
469	 4.74919693087005E-02 
470	 4.79770190502706E-02 
471	 4.62039314807837E-02 
472	 4.45130058101048E-02 
473	 4.37198427515878E-02 
474	 4.33522885278016E-02 
475	 4.43913851530013E-02 
476	 4.55056924756526E-02 
477	 4.57466061439362E-02 
478	 4.56017446293433E-02 
479	 4.57620852256518E-02 
480	 4.57397323847558E-02 
481	 4.50208223735696E-02 
482	 0.046063735783293 
483	 4.60844203760591E-02 
484	 4.51007414534252E-02 
485	 4.64710716688863E-02 
486	 4.45320375069288E-02 
487	 4.33034755734549E-02 
488	 4.57972316903357E-02 
489	 4.57546458408309E-02 
490	 4.39808788407524E-02 
491	 4.29443415226168E-02 
492	 4.52474017465482E-02 
493	 4.51684451388896E-02 
494	 4.44969377911224E-02 
495	 0.044530193895828 
496	 0.044305883875361 
497	 4.43053862805711E-02 
498	 4.39625135813008E-02 
499	 4.30085047954616E-02 
500	 4.39197799467173E-02 
501	 4.39715325506755E-02 
502	 4.32800559341694E-02 
503	 4.43028621193373E-02 
504	 4.33740228503507E-02 
505	 4.23682738937786E-02 
506	 4.27927335362949E-02 
507	 4.30382620385697E-02 
508	 0.043502082412712 
509	 4.38957905232503E-02 
510	 4.37630731249703E-02 
511	 4.34084700440745E-02 
512	 4.30858558807614E-02 
513	 4.29187549629347E-02 
514	 0.042880316624633 
515	 4.28052395057581E-02 
516	 4.27689633680847E-02 
517	 4.27300590934587E-02 
518	 4.19214787620648E-02 
519	 4.16383614253927E-02 
520	 0.041991843175341 
521	 4.22480417263239E-02 
522	 4.20274159760721E-02 
523	 4.21446719446741E-02 
524	 4.28226218614995E-02 
525	 4.28551119941379E-02 
526	 4.24817752014348E-02 
527	 0.042205842470397 
528	 4.24341486123532E-02 
529	 4.23784655945539E-02 
530	 0.042021073835956 
531	 4.16711962292743E-02 
532	 4.18934029840853E-02 
533	 4.20568447065168E-02 
534	 4.20606891783691E-02 
535	 4.19412421812226E-02 
536	 4.17173245822098E-02 
537	 4.18064267583601E-02 
538	 4.20561100126266E-02 
539	 4.20446036073951E-02 
540	 4.20488913200274E-02 
541	 4.20179942901228E-02 
542	 4.18686456462249E-02 
543	 4.14781767984743E-02 
544	 4.16845408174212E-02 
545	 4.20123503671406E-02 
546	 0.041783385379544 
547	 4.12735420471229E-02 
548	 4.12748055643759E-02 
549	 4.16507694144898E-02 
550	 4.14984237957651E-02 
551	 4.17135577728455E-02 
552	 4.18252895421471E-02 
553	 4.15360609039719E-02 
554	 4.15967936395339E-02 
555	 0.041552622158278 
556	 4.14716572500297E-02 
557	 4.15846885333959E-02 
558	 4.14301169521601E-02 
559	 4.13796044587168E-02 
560	 4.15579001474859E-02 
561	 4.16517948475964E-02 
562	 0.041438097521385 
563	 4.13667365695464E-02 
564	 4.17193396382663E-02 
565	 4.14050411695228E-02 
566	 4.11461932217062E-02 
567	 0.041082159009073 
568	 4.09229834403071E-02 
569	 4.10026795544543E-02 
570	 4.10748650676564E-02 
571	 4.10133019413612E-02 
572	 4.11236249436276E-02 
573	 4.11721080157542E-02 
574	 0.041305497726094 
575	 0.041659951347099 
576	 0.041449763930262 
577	 4.12292413224744E-02 
578	 4.13084775368092E-02 
579	 4.16040383872759E-02 
580	 4.15122908413768E-02 
581	 4.12766573305887E-02 
582	 4.12068138256097E-02 
583	 4.11297694768864E-02 
584	 4.12557299571185E-02 
585	 4.14317114862163E-02 
586	 4.13451891884724E-02 
587	 0.041355670513497 
588	 4.12460325882008E-02 
589	 4.10424400719644E-02 
590	 4.12750993889614E-02 
591	 0.041544865515533 
592	 4.16443874646928E-02 
593	 4.15406623321474E-02 
594	 4.16856069941126E-02 
595	 4.17118126327731E-02 
596	 4.16312430827296E-02 
597	 4.17644604632009E-02 
598	 4.14612131362572E-02 
599	 4.12160462173642E-02 
600	 4.13668263188856E-02 
601	 4.14238226600785E-02 
602	 4.13599402825087E-02 
603	 4.12995869952328E-02 
604	 4.14105170014452E-02 
605	 0.041556191089303 
606	 4.16379221293156E-02 
607	 4.16224469276881E-02 
608	 4.15518134250016E-02 
609	 4.15246282481828E-02 
610	 4.15310408481999E-02 
611	 4.15621771464836E-02 
612	 0.0417547484592 
613	 4.17281414948548E-02 
614	 4.15935000869162E-02 
615	 4.17298571258056E-02 
616	 4.17554104823145E-02 
617	 4.15675399858922E-02 
618	 4.13383199935992E-02 
619	 4.16906580965016E-02 
620	 4.16349984637518E-02 
621	 4.14645650397778E-02 
622	 4.16850702482516E-02 
623	 4.16041470806606E-02 
624	 4.16681949759315E-02 
625	 4.18652595083658E-02 
626	 4.17511779098871E-02 
627	 4.17888206327971E-02 
628	 4.17604408842237E-02 
629	 4.15767797155952E-02 
630	 4.17885912062675E-02 
631	 4.20363535060723E-02 
632	 4.21140262212778E-02 
633	 4.19401254116909E-02 
634	 0.041766669597964 
635	 4.18633435774312E-02 
636	 4.21238015921676E-02 
637	 4.19960108843945E-02 
638	 4.21026548470335E-02 
639	 4.22157640346084E-02 
640	 4.20897766033531E-02 
641	 4.21112826884519E-02 
642	 4.21190279982331E-02 
643	 4.21731045205107E-02 
644	 4.24006714297662E-02 
645	 4.22080939104005E-02 
646	 4.21642475490299E-02 
647	 4.24283958487248E-02 
648	 4.22558991179082E-02 
649	 0.042295094969603 
650	 4.24174481033732E-02 
651	 4.23753802397321E-02 
652	 4.24614117327218E-02 
653	 4.25179673764923E-02 
654	 4.25067760442934E-02 
655	 4.25004444296147E-02 
656	 4.25720481554461E-02 
657	 4.26765790045266E-02 
658	 4.27402295845827E-02 
659	 4.26560156524678E-02 
660	 4.26853093717051E-02 
661	 4.27347983307873E-02 
662	 4.26562626294034E-02 
663	 4.27909151979904E-02 
664	 4.28946498937381E-02 
665	 4.29029672744767E-02 
666	 0.042960959473177 
667	 4.29896877551698E-02 
668	 4.31083826228551E-02 
669	 4.33301318059706E-02 
670	 4.33052172065186E-02 
671	 4.32539648879331E-02 
672	 4.31913121463343E-02 
673	 4.30835157251179E-02 
674	 4.31891500384567E-02 
675	 4.34091034217387E-02 
676	 0.043589344050105 
677	 0.043558701806748 
678	 4.35108617134261E-02 
679	 4.35025068964517E-02 
680	 4.35292409375126E-02 
681	 4.34998988148269E-02 
682	 4.35546594592154E-02 
683	 4.36919695917365E-02 
684	 4.38224449097288E-02 
685	 4.38535859516114E-02 
686	 4.38861650584984E-02 
687	 4.39652386224025E-02 
688	 4.40281491541361E-02 
689	 4.41035092369988E-02 
690	 4.42083152190609E-02 
691	 0.044307884258181 
692	 4.41853468136509E-02 
693	 4.41460782298364E-02 
694	 4.42717036043713E-02 
695	 4.44693227550778E-02 
696	 4.45268240157912E-02 
697	 4.45396126298108E-02 
698	 4.45852419383031E-02 
699	 4.46451616466899E-02 
700	 4.48029987851191E-02 
701	 4.49267881634259E-02 
702	 0.044903723761519 
703	 4.49309858352454E-02 
704	 4.49363474153211E-02 
705	 4.49650052716624E-02 
706	 4.51229283138967E-02 
707	 4.52633795607215E-02 
708	 4.53477929430738E-02 
709	 4.53695821497917E-02 
710	 4.53382876656461E-02 
711	 4.54272661233052E-02 
712	 0.045607702025579 
713	 4.57811889575909E-02 
714	 4.58638370252201E-02 
715	 4.59370159213138E-02 
716	 4.59982320122864E-02 
717	 4.59984105253417E-02 
718	 4.60958784515453E-02 
719	 4.62207717956826E-02 
720	 4.63218159519854E-02 
721	 4.64365078045773E-02 
722	 4.64999796347697E-02 
723	 4.65399078474631E-02 
724	 4.66190261167191E-02 
725	 0.04682695988439 
726	 0.046964135787987 
727	 4.70120695540719E-02 
728	 4.70841804823542E-02 
729	 4.71784062751021E-02 
730	 4.72574550934805E-02 
731	 4.73112873395731E-02 
732	 4.73815426895826E-02 
733	 4.74982947299022E-02 
734	 0.047649668033491 
735	 4.78078798963603E-02 
736	 4.79567882756632E-02 
737	 4.80124905701926E-02 
738	 4.80527751074461E-02 
739	 4.82340743078666E-02 
740	 4.83868292604508E-02 
741	 4.85132088323768E-02 
742	 4.86202580709461E-02 
743	 4.86895226426491E-02 
744	 4.87992312415667E-02 
745	 4.89553530610706E-02 
746	 4.91123322918869E-02 
747	 4.91189401279976E-02 
748	 4.92188279842229E-02 
749	 4.93684862059194E-02 
750	 4.94089299156167E-02 
751	 4.97198309878603E-02 
752	 4.99151963808794E-02 
753	 4.98855170894626E-02 
754	 4.99684969996143E-02 
755	 5.01267295369013E-02 
756	 5.03299084479447E-02 
757	 5.05176542129321E-02 
758	 5.05576503965928E-02 
759	 5.05999019698296E-02 
760	 5.07261236288857E-02 
761	 5.09469660974125E-02 
762	 5.10718636268205E-02 
763	 5.12301129611087E-02 
764	 5.14202453978825E-02 
765	 5.14900380756896E-02 
766	 5.16470555497965E-02 
767	 5.17870506146421E-02 
768	 5.18506508526847E-02 
769	 5.20175327107934E-02 
770	 5.22461369442488E-02 
771	 5.24046971079043E-02 
772	 5.24101690405446E-02 
773	 5.25822615889468E-02 
774	 5.28427513757182E-02 
775	 5.30444053614608E-02 
776	 5.30441821922026E-02 
777	 5.32342692998101E-02 
778	 5.34281296087541E-02 
779	 5.35192184585215E-02 
780	 5.36820887961715E-02 
781	 5.37926502566345E-02 
782	 0.053900608150731 
783	 5.40838256786054E-02 
784	 5.43631413126587E-02 
785	 5.45061627700346E-02 
786	 5.45638075006044E-02 
787	 5.47313537218934E-02 
788	 5.49346970910511E-02 
789	 5.50687690683687E-02 
790	 5.51455254972585E-02 
791	 5.53097333647737E-02 
792	 5.53908484834475E-02 
793	 0.05554691284202 
794	 5.58592604264521E-02 
795	 0.05608311099797 
796	 5.61477034450343E-02 
797	 0.056223946822135 
798	 5.64895847019174E-02 
799	 5.66434941361323E-02 
800	 5.68319943250211E-02 
801	 5.70722170033258E-02 
802	 5.72691123674704E-02 
803	 5.73924118461058E-02 
804	 5.75119039772609E-02 
805	 5.76865300184413E-02 
806	 5.79350335047748E-02 
807	 0.058048040620467 
808	 5.81236930529632E-02 
809	 5.82952845933385E-02 
810	 5.85634917486637E-02 
811	 5.87433895950977E-02 
812	 5.88573622203924E-02 
813	 5.90267207801201E-02 
814	 5.93260663085905E-02 
815	 0.059508289986026 
816	 5.96210077784803E-02 
817	 5.99429176940345E-02 
818	 6.00355359823769E-02 
819	 6.01677276585036E-02 
820	 0.060459953715399 
821	 6.06203718239082E-02 
822	 6.07883493943224E-02 
823	 6.09892072726958E-02 
824	 6.12063322952544E-02 
825	 6.13775228531128E-02 
826	 6.16065076140268E-02 
827	 6.18498699547814E-02 
828	 6.20243787426266E-02 
829	 6.22447014154496E-02 
830	 6.24533014900366E-02 
831	 6.26385373492703E-02 
832	 6.28344969773852E-02 
833	 6.30087710851198E-02 
834	 6.32542394660679E-02 
835	 6.35325072788762E-02 
836	 6.35881719615932E-02 
837	 6.38453871138347E-02 
838	 6.40923027217294E-02 
839	 6.41601324115882E-02 
840	 6.44618011823597E-02 
841	 6.47521368479873E-02 
842	 6.49632125930109E-02 
843	 6.51312598366191E-02 
844	 6.54347141449583E-02 
845	 6.56456626101188E-02 
846	 6.57850276649124E-02 
847	 6.60451083295886E-02 
848	 6.63153363813324E-02 
849	 6.64852090887549E-02 
850	 0.06658542562623 
851	 0.066811626256746 
852	 6.71538611660225E-02 
853	 6.73778052098735E-02 
854	 6.74171583356756E-02 
855	 0.067648375740071 
856	 0.067945279872913 
857	 6.82294904638533E-02 
858	 0.068452215899158 
859	 6.86384210230333E-02 
860	 6.88374881359434E-02 
861	 6.90823347907931E-02 
862	 6.93619464223227E-02 
863	 6.94831782679747E-02 
864	 6.97201872607134E-02 
865	 7.00663697066573E-02 
866	 7.02694606072584E-02 
867	 7.04338828490335E-02 
868	 0.070635074828185 
869	 7.08693871431902E-02 
870	 7.10351021435645E-02 
871	 7.12367726184002E-02 
872	 7.14475382178868E-02 
873	 7.16750856451296E-02 
874	 7.20754808876559E-02 
875	 7.23662081147711E-02 
876	 7.25102286709141E-02 
877	 7.25769456604118E-02 
878	 7.26405220400723E-02 
879	 7.30848957596822E-02 
880	 0.073565216222167 
881	 7.35582431145884E-02 
882	 7.36397031720095E-02 
883	 7.39261264565722E-02 
884	 7.43315607892112E-02 
885	 0.07464870171923 
886	 7.49184498109199E-02 
887	 7.51824509847215E-02 
888	 0.075387598692883 
889	 7.53987292972008E-02 
890	 7.55764880292457E-02 
891	 7.58944061367854E-02 
892	 7.62194148767544E-02 
893	 7.63792696089506E-02 
894	 7.65975359341242E-02 
895	 0.076764929340581 
896	 7.68847364339781E-02 
897	 7.75007422499531E-02 
898	 7.77365902490888E-02 
899	 7.78506984363994E-02 
900	 7.82478759484409E-02 
901	 7.82832804725864E-02 
902	 7.84384671663962E-02 
903	 7.87215050237158E-02 
904	 7.89448166504612E-02 
905	 7.93210074142663E-02 
906	 7.95287656087604E-02 
907	 7.96536494161401E-02 
908	 8.00222629538173E-02 
909	 8.02960532285175E-02 
910	 8.05269730407677E-02 
911	 8.07670034857827E-02 
912	 8.10219027252453E-02 
913	 0.081190831887352 
914	 8.14749676760365E-02 
915	 8.18832955867156E-02 
916	 8.21246977442887E-02 
917	 8.24290565187645E-02 
918	 8.25948499204896E-02 
919	 8.26206920835807E-02 
920	 8.30063458562128E-02 
921	 8.32137481964578E-02 
922	 8.33986544234282E-02 
923	 8.37691857287252E-02 
924	 8.42044237182157E-02 
925	 8.46189287977202E-02 
926	 8.48469049119901E-02 
927	 8.48867760041167E-02 
928	 8.53215225362788E-02 
929	 8.56369453377968E-02 
930	 8.57577729931027E-02 
931	 8.58349864819417E-02 
932	 8.60475834775752E-02 
933	 8.65588094293039E-02 
934	 8.69534491094696E-02 
935	 8.67758544584439E-02 
936	 8.70536312946089E-02 
937	 8.75088548936638E-02 
938	 8.78305626122164E-02 
939	 8.78826379045131E-02 
940	 8.84581793176335E-02 
941	 8.89132780592501E-02 
942	 8.90896546350723E-02 
943	 8.93439784029094E-02 
944	 0.089648064005339 
945	 8.99904118605294E-02 
946	 9.02731015322555E-02 
947	 9.03760515778288E-02 
948	 9.09008400486342E-02 
949	 9.13726187758332E-02 
950	 9.15386949356879E-02 
951	 9.16513686924899E-02 
952	 9.20644580073698E-02 
953	 9.23786786050082E-02 
954	 9.25760890597638E-02 
955	 9.33380199458617E-02 
956	 9.37179965240003E-02 
957	 9.38582045667121E-02 
958	 9.40015503519272E-02 
959	 0.094148480044525 
960	 0.094656962233765 
961	 9.50538521780851E-02 
962	 9.50769391176521E-02 
963	 9.52607925372276E-02 
964	 9.54786128610597E-02 
965	 9.58215580293112E-02 
966	 9.62050010011945E-02 
967	 9.60613634856958E-02 
968	 9.64743973766087E-02 
969	 9.71827726969592E-02 
970	 9.76412923850829E-02 
971	 9.76423125450409E-02 
972	 9.79611193410871E-02 
973	 9.82730586795856E-02 
974	 9.82872755578601E-02 
975	 9.88121657666491E-02 
976	 9.91112199743827E-02 
977	 9.92378904007349E-02 
978	 9.94195217523565E-02 
979	 9.95530144264133E-02 
980	 0.100015968867025 
981	 0.100370103349235 
982	 0.100348118557997 
983	 0.101191368840477 
984	 0.101220204847234 
985	 0.101190800147081 
986	 0.102092100854462 
987	 0.102771993037816 
988	 0.102520726326687 
989	 0.10248306775277 
990	 0.10357933652731 
991	 0.103603836054485 
992	 0.103361787815394 
993	 0.103416693937404 
994	 0.103987553036098 
995	 0.104479232738201 
996	 0.104714089870196 
997	 0.104759080415693 
998	 0.104848758246433 
999	 0.105365558419159 
1000	 0.105608271535422 
1001	 0.111829893107285 
1002	 0.112209779601022 
1003	 0.112501514993739 
1004	 0.112776853161145 
1005	 0.112934249668192 
1006	 0.113249239712176 
1007	 0.113615993130108 
1008	 0.113942809081849 
1009	 0.114292853749479 
1010	 0.114660372783424 
1011	 0.115034746607528 
1012	 0.115450977671586 
1013	 0.11596794040996 
1014	 0.116324616161268 
1015	 0.11650963823877 
1016	 0.116894558291904 
1017	 0.117355086700771 
1018	 0.117758067472118 
1019	 0.118169603073041 
1020	 0.118511330879318 
1021	 0.118855061288548 
1022	 0.119111551655946 
1023	 0.119330478211815 
1024	 0.119510798021481 
1025	 0.119771108441569 
1026	 0.119883421343635 
1027	 0.120124222753792 
1028	 0.120476943898947 
1029	 0.12101912686492 
1030	 0.121345997135018 
1031	 0.121712966924063 
1032	 0.122055152205186 
1033	 0.122209696156457 
1034	 0.122506458985159 
1035	 0.1227970680467 
1036	 0.123109688046216 
1037	 0.123561280819642 
1038	 0.123886541677462 
1039	 0.124198699700255 
1040	 0.124411779226634 
1041	 0.124446048936016 
1042	 0.124639501896918 
1043	 0.124839463162667 
1044	 0.124983084846427 
1045	 0.125467223857731 
1046	 0.125839058081961 
1047	 0.126087098124225 
1048	 0.126439736037607 
1049	 0.126609248650399 
1050	 0.126844006276992 
1051	 0.127256687631274 
1052	 0.127643842988401 
1053	 0.128045244350183 
1054	 0.128607499674198 
1055	 0.12898117178997 
1056	 0.129220842853734 
1057	 0.129526079665731 
1058	 0.129810001952104 
1059	 0.12998188730419 
1060	 0.130319397151157 
1061	 0.130637900495987 
1062	 0.130906724711886 
1063	 0.13119913141304 
1064	 0.131515045146842 
1065	 0.131903207335007 
1066	 0.132404564014383 
1067	 0.132987292212388 
1068	 0.13348264874095 
1069	 0.133907931266279 
1070	 0.134236017512793 
1071	 0.134428389158149 
1072	 0.134594669864626 
1073	 0.134908013695065 
1074	 0.135373740864398 
1075	 0.135967254878314 
1076	 0.13664395963014 
1077	 0.137273791095823 
1078	 0.137690036275644 
1079	 0.138104434725132 
1080	 0.138448062702365 
1081	 0.138687156914067 
1082	 0.139026228566092 
1083	 0.139167324424756 
1084	 0.139394536861007 
1085	 0.139990837788611 
1086	 0.140433498210843 
1087	 0.140853077053732 
1088	 0.141328748536025 
1089	 0.141917871616864 
1090	 0.142294689444785 
1091	 0.142654383919889 
1092	 0.14320251588574 
1093	 0.143666407825823 
1094	 0.144033741446423 
1095	 0.144401019685917 
1096	 0.144733061571281 
1097	 0.145068479715759 
1098	 0.145271586545777 
1099	 0.145523514246564 
1100	 0.14595886640573 
1101	 0.146375670933768 
1102	 0.146732155230749 
1103	 0.147093599260578 
1104	 0.147465543106718 
1105	 0.14783097124244 
1106	 0.148136302279647 
1107	 0.148459770609107 
1108	 0.148796553029192 
1109	 0.149070093347259 
1110	 0.149428380282164 
1111	 0.149796762091687 
1112	 0.150040160194274 
1113	 0.150308995324175 
1114	 0.150631757790393 
1115	 0.150875122251354 
1116	 0.151182180379286 
1117	 0.151559802763402 
1118	 0.151879747155468 
1119	 0.152103246132993 
1120	 0.152403169761094 
1121	 0.152772295058629 
1122	 0.153044393639208 
1123	 0.153319831006656 
1124	 0.153589283214541 
1125	 0.153822704974013 
1126	 0.154131388693519 
1127	 0.154432319752167 
1128	 0.154743607687218 
1129	 0.155106862911356 
1130	 0.15538362355497 
1131	 0.15570937926903 
1132	 0.156020679315876 
1133	 0.156232769259038 
1134	 0.15652747575416 
1135	 0.156808719561774 
1136	 0.157049297919188 
1137	 0.157318409962545 
1138	 0.157644307893638 
1139	 0.157909796021115 
1140	 0.158126597774128 
1141	 0.158383907044161 
1142	 0.158698868930231 
1143	 0.159050389085709 
1144	 0.15938048293275 
1145	 0.159685495371597 
1146	 0.159956307544592 
1147	 0.160165444541529 
1148	 0.160414353340722 
1149	 0.160744131893585 
1150	 0.161071119090366 
1151	 0.161425165101625 
1152	 0.161730383637172 
1153	 0.162028461991508 
1154	 0.162312830134197 
1155	 0.162504593763603 
1156	 0.162799259646806 
1157	 0.163210414071466 
1158	 0.163515774470732 
1159	 0.163829466322085 
1160	 0.164101695934823 
1161	 0.164240449379244 
1162	 0.164403768457729 
1163	 0.164637266733135 
1164	 0.164901803525616 
1165	 0.165284406333241 
1166	 0.165685082485734 
1167	 0.166010344461926 
1168	 0.166313852885832 
1169	 0.166583934473089 
1170	 0.166750304813084 
1171	 0.167004812722566 
1172	 0.167308253388499 
1173	 0.167586311804947 
1174	 0.167829117508057 
1175	 0.168145593344253 
1176	 0.168546190243088 
1177	 0.168824178343117 
1178	 0.169044103997157 
1179	 0.169392546540352 
1180	 0.169579028946743 
1181	 0.169807179918335 
1182	 0.170260947813618 
1183	 0.170609275429474 
1184	 0.170877262142802 
1185	 0.171154030082391 
1186	 0.171431712451174 
1187	 0.17162981334684 
1188	 0.171894089435405 
1189	 0.172237168110111 
1190	 0.172522902788174 
1191	 0.172755949704526 
1192	 0.173022208957281 
1193	 0.173281450546734 
1194	 0.173588061563088 
1195	 0.173936279586407 
1196	 0.174272860318092 
1197	 0.174663029089582 
1198	 0.174996428090614 
1199	 0.175278774482449 
1200	 0.175592969015858 
1201	 0.175919063831911 
1202	 0.17624993573054 
1203	 0.176685195836435 
1204	 0.17714563492109 
1205	 0.17754951143706 
1206	 0.177972701571714 
1207	 0.178355919179297 
1208	 0.178636677330532 
1209	 0.179020182227465 
1210	 0.179451402727303 
1211	 0.179882032734994 
1212	 0.18036468629274 
1213	 0.180822323123603 
1214	 0.181228361254446 
1215	 0.181706199276859 
1216	 0.182248702461317 
1217	 0.182753692851748 
1218	 0.183296338381394 
1219	 0.183819956604914 
1220	 0.184214198326887 
1221	 0.184692910858266 
1222	 0.1852673651173 
1223	 0.185811598546175 
1224	 0.186377253701323 
1225	 0.187015369753669 
1226	 0.187597911256842 
1227	 0.188174099230749 
1228	 0.188699649188352 
1229	 0.189216854826722 
1230	 0.189698394134205 
1231	 0.190073234381046 
1232	 0.190532044839585 
1233	 0.191017311890454 
1234	 0.191508448330051 
1235	 0.192033371428596 
1236	 0.192541235006609 
1237	 0.193070286378817 
1238	 0.193567580943116 
1239	 0.194035554208473 
1240	 0.194513909440457 
1241	 0.195026814913336 
1242	 0.195481835576096 
1243	 0.195939297776181 
1244	 0.196398025965842 
1245	 0.196879832876098 
1246	 0.197361101042707 
1247	 0.197804640064532 
1248	 0.198264292529693 
1249	 0.198704082222037 
1250	 0.199082788198028 
1251	 0.199489056839968 
1252	 0.199925677255219 
1253	 0.200342673523852 
1254	 0.200764288782765 
1255	 0.201139189309526 
1256	 0.201477222341621 
1257	 0.201839564913888 
1258	 0.202132338398782 
1259	 0.202493654889566 
1260	 0.202968150781095 
1261	 0.203365867328189 
1262	 0.203719024182596 
1263	 0.204120694765582 
1264	 0.204493840528591 
1265	 0.204816316501409 
1266	 0.205169835324745 
1267	 0.205546635953863 
1268	 0.205927817513745 
1269	 0.206288397049526 
1270	 0.206688222331242 
1271	 0.207091451615599 
1272	 0.207564441430302 
1273	 0.208129368634236 
1274	 0.20860669049973 
1275	 0.209100508663924 
1276	 0.209579943105011 
1277	 0.20999383663627 
1278	 0.210417304298215 
1279	 0.210839463865478 
1280	 0.211299992632213 
1281	 0.211762361311092 
1282	 0.212221269683208 
1283	 0.2127329641463 
1284	 0.213220916336482 
1285	 0.213693520249349 
1286	 0.214120524912998 
1287	 0.214598583507069 
1288	 0.215083859865194 
1289	 0.215604507479361 
1290	 0.216169413090465 
1291	 0.216685113806347 
1292	 0.217225878824879 
1293	 0.217710296181153 
1294	 0.218114762847168 
1295	 0.218587958480881 
1296	 0.21906885861935 
1297	 0.219558141665885 
1298	 0.220078231737697 
1299	 0.220590958648686 
1300	 0.221089270176584 
1301	 0.221609303192244 
1302	 0.222181636406765 
1303	 0.222694571013804 
1304	 0.223148292107048 
1305	 0.223658966381024 
1306	 0.224165995929786 
1307	 0.224678131592643 
1308	 0.225230555310725 
1309	 0.22581246313074 
1310	 0.226304599620536 
1311	 0.226751128297026 
1312	 0.227190059672149 
1313	 0.227557433313029 
1314	 0.228018391402858 
1315	 0.228516161493479 
1316	 0.22897576365177 
1317	 0.229495658680003 
1318	 0.229915343207041 
1319	 0.23024775591271 
1320	 0.230617645711728 
1321	 0.230948931290112 
1322	 0.231317164096896 
1323	 0.231701628121271 
1324	 0.23209135123906 
1325	 0.232536292891413 
1326	 0.232903956165647 
1327	 0.233226365877855 
1328	 0.23356384268534 
1329	 0.233874496162074 
1330	 0.234169453071692 
1331	 0.234455206239633 
1332	 0.234757620921492 
1333	 0.235065928835953 
1334	 0.235323151986045 
1335	 0.235618692996745 
1336	 0.235949818406733 
1337	 0.236244692933156 
1338	 0.236516155978161 
1339	 0.236805177928774 
1340	 0.237129880838932 
1341	 0.237362245379466 
1342	 0.237550820166348 
1343	 0.237754945948658 
1344	 0.237900682019342 
1345	 0.238078162403448 
1346	 0.238287891539815 
1347	 0.238483024675604 
1348	 0.238667213390355 
1349	 0.23884502385098 
1350	 0.239026657068073 
1351	 0.239203406779376 
1352	 0.239360142211885 
1353	 0.239529226203155 
1354	 0.239721594783193 
1355	 0.239888270738084 
1356	 0.240040291541086 
1357	 0.240190498341932 
1358	 0.24030208431171 
1359	 0.240460761933403 
1360	 0.240641928185523 
1361	 0.240845045577583 
1362	 0.241059287736451 
1363	 0.241169857526288 
1364	 0.241316460821827 
1365	 0.241425842030813 
1366	 0.241548214831255 
1367	 0.241674242259657 
1368	 0.24181829788785 
1369	 0.241969106521054 
1370	 0.242085097382602 
1371	 0.242221375895837 
1372	 0.242316860649496 
1373	 0.242347762279383 
1374	 0.242413637392625 
1375	 0.242480579690896 
1376	 0.24256616272583 
1377	 0.242679046199191 
1378	 0.24275820889971 
1379	 0.242859993908791 
1380	 0.242905810121023 
1381	 0.242881616831508 
1382	 0.242891468345976 
1383	 0.242858739947565 
1384	 0.242889575473813 
1385	 0.24298800063498 
1386	 0.243050231023906 
1387	 0.243121157327361 
1388	 0.243196953936146 
1389	 0.243244076895455 
1390	 0.243312870340684 
1391	 0.243382985692138 
1392	 0.243493504027911 
1393	 0.243643201441572 
1394	 0.243824212160549 
1395	 0.24401105409012 
1396	 0.244265369285476 
1397	 0.244440419222858 
1398	 0.244577495076256 
1399	 0.244743593549821 
1400	 0.244924373693517 
1401	 0.24504275632686 
1402	 0.2451708902494 
1403	 0.245213683196039 
1404	 0.245169786950984 
1405	 0.245142586193301 
1406	 0.24510449887483 
1407	 0.245012550290302 
1408	 0.244855690045729 
1409	 0.244743477799515 
1410	 0.244597889717961 
1411	 0.244482823935418 
1412	 0.244428859885914 
1413	 0.24432914693011 
1414	 0.244168665648696 
1415	 0.244079464836809 
1416	 0.244017670818009 
1417	 0.243959898447443 
1418	 0.243965592235114 
1419	 0.24393173495382 
1420	 0.243826425082535 
1421	 0.243803081852827 
1422	 0.243828396577029 
1423	 0.243839976720657 
1424	 0.243887213104015 
1425	 0.243962756153483 
1426	 0.243961716883815 
1427	 0.243964245507484 
1428	 0.244009780377951 
1429	 0.244000205308882 
1430	 0.243964208330675 
1431	 0.243887895156093 
1432	 0.243876728589577 
1433	 0.243851543534014 
1434	 0.243847005782692 
1435	 0.243914639168839 
1436	 0.243904914643801 
1437	 0.243848036681203 
1438	 0.243806253173646 
1439	 0.24376117523232 
1440	 0.243702265440288 
1441	 0.243598776789963 
1442	 0.243567710757026 
1443	 0.243536327075984 
1444	 0.243568468792401 
1445	 0.243624334784977 
1446	 0.243784644158636 
1447	 0.244001651379846 
1448	 0.244285672200029 
1449	 0.244677382480431 
1450	 0.245104283554304 
1451	 0.245562759351198 
1452	 0.246102102047828 
1453	 0.246751851552684 
1454	 0.247380808654211 
1455	 0.248070821788568 
1456	 0.248747459498432 
1457	 0.249442490704686 
1458	 0.250113143228008 
1459	 0.25077828421845 
1460	 0.251433077377155 
1461	 0.252088611637784 
1462	 0.252699325693541 
1463	 0.253289805091197 
1464	 0.253865416908939 
1465	 0.254384273383394 
1466	 0.254907284671182 
1467	 0.25545997025446 
1468	 0.256006572937853 
1469	 0.256618850977853 
1470	 0.25713902879925 
1471	 0.257639372217331 
1472	 0.258091237339012 
1473	 0.258606325213059 
1474	 0.259118582635099 
1475	 0.259602909454311 
1476	 0.260127262569241 
1477	 0.260593902398568 
1478	 0.260981056041547 
1479	 0.26141617980412 
1480	 0.261883205053109 
1481	 0.262302980378372 
1482	 0.26271886699453 
1483	 0.263084595950513 
1484	 0.263396805249236 
1485	 0.263740058995585 
1486	 0.2640535408047 
1487	 0.264383698815047 
1488	 0.264735674503378 
1489	 0.265083500082254 
1490	 0.265412106909318 
1491	 0.265772805806292 
1492	 0.266138869486477 
1493	 0.266543281260123 
1494	 0.266952750531661 
1495	 0.267426691958853 
1496	 0.267975036054059 
1497	 0.268505662610841 
1498	 0.269103062590271 
1499	 0.269637754968044 
1500	 0.270107421960972 
1501	 0.270636287410796 
1502	 0.271170419510391 
1503	 0.271710786090781 
1504	 0.27233664228129 
1505	 0.272873530406505 
1506	 0.273356216036152 
1507	 0.273832021766385 
1508	 0.274237697808667 
1509	 0.274683544947136 
1510	 0.275183177192354 
1511	 0.275609460192891 
1512	 0.276001418712816 
1513	 0.276394907884829 
1514	 0.276713651313818 
1515	 0.277077428930186 
1516	 0.277523423710878 
1517	 0.27789138441991 
1518	 0.278224767406278 
1519	 0.278547714092383 
1520	 0.278807590865395 
1521	 0.279065229103409 
1522	 0.279392846665751 
1523	 0.279734709996829 
1524	 0.280022086815031 
1525	 0.280312903778678 
1526	 0.28058679000874 
1527	 0.280815509824117 
1528	 0.281047521546997 
1529	 0.281280707088742 
1530	 0.281528263325562 
1531	 0.28174535423842 
1532	 0.282013948012523 
1533	 0.28235122471314 
1534	 0.282603803919883 
1535	 0.282822945880346 
1536	 0.283067052382603 
1537	 0.283284869598556 
1538	 0.283520119738358 
1539	 0.283766455339838 
1540	 0.284046355425846 
1541	 0.284330680341072 
1542	 0.28463020388837 
1543	 0.284946508966892 
1544	 0.285323594008595 
1545	 0.285733583774643 
1546	 0.286133843914958 
1547	 0.286616400560291 
1548	 0.287019306274655 
1549	 0.287345846336489 
1550	 0.28773726876244 
1551	 0.288137374583505 
1552	 0.288552263744727 
1553	 0.289024065512121 
1554	 0.28942305649009 
1555	 0.289772853571881 
1556	 0.290175568292703 
1557	 0.290564096218688 
1558	 0.290969130878777 
1559	 0.291437851956438 
1560	 0.291850705857312 
1561	 0.292222383502396 
1562	 0.292610903594474 
1563	 0.292993778643698 
1564	 0.293379262525163 
1565	 0.293763670316162 
1566	 0.294152619381882 
1567	 0.294556809672836 
1568	 0.294932975185827 
1569	 0.295281402100053 
1570	 0.295663207068345 
1571	 0.296063243242222 
1572	 0.296426626261682 
1573	 0.296818478219635 
1574	 0.297154149999331 
1575	 0.297391166829151 
1576	 0.297704877584057 
1577	 0.298019455254261 
1578	 0.298372114193081 
1579	 0.298814413249684 
1580	 0.299179800796686 
1581	 0.299518610787154 
1582	 0.299863764636309 
1583	 0.300170746023263 
1584	 0.300494836324738 
1585	 0.30085156608817 
1586	 0.30117844851574 
1587	 0.301468668331849 
1588	 0.301783554604833 
1589	 0.302106443752077 
1590	 0.302422656694399 
1591	 0.302755786747765 
1592	 0.303070433153197 
1593	 0.303348103274831 
1594	 0.303663997034909 
1595	 0.303999169864731 
1596	 0.304326594863188 
1597	 0.304672707554551 
1598	 0.305010902007643 
1599	 0.305342342769052 
1600	 0.305671739612051 
1601	 0.306016653143088 
1602	 0.306334593847505 
1603	 0.306613669220662 
1604	 0.306916332198052 
1605	 0.307235120054885 
1606	 0.307528421690786 
1607	 0.307802494993712 
1608	 0.308104917675739 
1609	 0.308411170136887 
1610	 0.308700924230375 
1611	 0.309022594928986 
1612	 0.309313415962556 
1613	 0.309583584134988 
1614	 0.309820372332548 
1615	 0.310009704627962 
1616	 0.310231125563588 
1617	 0.310454286141789 
1618	 0.310644414197724 
1619	 0.310834649758401 
1620	 0.311028543731415 
1621	 0.311151637891375 
1622	 0.311345493038878 
1623	 0.311632780028333 
1624	 0.311859614117057 
1625	 0.312100961027137 
1626	 0.312302245829986 
1627	 0.312441662845423 
1628	 0.312586738835163 
1629	 0.312697216628388 
1630	 0.312850177257391 
1631	 0.313015035429544 
1632	 0.313189710327484 
1633	 0.313398002030725 
1634	 0.313592060422946 
1635	 0.31378431579775 
1636	 0.313979553644311 
1637	 0.314206477651034 
1638	 0.314385119218827 
1639	 0.314537402328716 
1640	 0.314676742928518 
1641	 0.314750771709041 
1642	 0.314868000000548 
1643	 0.315016737162659 
1644	 0.31514350782242 
1645	 0.315286926682473 
1646	 0.315409911753693 
1647	 0.315495416059089 
1648	 0.315597994217942 
1649	 0.315721735598711 
1650	 0.315806775063361 
1651	 0.315891506393412 
1652	 0.315941074921393 
1653	 0.31595236728911 
1654	 0.315947758605198 
1655	 0.315908258332137 
1656	 0.315870742642515 
1657	 0.315837679764748 
1658	 0.31576379281777 
1659	 0.315676182840976 
1660	 0.315563828652861 
1661	 0.31541598217054 
1662	 0.315224333723182 
1663	 0.315031799334988 
1664	 0.31476424899351 
1665	 0.314384776748218 
1666	 0.314056793292281 
1667	 0.313725252192329 
1668	 0.313358810233133 
1669	 0.313049925352195 
1670	 0.31262390929441 
1671	 0.312092272935867 
1672	 0.311546246764194 
1673	 0.310971950307085 
1674	 0.310296277687209 
1675	 0.309571261956391 
1676	 0.308790834142055 
1677	 0.307913627680407 
1678	 0.306998425552786 
1679	 0.306012948295041 
1680	 0.305036974731108 
1681	 0.304062050060613 
1682	 0.302954403386685 
1683	 0.301783426422751 
1684	 0.300594535039587 
1685	 0.299351140740035 
1686	 0.297983981799116 
1687	 0.296572450199243 
1688	 0.295082929051421 
1689	 0.29335839348358 
1690	 0.291781369675991 
1691	 0.290288906948663 
1692	 0.288737964255858 
1693	 0.287175667922187 
1694	 0.285633170920035 
1695	 0.284072475610908 
1696	 0.282479410658862 
1697	 0.280927660743899 
1698	 0.279266796135702 
1699	 0.277496097622555 
1700	 0.275858556182193 
1701	 0.274216767426002 
1702	 0.2726021687351 
1703	 0.271031175037459 
1704	 0.269499087164242 
1705	 0.267914873027235 
1706	 0.266568677712213 
1707	 0.265358184741795 
1708	 0.26419671240675 
1709	 0.263165671811506 
1710	 0.262243438403513 
1711	 0.261325533136763 
1712	 0.260491071641803 
1713	 0.259730064801966 
1714	 0.258876809166864 
1715	 0.25807031153844 
1716	 0.25737549378048 
1717	 0.256622936229915 
1718	 0.255853417516923 
1719	 0.255176161563785 
1720	 0.254547444310684 
1721	 0.253924243686345 
1722	 0.253426741929134 
1723	 0.253057516978609 
1724	 0.252714786172613 
1725	 0.252528265916168 
1726	 0.252529265242559 
1727	 0.252625860677352 
1728	 0.252787574040095 
1729	 0.253074733533262 
1730	 0.253558245133584 
1731	 0.254124629223408 
1732	 0.254886941209734 
1733	 0.255821137690832 
1734	 0.25682218640877 
1735	 0.257925466573336 
1736	 0.258998509223584 
1737	 0.260027050517503 
1738	 0.261001447558193 
1739	 0.261817239010862 
1740	 0.262561289400688 
1741	 0.26315546737266 
1742	 0.263561196602576 
1743	 0.263895245379065 
1744	 0.264103359002494 
1745	 0.264311323588459 
1746	 0.264453369854047 
1747	 0.264530183718775 
1748	 0.26456168397621 
1749	 0.264527175512624 
1750	 0.264304388870606 
1751	 0.264291334441806 
1752	 0.264334812667684 
1753	 0.26441559284449 
1754	 0.264618672609995 
1755	 0.264810920360925 
1756	 0.264976693050409 
1757	 0.265259729519094 
1758	 0.265656191559213 
1759	 0.266126709540468 
1760	 0.266642767586636 
1761	 0.267315294233257 
1762	 0.267967192197231 
1763	 0.26872896816314 
1764	 0.269647688124648 
1765	 0.270667205532022 
1766	 0.2718904733524 
1767	 0.273142042252491 
1768	 0.274375550283305 
1769	 0.275607739770589 
1770	 0.276812565455252 
1771	 0.278056540835143 
1772	 0.279277729402486 
1773	 0.280473325560885 
1774	 0.281671989748712 
1775	 0.282768113700053 
1776	 0.283898561261084 
1777	 0.285022005873541 
1778	 0.285888190307311 
1779	 0.286766811080705 
1780	 0.287628799776342 
1781	 0.288353185070373 
1782	 0.28917704125911 
1783	 0.289896690371074 
1784	 0.290531598193757 
1785	 0.291191560907512 
1786	 0.291790288371157 
1787	 0.292357290703063 
1788	 0.292911990912063 
1789	 0.293381646205368 
1790	 0.293888482974479 
1791	 0.294497584335673 
1792	 0.294978738651711 
1793	 0.295393724166049 
1794	 0.295775568412783 
1795	 0.296061149133243 
1796	 0.296399131919888 
1797	 0.29675512892284 
1798	 0.29707192935565 
1799	 0.297437690689851 
1800	 0.297824318010472 
1801	 0.291982561038865 
1802	 0.292410442373232 
1803	 0.292770406039612 
1804	 0.293098297723077 
1805	 0.293393877634778 
1806	 0.29375568217945 
1807	 0.294111548658275 
1808	 0.294464874919955 
1809	 0.294931974917838 
1810	 0.295267337491428 
1811	 0.295445426830262 
1812	 0.295733042969367 
1813	 0.296016818482021 
1814	 0.296337040252865 
1815	 0.296708571957642 
1816	 0.297096534585993 
1817	 0.297480845168039 
1818	 0.297871611392276 
1819	 0.298251395079608 
1820	 0.298616786429903 
1821	 0.29901467550523 
1822	 0.299438539844067 
1823	 0.299857370466292 
1824	 0.300161909731857 
1825	 0.300551991352829 
1826	 0.300916173628488 
1827	 0.301191673232416 
1828	 0.30153851970211 
1829	 0.301981403549639 
1830	 0.302348213569975 
1831	 0.302657644890138 
1832	 0.303026161972011 
1833	 0.303438624958814 
1834	 0.303833268296596 
1835	 0.304254321437606 
1836	 0.304662954553211 
1837	 0.305037788079367 
1838	 0.305353349317425 
1839	 0.3057079466389 
1840	 0.306040990276476 
1841	 0.306414477754305 
1842	 0.306802317775727 
1843	 0.307229864087708 
1844	 0.307638158950374 
1845	 0.308076978228691 
1846	 0.308514133419398 
1847	 0.308845750029368 
1848	 0.309173699295856 
1849	 0.309491868183469 
1850	 0.30976645588276 
1851	 0.309983999470666 
1852	 0.310220646764426 
1853	 0.310446720161145 
1854	 0.310610203105439 
1855	 0.310776949872717 
1856	 0.310876643295669 
1857	 0.310962531850189 
1858	 0.311078829194969 
1859	 0.311134260624458 
1860	 0.31115105332519 
1861	 0.311189349244643 
1862	 0.311241545303842 
1863	 0.311199791643264 
1864	 0.31111917652507 
1865	 0.31099453256697 
1866	 0.310772447968142 
1867	 0.31047106826372 
1868	 0.310231713990622 
1869	 0.309961913544747 
1870	 0.309623879173646 
1871	 0.309284781845011 
1872	 0.308863893606752 
1873	 0.308354561231555 
1874	 0.307817084955504 
1875	 0.307276449420819 
1876	 0.306607669943558 
1877	 0.305908183096865 
1878	 0.305194118498773 
1879	 0.304453812673603 
1880	 0.30369312712537 
1881	 0.302860804136836 
1882	 0.30200869834581 
1883	 0.301078206569602 
1884	 0.299988507526186 
1885	 0.298748524633964 
1886	 0.29753719398298 
1887	 0.296209394427794 
1888	 0.294777398660862 
1889	 0.29346929145154 
1890	 0.291958380517812 
1891	 0.290383022569229 
1892	 0.288855694489321 
1893	 0.287275797939751 
1894	 0.285602356699298 
1895	 0.284018344575149 
1896	 0.282400545777879 
1897	 0.280756250103058 
1898	 0.279208415518272 
1899	 0.277608399931407 
1900	 0.276086596588499 
1901	 0.274675423479895 
1902	 0.273205631270435 
1903	 0.271881566152214 
1904	 0.270553163870772 
1905	 0.269261399948609 
1906	 0.267912202316629 
1907	 0.266749929862998 
1908	 0.265633547112476 
1909	 0.264571710133603 
1910	 0.263668966388881 
1911	 0.262685658675923 
1912	 0.261665252661529 
1913	 0.26076853486159 
1914	 0.259890272806654 
1915	 0.259075604989285 
1916	 0.258380913721333 
1917	 0.257672049223597 
1918	 0.256842595874346 
1919	 0.256103404439815 
1920	 0.255322960560313 
1921	 0.25457387619027 
1922	 0.253957165788737 
1923	 0.253296908079894 
1924	 0.252651990121358 
1925	 0.252024241246003 
1926	 0.251405969621581 
1927	 0.250784200144409 
1928	 0.250191073074317 
1929	 0.249598247758603 
1930	 0.249072450065231 
1931	 0.24857247952838 
1932	 0.248090127984363 
1933	 0.247700877179741 
1934	 0.247259299938889 
1935	 0.246867217909375 
1936	 0.246589857452373 
1937	 0.246395256588939 
1938	 0.246318662112237 
1939	 0.246271264306891 
1940	 0.246311042238883 
1941	 0.246356084177036 
1942	 0.246403601465829 
1943	 0.246550590077747 
1944	 0.246807158140681 
1945	 0.247100388817014 
1946	 0.247504050597444 
1947	 0.24789941071268 
1948	 0.248293504443948 
1949	 0.248715977227943 
1950	 0.249236425051984 
1951	 0.249816623711419 
1952	 0.250472437384575 
1953	 0.251170203070473 
1954	 0.252044813634556 
1955	 0.253006088625562 
1956	 0.253908217846708 
1957	 0.254882051800921 
1958	 0.255846880834321 
1959	 0.256683896794441 
1960	 0.257494041446027 
1961	 0.258269644963606 
1962	 0.259000539021609 
1963	 0.259672050600124 
1964	 0.260310520689131 
1965	 0.260911450623422 
1966	 0.261470974181321 
1967	 0.261957260580023 
1968	 0.262409073998453 
1969	 0.262809974503606 
1970	 0.263218332217403 
1971	 0.263691310812835 
1972	 0.264187968963052 
1973	 0.264652066766465 
1974	 0.265103935268698 
1975	 0.265496884968322 
1976	 0.265948460202891 
1977	 0.266408344447605 
1978	 0.266911853028119 
1979	 0.267453705591517 
1980	 0.26800068594511 
1981	 0.268584925749189 
1982	 0.269195737491462 
1983	 0.269814791553596 
1984	 0.27038379465052 
1985	 0.270966462051463 
1986	 0.271558667957003 
1987	 0.272152925037027 
1988	 0.27269525554595 
1989	 0.273389602383595 
1990	 0.274115878711076 
1991	 0.274911548840895 
1992	 0.275803392990827 
1993	 0.276804569497002 
1994	 0.277720243365532 
1995	 0.278707940601923 
1996	 0.279760698485588 
1997	 0.280842177345571 
1998	 0.281953242295926 
1999	 0.283181823073048 
2000	 0.284265167274877 
2001	 0.285370550422764 
2002	 0.286335653426955 
2003	 0.287162363421236 
2004	 0.288018077482742 
2005	 0.288796409655642 
2006	 0.289562879145999 
2007	 0.29034199826416 
2008	 0.291094664330815 
2009	 0.29168933107487 
2010	 0.292286294494316 
2011	 0.292776605489016 
2012	 0.293141761596423 
2013	 0.293535924669084 
2014	 0.293890808033092 
2015	 0.29424493854291 
2016	 0.294579575543992 
2017	 0.294913243142319 
2018	 0.295261510843754 
2019	 0.29555502664014 
2020	 0.295843553019321 
2021	 0.296073092072537 
2022	 0.296208709745517 
2023	 0.296319076635572 
2024	 0.29630307486738 
2025	 0.296256874232254 
2026	 0.296230613322821 
2027	 0.296166099694728 
2028	 0.296106815884677 
2029	 0.296043887313834 
2030	 0.296000865245243 
2031	 0.296005144913639 
2032	 0.295931875037881 
2033	 0.295817751839479 
2034	 0.29572182235676 
2035	 0.295588452905768 
2036	 0.295425092227067 
2037	 0.295318421211672 
2038	 0.295237201619635 
2039	 0.295099708965029 
2040	 0.294911692213657 
2041	 0.294760255096747 
2042	 0.294615837277366 
2043	 0.294454969767452 
2044	 0.294278641144103 
2045	 0.294129848965867 
2046	 0.293934480544303 
2047	 0.293817222283425 
2048	 0.293822404376341 
2049	 0.293752389733378 
2050	 0.293680632832197 
2051	 0.293598681019612 
2052	 0.293500890155743 
2053	 0.293350744885029 
2054	 0.293256222540874 
2055	 0.293175746747604 
2056	 0.293148489501136 
2057	 0.293197019444658 
2058	 0.293143602431743 
2059	 0.293111359850563 
2060	 0.29302269091009 
2061	 0.292776829472074 
2062	 0.292674851732458 
2063	 0.292639281014337 
2064	 0.292584724494512 
2065	 0.292553238998824 
2066	 0.292571162517898 
2067	 0.29258901409685 
2068	 0.292621385352959 
2069	 0.292579906059034 
2070	 0.292526889212121 
2071	 0.29247047541575 
2072	 0.292312229372717 
2073	 0.292253664213341 
2074	 0.292302561392739 
2075	 0.292273659724137 
2076	 0.292221288607203 
2077	 0.292182109299762 
2078	 0.292114253546053 
2079	 0.292053642389982 
2080	 0.292019874726215 
2081	 0.291963515773956 
2082	 0.291884148827018 
2083	 0.291830378057862 
2084	 0.291758380045753 
2085	 0.29164784505696 
2086	 0.291538280216119 
2087	 0.291373619288421 
2088	 0.291309446076163 
2089	 0.291322647313392 
2090	 0.291249469819365 
2091	 0.291225574676701 
2092	 0.291123791699437 
2093	 0.290879583201292 
2094	 0.290715028637001 
2095	 0.290586125300395 
2096	 0.290427237208601 
2097	 0.290248329431577 
2098	 0.290128700448218 
2099	 0.289928298563339 
2100	 0.289737034779657 
2101	 0.289540026710353 
2102	 0.289326665485822 
2103	 0.289132208819045 
2104	 0.288961376237571 
2105	 0.288752811047438 
2106	 0.288533243899733 
2107	 0.288303532835876 
2108	 0.288063504260619 
2109	 0.287781222788292 
2110	 0.287490170652425 
2111	 0.28717821048465 
2112	 0.286770556582995 
2113	 0.286440219204634 
2114	 0.286161136442664 
2115	 0.285844887745025 
2116	 0.285543810028844 
2117	 0.285266720832291 
2118	 0.284900855745619 
2119	 0.284462822503067 
2120	 0.284076507558917 
2121	 0.28366163005187 
2122	 0.283261418462725 
2123	 0.282875994583088 
2124	 0.282495908116223 
2125	 0.282091765547118 
2126	 0.281741421685111 
2127	 0.281435136976494 
2128	 0.281127086266077 
2129	 0.280852412421429 
2130	 0.280564818176756 
2131	 0.280260522686813 
2132	 0.279983709147882 
2133	 0.279746688678019 
2134	 0.279456052016971 
2135	 0.279174412796037 
2136	 0.278999701536929 
2137	 0.278825128025965 
2138	 0.27867019060656 
2139	 0.278558084174521 
2140	 0.27854050254378 
2141	 0.278414926541214 
2142	 0.278277360119575 
2143	 0.278113266701547 
2144	 0.277858552765495 
2145	 0.277673005725506 
2146	 0.27741839426073 
2147	 0.277354656654094 
2148	 0.277486602858235 
2149	 0.27748953810928 
2150	 0.277573998688296 
2151	 0.277607981961694 
2152	 0.277575858753898 
2153	 0.277453256996099 
2154	 0.277397982113468 
2155	 0.277314126455102 
2156	 0.277270650165198 
2157	 0.277185837187544 
2158	 0.27717301504195 
2159	 0.277287116035198 
2160	 0.277243566722918 
2161	 0.277136252135911 
2162	 0.277034320134174 
2163	 0.276835920069476 
2164	 0.276723692209734 
2165	 0.276710770700933 
2166	 0.276580981670967 
2167	 0.276361077716097 
2168	 0.276236634007191 
2169	 0.276076392981452 
2170	 0.275959463073814 
2171	 0.276003412855774 
2172	 0.275930120566881 
2173	 0.275766667762291 
2174	 0.275627209362263 
2175	 0.275506665525693 
2176	 0.275418788153361 
2177	 0.275358646135777 
2178	 0.275344180801963 
2179	 0.27537781332245 
2180	 0.275444649562617 
2181	 0.27550920466609 
2182	 0.275683577644532 
2183	 0.275731913932272 
2184	 0.275727418510905 
2185	 0.275698797713498 
2186	 0.275583677299237 
2187	 0.27552391772079 
2188	 0.275479794283359 
2189	 0.275385701900083 
2190	 0.275292209850226 
2191	 0.275202501949564 
2192	 0.275059638361465 
2193	 0.274939385552065 
2194	 0.274885490701019 
2195	 0.274750062073712 
2196	 0.274547915331312 
2197	 0.274366458342489 
2198	 0.274169500684158 
2199	 0.273920010705376 
2200	 0.273728962744752 
2201	 0.273597542252516 
2202	 0.273365559261061 
2203	 0.273094155235776 
2204	 0.272871305283153 
2205	 0.272622790994943 
2206	 0.272355425645149 
2207	 0.272131382793832 
2208	 0.271839718415142 
2209	 0.27145745626127 
2210	 0.271124195737771 
2211	 0.270825290761278 
2212	 0.270489759646913 
2213	 0.270132468699218 
2214	 0.269772677974209 
2215	 0.269339277037639 
2216	 0.269010065972118 
2217	 0.268803059967438 
2218	 0.268468673561596 
2219	 0.26813496607481 
2220	 0.26778087581847 
2221	 0.26725228206283 
2222	 0.266865900080738 
2223	 0.266586858843909 
2224	 0.266231993741245 
2225	 0.265966846797662 
2226	 0.26563601773233 
2227	 0.265167305747673 
2228	 0.264624395563819 
2229	 0.264014882204721 
2230	 0.263246976816023 
2231	 0.262539760767293 
2232	 0.261846658627371 
2233	 0.261049729634194 
2234	 0.260300594509616 
2235	 0.259254213792232 
2236	 0.258055665246518 
2237	 0.256724864755325 
2238	 0.255035228598469 
2239	 0.253543340142264 
2240	 0.252187697281006 
2241	 0.250509372413664 
2242	 0.248725360657848 
2243	 0.246880335878965 
2244	 0.24483245276501 
2245	 0.242678300390521 
2246	 0.240400882672279 
2247	 0.238153672054378 
2248	 0.235786655862966 
2249	 0.233342485393626 
2250	 0.23084506960228 
2251	 0.228514855584134 
2252	 0.225827560036997 
2253	 0.223109527135577 
2254	 0.220551807020448 
2255	 0.217734456722796 
2256	 0.215057341119062 
2257	 0.212437948949028 
2258	 0.209894859343706 
2259	 0.207479983944522 
2260	 0.20496656910748 
2261	 0.202449446980212 
2262	 0.200005608309113 
2263	 0.197461975364083 
2264	 0.19511168458333 
2265	 0.192990145861882 
2266	 0.19073696892869 
2267	 0.188453737415522 
2268	 0.186302901029562 
2269	 0.184159651686628 
2270	 0.182110441069913 
2271	 0.180194988026557 
2272	 0.178279779794615 
2273	 0.176339752440209 
2274	 0.174578070485182 
2275	 0.173027372267924 
2276	 0.171393340956729 
2277	 0.169757414432323 
2278	 0.168248855865053 
2279	 0.166801303659132 
2280	 0.165297288130017 
2281	 0.164001565402459 
2282	 0.162493139933372 
2283	 0.160778461748939 
2284	 0.159066414374958 
2285	 0.157336890324091 
2286	 0.155784857053755 
2287	 0.154152328394104 
2288	 0.152530667250937 
2289	 0.151028836143487 
2290	 0.14927351695116 
2291	 0.147507155727934 
2292	 0.145708605419373 
2293	 0.143667002404375 
2294	 0.141653671401519 
2295	 0.139652625979067 
2296	 0.137691381119121 
2297	 0.135931097194493 
2298	 0.134307704647475 
2299	 0.132726416591888 
2300	 0.131210127869491 
2301	 0.130000275829793 
2302	 0.128922921457231 
2303	 0.128121910567113 
2304	 0.127693277265282 
2305	 0.127264212760847 
2306	 0.126860737420647 
2307	 0.126835488110141 
2308	 0.127011176916011 
2309	 0.127541836052464 
2310	 0.128471157669568 
2311	 0.129521405301737 
2312	 0.130903557439805 
2313	 0.132297931164542 
2314	 0.133926076488958 
2315	 0.135583105847678 
2316	 0.137350986720878 
2317	 0.139086043927257 
2318	 0.140975672519635 
2319	 0.142624464510455 
2320	 0.144257078031734 
2321	 0.145675169978614 
2322	 0.146945365397194 
2323	 0.148024454747833 
2324	 0.148905975837549 
2325	 0.149652851911381 
2326	 0.150155686457441 
2327	 0.150566359237872 
2328	 0.150941733174935 
2329	 0.151018242625947 
2330	 0.150765436436357 
2331	 0.150552822449491 
2332	 0.150374664593521 
2333	 0.150003505222929 
2334	 0.149534854741183 
2335	 0.148974666827335 
2336	 0.147926872660591 
2337	 0.146627730855605 
2338	 0.145447755997105 
2339	 0.144134359659488 
2340	 0.142809110103988 
2341	 0.141642419569194 
2342	 0.140443582012946 
2343	 0.139311137929379 
2344	 0.138293971488347 
2345	 0.137385960658594 
2346	 0.136879482726227 
2347	 0.136528325290487 
2348	 0.13621593211527 
2349	 0.136213104882412 
2350	 0.136474469585927 
2351	 0.137136331373121 
2352	 0.138323697284897 
2353	 0.139785105981415 
2354	 0.140918854658718 
2355	 0.141991026936242 
2356	 0.143073504419561 
2357	 0.144112728497634 
2358	 0.145418227151125 
2359	 0.146381613077331 
2360	 0.14706860060205 
2361	 0.147749031137414 
2362	 0.148314234973079 
2363	 0.148950523429806 
2364	 0.149417145611776 
2365	 0.149536967809967 
2366	 0.149473476047928 
2367	 0.149322498070964 
2368	 0.149374920762124 
2369	 0.149515144819473 
2370	 0.149734269793149 
2371	 0.150136345596961 
2372	 0.150238895147335 
2373	 0.150237588576883 
2374	 0.150245604927396 
2375	 0.150054287894116 
2376	 0.149797435565563 
2377	 0.149681610750816 
2378	 0.149608465658016 
2379	 0.149275874537624 
2380	 0.149261127535622 
2381	 0.149453285120755 
2382	 0.149615400208332 
2383	 0.149905053154077 
2384	 0.150151602704458 
2385	 0.150546109403013 
2386	 0.150589923849812 
2387	 0.150287483758592 
2388	 0.150323646998992 
2389	 0.150241040938387 
2390	 0.150260454160533 
2391	 0.15070777974964 
2392	 0.150930445968829 
2393	 0.150959688576641 
2394	 0.151061009852529 
2395	 0.151142531950588 
2396	 0.151122382702767 
2397	 0.151103359694308 
2398	 0.151100042442441 
2399	 0.151094077768064 
2400	 0.15105602873008 
2401	 0.1508272728176 
2402	 0.150853548279342 
2403	 0.150958227691235 
2404	 0.150764090869993 
2405	 0.151000573867373 
2406	 0.151195397392856 
2407	 0.151400107011527 
2408	 0.151788465438134 
2409	 0.151786653874913 
2410	 0.151842383679693 
2411	 0.151712080251386 
2412	 0.151712621204519 
2413	 0.15212123054387 
2414	 0.151795313033636 
2415	 0.151550327270672 
2416	 0.151590202698331 
2417	 0.151154080463339 
2418	 0.151091964406388 
2419	 0.150957322641644 
2420	 0.150699654857348 
2421	 0.151053695984134 
2422	 0.151404524560568 
2423	 0.151699547743219 
2424	 0.152201036184369 
2425	 0.152033242762526 
2426	 0.151387715357121 
2427	 0.151460682710036 
2428	 0.151476400364148 
2429	 0.151492615707761 
2430	 0.152007538999996 
2431	 0.151963055733843 
2432	 0.151700231190279 
2433	 0.151756064197001 
2434	 0.151732483974776 
2435	 0.151687708038602 
2436	 0.151821516107308 
2437	 0.151630010020413 
2438	 0.151140819714114 
2439	 0.150848315062795 
2440	 0.150704213410506 
2441	 0.150455454752678 
2442	 0.15020533142651 
2443	 0.150428481181966 
2444	 0.15051452127852 
2445	 0.150392198891071 
2446	 0.150625582378614 
2447	 0.150414705604882 
2448	 0.149704897040753 
2449	 0.149496147821876 
2450	 0.149623225778748 
2451	 0.150073149457782 
2452	 0.150753361198082 
2453	 0.150566519045882 
2454	 0.149852816821629 
2455	 0.148874900265171 
2456	 0.147997336153495 
2457	 0.147878561554129 
2458	 0.147636232204322 
2459	 0.14726062482579 
2460	 0.14647374595132 
2461	 0.145417839206114 
2462	 0.145281623796681 
2463	 0.14543691167135 
2464	 0.14590243711496 
2465	 0.146883795482533 
2466	 0.147306352619522 
2467	 0.146938429000654 
2468	 0.14640537807845 
2469	 0.146353537298873 
2470	 0.145755329770854 
2471	 0.14549142551433 
2472	 0.146738716084262 
2473	 0.147186132851917 
2474	 0.147814305142879 
2475	 0.148664743454359 
2476	 0.147751785745794 
2477	 0.147138809752334 
2478	 0.147515690068023 
2479	 0.147800032017724 
2480	 0.148690068911374 
2481	 0.148912028308335 
2482	 0.147730575236344 
2483	 0.148441514651426 
2484	 0.149294689190064 
2485	 0.149976545687409 
2486	 0.150234232856078 
2487	 0.150446786533524 
2488	 0.150903299219461 
2489	 0.150979622928112 
2490	 0.151959900023604 
2491	 0.15203664026962 
2492	 0.150967356132915 
2493	 0.151078695593113 
2494	 0.151023036462661 
2495	 0.152061867443094 
2496	 0.154520953290021 
2497	 0.156246522065643 
2498	 0.156495258230475 
2499	 0.156215793011556 
2500	 0.156306236786025 
