Wavelength	Tablay400000.asd
350	 0.210369369187222 
351	 0.208986705373961 
352	 0.212882476727938 
353	 0.212856435119755 
354	 0.186689044347317 
355	 0.192261055801772 
356	 0.201676813191678 
357	 0.184379597894188 
358	 0.167908703678408 
359	 0.174855916204223 
360	 0.192885625747463 
361	 0.191930673992959 
362	 0.173917123341062 
363	 0.165564450287287 
364	 0.17145508367826 
365	 0.162426756844178 
366	 0.158230804214871 
367	 0.161158352368822 
368	 0.166527257145943 
369	 0.16329241355348 
370	 0.146882779540273 
371	 0.133227118718707 
372	 0.143628666379434 
373	 0.138123459260482 
374	 0.138370984738629 
375	 0.144879139981329 
376	 0.118658717510597 
377	 0.114901058900032 
378	 0.126773020819622 
379	 0.13392693833896 
380	 0.126834926991518 
381	 0.12573074380891 
382	 0.130806743673908 
383	 0.129848239723952 
384	 0.120861383199081 
385	 0.114676952245795 
386	 0.115487222584055 
387	 0.115859632492016 
388	 0.109855016397433 
389	 0.106712750351683 
390	 0.112790227062664 
391	 0.108223457214258 
392	 0.106641257406162 
393	 0.108895895586921 
394	 0.107392400871116 
395	 0.100881413088391 
396	 9.76674343530038E-02 
397	 0.099887719179749 
398	 9.79923976507186E-02 
399	 0.101692858814367 
400	 0.10403841786196 
401	 9.82631067987608E-02 
402	 9.64694397825794E-02 
403	 9.51072752594653E-02 
404	 0.093159630302051 
405	 9.18091712260483E-02 
406	 9.15530434345236E-02 
407	 0.088898408018872 
408	 8.35439620944461E-02 
409	 8.16395846232677E-02 
410	 8.24929713345946E-02 
411	 8.47616631598826E-02 
412	 8.60095632355229E-02 
413	 8.04814546518969E-02 
414	 7.50457197500961E-02 
415	 7.52105632046606E-02 
416	 8.36211579827719E-02 
417	 8.38021570675486E-02 
418	 7.94390749467704E-02 
419	 7.62624651914408E-02 
420	 0.07643364606556 
421	 7.40667601163455E-02 
422	 7.19287301203181E-02 
423	 7.45066234391089E-02 
424	 7.39293003147813E-02 
425	 7.23585427169329E-02 
426	 7.14714267395996E-02 
427	 7.14892413643007E-02 
428	 7.16249223827345E-02 
429	 7.10999705566017E-02 
430	 6.98294310047529E-02 
431	 6.95709198601786E-02 
432	 6.93304446368182E-02 
433	 6.90825995821662E-02 
434	 6.92697676669464E-02 
435	 6.94397089014456E-02 
436	 7.00299719586138E-02 
437	 0.070897473850667 
438	 7.09556642838662E-02 
439	 6.99846722328313E-02 
440	 6.88583110210805E-02 
441	 6.85001575935292E-02 
442	 6.87560721372915E-02 
443	 0.068345125446683 
444	 6.75782087043025E-02 
445	 6.78708002202019E-02 
446	 6.76596546597468E-02 
447	 6.80629025003833E-02 
448	 6.93176219874387E-02 
449	 6.89560200258036E-02 
450	 6.81964170956684E-02 
451	 6.79981452487645E-02 
452	 0.068741649227403 
453	 6.78666353223134E-02 
454	 0.067168261835914 
455	 0.067306897851194 
456	 6.74213680446371E-02 
457	 6.69480562890881E-02 
458	 6.65778110916163E-02 
459	 6.66822149950293E-02 
460	 6.57212433316795E-02 
461	 6.59300613673845E-02 
462	 6.66975740701342E-02 
463	 6.62192719608926E-02 
464	 6.67767468679585E-02 
465	 6.67373786498425E-02 
466	 6.55692642375741E-02 
467	 6.49127752946556E-02 
468	 6.49911339482986E-02 
469	 6.52185147013565E-02 
470	 6.49770431967906E-02 
471	 6.46272727242456E-02 
472	 6.48376597808969E-02 
473	 6.49444199924555E-02 
474	 6.35307819149774E-02 
475	 6.37671372569838E-02 
476	 6.44055156741858E-02 
477	 6.43007797109358E-02 
478	 6.39935785816999E-02 
479	 6.38571530630296E-02 
480	 6.38927946462922E-02 
481	 0.063896642973976 
482	 6.34728157186432E-02 
483	 6.36075314142686E-02 
484	 6.43151739560075E-02 
485	 6.44715569590274E-02 
486	 6.43311486605258E-02 
487	 6.40427813418593E-02 
488	 6.38855955775742E-02 
489	 6.46426020033972E-02 
490	 6.47667811433385E-02 
491	 6.44116107373834E-02 
492	 6.46105322108097E-02 
493	 6.46300766813704E-02 
494	 6.49900889674716E-02 
495	 6.56783544065683E-02 
496	 6.55971003162615E-02 
497	 6.58919820099216E-02 
498	 6.63588601857207E-02 
499	 6.65286441154189E-02 
500	 6.66275460978149E-02 
501	 6.68899975561113E-02 
502	 6.73534570509749E-02 
503	 6.78795949361343E-02 
504	 6.83268133759833E-02 
505	 6.86297051423112E-02 
506	 6.88960821075691E-02 
507	 6.96532211169607E-02 
508	 6.99071325047986E-02 
509	 0.070166054619817 
510	 7.12847162351861E-02 
511	 7.16506386326868E-02 
512	 7.21871920186791E-02 
513	 7.31805269763038E-02 
514	 7.38632623979303E-02 
515	 7.44398477461189E-02 
516	 0.074991071366558 
517	 7.55789617968095E-02 
518	 0.076234909836994 
519	 7.70974352800922E-02 
520	 7.80489657166487E-02 
521	 7.88379334762063E-02 
522	 7.98110517382327E-02 
523	 8.08192027249183E-02 
524	 8.18297881223595E-02 
525	 8.32106799096561E-02 
526	 8.44252733711113E-02 
527	 8.55472460734157E-02 
528	 8.68200394321551E-02 
529	 8.81150753617912E-02 
530	 8.94850697772657E-02 
531	 9.09381631451097E-02 
532	 9.24237955545266E-02 
533	 9.40952191105909E-02 
534	 9.58155527918721E-02 
535	 9.74943744014279E-02 
536	 9.93433098393026E-02 
537	 0.101364696107343 
538	 0.103453239521416 
539	 0.105463928504664 
540	 0.107453484651229 
541	 0.109567842390409 
542	 0.111806518662517 
543	 0.113911307102992 
544	 0.116233650137754 
545	 0.118687474329961 
546	 0.12110090005061 
547	 0.123565933352498 
548	 0.126037905708106 
549	 0.128507929513748 
550	 0.131004786253313 
551	 0.133628229817571 
552	 0.13622008419686 
553	 0.138703609930102 
554	 0.14131446235928 
555	 0.143953892287843 
556	 0.14654795852858 
557	 0.149054872165998 
558	 0.151628446984223 
559	 0.154179227722044 
560	 0.156675260813754 
561	 0.159198746922015 
562	 0.161519049856837 
563	 0.16376042062774 
564	 0.16606139130688 
565	 0.168199587766796 
566	 0.170427928816464 
567	 0.172652239427707 
568	 0.174564578795517 
569	 0.176631153534881 
570	 0.178679342428338 
571	 0.180548370796152 
572	 0.182293831831084 
573	 0.184074939204184 
574	 0.185760288120306 
575	 0.187179195425557 
576	 0.188641528636978 
577	 0.190050981926673 
578	 0.191363229217935 
579	 0.19262202354261 
580	 0.19382664397674 
581	 0.194914744684626 
582	 0.19586770190104 
583	 0.196829491382077 
584	 0.197766410667991 
585	 0.198629283873108 
586	 0.199368984834592 
587	 0.200035541547333 
588	 0.200612256525829 
589	 0.201134863514725 
590	 0.201739135200606 
591	 0.202252346230337 
592	 0.202656606274595 
593	 0.202987299037353 
594	 0.203271785912084 
595	 0.203571634920792 
596	 0.203851794385809 
597	 0.20399806296501 
598	 0.204028752152665 
599	 0.204022180010093 
600	 0.204035619738793 
601	 0.204068677702208 
602	 0.203931522248696 
603	 0.203713170758985 
604	 0.203592139633541 
605	 0.203417434354047 
606	 0.203222001713818 
607	 0.203029947918544 
608	 0.202837146324775 
609	 0.202572148819166 
610	 0.202264610319607 
611	 0.201958732117044 
612	 0.201648387431704 
613	 0.201372894876952 
614	 0.201111130346979 
615	 0.200809529940874 
616	 0.200521287193851 
617	 0.200242939979453 
618	 0.199956103110157 
619	 0.199626146538858 
620	 0.199315454471122 
621	 0.198992100815952 
622	 0.198624202483169 
623	 0.198339592800643 
624	 0.198041047341558 
625	 0.197737066234787 
626	 0.197530947332677 
627	 0.197250610285454 
628	 0.196915144680893 
629	 0.196599921033035 
630	 0.196435395299215 
631	 0.196237860953243 
632	 0.19600428205937 
633	 0.195802460818904 
634	 0.195570452280558 
635	 0.195385543806078 
636	 0.195245903146073 
637	 0.195041303279888 
638	 0.194844599057887 
639	 0.194725712705811 
640	 0.19468260818097 
641	 0.194480178371254 
642	 0.194338564757032 
643	 0.194298700099944 
644	 0.194279234679644 
645	 0.194198026311445 
646	 0.194117923508251 
647	 0.194096087617356 
648	 0.194153471585723 
649	 0.194152872568164 
650	 0.194103099114656 
651	 0.194071914575047 
652	 0.194151760876467 
653	 0.194256755258788 
654	 0.19431364325482 
655	 0.194288368735478 
656	 0.194468454373508 
657	 0.194658548243908 
658	 0.194725874454024 
659	 0.194825804770142 
660	 0.195013437092977 
661	 0.195248530328516 
662	 0.195457291959187 
663	 0.19563604314133 
664	 0.195868226645083 
665	 0.196152105487705 
666	 0.196400494602272 
667	 0.1967152658537 
668	 0.197066869144125 
669	 0.197409220547204 
670	 0.197717378537604 
671	 0.198068071349868 
672	 0.198459321409299 
673	 0.198853287563995 
674	 0.199238051588232 
675	 0.199681391193605 
676	 0.200178531347184 
677	 0.200633425167226 
678	 0.201103636540493 
679	 0.201600735859609 
680	 0.20211870822055 
681	 0.202623898316905 
682	 0.203184758169091 
683	 0.203803373603211 
684	 0.204439579965903 
685	 0.205044684247257 
686	 0.205653683916934 
687	 0.206310975866421 
688	 0.207060739956143 
689	 0.207788588046519 
690	 0.208475332025222 
691	 0.209157660915604 
692	 0.209961286930821 
693	 0.210749450191263 
694	 0.21153220770333 
695	 0.212397130548909 
696	 0.213211998874964 
697	 0.214003468066542 
698	 0.214823850129837 
699	 0.215734321300428 
700	 0.21668570825839 
701	 0.217630531290899 
702	 0.218534474213574 
703	 0.219392337041284 
704	 0.220322677172726 
705	 0.221340321119996 
706	 0.222375097291622 
707	 0.223324700481823 
708	 0.224282117809311 
709	 0.225301228538894 
710	 0.226323259662632 
711	 0.227340931562999 
712	 0.228402473140525 
713	 0.229521063153654 
714	 0.230499076312363 
715	 0.231513706019079 
716	 0.232608752041947 
717	 0.233717854900948 
718	 0.234780593910466 
719	 0.23582583214983 
720	 0.236882557870719 
721	 0.237955178353732 
722	 0.239040028151128 
723	 0.240105887819494 
724	 0.241133349044424 
725	 0.242184040478415 
726	 0.243241792422761 
727	 0.244288932357021 
728	 0.245312189663078 
729	 0.246351998581384 
730	 0.24734567244433 
731	 0.248270526991389 
732	 0.249189073647484 
733	 0.250153629759211 
734	 0.251145876926491 
735	 0.25211544334943 
736	 0.252997919114429 
737	 0.25379507071491 
738	 0.254549631883991 
739	 0.255323642181986 
740	 0.256115613957524 
741	 0.256877842466855 
742	 0.25758578309086 
743	 0.258260752580853 
744	 0.258856165120489 
745	 0.259437146203034 
746	 0.260057674754439 
747	 0.260645277260467 
748	 0.261108889072612 
749	 0.261509172088641 
750	 0.261977016593959 
751	 0.262438989301016 
752	 0.262814943823415 
753	 0.263095814866908 
754	 0.26336356900889 
755	 0.263661826568013 
756	 0.263928436641001 
757	 0.264108536366754 
758	 0.264246050999414 
759	 0.264339108286068 
760	 0.264406028759155 
761	 0.264464105647065 
762	 0.264470203660854 
763	 0.264441028131248 
764	 0.264381566162435 
765	 0.264280470520461 
766	 0.264162554653072 
767	 0.263973451825503 
768	 0.263700821631853 
769	 0.263459720392837 
770	 0.263214405521005 
771	 0.262929624461447 
772	 0.262581284050263 
773	 0.2622164022906 
774	 0.261790974203633 
775	 0.261330174227639 
776	 0.260907613667916 
777	 0.260454975882172 
778	 0.259933437288941 
779	 0.259357438825119 
780	 0.258822641230136 
781	 0.258234646046383 
782	 0.257634520483782 
783	 0.257049460597558 
784	 0.256316256881301 
785	 0.255618754824821 
786	 0.254955554200357 
787	 0.254228920585526 
788	 0.253493935321234 
789	 0.252759632209684 
790	 0.252015219690456 
791	 0.251231770316089 
792	 0.25042365037944 
793	 0.24963002775901 
794	 0.248863901549057 
795	 0.24807017733303 
796	 0.247248295280307 
797	 0.246403816268406 
798	 0.245548988853446 
799	 0.24469628551342 
800	 0.243861188059396 
801	 0.243034782457096 
802	 0.242192607385398 
803	 0.241360719475853 
804	 0.240491664245589 
805	 0.239588916494581 
806	 0.23874185889847 
807	 0.23786640743601 
808	 0.236995307479715 
809	 0.236155688430381 
810	 0.235265636627667 
811	 0.234441435926654 
812	 0.233609661819116 
813	 0.232664542240236 
814	 0.231835363344302 
815	 0.230992242691821 
816	 0.230109792933571 
817	 0.229268539401136 
818	 0.228421539481357 
819	 0.227572888523347 
820	 0.226735253312519 
821	 0.22592350905875 
822	 0.225077677687528 
823	 0.224234526148765 
824	 0.223425889446042 
825	 0.222580079954819 
826	 0.221764791956724 
827	 0.22097973459831 
828	 0.220192145233715 
829	 0.219376395315042 
830	 0.218625958287058 
831	 0.217916135162542 
832	 0.217127783311179 
833	 0.216362576566792 
834	 0.215598865980371 
835	 0.214827475787621 
836	 0.214081546868567 
837	 0.21343020871304 
838	 0.212758764469208 
839	 0.211997956485227 
840	 0.211337584160688 
841	 0.210677726306524 
842	 0.210001771575025 
843	 0.209328455332779 
844	 0.208679793953739 
845	 0.208047047718803 
846	 0.207426240172911 
847	 0.206821270140126 
848	 0.206271862704543 
849	 0.205704137450086 
850	 0.205110271303975 
851	 0.204576405185823 
852	 0.20400835032261 
853	 0.203454267003265 
854	 0.202952490322676 
855	 0.202462335172039 
856	 0.201932915818157 
857	 0.201420026897706 
858	 0.200978669689444 
859	 0.200527239013484 
860	 0.200063261575119 
861	 0.199609680028363 
862	 0.199187342612258 
863	 0.19870711086567 
864	 0.198287136407586 
865	 0.197940447222304 
866	 0.197574622449105 
867	 0.197125999436459 
868	 0.196705948624484 
869	 0.196371623959928 
870	 0.196069158994355 
871	 0.195764903427237 
872	 0.195414064365727 
873	 0.195022285413289 
874	 0.194696958968258 
875	 0.194426111517847 
876	 0.194161438763633 
877	 0.193854549320076 
878	 0.193498868816801 
879	 0.193246946243189 
880	 0.193028225129625 
881	 0.192712086084176 
882	 0.192495127716433 
883	 0.192274413664498 
884	 0.192024405486421 
885	 0.191793459199366 
886	 0.191610062615141 
887	 0.191481763008419 
888	 0.191379664919029 
889	 0.191241661437199 
890	 0.191057325225921 
891	 0.190832585593923 
892	 0.190625791189822 
893	 0.190568427645416 
894	 0.190433724637642 
895	 0.190285347381991 
896	 0.190212348065657 
897	 0.190175071889649 
898	 0.190085431783844 
899	 0.189971154914715 
900	 0.189900474885274 
901	 0.189922361547851 
902	 0.189879433575147 
903	 0.189791732033358 
904	 0.189761027828677 
905	 0.189777912224521 
906	 0.189806328927368 
907	 0.189840829017462 
908	 0.189894712254281 
909	 0.189930418298302 
910	 0.189960701686048 
911	 0.189978886809345 
912	 0.189964191258527 
913	 0.190019498630847 
914	 0.190102746159242 
915	 0.190196097340015 
916	 0.190340997214863 
917	 0.190408613073673 
918	 0.190461055964548 
919	 0.190550656466906 
920	 0.190634383748785 
921	 0.190742861172207 
922	 0.190853335496768 
923	 0.190965969050663 
924	 0.191178998211989 
925	 0.191315025957578 
926	 0.191439289643048 
927	 0.191635281210076 
928	 0.191765198467855 
929	 0.191860446821518 
930	 0.192001148131446 
931	 0.192229127086074 
932	 0.192330627302228 
933	 0.192542580460687 
934	 0.192762264597294 
935	 0.192788034897733 
936	 0.192970312049964 
937	 0.193207249241568 
938	 0.193422111041591 
939	 0.193593864528168 
940	 0.193821245190022 
941	 0.194062914725882 
942	 0.19427274316955 
943	 0.194430662969261 
944	 0.194634728016747 
945	 0.195017493485779 
946	 0.195445262376044 
947	 0.19557102703511 
948	 0.195823723909878 
949	 0.196072769727697 
950	 0.19626391125982 
951	 0.196531081759961 
952	 0.196803439790807 
953	 0.197069606543599 
954	 0.197348343212674 
955	 0.197680911293508 
956	 0.197933250933767 
957	 0.198238726205646 
958	 0.198646988656106 
959	 0.19897543726765 
960	 0.199297402138837 
961	 0.199688528996142 
962	 0.200119478617323 
963	 0.200365297979558 
964	 0.20059435247707 
965	 0.200929978662423 
966	 0.201352373484718 
967	 0.201556608889999 
968	 0.202048104205635 
969	 0.202610577584153 
970	 0.202972830062499 
971	 0.20327280625721 
972	 0.203650826688268 
973	 0.204058723034824 
974	 0.204432103508444 
975	 0.204852198773778 
976	 0.205296862878756 
977	 0.205694749434253 
978	 0.20605004113638 
979	 0.20664622761449 
980	 0.207110364614575 
981	 0.207541708687513 
982	 0.208088395797086 
983	 0.208525930949245 
984	 0.208797077257682 
985	 0.209149658416362 
986	 0.20977284552124 
987	 0.210301184145775 
988	 0.210803409596482 
989	 0.211175485196505 
990	 0.211428127478219 
991	 0.212123193514532 
992	 0.212646422746457 
993	 0.213059952543181 
994	 0.213559625516481 
995	 0.213851154036047 
996	 0.214470392586155 
997	 0.215139546550754 
998	 0.215497895359513 
999	 0.21594291292016 
1000	 0.216558876143049 
1001	 0.212062155883485 
1002	 0.212597815349778 
1003	 0.213099882046631 
1004	 0.213577829668042 
1005	 0.213983814868508 
1006	 0.214534367918802 
1007	 0.215182220422808 
1008	 0.215695875864756 
1009	 0.216180744824812 
1010	 0.216727074020953 
1011	 0.217218238204085 
1012	 0.217732232712751 
1013	 0.218377275200465 
1014	 0.218934998853241 
1015	 0.219376248158965 
1016	 0.219848353163532 
1017	 0.220453012085867 
1018	 0.221014785859879 
1019	 0.221679847088083 
1020	 0.222396699966219 
1021	 0.222991665221137 
1022	 0.223508223486174 
1023	 0.224083717710444 
1024	 0.224552799556458 
1025	 0.225176866267859 
1026	 0.225951675265152 
1027	 0.226636940102986 
1028	 0.227354681169079 
1029	 0.228077062000285 
1030	 0.228627601873465 
1031	 0.2292627917795 
1032	 0.229984669219922 
1033	 0.230617303668982 
1034	 0.23132690130503 
1035	 0.232055294845402 
1036	 0.232817691318899 
1037	 0.233627669337184 
1038	 0.234399578960004 
1039	 0.235239252587183 
1040	 0.235992181978627 
1041	 0.236622222730316 
1042	 0.237337151155924 
1043	 0.238067154182156 
1044	 0.238775888346163 
1045	 0.239571478481572 
1046	 0.240433237716647 
1047	 0.241224251827935 
1048	 0.242088735247328 
1049	 0.242913661407327 
1050	 0.24367628845514 
1051	 0.244531648402552 
1052	 0.245326827456797 
1053	 0.246149606681994 
1054	 0.247028008576375 
1055	 0.24784551597285 
1056	 0.248615260052447 
1057	 0.249421595662658 
1058	 0.250188042298477 
1059	 0.25101461399163 
1060	 0.251909409427129 
1061	 0.252753858459355 
1062	 0.253632410932148 
1063	 0.254446281265274 
1064	 0.255168453793099 
1065	 0.256008937399285 
1066	 0.256850465480274 
1067	 0.257654629967403 
1068	 0.258566966572135 
1069	 0.259483936440132 
1070	 0.260387733680556 
1071	 0.261289587699718 
1072	 0.262210757124733 
1073	 0.263109609008893 
1074	 0.263998150728193 
1075	 0.264822136565324 
1076	 0.265684065233321 
1077	 0.26663395363349 
1078	 0.267534814704059 
1079	 0.268492767043375 
1080	 0.269514242042316 
1081	 0.270432857324101 
1082	 0.271350803659719 
1083	 0.272265665917525 
1084	 0.273141608185186 
1085	 0.274063556766611 
1086	 0.275017640736828 
1087	 0.275984613192526 
1088	 0.277028367189974 
1089	 0.278055119287315 
1090	 0.279035900166813 
1091	 0.280080473996071 
1092	 0.281027066300528 
1093	 0.281977299281428 
1094	 0.283049232504742 
1095	 0.284031941425984 
1096	 0.285045694299185 
1097	 0.286109881105801 
1098	 0.287078670074595 
1099	 0.28808115661348 
1100	 0.289063360253539 
1101	 0.290097506274174 
1102	 0.291244215839491 
1103	 0.2923218206752 
1104	 0.293382820332943 
1105	 0.294498759427072 
1106	 0.295593650982407 
1107	 0.29660131628923 
1108	 0.297705874661347 
1109	 0.298806623477744 
1110	 0.299880595427895 
1111	 0.300989321087251 
1112	 0.302078030914076 
1113	 0.303225168633236 
1114	 0.304366505447818 
1115	 0.305435380579996 
1116	 0.306556817334997 
1117	 0.307652407375555 
1118	 0.308774780408621 
1119	 0.309969124421197 
1120	 0.311105823953061 
1121	 0.312220256844651 
1122	 0.313328001898539 
1123	 0.314440226397254 
1124	 0.315492238586919 
1125	 0.316584067306983 
1126	 0.317693592674371 
1127	 0.318825790417596 
1128	 0.319989838503057 
1129	 0.321104495312672 
1130	 0.322271991820298 
1131	 0.323452215359224 
1132	 0.324536315595671 
1133	 0.325665053711527 
1134	 0.326794296143203 
1135	 0.327896421808058 
1136	 0.32896885830092 
1137	 0.330034946521322 
1138	 0.331085436098996 
1139	 0.332150998715734 
1140	 0.333200332831194 
1141	 0.334235339404665 
1142	 0.335363366628471 
1143	 0.336427474903254 
1144	 0.337435253845167 
1145	 0.338506018713456 
1146	 0.339510398191842 
1147	 0.340510759661864 
1148	 0.341560806712692 
1149	 0.342554536601583 
1150	 0.343542935070789 
1151	 0.344493818074822 
1152	 0.345444061173338 
1153	 0.346372963774041 
1154	 0.34731945485993 
1155	 0.348285617089547 
1156	 0.349213615984824 
1157	 0.350117686103753 
1158	 0.351005900343572 
1159	 0.351865566188744 
1160	 0.352727472153564 
1161	 0.353586575351311 
1162	 0.354472673585613 
1163	 0.355337505149561 
1164	 0.356207863590075 
1165	 0.357051628896066 
1166	 0.357825753229586 
1167	 0.358624305950956 
1168	 0.359407116303169 
1169	 0.36018957972717 
1170	 0.361003775389407 
1171	 0.361774541752924 
1172	 0.362518885941559 
1173	 0.363248179932658 
1174	 0.363951148311305 
1175	 0.36464008877919 
1176	 0.365289763424832 
1177	 0.365967562327714 
1178	 0.366651275911515 
1179	 0.367344837972075 
1180	 0.367980617153878 
1181	 0.36864083385637 
1182	 0.369292279707207 
1183	 0.369873742297897 
1184	 0.370491471990122 
1185	 0.371101653627891 
1186	 0.371702191615431 
1187	 0.372281473416511 
1188	 0.372867846243242 
1189	 0.373461167910811 
1190	 0.374042122023679 
1191	 0.374596873438879 
1192	 0.375164192602946 
1193	 0.375748879411833 
1194	 0.376306217296668 
1195	 0.376870267383427 
1196	 0.377410599851421 
1197	 0.377902702637431 
1198	 0.378434309674785 
1199	 0.378971741059396 
1200	 0.379458418026771 
1201	 0.380006052051024 
1202	 0.380527301766633 
1203	 0.381035791874011 
1204	 0.381620286457594 
1205	 0.382195412599989 
1206	 0.382792770298784 
1207	 0.383376458537083 
1208	 0.383965489326325 
1209	 0.384551660797907 
1210	 0.385123060047137 
1211	 0.385716276588504 
1212	 0.386298612011657 
1213	 0.386948043375383 
1214	 0.387634928100108 
1215	 0.388333756639974 
1216	 0.389115954598969 
1217	 0.389842383963676 
1218	 0.390557962307395 
1219	 0.391252540401268 
1220	 0.391886796314356 
1221	 0.3926094430957 
1222	 0.393328965462849 
1223	 0.394021026714099 
1224	 0.394741274426198 
1225	 0.395511471574255 
1226	 0.39618943520731 
1227	 0.396837460405872 
1228	 0.397481035409533 
1229	 0.398083080053768 
1230	 0.398682125436313 
1231	 0.39928378658716 
1232	 0.399861442790811 
1233	 0.400412277662152 
1234	 0.400946175648895 
1235	 0.401461295217637 
1236	 0.401970273791023 
1237	 0.402450548042055 
1238	 0.402935207075842 
1239	 0.40338690400438 
1240	 0.403908039071236 
1241	 0.404425437050818 
1242	 0.40486610422995 
1243	 0.405325489871415 
1244	 0.405774027106597 
1245	 0.406227440312108 
1246	 0.40668116898361 
1247	 0.407115401601607 
1248	 0.407545864785078 
1249	 0.407969492875784 
1250	 0.408381995920415 
1251	 0.408770275630663 
1252	 0.409115247454744 
1253	 0.409525624892116 
1254	 0.409961773989681 
1255	 0.410371297119663 
1256	 0.410822655649198 
1257	 0.411250223389352 
1258	 0.411631424848168 
1259	 0.412017258032911 
1260	 0.412409332870811 
1261	 0.412809533038769 
1262	 0.413185794796926 
1263	 0.413594496597013 
1264	 0.413989166184256 
1265	 0.414404056689453 
1266	 0.414797497915428 
1267	 0.415192925292168 
1268	 0.415536276908255 
1269	 0.415860395501848 
1270	 0.416167317463032 
1271	 0.41641583378508 
1272	 0.416693873592678 
1273	 0.416980597745025 
1274	 0.417258246217408 
1275	 0.417536027292196 
1276	 0.417796818695324 
1277	 0.418047768269356 
1278	 0.418293049804682 
1279	 0.418533736595666 
1280	 0.418753500689776 
1281	 0.418972077738308 
1282	 0.419163509497991 
1283	 0.419328549019268 
1284	 0.41947418868844 
1285	 0.419599973666444 
1286	 0.419697279283968 
1287	 0.41980863387095 
1288	 0.419905929117656 
1289	 0.420006764905398 
1290	 0.420118155689367 
1291	 0.420208899694644 
1292	 0.420282407601425 
1293	 0.420359831866286 
1294	 0.420409522637006 
1295	 0.42050917655893 
1296	 0.420647245357722 
1297	 0.420750077784377 
1298	 0.420864778172638 
1299	 0.420973036672616 
1300	 0.421061586999527 
1301	 0.421142041934757 
1302	 0.421203724821971 
1303	 0.421304092145087 
1304	 0.421416888461981 
1305	 0.421516246568434 
1306	 0.421649248435781 
1307	 0.421767453912738 
1308	 0.421854332961172 
1309	 0.421939836717152 
1310	 0.422047920311036 
1311	 0.422180007554674 
1312	 0.422286270523255 
1313	 0.422376730349476 
1314	 0.422504023752527 
1315	 0.422636993256335 
1316	 0.422775237223566 
1317	 0.422945328399668 
1318	 0.423095396063778 
1319	 0.42323412710013 
1320	 0.423374209334365 
1321	 0.423506159423332 
1322	 0.423659406082542 
1323	 0.423812272455501 
1324	 0.423977323172662 
1325	 0.424164629719295 
1326	 0.424350860072693 
1327	 0.424560526308103 
1328	 0.424735555251133 
1329	 0.424898457328173 
1330	 0.425058570191058 
1331	 0.425172690398155 
1332	 0.425321068367107 
1333	 0.425506659170975 
1334	 0.425665572425739 
1335	 0.425837042594768 
1336	 0.426017334339471 
1337	 0.426202036973546 
1338	 0.426386403471331 
1339	 0.426573303966453 
1340	 0.426791552854279 
1341	 0.426945504612927 
1342	 0.42706904420369 
1343	 0.427195708176821 
1344	 0.427295703914827 
1345	 0.427391199119187 
1346	 0.427485705502975 
1347	 0.427570933797967 
1348	 0.427638424090299 
1349	 0.427701073439387 
1350	 0.427766989451289 
1351	 0.427818900632754 
1352	 0.427845477540824 
1353	 0.42788333520305 
1354	 0.427931617219695 
1355	 0.427961540473196 
1356	 0.427981829616807 
1357	 0.428000832011494 
1358	 0.42801786219892 
1359	 0.428016964521359 
1360	 0.427994877288915 
1361	 0.427987030878624 
1362	 0.427982084402129 
1363	 0.427974006419026 
1364	 0.427972663151933 
1365	 0.427996771490196 
1366	 0.427990488262607 
1367	 0.42797981378538 
1368	 0.427934728190777 
1369	 0.427866375375815 
1370	 0.427805487319392 
1371	 0.427727185728617 
1372	 0.427637896558381 
1373	 0.427562093254762 
1374	 0.427446858269164 
1375	 0.427301205643416 
1376	 0.427140872611316 
1377	 0.426966021212025 
1378	 0.426764470666921 
1379	 0.426525524989167 
1380	 0.426293482753074 
1381	 0.42604279442196 
1382	 0.425795230467645 
1383	 0.425551104343124 
1384	 0.425293382612495 
1385	 0.425018039569654 
1386	 0.424755757195896 
1387	 0.424509238888985 
1388	 0.424239626383348 
1389	 0.423962625604714 
1390	 0.423684728981457 
1391	 0.423395692611462 
1392	 0.423088507685901 
1393	 0.422792589390726 
1394	 0.422504994833903 
1395	 0.422223335673349 
1396	 0.421942603202117 
1397	 0.421665716760172 
1398	 0.421401475274796 
1399	 0.421129496628379 
1400	 0.42085553413166 
1401	 0.42057489392683 
1402	 0.420321308182486 
1403	 0.419992235133528 
1404	 0.419664888136811 
1405	 0.419233709456962 
1406	 0.418755369754357 
1407	 0.418176897680429 
1408	 0.41750026618382 
1409	 0.416779903467316 
1410	 0.415946794765937 
1411	 0.415132675043239 
1412	 0.414252598954117 
1413	 0.413429637509866 
1414	 0.412559916185081 
1415	 0.411805614449082 
1416	 0.411082570419888 
1417	 0.410457026196213 
1418	 0.409926300941285 
1419	 0.409462291668221 
1420	 0.409107274051096 
1421	 0.408766922018045 
1422	 0.408526943283624 
1423	 0.408247959911668 
1424	 0.407994655025536 
1425	 0.40770619802538 
1426	 0.407391340871796 
1427	 0.407043247386773 
1428	 0.406633501180137 
1429	 0.406211890418622 
1430	 0.405727962246352 
1431	 0.405192237557285 
1432	 0.404630320085109 
1433	 0.404001990575841 
1434	 0.40341262118228 
1435	 0.402800220597983 
1436	 0.402210638022485 
1437	 0.401637096323041 
1438	 0.401070885574702 
1439	 0.400503370447846 
1440	 0.399955760704558 
1441	 0.399413557060822 
1442	 0.398903424841988 
1443	 0.398374372542008 
1444	 0.397948920126675 
1445	 0.397525396389317 
1446	 0.397272211579818 
1447	 0.397086898487025 
1448	 0.39708196243414 
1449	 0.397225197339491 
1450	 0.397505099028944 
1451	 0.397967415961673 
1452	 0.398501731325468 
1453	 0.39922559334673 
1454	 0.399913955512824 
1455	 0.400721637959024 
1456	 0.401445833256604 
1457	 0.402171300993967 
1458	 0.402842344881715 
1459	 0.403430354774462 
1460	 0.404045695802275 
1461	 0.404606887349795 
1462	 0.405219446587312 
1463	 0.405854374050814 
1464	 0.40652238814962 
1465	 0.407219762659046 
1466	 0.407966422042783 
1467	 0.408696891402872 
1468	 0.409439735468949 
1469	 0.410170212978169 
1470	 0.410797575025933 
1471	 0.411392150190241 
1472	 0.411933909861594 
1473	 0.412461524593347 
1474	 0.412934668641978 
1475	 0.413405914789686 
1476	 0.413874226536886 
1477	 0.41428968023798 
1478	 0.41467237257823 
1479	 0.415009243379515 
1480	 0.415307364345947 
1481	 0.415568071547139 
1482	 0.415772742554599 
1483	 0.415979740164261 
1484	 0.41615429415862 
1485	 0.416327960101842 
1486	 0.416473866492892 
1487	 0.41664696121769 
1488	 0.416818109280283 
1489	 0.417000897498616 
1490	 0.4171853805135 
1491	 0.417409382671871 
1492	 0.41762130270585 
1493	 0.417911375184622 
1494	 0.418263624859155 
1495	 0.418639160844763 
1496	 0.4190699258664 
1497	 0.41951144859436 
1498	 0.420015268055586 
1499	 0.420471765152849 
1500	 0.420919054805665 
1501	 0.421376595673525 
1502	 0.421820496869187 
1503	 0.422257056139874 
1504	 0.422722631715837 
1505	 0.423149548448954 
1506	 0.423561715741185 
1507	 0.423931663946831 
1508	 0.424267402205518 
1509	 0.424585422198415 
1510	 0.424858219006668 
1511	 0.425121402150274 
1512	 0.425378611996505 
1513	 0.425610344224248 
1514	 0.425813251052627 
1515	 0.426004467177504 
1516	 0.426152280673537 
1517	 0.426325068809434 
1518	 0.426505322078829 
1519	 0.426678877015896 
1520	 0.426866374194134 
1521	 0.427052406535844 
1522	 0.427212356503507 
1523	 0.427344338658857 
1524	 0.427467783033269 
1525	 0.427572191252392 
1526	 0.427674076392549 
1527	 0.427756901593299 
1528	 0.42785782315693 
1529	 0.427965261370594 
1530	 0.428051203759732 
1531	 0.428147427055054 
1532	 0.428197543246524 
1533	 0.428203480608942 
1534	 0.428243008506309 
1535	 0.428270521903085 
1536	 0.428310303398006 
1537	 0.428354449565215 
1538	 0.428433054322343 
1539	 0.42850482853328 
1540	 0.428636739321472 
1541	 0.428823448760899 
1542	 0.429014061894613 
1543	 0.429230710078295 
1544	 0.429466011910855 
1545	 0.42971686469458 
1546	 0.430000250913479 
1547	 0.430317997651895 
1548	 0.430639761072595 
1549	 0.430986289063331 
1550	 0.431339677587346 
1551	 0.431702374182381 
1552	 0.432075786266745 
1553	 0.432458142115412 
1554	 0.432865054453027 
1555	 0.43330562107898 
1556	 0.433715234216669 
1557	 0.434133717434971 
1558	 0.434543578244042 
1559	 0.434926253891606 
1560	 0.435323327090111 
1561	 0.43574263016187 
1562	 0.436136529777356 
1563	 0.436519503579049 
1564	 0.436891552318959 
1565	 0.437258226280869 
1566	 0.437603436612268 
1567	 0.437919118632829 
1568	 0.438251015772053 
1569	 0.438577300585259 
1570	 0.438899548289709 
1571	 0.439238450655001 
1572	 0.439549367321186 
1573	 0.439842858164842 
1574	 0.440124062706761 
1575	 0.440389605068648 
1576	 0.440646598252159 
1577	 0.440879778662164 
1578	 0.441124202988182 
1579	 0.441356512463879 
1580	 0.441607397973318 
1581	 0.441879574565685 
1582	 0.442135255968183 
1583	 0.442398513996803 
1584	 0.442647120597872 
1585	 0.442869645585386 
1586	 0.443111540722409 
1587	 0.443368986565551 
1588	 0.443604015478637 
1589	 0.443821510050439 
1590	 0.444061986006675 
1591	 0.444300786745424 
1592	 0.444541435764729 
1593	 0.444811267133452 
1594	 0.445061837221069 
1595	 0.445298220796493 
1596	 0.445527934137874 
1597	 0.445748554502537 
1598	 0.44597278175548 
1599	 0.446188226791297 
1600	 0.446405303099868 
1601	 0.446631271666301 
1602	 0.446849908954022 
1603	 0.447060525219878 
1604	 0.447269371736068 
1605	 0.447488842900534 
1606	 0.447681604567709 
1607	 0.447854600693727 
1608	 0.448030483105756 
1609	 0.448184154777847 
1610	 0.448347248134347 
1611	 0.448527294586483 
1612	 0.448687100972643 
1613	 0.448841918382568 
1614	 0.448983705464036 
1615	 0.449112591460742 
1616	 0.449229504212341 
1617	 0.449331803981339 
1618	 0.449429137487787 
1619	 0.44950963967236 
1620	 0.449590843383488 
1621	 0.44967429163768 
1622	 0.449743817038465 
1623	 0.449817944067923 
1624	 0.449863339157425 
1625	 0.449858240189762 
1626	 0.449896654955098 
1627	 0.449934819185813 
1628	 0.449980471110551 
1629	 0.450085687079913 
1630	 0.450137207005585 
1631	 0.450129251139531 
1632	 0.450173790195191 
1633	 0.450216681809475 
1634	 0.450272861354622 
1635	 0.45038014650084 
1636	 0.450462215290317 
1637	 0.450541877584932 
1638	 0.450606215732903 
1639	 0.450662374929965 
1640	 0.4507092022373 
1641	 0.450736517118298 
1642	 0.450759673860024 
1643	 0.450784128439778 
1644	 0.450788872825858 
1645	 0.45078597007182 
1646	 0.450761775928209 
1647	 0.450706723783732 
1648	 0.450656505893541 
1649	 0.450591486583247 
1650	 0.450528994479099 
1651	 0.450490740389731 
1652	 0.450406772010418 
1653	 0.450297798129823 
1654	 0.450173867420557 
1655	 0.45001509150637 
1656	 0.449850823797507 
1657	 0.449683119800597 
1658	 0.449489673472416 
1659	 0.449279550889077 
1660	 0.44904843373287 
1661	 0.448808118959264 
1662	 0.448524761070549 
1663	 0.44819327184821 
1664	 0.447856130689285 
1665	 0.447528362126223 
1666	 0.447107843874733 
1667	 0.446662419019646 
1668	 0.446147427609158 
1669	 0.445530827718487 
1670	 0.444888667490632 
1671	 0.444219808902549 
1672	 0.443467654784945 
1673	 0.442642611084813 
1674	 0.441771362475148 
1675	 0.440829679522864 
1676	 0.439878642990744 
1677	 0.438902310313971 
1678	 0.437863055569638 
1679	 0.436772090700663 
1680	 0.435633488623215 
1681	 0.434440898778314 
1682	 0.433200301477487 
1683	 0.431920993703804 
1684	 0.430605327497489 
1685	 0.429236709701443 
1686	 0.427815067392416 
1687	 0.426343920531684 
1688	 0.424826461519888 
1689	 0.423249673123752 
1690	 0.421630075690047 
1691	 0.419967678970549 
1692	 0.418307098852038 
1693	 0.416620502594911 
1694	 0.414889235413641 
1695	 0.41313396241439 
1696	 0.411313394253149 
1697	 0.409404693941983 
1698	 0.407503116409192 
1699	 0.405588233669677 
1700	 0.403701892279038 
1701	 0.401797639012331 
1702	 0.3999268379017 
1703	 0.398022127679855 
1704	 0.396222925985143 
1705	 0.394432813456154 
1706	 0.392772171361507 
1707	 0.391330079575969 
1708	 0.389926336794175 
1709	 0.388651633531851 
1710	 0.387466893483823 
1711	 0.386253871704581 
1712	 0.38519073151466 
1713	 0.384188310728176 
1714	 0.383221874482573 
1715	 0.382355410653596 
1716	 0.381482663254691 
1717	 0.380610058738005 
1718	 0.379756994630397 
1719	 0.378937408406873 
1720	 0.378164676245149 
1721	 0.377454739116712 
1722	 0.376809800171733 
1723	 0.376270599083763 
1724	 0.37583558507524 
1725	 0.375478816640613 
1726	 0.375266542769089 
1727	 0.375183099055388 
1728	 0.375221435774044 
1729	 0.375442919621597 
1730	 0.375819199841182 
1731	 0.376282659911815 
1732	 0.376897571886445 
1733	 0.37760034136177 
1734	 0.378353153884078 
1735	 0.379168230929564 
1736	 0.379914742308825 
1737	 0.380578769146546 
1738	 0.381214263876669 
1739	 0.381695626078331 
1740	 0.38212252753066 
1741	 0.382382963314075 
1742	 0.382434480559666 
1743	 0.38245334351811 
1744	 0.382318690086955 
1745	 0.382217342823508 
1746	 0.382070175332638 
1747	 0.38193993941716 
1748	 0.381789430310574 
1749	 0.38166242395551 
1750	 0.381507376084843 
1751	 0.381424329877163 
1752	 0.381365329632058 
1753	 0.381407965270694 
1754	 0.381506398337632 
1755	 0.381718387067923 
1756	 0.382013885561687 
1757	 0.382425633815573 
1758	 0.382943242098373 
1759	 0.383508782552924 
1760	 0.384183348229417 
1761	 0.384929723590742 
1762	 0.385692385391814 
1763	 0.386614408281552 
1764	 0.38761884460523 
1765	 0.388680262468017 
1766	 0.389867164570805 
1767	 0.391087959983212 
1768	 0.392380488813817 
1769	 0.393689956309425 
1770	 0.394940351220374 
1771	 0.396167611007194 
1772	 0.397295164494183 
1773	 0.398382975127291 
1774	 0.399480255340283 
1775	 0.400443132849985 
1776	 0.401356872787371 
1777	 0.402214541172211 
1778	 0.40293405466876 
1779	 0.403658642805642 
1780	 0.404379524603247 
1781	 0.405067782809732 
1782	 0.405766690771722 
1783	 0.406421380933963 
1784	 0.407007149063284 
1785	 0.407499757392768 
1786	 0.408006873406377 
1787	 0.408500255200322 
1788	 0.40895074557153 
1789	 0.409372615472071 
1790	 0.409773750798736 
1791	 0.410134061852894 
1792	 0.410511001509668 
1793	 0.410872651670154 
1794	 0.411206634940083 
1795	 0.411545506139393 
1796	 0.41185594456447 
1797	 0.412255388160191 
1798	 0.412645851634626 
1799	 0.412997491951468 
1800	 0.413413464298959 
1801	 0.420915315446652 
1802	 0.42122344180127 
1803	 0.421563361581046 
1804	 0.421916994638796 
1805	 0.42233677352374 
1806	 0.422695997370242 
1807	 0.42306768775474 
1808	 0.423405870402191 
1809	 0.423711502643035 
1810	 0.42400517200383 
1811	 0.424270485579937 
1812	 0.424555516721733 
1813	 0.424822535636345 
1814	 0.425112757221415 
1815	 0.425444417425324 
1816	 0.425736122303212 
1817	 0.426002844868116 
1818	 0.426212478113405 
1819	 0.426502008862904 
1820	 0.426787807156071 
1821	 0.427102171187323 
1822	 0.427479611605765 
1823	 0.42785582438357 
1824	 0.428197237814425 
1825	 0.428559542102884 
1826	 0.428887283873783 
1827	 0.429188252222758 
1828	 0.429503112932757 
1829	 0.429812044456194 
1830	 0.430114460050426 
1831	 0.43040143754491 
1832	 0.430751628308301 
1833	 0.431035099640485 
1834	 0.43128813913651 
1835	 0.43160086739554 
1836	 0.431837924600357 
1837	 0.432096484444523 
1838	 0.432364044683317 
1839	 0.432630877610258 
1840	 0.432873986859886 
1841	 0.433153624375797 
1842	 0.433481927843746 
1843	 0.433765045404669 
1844	 0.433998528137444 
1845	 0.434238714622271 
1846	 0.43445655229535 
1847	 0.434604097627223 
1848	 0.434775573794063 
1849	 0.434984323043045 
1850	 0.43512659189362 
1851	 0.435231367973417 
1852	 0.435331634969239 
1853	 0.435400072031921 
1854	 0.43539072714673 
1855	 0.435332654154534 
1856	 0.435238445871716 
1857	 0.435111583807574 
1858	 0.4349435374785 
1859	 0.434764703776761 
1860	 0.434601011788498 
1861	 0.434360159648161 
1862	 0.434081897073814 
1863	 0.433757814521738 
1864	 0.433363087056356 
1865	 0.432903128513584 
1866	 0.4323959333509 
1867	 0.431829171311858 
1868	 0.431233639654829 
1869	 0.430596325667275 
1870	 0.429920190734805 
1871	 0.429208781123568 
1872	 0.428474557692884 
1873	 0.427709700425164 
1874	 0.42690670653647 
1875	 0.426089269723794 
1876	 0.425178488258639 
1877	 0.424226756107138 
1878	 0.42315450854351 
1879	 0.421979166366579 
1880	 0.420815356421997 
1881	 0.419542990900725 
1882	 0.418162972002922 
1883	 0.416776817142128 
1884	 0.415294061379091 
1885	 0.413596065987478 
1886	 0.411897266260363 
1887	 0.410048262323122 
1888	 0.408039902652579 
1889	 0.40612907293949 
1890	 0.40412104290632 
1891	 0.402092546155062 
1892	 0.400076484488884 
1893	 0.397953891738711 
1894	 0.395717157793949 
1895	 0.393522620249976 
1896	 0.391251671561339 
1897	 0.388965220925319 
1898	 0.386882886104343 
1899	 0.384697284467184 
1900	 0.382586117240264 
1901	 0.380599526327799 
1902	 0.378485101576066 
1903	 0.376515735353617 
1904	 0.374594451268545 
1905	 0.372700134351998 
1906	 0.370850833648924 
1907	 0.369237265046196 
1908	 0.367611051749397 
1909	 0.366061701630885 
1910	 0.364615472265109 
1911	 0.363082511894038 
1912	 0.361635233070022 
1913	 0.360235460974929 
1914	 0.358849593964652 
1915	 0.357564833696455 
1916	 0.356390662165271 
1917	 0.355203715726405 
1918	 0.354073163776072 
1919	 0.352995339075269 
1920	 0.351833416106341 
1921	 0.350759573933156 
1922	 0.349678093924687 
1923	 0.348549843031608 
1924	 0.347559332333668 
1925	 0.346522604465223 
1926	 0.345509562087585 
1927	 0.344544174050566 
1928	 0.343571040607271 
1929	 0.34255383312255 
1930	 0.341637844728219 
1931	 0.340758075920428 
1932	 0.339908598610367 
1933	 0.339214955166825 
1934	 0.33854559796908 
1935	 0.337937263425439 
1936	 0.337429424015139 
1937	 0.336987761055268 
1938	 0.336588506238711 
1939	 0.336315949503141 
1940	 0.336144220173502 
1941	 0.336053703385009 
1942	 0.336036067301702 
1943	 0.336123765578189 
1944	 0.336253553825809 
1945	 0.336416600627256 
1946	 0.336676710635307 
1947	 0.336964882819117 
1948	 0.337322715702118 
1949	 0.337795390220445 
1950	 0.338337738144624 
1951	 0.338970537592457 
1952	 0.339676586393779 
1953	 0.340467583051999 
1954	 0.341306002743459 
1955	 0.342260515191262 
1956	 0.343229878196715 
1957	 0.344245835813281 
1958	 0.345339612688931 
1959	 0.34633119746895 
1960	 0.34728125113925 
1961	 0.348166043912108 
1962	 0.34896652463586 
1963	 0.349732593892303 
1964	 0.350467035228123 
1965	 0.351114622481595 
1966	 0.351688731460873 
1967	 0.352246683956207 
1968	 0.352698443543198 
1969	 0.353138719330912 
1970	 0.353570522488094 
1971	 0.353947879496039 
1972	 0.354346125930524 
1973	 0.354767611350046 
1974	 0.355231516420492 
1975	 0.355740943756834 
1976	 0.356246481331735 
1977	 0.356793315952831 
1978	 0.357339494670657 
1979	 0.357874643374246 
1980	 0.358428747450826 
1981	 0.359064478246368 
1982	 0.359643440499931 
1983	 0.360278039252284 
1984	 0.360929156786753 
1985	 0.361519912430205 
1986	 0.362185969180701 
1987	 0.362892447275499 
1988	 0.363598248535089 
1989	 0.364405008335748 
1990	 0.365247548546213 
1991	 0.366202791739485 
1992	 0.367254278371018 
1993	 0.368402687817668 
1994	 0.369537150836011 
1995	 0.370814808969422 
1996	 0.372071321070999 
1997	 0.373279803113048 
1998	 0.374563547324088 
1999	 0.375933497734091 
2000	 0.377219485160749 
2001	 0.378562194981418 
2002	 0.379779608424723 
2003	 0.380926774670926 
2004	 0.382039457138275 
2005	 0.383078656176513 
2006	 0.384072593010367 
2007	 0.385041113528017 
2008	 0.385929634185474 
2009	 0.386766259351787 
2010	 0.387570141972009 
2011	 0.388298142894534 
2012	 0.388979112949935 
2013	 0.389609920149757 
2014	 0.390167822691511 
2015	 0.390703075621817 
2016	 0.39119966677665 
2017	 0.391649497128998 
2018	 0.39206151509601 
2019	 0.392422433926097 
2020	 0.392720470389289 
2021	 0.3930086608823 
2022	 0.39325371300481 
2023	 0.393436253507891 
2024	 0.393560076330246 
2025	 0.393654760527184 
2026	 0.393714253792202 
2027	 0.393703729163507 
2028	 0.393706525800688 
2029	 0.393706939968408 
2030	 0.39365722705545 
2031	 0.393556681549432 
2032	 0.393475361037817 
2033	 0.393358894078041 
2034	 0.393256036626374 
2035	 0.393153032098828 
2036	 0.393081183813957 
2037	 0.393004149133487 
2038	 0.39288582612468 
2039	 0.392788338017387 
2040	 0.392699769161897 
2041	 0.392602491506401 
2042	 0.392514847369329 
2043	 0.392405617172862 
2044	 0.392266797972947 
2045	 0.392157927837732 
2046	 0.392034022943371 
2047	 0.391937898771188 
2048	 0.39187887122505 
2049	 0.391818097363317 
2050	 0.391766083978199 
2051	 0.39171501552701 
2052	 0.391666444671031 
2053	 0.391647903962039 
2054	 0.391598034833233 
2055	 0.391536982840652 
2056	 0.391473806483553 
2057	 0.391407734311852 
2058	 0.391318019554855 
2059	 0.391192229468344 
2060	 0.391117610151204 
2061	 0.391046721181138 
2062	 0.390983560066678 
2063	 0.390975029741633 
2064	 0.390935082321677 
2065	 0.390884629621597 
2066	 0.390801856491209 
2067	 0.390736015334785 
2068	 0.39069600551878 
2069	 0.390648523416385 
2070	 0.390606259578254 
2071	 0.390570857609587 
2072	 0.390544839271457 
2073	 0.390502065196989 
2074	 0.390467681306372 
2075	 0.39040957767003 
2076	 0.390348034581692 
2077	 0.390255865833671 
2078	 0.39011996739289 
2079	 0.390006997647573 
2080	 0.389876159774659 
2081	 0.389752389429464 
2082	 0.389640128899822 
2083	 0.389552746022421 
2084	 0.389416087554155 
2085	 0.389273244141859 
2086	 0.389120454525679 
2087	 0.38894483807841 
2088	 0.388777028525589 
2089	 0.388598636116395 
2090	 0.388435437273086 
2091	 0.388297099153647 
2092	 0.388114110557439 
2093	 0.387906748653038 
2094	 0.387720502676712 
2095	 0.387542883393421 
2096	 0.387321736834031 
2097	 0.387122153331837 
2098	 0.386861962681649 
2099	 0.386531455584692 
2100	 0.386205741827606 
2101	 0.385912610188015 
2102	 0.385637548880771 
2103	 0.385341424619744 
2104	 0.385054518151756 
2105	 0.384756210033605 
2106	 0.384446198668893 
2107	 0.384120372513194 
2108	 0.383819751131815 
2109	 0.38345413818236 
2110	 0.383033534533167 
2111	 0.382616078693496 
2112	 0.382141819329245 
2113	 0.381700867977158 
2114	 0.38128364801086 
2115	 0.380842133696604 
2116	 0.380392811998598 
2117	 0.379959069472718 
2118	 0.379494371353821 
2119	 0.378999946165091 
2120	 0.378517828486477 
2121	 0.378021987836707 
2122	 0.377545753946483 
2123	 0.377070782037169 
2124	 0.376605819410286 
2125	 0.376147908859739 
2126	 0.375705753525251 
2127	 0.375276665964019 
2128	 0.37485557251908 
2129	 0.374446462603213 
2130	 0.374047180282816 
2131	 0.373629091721507 
2132	 0.373264649741648 
2133	 0.37293226860536 
2134	 0.372636165527561 
2135	 0.372353199611567 
2136	 0.372067783632387 
2137	 0.371758107091028 
2138	 0.371417603673459 
2139	 0.371104871709845 
2140	 0.370784359733987 
2141	 0.370493258975353 
2142	 0.370228642158146 
2143	 0.369955909458007 
2144	 0.369687830896449 
2145	 0.369437532490273 
2146	 0.369183526676765 
2147	 0.36894939646459 
2148	 0.368750929326592 
2149	 0.368541855720039 
2150	 0.368344866801947 
2151	 0.368143826384689 
2152	 0.367948315508662 
2153	 0.367734379706807 
2154	 0.367551513648985 
2155	 0.367341380623408 
2156	 0.367110077001873 
2157	 0.366869518617527 
2158	 0.366623794714957 
2159	 0.366356822362948 
2160	 0.366073662106804 
2161	 0.365785293240225 
2162	 0.365487504769825 
2163	 0.365152778801947 
2164	 0.364838879144327 
2165	 0.364565412015827 
2166	 0.364226731301101 
2167	 0.36384859153258 
2168	 0.363473112983725 
2169	 0.363021741370539 
2170	 0.362649299700806 
2171	 0.362319917176497 
2172	 0.361992449596241 
2173	 0.361709000450714 
2174	 0.361408887974366 
2175	 0.361142515163332 
2176	 0.360878209096315 
2177	 0.360618323167579 
2178	 0.360387603116439 
2179	 0.360144161850372 
2180	 0.359884308465836 
2181	 0.359647753153231 
2182	 0.359412754150023 
2183	 0.359209303017947 
2184	 0.359015017546495 
2185	 0.358853344992541 
2186	 0.358766067442012 
2187	 0.358609449659901 
2188	 0.358461999587549 
2189	 0.358267224776234 
2190	 0.35801558575605 
2191	 0.357756159282312 
2192	 0.357496059362119 
2193	 0.357185658316295 
2194	 0.356816029881756 
2195	 0.35646047939573 
2196	 0.356110921009282 
2197	 0.355678398262882 
2198	 0.355292305555611 
2199	 0.354873309162512 
2200	 0.354383488323972 
2201	 0.353833496634204 
2202	 0.353286370356075 
2203	 0.352675550181289 
2204	 0.35210093195229 
2205	 0.35151619168014 
2206	 0.350969901114205 
2207	 0.350407158002361 
2208	 0.34992689972662 
2209	 0.349507516032926 
2210	 0.349103242146672 
2211	 0.348742579773777 
2212	 0.34841847551484 
2213	 0.348160008033593 
2214	 0.347864817829226 
2215	 0.347598216281664 
2216	 0.34731372530161 
2217	 0.347014212658624 
2218	 0.346690222888634 
2219	 0.346348058941395 
2220	 0.346022396365148 
2221	 0.345677821616389 
2222	 0.345321586607127 
2223	 0.345061036253838 
2224	 0.344776327748659 
2225	 0.344362109729897 
2226	 0.343992073345121 
2227	 0.343546331767975 
2228	 0.343028196645239 
2229	 0.342451102872657 
2230	 0.341882078451315 
2231	 0.341160116075661 
2232	 0.340327263164436 
2233	 0.339403793719047 
2234	 0.338418843330606 
2235	 0.337250840596241 
2236	 0.335954666992513 
2237	 0.334531082014392 
2238	 0.332891119343343 
2239	 0.331243253508843 
2240	 0.329506823648837 
2241	 0.32767711952922 
2242	 0.325904806387908 
2243	 0.323814602350507 
2244	 0.32143188604098 
2245	 0.319067878607807 
2246	 0.31640935496036 
2247	 0.313855881453774 
2248	 0.311345975540626 
2249	 0.308818648154089 
2250	 0.306257046705552 
2251	 0.303769955618683 
2252	 0.301126704273868 
2253	 0.298600810275916 
2254	 0.296061573115455 
2255	 0.293480798433929 
2256	 0.291204530170297 
2257	 0.288923928240715 
2258	 0.286682722112794 
2259	 0.284606771362955 
2260	 0.282348060750459 
2261	 0.280012641177453 
2262	 0.277727357370665 
2263	 0.275322536097521 
2264	 0.273090574189372 
2265	 0.270927450051137 
2266	 0.268845357574728 
2267	 0.266871981380848 
2268	 0.264937413917679 
2269	 0.263029478840269 
2270	 0.261302991158597 
2271	 0.25963597042031 
2272	 0.258162916681269 
2273	 0.256971601737325 
2274	 0.255706776999438 
2275	 0.254605133407627 
2276	 0.253399167871484 
2277	 0.252161051835046 
2278	 0.250907279413793 
2279	 0.249616921310842 
2280	 0.248299601051143 
2281	 0.247035742183517 
2282	 0.245603798226441 
2283	 0.24410716589413 
2284	 0.242485665663828 
2285	 0.240672804150171 
2286	 0.238868556763855 
2287	 0.237038747044004 
2288	 0.235161633768771 
2289	 0.233337569289157 
2290	 0.231391793378552 
2291	 0.229424572792082 
2292	 0.227551453793378 
2293	 0.225619377132354 
2294	 0.223753348227457 
2295	 0.221899308063615 
2296	 0.220047658290128 
2297	 0.218505194537915 
2298	 0.217096652742536 
2299	 0.215935800952435 
2300	 0.215065014269823 
2301	 0.214346939475544 
2302	 0.213763173251963 
2303	 0.213506446807343 
2304	 0.21354091074241 
2305	 0.213770673649407 
2306	 0.214316164811887 
2307	 0.214964317869139 
2308	 0.215791266362113 
2309	 0.216795149286394 
2310	 0.218002492947116 
2311	 0.219355764731544 
2312	 0.221041916426739 
2313	 0.222610437043075 
2314	 0.224250811216313 
2315	 0.225903087497972 
2316	 0.227561051920119 
2317	 0.229183369332149 
2318	 0.23100913128056 
2319	 0.232465545504732 
2320	 0.233780503240338 
2321	 0.234867717345536 
2322	 0.235619749162447 
2323	 0.236351996678141 
2324	 0.236990729354094 
2325	 0.237441973671581 
2326	 0.237779766852712 
2327	 0.237923623939798 
2328	 0.237783617243164 
2329	 0.237588923756147 
2330	 0.237272646983761 
2331	 0.236827931080421 
2332	 0.236247093676991 
2333	 0.235542261066947 
2334	 0.234537074056315 
2335	 0.233358797368996 
2336	 0.232136433030456 
2337	 0.230900367527789 
2338	 0.229758047540055 
2339	 0.228591153991824 
2340	 0.227364523410779 
2341	 0.226116186522456 
2342	 0.224796831758867 
2343	 0.223548807332366 
2344	 0.222611446788949 
2345	 0.22193824364821 
2346	 0.22147379271486 
2347	 0.22140926732797 
2348	 0.221473757111041 
2349	 0.221709091114854 
2350	 0.222350107574026 
2351	 0.223184803950812 
2352	 0.224201703758996 
2353	 0.225333846861392 
2354	 0.226367256321324 
2355	 0.227390560142761 
2356	 0.228344410781734 
2357	 0.229190496621541 
2358	 0.229992147585315 
2359	 0.230674116974442 
2360	 0.231241439624969 
2361	 0.231599079404468 
2362	 0.231719106957732 
2363	 0.231687325273982 
2364	 0.231518380174895 
2365	 0.231288231629468 
2366	 0.23121196043503 
2367	 0.231198450005833 
2368	 0.23109017682536 
2369	 0.230933722473085 
2370	 0.230644517418407 
2371	 0.230371729095217 
2372	 0.230348005999064 
2373	 0.230367287326119 
2374	 0.230342079833472 
2375	 0.230334045421649 
2376	 0.230248391145531 
2377	 0.230127193425259 
2378	 0.23000641352646 
2379	 0.22985724883291 
2380	 0.229704200291985 
2381	 0.229571372445162 
2382	 0.22950625538884 
2383	 0.229606547527049 
2384	 0.229605568405149 
2385	 0.22960040122995 
2386	 0.229492325845748 
2387	 0.229220332741397 
2388	 0.229098966577283 
2389	 0.229043622196876 
2390	 0.228922956504721 
2391	 0.228883062600027 
2392	 0.228853705213233 
2393	 0.228718070189192 
2394	 0.228595043309683 
2395	 0.228587573235193 
2396	 0.228488512504074 
2397	 0.228254544635589 
2398	 0.228118229617692 
2399	 0.22799919703947 
2400	 0.227869946959377 
2401	 0.227759833933983 
2402	 0.227839058862064 
2403	 0.227793225265879 
2404	 0.227820716348122 
2405	 0.227894821820701 
2406	 0.227710566111715 
2407	 0.227598114874209 
2408	 0.227588423074726 
2409	 0.227410430535998 
2410	 0.227342102054079 
2411	 0.227438370372138 
2412	 0.227367000199489 
2413	 0.227242007808212 
2414	 0.227449030564206 
2415	 0.227632346818538 
2416	 0.227558269078705 
2417	 0.227549148264016 
2418	 0.227416155757386 
2419	 0.227205833026731 
2420	 0.227245632914889 
2421	 0.227376822085985 
2422	 0.227680942963928 
2423	 0.227962778737369 
2424	 0.227811094823748 
2425	 0.227825489370759 
2426	 0.227780024337293 
2427	 0.227436271329659 
2428	 0.22756458123298 
2429	 0.227801964414325 
2430	 0.227776606378645 
2431	 0.227800437006157 
2432	 0.227965573421988 
2433	 0.227945815161987 
2434	 0.227813664314641 
2435	 0.227817851039648 
2436	 0.227812634750261 
2437	 0.227855645723144 
2438	 0.227957217701375 
2439	 0.228031720294051 
2440	 0.22783334183298 
2441	 0.227386951578936 
2442	 0.226991967531523 
2443	 0.226768744806993 
2444	 0.22673750143179 
2445	 0.226845682794227 
2446	 0.227022843471808 
2447	 0.227005039611743 
2448	 0.226782965349888 
2449	 0.226558154548028 
2450	 0.226458908736153 
2451	 0.226562088182181 
2452	 0.226385983954136 
2453	 0.225892572532528 
2454	 0.225467549069399 
2455	 0.224793423738443 
2456	 0.224245045091743 
2457	 0.224290959211325 
2458	 0.224124861385612 
2459	 0.223798482159389 
2460	 0.223540187124847 
2461	 0.222930648200883 
2462	 0.222536149631549 
2463	 0.222262801360847 
2464	 0.221854657527631 
2465	 0.221804452337235 
2466	 0.221619915978925 
2467	 0.22096899612832 
2468	 0.220401144439807 
2469	 0.219874243054612 
2470	 0.21955756924826 
2471	 0.219438822482469 
2472	 0.219191684471623 
2473	 0.219254420710792 
2474	 0.218910665720737 
2475	 0.218443556513851 
2476	 0.218876145072537 
2477	 0.218984936598423 
2478	 0.218701414120248 
2479	 0.21892185430404 
2480	 0.218083927502066 
2481	 0.218029000935435 
2482	 0.218609630514886 
2483	 0.21877070296561 
2484	 0.219401214351177 
2485	 0.219927376648565 
2486	 0.220136427691902 
2487	 0.220242230917108 
2488	 0.220355387583821 
2489	 0.220263034219028 
2490	 0.220373659158385 
2491	 0.22071959019511 
2492	 0.220873597131313 
2493	 0.220936478898711 
2494	 0.220980118018285 
2495	 0.220908111957022 
2496	 0.22086703089847 
2497	 0.221541494422727 
2498	 0.222336141379234 
2499	 0.223092492265604 
2500	 0.223544954784175 
